EDA
29383
29381
29376
29374
29379
29369
29367
29375
29366
29367
29367
29364
29368
29369
29367
29369
29373
29365
29369
29363
29359
29362
29359
29350
29351
29351
29356
29349
29349
29355
29351
29348
29350
29355
29353
29351
29343
29353
29350
29348
29342
29334
29332
29338
29335
29324
29324
29330
29327
29327
29329
29325
29322
29329
29329
29325
29327
29327
29324
29319
29318
29318
29313
29319
29318
29303
29309
29306
29299
29311
29297
29303
29315
29306
29318
29310
29311
29311
29306
29299
29303
29297
29295
29293
29285
29295
29284
29287
29285
29287
29289
29284
29287
29284
29287
29291
29287
29281
29279
29275
29275
29271
29271
29263
29267
29255
29263
29268
29266
29262
29260
29262
29267
29274
29263
29260
29269
29255
29263
29259
29255
29252
29242
29251
29244
29241
29241
29244
29245
29239
29250
29243
29243
29239
29246
29239
29247
29247
29242
29242
29228
29220
29221
29229
29216
29221
29215
29219
29221
29207
29217
29215
29217
29220
29221
29220
29223
29220
29215
29215
29212
29207
29205
29202
29191
29205
29198
29191
29191
29191
29191
29186
29191
29191
29191
29203
29191
29191
29191
29188
29184
29175
29181
29172
29172
29170
29169
29164
29167
29170
29167
29172
29164
29179
29169
29175
29167
29163
29165
29167
29161
29161
29159
29154
29146
29144
29151
29149
29143
29149
29140
29146
29148
29147
29143
29150
29151
29145
29145
29146
29140
29138
29129
29125
29122
29125
29125
29127
29125
29118
29118
29124
29120
29124
29124
29126
29124
29127
29118
29116
29109
29113
29111
29109
29103
29103
29098
29102
29095
29093
29097
29101
29100
29108
29101
29103
29103
29097
29097
29091
29087
29090
29082
29083
29073
29077
29070
29072
29068
29066
29070
29069
29066
29073
29073
29075
29073
29075
29063
29071
29068
29054
29060
29053
29057
29043
29045
29039
29046
29039
29049
29033
29047
29043
29050
29047
29053
29053
29040
29045
29040
29031
29029
29029
29023
29018
29020
29018
29013
29020
29019
29018
29014
29030
29021
29020
29018
29019
29019
29006
29012
29012
29011
29006
28999
28999
28997
28991
28989
28994
28994
28990
28993
28988
28996
28994
28997
28988
28991
28989
28976
28980
28973
28973
28965
28967
28967
28967
28967
28964
28962
28961
28967
28967
28969
28959
28967
28965
28966
28967
28959
28953
28951
28943
28949
28949
28942
28943
28935
28941
28935
28935
28949
28943
28943
28943
28940
28947
28935
28934
28929
28924
28922
28916
28919
28914
28916
28911
28919
28911
28922
28904
28909
28914
28914
28913
28919
28919
28916
28911
28904
28902
28900
28900
28888
28890
28895
28894
28881
28892
28887
28890
28889
28892
28892
28895
28887
28887
28891
28885
28889
28875
28870
28866
28870
28871
28860
28863
28863
28860
28862
28860
28869
28869
28861
28866
28865
28860
28860
28859
28859
28846
28851
28847
28841
28841
28836
28838
28839
28836
28831
28834
28839
28836
28839
28841
28839
28839
28834
28830
28828
28822
28827
28823
28823
28815
28820
28819
28817
28812
28807
28807
28811
28812
28811
28813
28807
28807
28811
28825
28796
28803
28788
28796
28795
28785
28780
28791
28799
28780
28788
28783
28788
28790
28807
28787
28791
28810
28791
28797
28782
28781
28789
28778
28780
28774
28775
28780
28773
28772
28775
28770
28771
28769
28775
28773
28775
28772
28767
28772
28758
28750
28756
28752
28743
28741
28750
28749
28743
28732
28743
28742
28743
28743
28743
28740
28742
28742
28735
28734
28719
28725
28719
28717
28718
28711
28711
28709
28711
28704
28709
28715
28716
28711
28717
28711
28711
28711
28703
28709
28701
28694
28695
28684
28686
28687
28687
28689
28679
28679
28676
28679
28677
28676
28679
28679
28679
28679
28676
28673
28671
28665
28666
28660
28645
28652
28650
28653
28649
28645
28650
28652
28652
28651
28657
28650
28652
28654
28652
28647
28641
28644
28639
28628
28627
28626
28623
28629
28623
28618
28626
28621
28619
28620
28623
28620
28623
28622
28612
28615
28610
28606
28607
28604
28595
28590
28593
28591
28591
28591
28591
28593
28587
28595
28594
28594
28591
28588
28588
28590
28580
28582
28575
28575
28574
28561
28565
28564
28562
28561
28561
28557
28562
28562
28559
28569
28550
28560
28561
28561
28550
28544
28549
28549
28539
28535
28532
28532
28532
28531
28532
28535
28541
28537
28536
28530
28530
28542
28529
28520
28532
28519
28524
28513
28515
28506
28502
28505
28508
28501
28505
28510
28503
28511
28508
28505
28511
28508
28503
28503
28494
28487
28492
28487
28484
28479
28474
28484
28487
28482
28472
28476
28479
28481
28487
28479
28476
28477
28470
28474
28466
28461
28463
28447
28462
28455
28452
28454
28455
28447
28448
28452
28453
28452
28448
28445
28453
28447
28444
28445
28445
28438
28436
28431
28428
28408
28421
28433
28419
28422
28423
28423
28418
28420
28419
28423
28420
28423
28411
28415
28415
28415
28398
28399
28404
28403
28396
28393
28395
28386
28396
28393
28389
28396
28389
28396
28395
28398
28398
28395
28391
28388
28375
28374
28367
28371
28371
28363
28364
28365
28363
28363
28359
28369
28367
28359
28363
28364
28356
28358
28362
28345
28343
28349
28343
28340
28342
28328
28332
28335
28332
28343
28337
28336
28340
28339
28327
28332
28333
28331
28326
28324
28318
28317
28314
28311
28309
28310
28303
28304
28306
28302
28303
28309
28311
28311
28303
28305
28311
28300
28300
28295
28289
28286
28287
28279
28284
28286
28271
28279
28275
28277
28278
28279
28281
28276
28279
28279
28272
28269
28268
28264
28262
28262
28246
28255
28252
28252
28252
28242
28239
28244
28247
28250
28247
28246
28244
28243
28246
28247
28241
28234
28235
28228
28231
28230
28228
28225
28208
28223
28225
28221
28223
28230
28223
28226
28227
28219
28220
28223
28210
28206
28202
28215
28206
28201
28197
28197
28199
28193
28191
28197
28191
28196
28194
28199
28194
28196
28192
28197
28190
28179
28186
28167
28172
28174
28165
28164
28161
28166
28166
28164
28162
28167
28167
28167
28167
28167
28162
28158
28158
28156
28154
28144
28143
28141
28135
28135
28141
28140
28139
28143
28140
28145
28139
28143
28143
28143
28135
28139
28135
28124
28132
28127
28119
28111
28109
28106
28115
28111
28112
28114
28115
28115
28113
28117
28115
28108
28113
28108
28100
28095
28099
28096
28092
28082
28079
28082
28084
28084
28087
28079
28087
28082
28087
28092
28095
28084
28080
28086
28076
28074
28071
28068
28065
28060
28063
28056
28063
28055
28061
28058
28057
28060
28060
28066
28062
28068
28061
28061
28050
28047
28042
28039
28037
28039
28036
28028
28031
28033
28030
28037
28034
28026
28031
28035
28034
28031
28025
28031
28027
28021
28017
28012
28012
28006
28007
28003
28004
28007
28002
28007
28006
28003
28007
28005
28010
28005
28001
28003
27999
27989
27985
27981
27983
27983
27979
27980
27972
27977
27974
27974
27971
27977
27983
27982
27981
27976
27974
27974
27969
27973
27965
27959
27959
27958
27951
27947
27946
27953
27951
27951
27947
27945
27958
27951
27951
27949
27941
27943
27945
27937
27941
27932
27940
27930
27921
27921
27928
27922
27929
27918
27924
27922
27925
27922
27926
27921
27918
27922
27914
27908
27906
27908
27907
27903
27900
27889
27898
27895
27894
27895
27895
27902
27903
27894
27899
27898
27897
27895
27897
27892
27879
27882
27874
27879
27868
27875
27876
27876
27871
27874
27874
27874
27872
27877
27879
27873
27870
27865
27860
27861
27855
27857
27852
27851
27847
27842
27847
27841
27845
27849
27838
27845
27846
27849
27846
27847
27850
27844
27832
27833
27834
27837
27825
27824
27817
27817
27816
27812
27814
27823
27819
27821
27817
27820
27817
27818
27812
27814
27807
27805
27803
27807
27804
27796
27796
27791
27803
27791
27792
27799
27791
27801
27797
27807
27799
27806
27785
27796
27788
27812
27797
27783
27791
27773
27784
27775
27783
27806
27796
27797
27782
27788
27774
27788
27806
27782
27790
27779
27789
27780
27770
27773
27766
27766
27763
27767
27763
27759
27763
27759
27756
27762
27765
27765
27753
27757
27757
27756
27749
27748
27741
27745
27743
27732
27731
27728
27739
27732
27735
27730
27732
27733
27736
27734
27732
27735
27733
27731
27726
27719
27717
27713
27709
27701
27706
27703
27701
27706
27711
27706
27701
27708
27709
27706
27708
27705
27705
27703
27698
27699
27695
27690
27692
27685
27687
27684
27687
27685
27683
27679
27681
27687
27690
27687
27678
27684
27687
27681
27681
27675
27668
27671
27668
27670
27663
27662
27652
27655
27655
27658
27655
27655
27655
27667
27668
27667
27661
27662
27654
27650
27655
27645
27640
27635
27640
27633
27635
27639
27637
27634
27638
27637
27637
27646
27646
27643
27636
27634
27630
27628
27623
27623
27626
27623
27612
27618
27614
27618
27615
27614
27615
27623
27627
27621
27623
27627
27622
27618
27618
27612
27588
27600
27600
27599
27594
27595
27594
27596
27605
27599
27599
27602
27594
27592
27602
27600
27592
27591
27589
27584
27583
27585
27577
27583
27582
27570
27574
27572
27574
27572
27574
27578
27579
27576
27578
27581
27580
27575
27567
27570
27561
27556
27566
27556
27552
27548
27551
27556
27552
27552
27556
27557
27558
27558
27559
27552
27556
27546
27559
27551
27548
27538
27533
27542
27533
27531
27532
27535
27534
27535
27532
27535
27530
27530
27540
27537
27535
27530
27527
27519
27527
27519
27512
27512
27515
27514
27512
27509
27513
27518
27512
27517
27518
27519
27508
27519
27513
27516
27514
27503
27502
27499
27499
27492
27492
27491
27491
27493
27485
27491
27488
27495
27493
27495
27493
27492
27495
27489
27487
27484
27476
27479
27473
27475
27464
27479
27461
27466
27464
27466
27468
27472
27469
27470
27476
27470
27470
27468
27462
27463
27455
27450
27446
27445
27447
27447
27444
27446
27441
27444
27444
27444
27448
27449
27443
27444
27447
27447
27439
27436
27436
27426
27426
27429
27423
27420
27421
27422
27423
27423
27427
27428
27429
27429
27431
27428
27423
27420
27414
27415
27414
27402
27409
27408
27399
27397
27397
27396
27396
27389
27398
27391
27407
27407
27412
27399
27399
27399
27399
27392
27380
27383
27374
27376
27370
27373
27383
27379
27369
27374
27374
27375
27374
27375
27377
27376
27386
27375
27375
27364
27367
27365
27354
27356
27362
27361
27348
27348
27359
27349
27356
27359
27354
27352
27359
27358
27335
27359
27355
27348
27342
27335
27341
27332
27334
27333
27335
27327
27333
27330
27335
27339
27335
27336
27337
27335
27335
27332
27328
27325
27321
27310
27313
27307
27314
27316
27307
27311
27308
27311
27313
27317
27313
27317
27313
27309
27317
27313
27309
27308
27298
27299
27299
27292
27293
27290
27293
27288
27293
27293
27300
27295
27295
27299
27293
27301
27297
27292
27287
27281
27277
27278
27270
27271
27268
27271
27267
27269
27267
27271
27272
27271
27270
27274
27271
27270
27271
27265
27263
27260
27260
27258
27253
27255
27246
27240
27245
27247
27252
27251
27243
27243
27247
27260
27249
27255
27247
27240
27245
27241
27234
27234
27232
27229
27228
27221
27231
27229
27228
27229
27231
27223
27228
27233
27232
27228
27228
27224
27229
27219
27223
27221
27215
27210
27210
27204
27207
27203
27205
27204
27208
27210
27210
27212
27214
27213
27210
27204
27205
27193
27197
27192
27193
27193
27195
27183
27183
27188
27184
27190
27182
27192
27190
27188
27189
27188
27194
27196
27185
27176
27176
27174
27173
27174
27172
27169
27172
27165
27167
27165
27168
27169
27175
27174
27176
27169
27172
27156
27162
27168
27156
27153
27153
27153
27141
27146
27142
27143
27143
27151
27150
27143
27156
27143
27150
27150
27148
27143
27140
27140
27135
27138
27131
27124
27126
27122
27128
27129
27121
27124
27124
27128
27125
27132
27134
27126
27130
27127
27127
27124
27119
27115
27109
27108
27111
27104
27102
27100
27105
27109
27113
27111
27100
27108
27105
27113
27119
27104
27098
27102
27101
27096
27092
27089
27089
27084
27088
27080
27082
27079
27085
27091
27086
27093
27087
27093
27086
27093
27089
27079
27077
27076
27068
27075
27066
27068
27065
27066
27067
27070
27071
27069
27074
27078
27072
27079
27070
27071
27065
27061
27053
27050
27048
27054
27044
27047
27044
27043
27049
27045
27046
27047
27054
27052
27055
27053
27053
27048
27051
27047
27043
27034
27033
27034
27039
27033
27035
27028
27029
27028
27031
27032
27036
27031
27039
27039
27034
27031
27029
27026
27020
27017
27015
27022
27010
27005
27002
27013
27008
27009
27014
27012
27019
27011
27017
27019
27008
27011
27008
27013
27002
27001
27001
26988
27002
26987
27010
27001
26985
27004
26993
27007
27045
27010
27005
26993
27007
27016
26999
27007
26989
27013
27004
26998
26994
26988
26997
26996
26988
26996
26988
27002
26999
26991
26998
26997
26995
26996
26983
26989
26983
26973
26969
26972
26974
26970
26967
26964
26971
26969
26972
26970
26977
26973
26974
26975
26980
26969
26973
26966
26957
26957
26952
26954
26951
26949
26949
26950
26952
26948
26948
26953
26958
26959
26958
26959
26950
26958
26953
26946
26942
26941
26932
26925
26935
26933
26935
26931
26935
26938
26932
26929
26929
26936
26941
26936
26947
26937
26932
26926
26919
26917
26923
26918
26919
26919
26917
26916
26916
26923
26918
26927
26919
26923
26927
26920
26921
26923
26913
26911
26906
26906
26901
26900
26902
26902
26897
26902
26893
26908
26909
26906
26911
26908
26908
26905
26906
26909
26900
26901
26895
26893
26895
26887
26884
26870
26887
26884
26881
26887
26880
26883
26887
26892
26891
26887
26894
26892
26884
26885
26876
26879
26876
26869
26873
26870
26869
26868
26871
26871
26869
26874
26876
26879
26876
26876
26872
26874
26872
26866
26863
26864
26858
26847
26860
26860
26860
26861
26860
26863
26857
26857
26858
26871
26863
26867
26863
26861
26858
26852
26849
26852
26851
26855
26851
26839
26849
26847
26844
26845
26844
26845
26845
26853
26855
26853
26853
26846
26844
26844
26836
26833
26835
26837
26831
26828
26833
26831
26830
26839
26831
26839
26838
26839
26833
26845
26839
26834
26837
26821
26825
26821
26823
26814
26826
26823
26812
26815
26822
26826
26827
26823
26827
26830
26829
26830
26828
26829
26822
26816
26820
26815
26816
26815
26814
26808
26804
26813
26807
26819
26807
26817
26818
26816
26823
26813
26818
26812
26812
26799
26807
26799
26799
26804
26804
26797
26795
26799
26791
26802
26807
26804
26802
26805
26807
26807
26804
26801
26804
26797
26799
26791
26788
26796
26791
26787
26791
26791
26793
26789
26791
26788
26796
26796
26798
26793
26794
26789
26794
26785
26783
26783
26778
26772
26777
26782
26775
26781
26782
26784
26782
26780
26782
26785
26789
26788
26791
26783
26786
26773
26773
26771
26770
26768
26769
26773
26770
26777
26775
26775
26774
26781
26777
26789
26783
26784
26782
26781
26774
26775
26772
26767
26770
26765
26767
26766
26769
26762
26772
26772
26768
26772
26776
26782
26780
26780
26770
26773
26775
26775
26769
26758
26770
26769
26761
26760
26767
26762
26764
26772
26773
26770
26778
26777
26775
26783
26775
26780
26775
26771
26770
26766
26767
26754
26767
26772
26757
26765
26764
26767
26768
26772
26777
26771
26782
26774
26781
26775
26776
26770
26775
26772
26770
26772
26772
26767
26766
26775
26769
26777
26768
26775
26782
26788
26788
26780
26786
26778
26783
26772
26783
26776
26773
26773
26763
26767
26764
26778
26781
26779
26777
26778
26785
26788
26791
26790
26786
26791
26790
26780
26786
26783
26780
26782
26783
26773
26784
26774
26783
26781
26783
26790
26790
26793
26799
26798
26792
26788
26798
26791
26788
26789
26789
26790
26788
26792
26783
26791
26785
26792
26793
26802
26808
26806
26809
26813
26812
26807
26803
26806
26799
26795
26797
26803
26799
26796
26806
26799
26800
26805
26804
26817
26812
26821
26823
26818
26823
26817
26823
26813
26815
26815
26809
26807
26810
26813
26815
26817
26820
26824
26823
26826
26817
26831
26833
26837
26836
26834
26835
26824
26825
26824
26823
26828
26827
26831
26828
26826
26837
26828
26839
26843
26850
26847
26848
26849
26851
26846
26852
26844
26847
26845
26847
26839
26849
26847
26844
26854
26850
26859
26853
26856
26865
26867
26871
26860
26872
26876
26866
26864
26862
26858
26866
26862
26862
26867
26865
26871
26870
26873
26884
26878
26886
26887
26900
26895
26900
26900
26896
26893
26894
26897
26895
26894
26890
26887
26900
26902
26895
26907
26901
26905
26914
26910
26919
26927
26918
26923
26918
26918
26917
26916
26924
26915
26917
26925
26918
26924
26925
26927
26932
26936
26940
26934
26948
26947
26944
26949
26948
26946
26943
26942
26945
26945
26948
26945
26951
26953
26959
26961
26967
26964
26968
26970
26975
26973
26977
26975
26977
26975
26978
26975
26979
26972
26975
26981
26982
26982
26988
26984
26994
26994
26997
27005
27011
27006
27015
27012
27012
27015
27012
27014
27008
27010
27017
27009
27010
27017
27015
27028
27030
27031
27041
27036
27050
27044
27047
27044
27045
27045
27047
27046
27047
27055
27047
27051
27052
27052
27052
27063
27065
27066
27064
27074
27084
27077
27079
27082
27082
27080
27081
27082
27078
27082
27088
27077
27079
27087
27093
27096
27103
27106
27105
27108
27116
27113
27118
27118
27121
27124
27112
27120
27117
27126
27117
27123
27126
27131
27134
27138
27134
27143
27143
27151
27149
27154
27158
27164
27159
27157
27159
27164
27167
27161
27158
27171
27167
27167
27170
27176
27177
27188
27188
27188
27194
27200
27207
27198
27207
27207
27191
27207
27208
27201
27206
27219
27196
27219
27230
27219
27239
27273
27247
27258
27239
27254
27271
27251
27260
27253
27276
27270
27255
27261
27267
27252
27269
27260
27269
27280
27279
27289
27282
27293
27292
27300
27297
27299
27293
27298
27298
27293
27301
27297
27300
27302
27305
27313
27306
27322
27322
27324
27327
27327
27332
27339
27340
27340
27340
27336
27343
27340
27340
27345
27343
27335
27350
27351
27355
27363
27358
27366
27374
27374
27375
27386
27380
27387
27388
27384
27383
27373
27388
27388
27383
27385
27387
27391
27399
27399
27405
27411
27410
27414
27420
27426
27430
27433
27430
27412
27420
27423
27424
27429
27425
27429
27431
27439
27442
27441
27447
27452
27460
27461
27463
27466
27473
27476
27471
27470
27471
27468
27471
27479
27475
27472
27476
27482
27489
27482
27494
27497
27496
27500
27506
27516
27506
27515
27516
27512
27514
27519
27513
27514
27516
27517
27525
27526
27527
27530
27532
27539
27546
27553
27554
27558
27559
27560
27554
27559
27558
27552
27559
27548
27559
27558
27562
27564
27573
27575
27576
27586
27586
27595
27591
27602
27592
27597
27600
27607
27607
27604
27607
27604
27601
27611
27611
27617
27618
27622
27620
27622
27635
27633
27641
27642
27644
27647
27644
27647
27650
27648
27652
27650
27650
27655
27655
27655
27671
27663
27677
27669
27683
27684
27692
27692
27697
27696
27700
27697
27692
27699
27695
27694
27699
27701
27706
27709
27711
27713
27716
27721
27728
27733
27732
27741
27743
27750
27744
27738
27748
27749
27737
27748
27745
27751
27745
27752
27748
27759
27764
27767
27774
27775
27780
27791
27785
27788
27789
27791
27791
27791
27792
27791
27788
27792
27796
27800
27804
27805
27809
27818
27820
27825
27826
27831
27833
27838
27837
27836
27829
27836
27834
27836
27839
27837
27846
27851
27851
27857
27857
27861
27871
27872
27886
27879
27885
27878
27884
27884
27885
27882
27881
27885
27890
27892
27887
27887
27900
27901
27903
27906
27909
27924
27924
27924
27931
27930
27930
27927
27926
27932
27929
27934
27935
27942
27941
27938
27948
27952
27949
27959
27967
27967
27971
27974
27974
27975
27976
27975
27975
27967
27973
27978
27975
27979
27976
27979
27986
27991
27997
27996
28001
28009
28008
28013
28012
28012
28015
28015
28014
28010
28015
28014
28012
28021
28024
28028
28034
28032
28037
28038
28041
28051
28055
28058
28062
28054
28056
28057
28056
28058
28055
28060
28060
28062
28060
28066
28068
28068
28076
28073
28090
28092
28095
28093
28095
28094
28098
28094
28095
28093
28093
28097
28093
28100
28097
28097
28104
28108
28113
28114
28121
28123
28128
28132
28131
28131
28131
28135
28134
28129
28124
28130
28133
28135
28133
28138
28142
28142
28143
28148
28153
28153
28156
28167
28167
28160
28162
28161
28161
28165
28167
28164
28164
28161
28162
28167
28175
28167
28180
28188
28180
28188
28189
28199
28193
28196
28199
28193
28189
28199
28184
28198
28193
28194
28197
28196
28204
28201
28207
28212
28217
28215
28224
28223
28221
28221
28230
28223
28225
28224
28224
28226
28217
28220
28223
28230
28228
28230
28238
28244
28244
28251
28255
28257
28260
28260
28252
28248
28250
28250
28245
28249
28253
28249
28252
28254
28263
28256
28262
28261
28274
28271
28279
28279
28277
28284
28277
28275
28277
28270
28276
28273
28271
28267
28273
28272
28284
28285
28281
28292
28294
28293
28295
28295
28302
28294
28303
28298
28300
28297
28297
28297
28295
28303
28303
28309
28309
28311
28315
28316
28318
28321
28324
28327
28327
28327
28327
28328
28324
28327
28323
28322
28317
28321
28327
28323
28326
28330
28333
28337
28343
28344
28351
28345
28345
28358
28345
28351
28345
28343
28342
28340
28343
28349
28343
28348
28348
28355
28356
28353
28364
28368
28370
28365
28372
28374
28364
28367
28367
28369
28367
28367
28366
28367
28366
28366
28369
28375
28384
28376
28390
28386
28396
28379
28389
28396
28388
28385
28384
28389
28386
28383
28390
28384
28386
28388
28389
28388
28396
28392
28401
28406
28408
28407
28414
28404
28404
28406
28404
28401
28398
28401
28401
28400
28399
28398
28405
28407
28413
28406
28421
28416
28421
28423
28428
28418
28420
28423
28414
28415
28413
28412
28412
28411
28412
28420
28423
28423
28422
28423
28432
28436
28434
28438
28433
28440
28443
28431
28430
28432
28431
28435
28428
28428
28432
28431
28435
28439
28436
28440
28444
28447
28446
28440
28452
28452
28446
28442
28446
28447
28445
28437
28436
28444
28440
28442
28446
28447
28448
28455
28455
28455
28458
28463
28462
28463
28461
28458
28461
28458
28449
28458
28448
28455
28452
28458
28457
28453
28458
28462
28462
28460
28473
28468
28468
28464
28473
28472
28468
28469
28462
28463
28460
28463
28463
28464
28473
28468
28473
28468
28473
28481
28478
28480
28485
28485
28484
28482
28479
28471
28481
28478
28474
28471
28465
28473
28476
28486
28478
28480
28478
28482
28487
28491
28482
28486
28487
28478
28479
28477
28476
28480
28472
28476
28468
28477
28478
28476
28483
28479
28488
28495
28488
28494
28485
28493
28481
28486
28502
28491
28492
28480
28484
28476
28499
28494
28483
28503
28503
28484
28512
28514
28502
28516
28516
28501
28510
28519
28502
28510
28496
28511
28497
28502
28501
28502
28508
28505
28506
28508
28517
28511
28514
28518
28518
28510
28517
28512
28506
28500
28508
28517
28508
28500
28502
28509
28513
28512
28508
28514
28519
28512
28519
28521
28517
28511
28521
28519
28513
28512
28511
28514
28513
28508
28503
28504
28509
28508
28509
28512
28516
28508
28524
28516
28516
28516
28517
28514
28513
28510
28502
28503
28509
28506
28506
28505
28516
28510
28510
28516
28517
28519
28525
28524
28496
28513
28513
28519
28514
28512
28504
28513
28504
28509
28515
28503
28508
28506
28507
28518
28519
28521
28519
28524
28521
28514
28518
28514
28512
28514
28506
28510
28509
28505
28505
28511
28502
28504
28511
28508
28510
28514
28514
28515
28519
28521
28515
28517
28512
28508
28516
28509
28508
28511
28508
28503
28506
28511
28510
28507
28490
28504
28508
28506
28511
28506
28511
28515
28506
28506
28506
28511
28514
28510
28512
28519
28517
28512
28516
28517
28519
28519
28516
28511
28514
28519
28521
28516
28516
28516
28518
28517
28518
28519
28519
28512
28517
28517
28516
28521
28516
28516
28522
28529
28529
28525
28525
28535
28530
28525
28517
28519
28518
28517
28508
28518
28514
28513
28519
28519
28521
28529
28524
28534
28532
28527
28532
28525
28522
28524
28517
28526
28518
28515
28519
28512
28516
28518
28524
28521
28522
28526
28532
28527
28532
28527
28532
28525
28518
28523
28516
28518
28517
28516
28512
28509
28514
28517
28519
28518
28516
28516
28522
28526
28525
28518
28532
28521
28513
28519
28515
28513
28514
28515
28503
28510
28513
28517
28515
28517
28516
28521
28521
28521
28519
28523
28522
28519
28516
28502
28512
28501
28511
28511
28512
28504
28505
28511
28508
28517
28511
28516
28519
28517
28519
28510
28516
28513
28511
28508
28503
28508
28501
28500
28493
28501
28503
28505
28508
28506
28516
28515
28510
28522
28508
28514
28508
28507
28506
28495
28504
28500
28494
28495
28497
28493
28494
28501
28506
28505
28503
28511
28504
28508
28506
28508
28508
28500
28503
28494
28499
28498
28489
28499
28489
28495
28493
28497
28495
28496
28493
28500
28500
28501
28503
28500
28497
28500
28498
28492
28492
28494
28494
28486
28493
28485
28495
28492
28494
28497
28499
28503
28498
28502
28501
28501
28500
28501
28492
28490
28492
28484
28489
28482
28490
28487
28490
28489
28495
28492
28494
28493
28497
28504
28503
28501
28495
28497
28494
28483
28490
28484
28485
28489
28486
28482
28487
28486
28487
28492
28485
28495
28492
28497
28495
28487
28488
28485
28495
28484
28481
28480
28482
28479
28477
28475
28477
28485
28484
28485
28479
28490
28490
28487
28489
28487
28485
28484
28480
28477
28472
28478
28468
28479
28474
28473
28478
28471
28478
28477
28476
28481
28478
28480
28482
28481
28476
28476
28476
28470
28469
28459
28463
28471
28462
28462
28464
28466
28471
28464
28470
28475
28477
28476
28472
28471
28474
28475
28469
28461
28458
28461
28463
28456
28457
28456
28461
28460
28458
28465
28460
28462
28473
28475
28465
28465
28463
28455
28462
28455
28452
28455
28433
28448
28447
28450
28449
28453
28450
28463
28450
28461
28456
28449
28463
28458
28463
28455
28444
28451
28446
28441
28438
28437
28437
28439
28437
28442
28443
28445
28447
28441
28448
28455
28453
28446
28442
28440
28447
28438
28422
28433
28432
28432
28428
28435
28433
28429
28431
28436
28436
28430
28437
28433
28440
28439
28434
28429
28421
28423
28423
28420
28419
28415
28416
28414
28423
28420
28420
28423
28423
28423
28421
28428
28423
28421
28423
28416
28414
28419
28417
28411
28406
28407
28411
28399
28401
28410
28404
28401
28412
28414
28409
28412
28408
28412
28410
28402
28401
28397
28391
28394
28397
28391
28399
28397
28393
28396
28396
28394
28396
28399
28399
28400
28405
28396
28385
28389
28388
28391
28390
28382
28383
28381
28377
28382
28378
28378
28372
28382
28388
28384
28383
28387
28387
28383
28379
28369
28377
28369
28367
28369
28368
28369
28364
28361
28367
28368
28366
28372
28373
28372
28370
28374
28373
28372
28369
28367
28364
28357
28358
28356
28351
28358
28345
28359
28356
28353
28357
28359
28353
28357
28364
28361
28367
28359
28358
28356
28348
28352
28347
28346
28345
28341
28338
28343
28343
28343
28334
28349
28349
28348
28353
28350
28349
28348
28344
28337
28340
28339
28332
28335
28331
28332
28330
28327
28326
28316
28332
28332
28334
28332
28340
28341
28341
28332
28330
28321
28327
28324
28321
28319
28316
28322
28316
28314
28316
28311
28319
28325
28319
28327
28324
28324
28321
28326
28317
28319
28315
28308
28302
28309
28308
28300
28310
28309
28301
28308
28299
28303
28310
28308
28308
28305
28306
28302
28298
28302
28303
28297
28295
28292
28290
28292
28283
28295
28282
28284
28284
28293
28288
28289
28295
28294
28295
28292
28289
28287
28282
28276
28273
28266
28276
28273
28269
28271
28263
28277
28280
28277
28279
28297
28276
28285
28292
28269
28276
28271
28276
28279
28260
28263
28255
28279
28269
28261
28266
28272
28263
28268
28279
28268
28276
28284
28276
28281
28270
28265
28274
28265
28266
28260
28267
28261
28254
28263
28258
28256
28257
28254
28257
28262
28254
28260
28255
28261
28253
28252
28251
28241
28241
28240
28236
28233
28240
28238
28241
28236
28232
28241
28243
28239
28239
28246
28243
28234
28244
28244
28225
28231
28228
28232
28231
28226
28225
28225
28224
28223
28217
28226
28228
28231
28227
28237
28231
28223
28227
28221
28219
28219
28212
28208
28204
28206
28212
28205
28206
28199
28212
28210
28208
28219
28217
28215
28216
28212
28210
28206
28199
28199
28194
28198
28189
28197
28197
28194
28189
28189
28193
28196
28197
28189
28199
28205
28199
28198
28197
28191
28190
28185
28182
28176
28174
28179
28175
28173
28178
28172
28176
28179
28180
28182
28183
28178
28176
28180
28172
28170
28167
28167
28167
28159
28165
28159
28158
28153
28154
28162
28161
28152
28163
28164
28158
28160
28164
28154
28162
28151
28150
28153
28146
28136
28143
28141
28135
28135
28141
28141
28140
28143
28143
28143
28138
28142
28143
28140
28141
28139
28133
28131
28125
28126
28125
28123
28126
28118
28119
28126
28123
28119
28120
28125
28131
28124
28126
28122
28112
28120
28119
28104
28111
28106
28103
28104
28106
28101
28103
28105
28100
28102
28105
28108
28105
28102
28106
28104
28106
28091
28094
28094
28086
28084
28086
28093
28084
28083
28082
28079
28081
28082
28080
28085
28085
28076
28084
28085
28077
28079
28073
28074
28069
28062
28065
28063
28064
28054
28055
28058
28058
28065
28063
28045
28060
28063
28068
28063
28056
28065
28054
28051
28041
28045
28042
28037
28038
28033
28039
28039
28037
28041
28040
28047
28041
28038
28045
28042
28043
28038
28032
28028
28026
28028
28020
28019
28023
28019
28022
28020
28015
28018
28024
28029
28022
28021
28018
28023
28019
28018
28012
28003
28000
28007
28002
27997
27996
27996
27996
27994
27998
27997
28000
27999
28001
28011
27996
27998
27997
27999
27991
27985
27980
27978
27978
27982
27975
27979
27974
27973
27975
27973
27975
27980
27983
27978
27982
27978
27980
27972
27972
27967
27961
27959
27956
27951
27951
27959
27951
27959
27957
27951
27957
27950
27957
27956
27956
27957
27948
27949
27940
27936
27930
27940
27935
27922
27929
27929
27924
27925
27925
27930
27924
27928
27909
27935
27937
27930
27928
27920
27920
27916
27911
27908
27905
27901
27904
27903
27905
27899
27901
27902
27903
27906
27903
27901
27907
27905
27895
27894
27890
27892
27888
27883
27879
27881
27871
27874
27877
27879
27879
27873
27879
27879
27879
27885
27876
27874
27875
27871
27865
27863
27862
27861
27858
27849
27849
27851
27852
27847
27854
27853
27855
27860
27858
27851
27855
27854
27854
27850
27841
27837
27839
27833
27834
27831
27830
27823
27820
27829
27835
27832
27829
27828
27836
27829
27836
27829
27830
27821
27815
27813
27809
27814
27809
27807
27815
27811
27804
27805
27803
27798
27806
27804
27806
27804
27811
27807
27797
27796
27794
27794
27785
27785
27779
27776
27774
27777
27777
27778
27779
27777
27775
27780
27774
27780
27780
27780
27778
27764
27772
27774
27758
27761
27752
27756
27756
27754
27754
27756
27751
27757
27756
27753
27757
27758
27754
27756
27750
27750
27751
27745
27743
27735
27735
27739
27732
27729
27729
27727
27732
27735
27726
27735
27740
27740
27735
27732
27727
27726
27723
27719
27711
27714
27714
27706
27708
27708
27702
27706
27706
27706
27709
27711
27705
27710
27715
27711
27706
27697
27697
27696
27687
27687
27684
27686
27686
27682
27682
27684
27685
27686
27686
27693
27685
27693
27687
27684
27683
27677
27679
27668
27669
27665
27662
27661
27652
27655
27655
27662
27655
27660
27660
27662
27666
27668
27663
27660
27655
27663
27647
27647
27640
27639
27642
27639
27643
27638
27631
27633
27637
27636
27636
27633
27628
27636
27636
27635
27636
27626
27621
27620
27614
27615
27619
27616
27609
27612
27616
27604
27610
27609
27615
27618
27612
27622
27615
27612
27612
27600
27604
27598
27597
27596
27590
27588
27591
27585
27591
27586
27591
27592
27591
27593
27594
27590
27592
27591
27591
27586
27580
27575
27581
27573
27571
27578
27567
27572
27569
27565
27565
27572
27571
27568
27572
27575
27570
27569
27574
27564
27562
27556
27553
27553
27543
27551
27551
27540
27549
27549
27546
27546
27544
27551
27551
27551
27554
27546
27550
27543
27540
27532
27530
27527
27530
27524
27526
27521
27521
27514
27517
27526
27524
27527
27526
27521
27524
27519
27527
27516
27519
27512
27515
27506
27500
27507
27503
27497
27503
27501
27500
27503
27511
27503
27505
27502
27503
27497
27494
27495
27484
27489
27478
27484
27481
27476
27478
27471
27476
27475
27476
27477
27483
27484
27474
27479
27471
27480
27485
27472
27475
27481
27471
27468
27457
27464
27455
27462
27475
27471
27475
27466
27476
27470
27478
27467
27474
27463
27471
27460
27465
27487
27459
27463
27448
27453
27450
27450
27452
27448
27451
27459
27463
27459
27450
27452
27452
27455
27444
27441
27447
27438
27434
27431
27430
27426
27429
27425
27420
27421
27427
27431
27423
27422
27428
27423
27426
27429
27422
27422
27419
27408
27402
27404
27402
27399
27393
27396
27390
27399
27393
27399
27407
27399
27397
27404
27397
27398
27399
27395
27396
27391
27383
27387
27380
27375
27379
27375
27377
27373
27372
27379
27380
27380
27380
27378
27383
27383
27377
27372
27363
27365
27361
27359
27356
27348
27351
27357
27353
27349
27351
27350
27358
27359
27352
27357
27364
27357
27351
27352
27348
27340
27338
27338
27337
27332
27335
27329
27333
27330
27330
27334
27339
27334
27334
27334
27343
27335
27327
27332
27325
27322
27317
27312
27316
27311
27316
27311
27310
27307
27311
27316
27315
27311
27310
27319
27315
27311
27304
27311
27301
27303
27303
27297
27295
27294
27289
27295
27289
27291
27287
27287
27294
27295
27292
27295
27292
27292
27293
27285
27285
27276
27278
27273
27271
27271
27269
27271
27268
27271
27262
27269
27273
27276
27276
27276
27273
27270
27268
27266
27267
27255
27261
27255
27259
27255
27243
27255
27247
27253
27254
27248
27255
27252
27255
27259
27246
27258
27246
27246
27237
27241
27239
27234
27234
27231
27234
27231
27222
27231
27229
27231
27231
27237
27239
27239
27236
27231
27229
27231
27228
27220
27215
27214
27214
27210
27210
27210
27212
27207
27208
27214
27214
27215
27211
27221
27215
27215
27211
27215
27202
27201
27206
27204
27194
27191
27196
27191
27191
27186
27197
27199
27193
27201
27196
27206
27199
27196
27197
27204
27186
27186
27180
27183
27181
27173
27168
27172
27181
27175
27172
27178
27180
27174
27178
27180
27177
27176
27177
27172
27172
27165
27167
27159
27159
27156
27158
27159
27155
27156
27158
27157
27162
27164
27158
27167
27163
27158
27154
27153
27150
27143
27143
27143
27138
27143
27139
27135
27137
27135
27141
27140
27137
27143
27142
27141
27143
27140
27140
27137
27132
27132
27132
27123
27125
27127
27122
27121
27117
27117
27121
27118
27124
27119
27124
27125
27119
27131
27117
27116
27111
27111
27107
27105
27109
27097
27103
27100
27093
27094
27104
27109
27104
27104
27108
27106
27110
27109
27101
27098
27093
27092
27092
27087
27087
27081
27081
27080
27087
27079
27078
27081
27087
27093
27092
27091
27087
27088
27087
27079
27079
27075
27072
27068
27064
27063
27065
27067
27060
27063
27069
27065
27070
27071
27073
27077
27076
27070
27075
27068
27066
27052
27057
27055
27052
27058
27047
27050
27053
27049
27046
27055
27046
27059
27059
27060
27057
27054
27052
27049
27045
27046
27036
27043
27036
27039
27031
27028
27034
27034
27030
27033
27028
27038
27035
27043
27039
27036
27032
27038
27028
27029
27020
27028
27023
27018
27018
27015
27020
27018
27014
27015
27015
27018
27013
27021
27024
27018
27020
27015
27012
27009
27011
27007
27005
27001
27008
26999
26999
26991
27001
27005
27006
26999
27000
27004
27008
27007
26999
26999
27003
26988
26991
26983
26988
26983
26990
26987
26983
26980
26983
26983
26991
26990
26997
26988
26986
26991
26990
26985
26983
26981
26981
26971
26975
26969
26961
26967
26965
26966
26965
26970
26974
26973
26971
26969
26972
26973
26967
26971
26961
26960
26957
26961
26950
26957
26951
26958
26951
26955
26951
26955
26949
26964
26962
26959
26956
26959
26957
26951
26949
26941
26946
26942
26943
26942
26940
26935
26936
26942
26943
26942
26942
26942
26950
26948
26951
26948
26944
26935
26941
26927
26931
26929
26927
26927
26923
26927
26925
26926
26927
26922
26931
26932
26927
26932
26930
26930
26924
26923
26919
26914
26919
26908
26903
26903
26907
26904
26914
26906
26910
26909
26910
26918
26914
26915
26908
26914
26913
26903
26905
26901
26906
26901
26889
26895
26895
26895
26887
26889
26900
26895
26895
26900
26901
26900
26902
26897
26893
26894
26895
26885
26885
26883
26883
26876
26877
26874
26871
26877
26883
26882
26876
26879
26887
26886
26887
26876
26883
26887
26879
26877
26868
26875
26870
26858
26861
26860
26865
26862
26861
26868
26865
26871
26866
26868
26869
26868
26867
26865
26862
26857
26853
26860
26855
26850
26841
26855
26846
26845
26852
26853
26855
26858
26853
26850
26847
26854
26848
26859
26853
26851
26842
26838
26836
26838
26836
26836
26834
26835
26837
26842
26842
26840
26849
26852
26844
26851
26838
26837
26828
26827
26828
26822
26820
26819
26819
26820
26823
26817
26821
26822
26823
26831
26824
26834
26827
26833
26820
26826
26816
26822
26814
26815
26827
26821
26821
26810
26820
26812
26820
26814
26827
26820
26822
26816
26831
26852
26828
26831
26808
26823
26812
26818
26815
26817
26795
26821
26828
26810
26821
26815
26820
26836
26828
26829
26822
26821
26821
26820
26815
26815
26804
26805
26797
26791
26799
26798
26795
26799
26798
26796
26804
26806
26801
26804
26807
26802
26807
26797
26794
26798
26795
26788
26788
26780
26785
26783
26788
26781
26777
26791
26784
26790
26798
26791
26796
26786
26790
26785
26781
26782
26780
26764
26774
26774
26768
26768
26775
26772
26775
26769
26779
26783
26775
26779
26774
26787
26780
26770
26768
26769
26766
26771
26763
26759
26759
26759
26757
26759
26759
26756
26764
26765
26770
26766
26767
26770
26767
26756
26759
26758
26757
26756
26751
26741
26751
26751
26751
26745
26747
26755
26751
26753
26759
26761
26767
26759
26757
26755
26751
26743
26743
26742
26738
26735
26729
26735
26738
26735
26739
26743
26742
26738
26747
26750
26750
26750
26746
26740
26743
26734
26733
26732
26737
26732
26726
26729
26727
26733
26727
26726
26733
26734
26730
26735
26735
26733
26735
26738
26726
26724
26726
26724
26727
26721
26722
26724
26718
26719
26719
26727
26721
26724
26731
26729
26727
26717
26726
26724
26721
26716
26718
26711
26708
26716
26709
26713
26710
26711
26711
26711
26718
26715
26718
26717
26721
26724
26718
26716
26704
26708
26704
26700
26698
26700
26701
26698
26704
26695
26703
26702
26701
26705
26705
26712
26710
26711
26703
26709
26701
26703
26700
26682
26695
26692
26690
26692
26688
26695
26694
26692
26691
26699
26699
26699
26692
26701
26696
26692
26693
26687
26679
26686
26678
26685
26687
26680
26678
26687
26682
26671
26687
26684
26687
26689
26692
26691
26685
26689
26679
26678
26681
26672
26677
26671
26666
26663
26671
26671
26668
26677
26674
26676
26666
26679
26676
26676
26676
26674
26668
26668
26663
26663
26663
26660
26659
26661
26660
26655
26655
26660
26657
26662
26667
26667
26676
26666
26665
26660
26662
26663
26655
26658
26655
26652
26655
26648
26647
26645
26650
26657
26655
26654
26655
26653
26668
26654
26655
26647
26648
26641
26644
26639
26631
26639
26631
26643
26631
26643
26636
26631
26641
26642
26647
26646
26645
26639
26650
26639
26637
26631
26639
26636
26629
26629
26624
26623
26628
26631
26626
26631
26631
26638
26642
26637
26637
26640
26636
26631
26631
26629
26629
26627
26615
26619
26618
26621
26625
26619
26620
26621
26621
26622
26625
26630
26623
26625
26607
26623
26619
26617
26619
26617
26610
26609
26611
26605
26615
26605
26613
26618
26619
26617
26613
26622
26624
26622
26616
26613
26615
26607
26606
26603
26607
26601
26603
26599
26599
26599
26602
26607
26604
26601
26604
26609
26612
26610
26614
26607
26603
26599
26603
26599
26598
26594
26592
26595
26589
26596
26591
26599
26597
26598
26607
26599
26599
26605
26599
26603
26598
26592
26591
26586
26583
26586
26589
26582
26585
26586
26583
26586
26587
26596
26594
26599
26598
26592
26591
26598
26596
26588
26586
26581
26582
26575
26572
26575
26572
26578
26572
26576
26580
26576
26584
26587
26591
26588
26580
26577
26579
26576
26574
26569
26572
26557
26567
26564
26565
26567
26566
26567
26568
26567
26573
26581
26572
26577
26575
26572
26574
26564
26565
26558
26558
26564
26557
26563
26562
26558
26559
26572
26556
26565
26569
26573
26568
26565
26567
26564
26556
26559
26559
26557
26550
26551
26551
26548
26548
26545
26551
26549
26552
26560
26554
26556
26558
26559
26558
26557
26549
26543
26549
26538
26545
26542
26548
26543
26540
26540
26547
26540
26551
26548
26556
26546
26557
26551
26550
26548
26548
26539
26542
26535
26543
26534
26529
26535
26528
26528
26536
26537
26534
26541
26542
26542
26540
26540
26543
26535
26537
26542
26532
26527
26519
26527
26527
26524
26527
26525
26527
26522
26534
26530
26532
26532
26543
26535
26529
26527
26527
26525
26523
26527
26519
26511
26516
26523
26519
26513
26519
26516
26532
26524
26525
26521
26532
26514
26526
26525
26518
26519
26519
26510
26514
26511
26503
26508
26510
26511
26508
26516
26520
26519
26522
26519
26517
26524
26517
26519
26516
26509
26511
26510
26503
26498
26503
26500
26509
26508
26500
26511
26503
26511
26516
26513
26509
26513
26519
26518
26513
26503
26503
26495
26500
26497
26500
26495
26497
26500
26500
26501
26501
26495
26502
26515
26509
26503
26511
26501
26497
26498
26499
26488
26489
26487
26487
26485
26492
26484
26487
26492
26492
26503
26498
26502
26491
26503
26501
26500
26495
26489
26491
26487
26484
26480
26473
26481
26479
26482
26481
26483
26484
26490
26487
26487
26487
26488
26486
26487
26485
26480
26477
26477
26466
26475
26469
26476
26472
26479
26471
26471
26477
26479
26476
26486
26476
26484
26474
26485
26468
26479
26464
26487
26482
26471
26479
26461
26478
26463
26476
26466
26482
26468
26494
26479
26490
26506
26488
26495
26483
26493
26483
26487
26471
26479
26475
26479
26475
26481
26473
26484
26473
26487
26477
26481
26483
26479
26476
26472
26470
26468
26471
26463
26462
26460
26461
26457
26453
26455
26462
26459
26461
26469
26467
26465
26464
26471
26470
26471
26464
26462
26461
26456
26457
26449
26452
26446
26447
26454
26451
26452
26463
26463
26463
26459
26464
26455
26465
26459
26455
26454
26454
26447
26443
26437
26446
26439
26439
26441
26445
26447
26451
26453
26454
26452
26452
26454
26454
26448
26449
26443
26439
26441
26438
26433
26435
26444
26438
26436
26443
26444
26443
26445
26447
26447
26447
26447
26446
26444
26445
26437
26432
26431
26424
26433
26423
26425
26434
26431
26430
26436
26438
26437
26442
26437
26444
26439
26442
26431
26438
26439
26436
26434
26429
26423
26427
26425
26423
26430
26426
26431
26428
26430
26428
26438
26439
26441
26436
26431
26431
26431
26429
26418
26429
26417
26423
26415
26421
26423
26423
26427
26425
26429
26428
26435
26437
26431
26437
26425
26431
26420
26422
26423
26415
26417
26414
26416
26410
26417
26417
26420
26418
26433
26427
26431
26423
26426
26425
26420
26426
26415
26419
26409
26409
26415
26410
26407
26419
26402
26415
26415
26420
26421
26415
26430
26423
26428
26418
26418
26414
26417
26408
26415
26409
26404
26407
26404
26407
26407
26410
26410
26410
26414
26420
26415
26422
26418
26421
26421
26415
26414
26415
26405
26402
26407
26404
26402
26401
26411
26399
26406
26403
26418
26407
26415
26410
26407
26413
26407
26404
26397
26403
26396
26401
26394
26403
26397
26399
26397
26407
26407
26404
26414
26411
26411
26404
26409
26405
26407
26409
26407
26393
26396
26391
26393
26398
26393
26396
26396
26393
26404
26405
26401
26407
26410
26407
26407
26406
26404
26405
26396
26396
26391
26388
26391
26391
26380
26388
26389
26390
26391
26397
26403
26401
26388
26397
26397
26398
26398
26391
26388
26388
26388
26386
26380
26375
26375
26375
26375
26390
26389
26381
26388
26387
26391
26391
26397
26392
26391
26383
26380
26381
26383
26374
26375
26374
26371
26374
26375
26370
26382
26380
26389
26388
26382
26382
26378
26388
26380
26380
26375
26375
26372
26375
26373
26372
26374
26375
26371
26375
26371
26374
26378
26378
26382
26383
26383
26375
26375
26375
26371
26375
26372
26362
26365
26367
26361
26365
26366
26367
26365
26368
26372
26379
26375
26382
26375
26375
26372
26375
26366
26365
26364
26360
26365
26356
26358
26358
26362
26364
26366
26362
26369
26375
26366
26374
26373
26367
26372
26364
26362
26359
26356
26363
26359
26352
26351
26350
26359
26356
26359
26362
26363
26362
26372
26369
26369
26367
26367
26361
26364
26355
26357
26345
26357
26353
26354
26351
26353
26359
26362
26363
26359
26367
26367
26369
26366
26369
26361
26362
26357
26351
26356
26357
26349
26349
26351
26351
26353
26349
26351
26359
26351
26361
26365
26359
26364
26354
26360
26353
26352
26349
26349
26348
26346
26341
26343
26347
26346
26344
26356
26348
26354
26355
26357
26356
26356
26350
26359
26351
26353
26343
26344
26343
26345
26342
26342
26341
26342
26350
26350
26343
26355
26357
26356
26361
26356
26363
26354
26353
26345
26349
26343
26342
26335
26338
26340
26342
26343
26340
26337
26342
26340
26349
26347
26354
26357
26351
26355
26343
26346
26336
26340
26336
26334
26331
26334
26325
26330
26343
26336
26342
26345
26346
26342
26345
26343
26345
26347
26340
26345
26336
26342
26330
26339
26332
26333
26333
26337
26335
26333
26339
26342
26338
26341
26346
26341
26340
26338
26342
26331
26333
26331
26330
26323
26333
26320
26332
26335
26311
26332
26332
26332
26337
26337
26337
26348
26333
26342
26327
26335
26332
26325
26330
26316
26321
26322
26326
26331
26335
26328
26339
26334
26341
26332
26335
26334
26332
26320
26332
26322
26328
26322
26323
26320
26319
26321
26317
26321
26322
26330
26327
26330
26329
26341
26337
26329
26338
26330
26332
26319
26327
26318
26322
26325
26316
26314
26319
26319
26317
26331
26319
26330
26327
26326
26330
26332
26327
26334
26322
26325
26309
26321
26320
26316
26312
26316
26310
26319
26326
26320
26318
26323
26322
26322
26320
26327
26329
26320
26324
26312
26315
26310
26315
26303
26313
26294
26309
26311
26314
26317
26321
26319
26318
26324
26325
26319
26322
26320
26314
26315
26313
26311
26311
26309
26308
26303
26311
26310
26315
26311
26316
26324
26323
26326
26324
26326
26324
26321
26318
26314
26317
26315
26311
26302
26311
26310
26303
26311
26309
26302
26311
26310
26314
26316
26321
26322
26324
26315
26327
26313
26313
26308
26301
26306
26294
26305
26307
26306
26299
26310
26341
26331
26338
26318
26312
26327
26341
26334
26305
26321
26307
26314
26303
26319
26353
26314
26324
26306
26317
26313
26334
26333
26318
26333
26319
26330
26342
26334
26324
26319
26318
26313
26319
26311
26305
26310
26311
26303
26309
26311
26310
26319
26316
26320
26316
26319
26319
26319
26315
26317
26309
26305
26304
26308
26305
26306
26304
26297
26302
26299
26308
26309
26315
26319
26314
26310
26310
26311
26310
26309
26307
26305
26300
26306
26300
26294
26300
26301
26298
26306
26301
26308
26313
26309
26305
26313
26314
26310
26306
26296
26304
26299
26292
26292
26295
26294
26302
26294
26292
26301
26297
26303
26307
26311
26307
26303
26302
26303
26303
26295
26294
26295
26299
26287
26290
26292
26292
26295
26290
26297
26299
26303
26300
26305
26303
26307
26303
26300
26299
26300
26287
26286
26292
26282
26289
26288
26287
26280
26292
26299
26290
26295
26303
26301
26301
26297
26295
26297
26299
26294
26291
26292
26284
26287
26284
26287
26290
26286
26287
26290
26290
26297
26294
26292
26292
26298
26303
26295
26295
26292
26285
26287
26283
26279
26279
26287
26279
26272
26287
26287
26287
26286
26294
26298
26297
26295
26295
26299
26298
26287
26285
26278
26287
26277
26282
26278
26284
26278
26283
26277
26287
26282
26293
26290
26298
26284
26294
26287
26286
26289
26282
26276
26278
26276
26277
26281
26283
26279
26276
26281
26287
26289
26287
26292
26284
26292
26293
26287
26292
26291
26290
26278
26282
26287
26279
26278
26283
26279
26282
26281
26285
26288
26288
26295
26289
26292
26295
26284
26289
26279
26268
26276
26278
26277
26279
26271
26277
26271
26278
26279
26284
26283
26287
26289
26286
26286
26284
26285
26280
26274
26276
26276
26276
26271
26269
26271
26268
26275
26273
26276
26279
26276
26284
26284
26284
26282
26279
26277
26279
26274
26276
26270
26274
26268
26268
26260
26274
26273
26273
26275
26277
26276
26279
26283
26281
26279
26278
26276
26281
26279
26271
26268
26265
26269
26265
26263
26270
26271
26270
26262
26279
26276
26277
26279
26287
26283
26279
26283
26279
26279
26264
26271
26265
26264
26262
26263
26276
26276
26265
26268
26273
26270
26278
26272
26283
26280
26276
26277
26273
26260
26277
26265
26268
26269
26261
26266
26266
26273
26271
26264
26274
26276
26272
26276
26276
26284
26274
26279
26274
26271
26269
26265
26261
26265
26261
26266
26269
26267
26269
26266
26274
26271
26276
26276
26276
26275
26282
26271
26270
26271
26272
26267
26268
26263
26261
26260
26270
26262
26268
26264
26275
26274
26281
26277
26278
26279
26278
26271
26276
26269
26270
26271
26264
26268
26260
26271
26263
26268
26270
26268
26273
26277
26277
26276
26283
26286
26281
26282
26283
26278
26279
26282
26266
26273
26271
26271
26273
26275
26271
26279
26276
26285
26283
26287
26278
26283
26279
26282
26278
26271
26269
26270
26279
26274
26269
26270
26271
26268
26273
26271
26279
26283
26282
26280
26280
26288
26279
26277
26284
26276
26271
26271
26270
26275
26267
26274
26275
26279
26276
26276
26281
26284
26285
26289
26290
26287
26285
26279
26284
26278
26279
26276
26274
26274
26272
26275
26274
26279
26284
26281
26283
26284
26284
26293
26292
26287
26295
26287
26290
26283
26284
26279
26283
26276
26282
26278
26279
26277
26280
26285
26286
26286
26297
26295
26292
26294
26295
26293
26293
26287
26291
26283
26284
26284
26281
26281
26284
26286
26298
26288
26292
26293
26302
26296
26300
26305
26302
26301
26303
26290
26294
26290
26292
26294
26295
26294
26289
26289
26295
26300
26293
26296
26306
26309
26307
26308
26311
26302
26305
26308
26307
26294
26298
26300
26292
26287
26295
26290
26306
26297
26303
26301
26310
26321
26314
26314
26303
26313
26307
26309
26300
26306
26296
26307
26300
26301
26308
26302
26310
26305
26309
26305
26319
26322
26320
26324
26321
26314
26322
26316
26312
26304
26310
26308
26311
26307
26308
26315
26317
26312
26310
26317
26324
26320
26333
26333
26330
26324
26324
26321
26322
26319
26319
26322
26319
26318
26318
26316
26327
26326
26326
26325
26327
26334
26337
26330
26334
26330
26330
26324
26329
26326
26330
26325
26321
26325
26324
26325
26330
26330
26334
26334
26340
26343
26340
26349
26343
26340
26338
26343
26338
26335
26334
26334
26334
26332
26330
26334
26340
26339
26351
26351
26347
26356
26351
26352
26334
26356
26351
26347
26347
26342
26342
26334
26350
26351
26349
26348
26345
26348
26352
26356
26358
26367
26363
26361
26366
26350
26364
26356
26363
26358
26346
26362
26351
26351
26363
26353
26362
26357
26366
26366
26388
26386
26375
26388
26374
26387
26398
26389
26391
26375
26387
26362
26385
26367
26385
26373
26384
26413
26404
26414
26393
26407
26398
26404
26435
26413
26407
26390
26403
26393
26405
26401
26396
26398
26389
26399
26405
26403
26401
26407
26413
26408
26407
26414
26408
26405
26406
26407
26399
26405
26400
26404
26399
26402
26413
26404
26408
26404
26412
26417
26414
26421
26427
26426
26426
26420
26420
26415
26419
26422
26409
26415
26418
26417
26415
26420
26418
26427
26423
26428
26427
26438
26436
26432
26436
26431
26436
26432
26426
26429
26429
26425
26429
26432
26427
26433
26433
26431
26438
26444
26443
26446
26451
26449
26453
26447
26450
26444
26445
26446
26440
26442
26445
26444
26444
26450
26450
26451
26450
26460
26455
26466
26466
26463
26468
26462
26463
26460
26457
26462
26461
26462
26455
26457
26460
26459
26465
26466
26466
26469
26477
26479
26479
26483
26478
26481
26476
26487
26479
26475
26479
26478
26481
26479
26481
26479
26487
26485
26487
26492
26493
26500
26493
26495
26497
26503
26503
26495
26497
26499
26495
26497
26490
26494
26493
26500
26503
26503
26504
26511
26510
26512
26513
26515
26516
26516
26513
26513
26510
26516
26511
26518
26508
26511
26519
26519
26523
26517
26531
26529
26532
26531
26537
26537
26541
26541
26532
26539
26529
26535
26529
26533
26528
26524
26535
26535
26539
26535
26546
26545
26550
26551
26556
26548
26561
26558
26558
26551
26548
26545
26548
26550
26554
26546
26551
26548
26550
26550
26560
26559
26567
26572
26570
26575
26580
26570
26576
26566
26572
26567
26575
26564
26572
26570
26569
26568
26572
26578
26578
26577
26591
26585
26590
26588
26597
26594
26591
26591
26593
26591
26593
26591
26598
26590
26591
26594
26597
26607
26599
26604
26607
26611
26613
26620
26612
26617
26609
26610
26607
26607
26609
26608
26612
26607
26618
26617
26613
26618
26621
26629
26620
26631
26631
26640
26637
26637
26639
26636
26631
26629
26628
26626
26623
26626
26639
26631
26631
26631
26640
26640
26652
26656
26659
26660
26660
26656
26648
26651
26647
26652
26651
26651
26647
26645
26650
26654
26653
26658
26661
26666
26671
26676
26676
26677
26679
26676
26672
26671
26671
26669
26671
26672
26677
26673
26671
26672
26681
26681
26680
26680
26688
26695
26695
26700
26694
26694
26695
26693
26694
26695
26692
26695
26695
26691
26693
26689
26700
26702
26709
26710
26711
26715
26716
26723
26717
26720
26718
26719
26713
26715
26713
26711
26712
26709
26723
26721
26721
26727
26724
26727
26733
26734
26736
26741
26743
26737
26743
26740
26732
26740
26735
26738
26742
26743
26744
26743
26742
26748
26751
26757
26763
26761
26761
26766
26764
26762
26766
26763
26760
26762
26759
26759
26759
26763
26766
26761
26772
26772
26770
26783
26773
26789
26790
26788
26788
26794
26786
26788
26791
26791
26790
26789
26791
26788
26791
26791
26796
26794
26799
26801
26809
26807
26811
26815
26819
26813
26812
26815
26818
26814
26807
26809
26818
26810
26819
26819
26819
26826
26825
26837
26837
26842
26841
26846
26842
26837
26844
26844
26839
26839
26839
26836
26836
26837
26844
26854
26844
26853
26852
26858
26867
26866
26868
26868
26878
26871
26865
26868
26871
26865
26871
26868
26871
26867
26869
26869
26879
26879
26884
26886
26893
26898
26900
26903
26903
26900
26904
26902
26900
26900
26902
26908
26902
26903
26903
26906
26914
26916
26918
26923
26925
26930
26933
26931
26937
26935
26928
26935
26932
26935
26935
26936
26929
26935
26947
26941
26939
26949
26948
26956
26959
26961
26967
26962
26968
26966
26961
26964
26971
26975
26972
26962
26977
26967
26975
26975
26980
26988
26987
26994
26999
27000
26997
26999
27000
27013
26999
27005
27005
27006
27004
27010
27003
27009
27008
27018
27020
27013
27030
27028
27029
27036
27044
27042
27045
27039
27046
27038
27047
27045
27045
27045
27052
27046
27054
27052
27057
27055
27063
27068
27073
27083
27084
27082
27081
27084
27083
27085
27079
27084
27087
27089
27084
27089
27094
27098
27103
27100
27106
27111
27117
27119
27126
27129
27125
27127
27129
27124
27132
27129
27125
27135
27135
27126
27141
27143
27143
27153
27146
27156
27167
27166
27167
27173
27173
27173
27169
27175
27179
27175
27183
27173
27182
27184
27186
27187
27197
27195
27199
27207
27213
27212
27226
27214
27220
27227
27229
27220
27226
27223
27223
27226
27231
27230
27236
27233
27236
27251
27250
27255
27261
27258
27271
27275
27265
27277
27271
27278
27274
27275
27279
27274
27287
27284
27295
27288
27301
27303
27307
27303
27321
27319
27335
27369
27341
27364
27349
27356
27328
27347
27338
27356
27343
27362
27353
27372
27361
27374
27367
27387
27375
27391
27388
27396
27395
27399
27399
27403
27399
27399
27404
27404
27407
27402
27407
27412
27420
27425
27427
27430
27439
27444
27452
27455
27454
27455
27452
27453
27453
27452
27457
27452
27469
27463
27469
27473
27474
27483
27487
27489
27500
27502
27504
27509
27511
27510
27508
27511
27511
27523
27513
27524
27522
27534
27524
27527
27541
27536
27545
27554
27548
27554
27560
27566
27568
27571
27570
27573
27575
27572
27575
27579
27581
27589
27588
27583
27593
27602
27603
27612
27617
27617
27629
27625
27629
27638
27630
27639
27636
27636
27636
27642
27647
27645
27655
27655
27655
27672
27671
27679
27685
27687
27691
27692
27700
27701
27700
27703
27711
27708
27709
27713
27711
27719
27723
27727
27727
27726
27732
27731
27748
27743
27750
27759
27759
27768
27762
27770
27781
27777
27787
27788
27791
27788
27791
27802
27807
27808
27807
27815
27816
27821
27829
27831
27831
27835
27839
27845
27841
27853
27852
27851
27861
27866
27868
27869
27873
27879
27878
27883
27887
27893
27897
27901
27897
27903
27904
27912
27911
27914
27923
27928
27931
27937
27938
27941
27937
27943
27950
27952
27964
27962
27967
27972
27975
27975
27985
27983
27990
27988
27990
28003
28004
28010
28007
28013
28013
28021
28023
28028
28026
28031
28037
28041
28043
28046
28052
28053
28060
28064
28065
28070
28071
28076
28079
28089
28086
28096
28096
28109
28108
28114
28114
28122
28120
28125
28124
28125
28140
28143
28135
28146
28151
28156
28158
28164
28166
28175
28172
28177
28183
28187
28191
28200
28201
28202
28204
28210
28214
28218
28218
28218
28224
28231
28236
28240
28238
28251
28258
28253
28263
28262
28266
28263
28270
28276
28280
28285
28291
28295
28295
28303
28309
28311
28318
28317
28321
28327
28334
28335
28343
28348
28348
28351
28354
28357
28357
28365
28372
28366
28379
28381
28380
28389
28389
28395
28399
28404
28412
28418
28416
28421
28428
28434
28441
28445
28446
28446
28455
28452
28455
28471
28467
28468
28474
28486
28480
28485
28495
28495
28502
28509
28508
28513
28519
28514
28519
28519
28527
28536
28551
28543
28551
28554
28546
28559
28562
28574
28575
28583
28583
28588
28597
28599
28596
28599
28603
28604
28612
28618
28621
28618
28627
28631
28636
28642
28638
28644
28653
28653
28660
28668
28675
28676
28679
28678
28689
28697
28694
28708
28703
28712
28704
28718
28716
28721
28719
28736
28741
28742
28743
28749
28759
28762
28770
28767
28772
28772
28781
28789
28790
28795
28800
28802
28807
28815
28815
28815
28821
28821
28835
28837
28839
28847
28837
28858
28859
28861
28865
28871
28870
28879
28882
28889
28892
28895
28893
28903
28905
28914
28917
28917
28927
28929
28935
28935
28940
28947
28951
28949
28958
28959
28964
28972
28967
28974
28975
28981
28987
28988
28998
28999
29002
29005
29015
29004
29021
29031
29031
29033
29035
29037
29041
29043
29053
29059
29061
29063
29069
29069
29077
29087
29092
29093
29095
29094
29101
29098
29111
29108
29113
29115
29119
29127
29134
29127
29136
29141
29147
29151
29146
29157
29161
29166
29165
29173
29165
29183
29180
29191
29191
29202
29207
29207
29207
29212
29223
29221
29222
29228
29231
29229
29238
29243
29244
29247
29253
29260
29261
29265
29268
29265
29279
29273
29282
29278
29292
29295
29297
29298
29298
29299
29309
29317
29317
29319
29324
29323
29335
29332
29333
29336
29338
29343
29347
29350
29353
29357
29362
29373
29370
29372
29372
29378
29379
29383
29380
29389
29396
29395
29404
29405
29410
29406
29404
29414
29417
29427
29425
29427
29423
29428
29435
29438
29445
29444
29444
29460
29452
29459
29466
29470
29472
29479
29476
29479
29479
29483
29484
29483
29497
29499
29507
29505
29505
29511
29511
29508
29515
29513
29518
29524
29527
29522
29535
29524
29541
29536
29541
29549
29546
29533
29551
29550
29556
29562
29565
29568
29564
29568
29575
29575
29575
29585
29582
29584
29578
29597
29597
29598
29599
29604
29596
29601
29604
29607
29607
29615
29620
29623
29620
29622
29630
29626
29634
29628
29631
29633
29636
29638
29641
29644
29652
29652
29654
29649
29653
29663
29657
29658
29665
29665
29671
29671
29673
29677
29675
29677
29683
29674
29681
29685
29687
29685
29686
29687
29697
29694
29697
29697
29700
29703
29703
29703
29703
29709
29695
29690
29709
29719
29719
29719
29712
29719
29719
29718
29734
29720
29724
29724
29731
29739
29728
29741
29730
29743
29734
29746
29747
29748
29763
29758
29760
29760
29760
29774
29763
29759
29764
29764
29764
29769
29780
29770
29778
29772
29778
29783
29782
29787
29784
29786
29790
29786
29782
29799
29792
29799
29798
29799
29791
29789
29791
29796
29796
29793
29795
29796
29797
29797
29796
29799
29791
29799
29794
29812
29807
29809
29807
29804
29811
29815
29813
29820
29815
29812
29816
29818
29819
29820
29824
29826
29827
29823
29829
29827
29826
29826
29828
29826
29824
29828
29828
29823
29831
29831
29831
29831
29828
29824
29836
29829
29824
29828
29836
29823
29830
29831
29837
29836
29832
29831
29830
29836
29836
29842
29834
29833
29838
29840
29838
29839
29836
29831
29831
29836
29836
29838
29839
29831
29839
29831
29831
29834
29839
29834
29833
29821
29839
29838
29840
29828
29836
29834
29839
29836
29836
29830
29831
29834
29831
29832
29838
29837
29838
29839
29841
29831
29831
29831
29835
29825
29833
29825
29834
29827
29831
29837
29833
29834
29831
29835
29839
29829
29831
29831
29831
29833
29836
29835
29837
29831
29839
29838
29842
29837
29839
29836
29831
29830
29823
29824
29828
29825
29827
29822
29829
29824
29836
29823
29827
29815
29823
29817
29820
29819
29820
29820
29820
29823
29823
29812
29823
29823
29819
29824
29818
29820
29812
29820
29822
29814
29821
29815
29814
29816
29819
29815
29820
29812
29811
29812
29810
29809
29808
29814
29811
29807
29815
29820
29812
29810
29809
29810
29813
29807
29810
29809
29813
29808
29802
29804
29805
29801
29803
29799
29805
29798
29805
29799
29801
29801
29799
29796
29798
29798
29803
29792
29796
29794
29793
29792
29790
29790
29782
29786
29789
29791
29786
29791
29790
29787
29785
29783
29787
29781
29778
29776
29781
29780
29783
29779
29775
29774
29778
29780
29780
29772
29777
29774
29770
29769
29767
29769
29763
29773
29775
29775
29772
29774
29759
29757
29766
29766
29767
29760
29761
29762
29767
29764
29763
29766
29767
29763
29772
29758
29760
29757
29762
29764
29765
29759
29760
29764
29762
29759
29761
29759
29764
29754
29765
29756
29756
29759
29757
29767
29748
29762
29751
29746
29753
29756
29748
29751
29758
29733
29745
29746
29744
29747
29743
29748
29753
29748
29750
29746
29743
29747
29740
29743
29732
29725
29727
29727
29733
29727
29727
29719
29727
29735
29732
29729
29730
29727
29729
29735
29726
29717
29723
29709
29711
29711
29717
29703
29709
29703
29713
29711
29703
29712
29714
29717
29714
29711
29717
29709
29709
29703
29703
29695
29703
29690
29697
29687
29693
29691
29694
29686
29694
29695
29696
29702
29691
29689
29690
29692
29687
29690
29691
29676
29673
29676
29677
29671
29678
29668
29678
29662
29669
29666
29666
29665
29675
29669
29661
29668
29670
29662
29660
29664
29649
29653
29655
29655
29646
29655
29646
29646
29648
29653
29649
29653
29649
29653
29650
29644
29643
29644
29638
29636
29637
29629
29624
29624
29617
29624
29620
29630
29620
29628
29620
29623
29628
29626
29627
29622
29607
29614
29605
29600
29587
29605
29605
29607
29602
29596
29599
29596
29594
29596
29606
29604
29607
29603
29604
29598
29591
29595
29594
29587
29591
29585
29581
29582
29581
29580
29573
29577
29572
29580
29572
29583
29580
29575
29580
29575
29572
29568
29561
29568
29558
29559
29555
29559
29557
29562
29556
29558
29554
29555
29556
29559
29559
29554
29557
29556
29551
29543
29544
29540
29539
29540
29535
29535
29532
29531
29535
29538
29534
29535
29543
29543
29537
29539
29532
29532
29528
29532
29523
29519
29525
29519
29508
29510
29512
29510
29511
29506
29513
29516
29519
29522
29524
29523
29519
29513
29516
29508
29500
29503
29499
29495
29497
29500
29493
29487
29492
29492
29488
29493
29495
29490
29495
29488
29497
29491
29493
29484
29489
29482
29475
29476
29476
29476
29477
29468
29472
29475
29476
29471
29476
29472
29470
29473
29478
29469
29471
29463
29462
29461
29456
29460
29455
29452
29447
29447
29455
29447
29454
29450
29459
29459
29463
29457
29455
29455
29452
29453
29447
29438
29439
29438
29439
29438
29438
29439
29440
29447
29447
29434
29443
29446
29447
29446
29443
29433
29431
29433
29432
29428
29425
29422
29415
29415
29420
29420
29420
29421
29423
29421
29430
29423
29431
29428
29425
29424
29422
29421
29414
29409
29415
29410
29414
29400
29404
29407
29405
29413
29406
29412
29406
29413
29412
29411
29415
29418
29411
29403
29399
29398
29397
29393
29391
29386
29391
29392
29396
29390
29392
29396
29399
29391
29396
29399
29391
29393
29388
29388
29387
29380
29378
29383
29371
29373
29367
29372
29368
29376
29380
29371
29374
29377
29382
29383
29373
29372
29379
29365
29359
29359
29359
29356
29358
29350
29349
29348
29345
29351
29354
29351
29361
29349
29354
29364
29375
29357
29350
29355
29335
29349
29339
29335
29329
29335
29332
29341
29334
29349
29345
29353
29354
29348
29353
29347
29348
29343
29349
29349
29343
29341
29335
29334
29340
29339
29327
29331
29329
29330
29335
29335
29323
29332
29331
29334
29331
29327
29329
29326
29319
29326
29317
29319
29312
29316
29304
29308
29307
29319
29310
29314
29313
29319
29313
29316
29306
29316
29300
29297
29303
29295
29303
29288
29300
29295
29295
29290
29292
29297
29295
29293
29300
29295
29297
29292
29297
29299
29287
29287
29285
29286
29286
29278
29281
29277
29279
29279
29271
29279
29277
29287
29278
29286
29279
29285
29281
29279
29277
29273
29268
29276
29265
29265
29263
29259
29262
29262
29269
29269
29263
29269
29279
29271
29268
29268
29269
29268
29265
29261
29263
29263
29256
29255
29252
29257
29252
29253
29252
29259
29253
29248
29254
29255
29252
29253
29247
29255
29247
29250
29251
29250
29239
29242
29248
29247
29236
29247
29237
29251
29246
29251
29244
29245
29248
29243
29244
29250
29249
29236
29243
29246
29247
29244
29247
29246
29237
29241
29241
29238
29238
29243
29236
29241
29241
29238
29247
29245
29245
29238
29235
29230
29231
29230
29234
29224
29235
29231
29234
29233
29226
29231
29242
29230
29235
29232
29237
29236
29232
29237
29239
29239
29227
29229
29223
29226
29223
29226
29226
29220
29222
29231
29227
29227
29241
29233
29237
29231
29225
29229
29231
29222
29223
29218
29223
29217
29218
29217
29212
29221
29220
29221
29220
29222
29231
29226
29231
29227
29226
29224
29220
29221
29223
29217
29221
29220
29220
29215
29222
29221
29215
29220
29222
29226
29228
29225
29231
29231
29227
29218
29221
29220
29221
29213
29217
29213
29218
29218
29212
29216
29221
29220
29227
29225
29229
29226
29230
29229
29223
29225
29220
29217
29221
29212
29215
29215
29212
29220
29223
29221
29223
29223
29226
29225
29228
29228
29232
29229
29228
29222
29228
29231
29226
29223
29223
29225
29226
29223
29223
29233
29235
29238
29233
29242
29239
29247
29244
29246
29243
29239
29238
29239
29239
29236
29239
29236
29240
29237
29244
29250
29252
29250
29257
29255
29260
29255
29259
29257
29260
29262
29255
29258
29252
29255
29255
29259
29256
29255
29263
29260
29270
29263
29270
29277
29276
29274
29281
29279
29278
29283
29275
29279
29278
29269
29279
29275
29269
29279
29282
29283
29287
29289
29285
29286
29291
29287
29293
29298
29289
29294
29295
29287
29292
29287
29293
29284
29289
29293
29290
29292
29303
29295
29297
29299
29310
29306
29303
29302
29305
29300
29309
29303
29303
29302
29305
29300
29308
29314
29305
29297
29308
29310
29312
29319
29317
29319
29327
29319
29325
29327
29325
29319
29319
29313
29307
29311
29311
29317
29313
29319
29319
29316
29325
29327
29325
29332
29335
29327
29325
29324
29330
29325
29327
29317
29325
29321
29322
29322
29327
29332
29334
29327
29334
29340
29337
29337
29343
29340
29333
29341
29333
29325
29333
29335
29329
29329
29332
29338
29335
29334
29340
29348
29338
29342
29351
29351
29346
29354
29354
29351
29341
29348
29347
29343
29349
29343
29345
29343
29350
29350
29353
29356
29359
29358
29364
29367
29366
29362
29364
29364
29357
29359
29356
29356
29351
29355
29353
29354
29351
29359
29351
29362
29363
29364
29367
29372
29377
29372
29364
29373
29372
29359
29362
29364
29361
29369
29367
29367
29371
29375
29374
29377
29379
29385
29383
29386
29389
29380
29382
29375
29376
29383
29381
29374
29372
29368
29372
29383
29379
29379
29380
29385
29399
29391
29391
29398
29395
29388
29393
29389
29391
29388
29388
29387
29388
29383
29386
29386
29388
29394
29397
29398
29413
29407
29408
29414
29404
29409
29403
29396
29396
29393
29398
29404
29401
29399
29391
29401
29401
29410
29407
29411
29415
29417
29416
29423
29420
29414
29421
29415
29414
29407
29410
29413
29412
29415
29414
29415
29418
29414
29420
29423
29431
29435
29431
29436
29435
29426
29433
29431
29429
29435
29429
29428
29425
29426
29431
29436
29431
29435
29439
29435
29445
29442
29446
29455
29447
29447
29447
29446
29445
29439
29447
29447
29443
29446
29445
29447
29446
29458
29454
29452
29455
29463
29460
29464
29460
29458
29458
29460
29459
29463
29453
29458
29459
29453
29446
29452
29461
29458
29471
29468
29474
29477
29475
29471
29465
29476
29464
29471
29468
29469
29471
29471
29463
29463
29468
29465
29473
29467
29471
29479
29476
29490
29479
29487
29487
29487
29486
29472
29479
29478
29473
29482
29479
29457
29466
29473
29479
29479
29482
29484
29487
29494
29492
29495
29491
29493
29491
29484
29479
29479
29484
29483
29482
29476
29484
29479
29489
29486
29492
29493
29503
29500
29499
29508
29503
29498
29502
29498
29501
29489
29493
29487
29495
29490
29495
29493
29500
29493
29504
29504
29500
29506
29507
29503
29510
29508
29514
29499
29501
29499
29500
29497
29507
29498
29505
29499
29507
29502
29521
29520
29519
29526
29516
29530
29519
29542
29532
29526
29532
29527
29523
29527
29519
29524
29519
29527
29537
29528
29533
29540
29543
29546
29545
29540
29543
29551
29541
29543
29539
29535
29542
29534
29532
29531
29537
29535
29543
29538
29543
29540
29555
29548
29551
29544
29551
29543
29550
29542
29541
29541
29545
29535
29535
29534
29540
29540
29548
29543
29548
29534
29548
29551
29547
29541
29540
29545
29545
29546
29541
29537
29540
29541
29543
29524
29543
29536
29534
29541
29546
29539
29550
29550
29546
29557
29550
29549
29548
29541
29539
29542
29543
29533
29535
29532
29534
29535
29538
29541
29535
29551
29547
29536
29551
29543
29546
29545
29545
29540
29534
29541
29533
29542
29532
29532
29535
29541
29532
29523
29532
29543
29543
29540
29548
29537
29539
29542
29540
29533
29535
29529
29527
29530
29523
29527
29527
29527
29531
29530
29532
29535
29530
29529
29534
29537
29535
29532
29530
29524
29525
29522
29527
29527
29519
29514
29523
29525
29520
29516
29524
29519
29527
29516
29518
29525
29526
29529
29526
29525
29518
29511
29512
29519
29511
29513
29515
29511
29511
29518
29510
29513
29519
29519
29519
29515
29518
29517
29515
29509
29509
29507
29500
29503
29503
29505
29503
29499
29503
29508
29511
29509
29511
29508
29510
29513
29513
29511
29505
29497
29492
29503
29492
29501
29494
29495
29495
29497
29500
29490
29500
29500
29503
29497
29498
29496
29495
29489
29491
29499
29493
29489
29486
29484
29486
29478
29477
29477
29483
29487
29487
29485
29483
29489
29484
29487
29495
29494
29486
29481
29476
29482
29476
29473
29471
29468
29473
29472
29478
29469
29471
29473
29486
29481
29480
29482
29482
29478
29479
29471
29476
29469
29471
29468
29469
29475
29463
29471
29470
29476
29471
29473
29465
29471
29475
29471
29473
29473
29466
29463
29461
29460
29461
29461
29451
29461
29455
29459
29447
29455
29460
29460
29463
29465
29465
29460
29463
29465
29455
29459
29447
29447
29447
29444
29439
29447
29445
29431
29446
29447
29439
29447
29447
29457
29447
29447
29447
29441
29446
29442
29439
29436
29441
29426
29423
29423
29429
29431
29429
29442
29434
29444
29438
29439
29435
29439
29439
29436
29434
29431
29431
29431
29424
29426
29418
29419
29425
29422
29423
29420
29421
29423
29430
29428
29430
29439
29438
29435
29429
29429
29421
29423
29419
29412
29423
29417
29423
29414
29417
29419
29421
29431
29418
29423
29423
29422
29421
29424
29420
29414
29415
29409
29412
29414
29413
29409
29413
29414
29414
29409
29413
29420
29420
29416
29423
29419
29417
29418
29421
29419
29404
29412
29406
29406
29407
29402
29407
29404
29412
29411
29407
29414
29415
29419
29415
29418
29417
29417
29406
29407
29404
29405
29407
29395
29397
29401
29398
29401
29401
29403
29407
29406
29402
29407
29404
29410
29405
29407
29405
29404
29404
29390
29395
29391
29386
29384
29385
29391
29383
29387
29397
29391
29393
29390
29393
29395
29391
29378
29391
29383
29381
29378
29381
29377
29366
29373
29363
29375
29375
29370
29377
29378
29377
29383
29385
29380
29379
29377
29373
29375
29362
29369
29365
29360
29362
29359
29359
29356
29363
29359
29359
29356
29361
29367
29369
29367
29367
29357
29349
29350
29354
29349
29348
29349
29340
29342
29340
29340
29342
29343
29343
29343
29343
29348
29351
29340
29348
29347
29340
29338
29332
29332
29327
29327
29327
29329
29322
29324
29327
29327
29322
29335
29327
29332
29335
29332
29332
29325
29327
29316
29317
29319
29311
29311
29309
29310
29315
29303
29311
29307
29311
29310
29315
29308
29311
29314
29311
29308
29306
29303
29300
29301
29303
29299
29293
29298
29290
29297
29295
29293
29295
29293
29295
29298
29295
29301
29303
29300
29295
29294
29287
29280
29279
29284
29276
29276
29277
29275
29279
29281
29276
29278
29283
29284
29278
29283
29277
29275
29277
29279
29262
29260
29263
29263
29260
29263
29263
29263
29255
29260
29263
29261
29255
29260
29277
29263
29263
29259
29263
29255
29246
29247
29250
29247
29241
29239
29243
29237
29237
29230
29239
29245
29236
29239
29243
29241
29241
29239
29239
29239
29230
29229
29222
29215
29218
29221
29223
29216
29216
29221
29221
29223
29217
29223
29226
29222
29217
29222
29220
29215
29215
29214
29209
29198
29207
29203
29191
29191
29196
29205
29203
29206
29207
29207
29209
29205
29206
29207
29203
29198
29191
29188
29191
29191
29187
29182
29188
29181
29180
29167
29185
29191
29188
29190
29190
29188
29191
29183
29187
29188
29188
29187
29181
29176
29166
29169
29170
29166
29175
29178
29175
29182
29183
29187
29183
29177
29183
29189
29181
29175
29175
29180
29172
29172
29169
29170
29167
29159
29168
29165
29175
29172
29167
29179
29175
29175
29172
29167
29167
29157
29158
29159
29159
29150
29153
29156
29153
29156
29155
29157
29152
29161
29162
29164
29165
29162
29154
29157
29151
29157
29144
29149
29154
29142
29143
29140
29143
29144
29151
29151
29140
29157
29149
29159
29143
29159
29141
29163
29141
29156
29147
29151
29141
29150
29138
29145
29140
29138
29148
29144
29137
29146
29143
29155
29150
29150
29147
29140
29140
29134
29127
29127
29124
29126
29121
29120
29116
29125
29124
29125
29124
29127
29123
29125
29125
29119
29119
29124
29124
29119
29113
29108
29111
29102
29100
29102
29096
29101
29099
29097
29103
29108
29102
29101
29108
29095
29093
29087
29093
29089
29089
29086
29081
29082
29082
29076
29074
29079
29082
29076
29079
29063
29073
29078
29085
29074
29079
29075
29071
29069
29063
29059
29063
29063
29055
29058
29055
29055
29055
29054
29061
29051
29055
29053
29055
29053
29051
29054
29046
29038
29041
29031
29031
29036
29031
29031
29026
29029
29029
29031
29028
29031
29031
29035
29030
29034
29031
29031
29028
29017
29022
29017
29007
29017
29010
29003
28991
28997
29002
29005
29007
29007
29007
29013
29018
29011
29010
28993
28999
28996
28989
28997
28988
28989
28983
28986
28976
28982
28980
28983
28980
28982
28986
28983
28989
28978
28984
28987
28975
28975
28972
28970
28966
28961
28959
28957
28961
28956
28948
28956
28958
28965
28959
28964
28965
28967
28965
28961
28957
28953
28952
28945
28943
28946
28940
28942
28935
28942
28932
28933
28929
28935
28939
28940
28939
28935
28933
28935
28932
28935
28923
28927
28927
28918
28919
28919
28919
28915
28915
28918
28917
28911
28922
28922
28919
28923
28923
28922
28918
28911
28911
28908
28903
28901
28897
28892
28896
28901
28896
28895
28899
28895
28898
28898
28894
28896
28894
28890
28891
28886
28882
28887
28883
28874
28873
28876
28867
28879
28875
28874
28877
28879
28877
28886
28879
28879
28876
28869
28872
28868
28866
28857
28859
28863
28850
28849
28861
28853
28849
28850
28852
28846
28844
28855
28858
28861
28855
28850
28847
28843
28837
28838
28831
28834
28833
28831
28826
28828
28824
28831
28830
28835
28833
28833
28836
28835
28831
28830
28824
28821
28815
28815
28820
28809
28812
28814
28805
28815
28812
28809
28803
28806
28813
28807
28812
28810
28807
28807
28799
28801
28796
28792
28784
28786
28788
28785
28780
28789
28785
28784
28780
28787
28788
28785
28783
28792
28788
28788
28774
28777
28776
28775
28765
28755
28767
28769
28756
28762
28765
28764
28759
28767
28761
28760
28764
28773
28762
28767
28754
28759
28745
28751
28745
28740
28732
28741
28742
28743
28735
28742
28741
28747
28741
28740
28742
28743
28739
28732
28732
28731
28729
28720
28724
28717
28711
28723
28711
28721
28711
28713
28718
28713
28717
28721
28725
28714
28715
28711
28708
28709
28705
28706
28709
28699
28695
28692
28695
28698
28687
28685
28691
28695
28691
28698
28691
28695
28692
28687
28679
28687
28679
28679
28678
28671
28670
28666
28663
28668
28663
28663
28669
28669
28671
28670
28674
28670
28671
28668
28663
28663
28655
28653
28652
28654
28648
28652
28643
28652
28633
28644
28639
28646
28645
28650
28648
28645
28652
28651
28647
28639
28636
28628
28630
28622
28625
28629
28614
28620
28614
28617
28623
28618
28620
28629
28623
28622
28615
28623
28616
28618
28612
28615
28607
28604
28599
28598
28596
28597
28596
28595
28598
28593
28602
28599
28601
28599
28598
28598
28590
28591
28586
28583
28583
28582
28578
28577
28567
28573
28568
28572
28567
28571
28573
28575
28575
28575
28573
28566
28564
28557
28559
28549
28548
28551
28539
28549
28546
28543
28535
28551
28547
28547
28546
28544
28547
28546
28540
28548
28536
28534
28535
28527
28527
28526
28527
28514
28518
28525
28516
28522
28519
28519
28523
28523
28522
28523
28524
28519
28515
28514
28506
28504
28501
28496
28497
28500
28489
28492
28493
28490
28492
28491
28490
28491
28495
28490
28492
28490
28489
28485
28481
28478
28478
28477
28471
28458
28462
28468
28466
28468
28467
28469
28469
28471
28475
28468
28458
28464
28460
28453
28454
28455
28450
28437
28438
28446
28444
28436
28439
28437
28438
28438
28438
28447
28442
28445
28447
28447
28439
28428
28430
28433
28420
28417
28419
28412
28414
28414
28415
28419
28420
28413
28420
28420
28419
28413
28412
28415
28407
28410
28399
28394
28394
28391
28384
28391
28389
28390
28386
28385
28386
28388
28389
28390
28390
28384
28383
28388
28380
28374
28378
28374
28366
28365
28363
28359
28361
28363
28359
28360
28365
28363
28361
28362
28366
28359
28359
28359
28361
28351
28348
28341
28341
28343
28341
28335
28335
28330
28334
28335
28335
28335
28343
28345
28337
28343
28337
28331
28340
28330
28325
28325
28326
28324
28311
28313
28311
28311
28312
28308
28319
28319
28316
28318
28318
28318
28313
28308
28308
28308
28303
28303
28295
28292
28295
28285
28287
28293
28289
28285
28293
28293
28281
28289
28289
28280
28287
28285
28279
28277
28277
28271
28261
28263
28262
28262
28264
28255
28253
28263
28260
28261
28263
28265
28259
28261
28260
28258
28256
28255
28246
28247
28237
28234
28239
28228
28234
28228
28235
28231
28231
28235
28230
28234
28238
28235
28234
28226
28220
28225
28218
28213
28207
28209
28207
28209
28205
28199
28200
28205
28203
28212
28201
28202
28201
28202
28199
28198
28196
28193
28191
28183
28185
28177
28173
28167
28183
28175
28176
28167
28180
28172
28187
28167
28179
28195
28190
28183
28183
28199
28190
28180
28179
28180
28165
28167
28159
28167
28159
28167
28171
28187
28166
28158
28167
28161
28167
28167
28151
28155
28149
28148
28142
28135
28132
28132
28132
28127
28131
28127
28122
28118
28131
28132
28140
28128
28129
28123
28122
28119
28116
28107
28103
28108
28103
28110
28102
28102
28102
28095
28100
28106
28102
28103
28097
28096
28092
28089
28086
28081
28079
28071
28080
28073
28077
28072
28074
28069
28070
28071
28072
28071
28076
28068
28073
28068
28063
28063
28060
28052
28049
28055
28051
28047
28043
28042
28039
28039
28039
28039
28039
28039
28047
28039
28039
28043
28037
28038
28031
28025
28029
28020
28021
28004
28010
28012
28013
28019
28007
28013
28017
28014
28011
28009
28009
28006
28004
28006
28005
27998
27996
27991
27989
27989
27985
27987
27991
27978
27986
27979
27988
27980
27989
27989
27986
27984
27974
27976
27972
27967
27975
27961
27958
27956
27954
27956
27951
27953
27949
27953
27951
27958
27956
27951
27957
27947
27954
27949
27946
27947
27936
27940
27930
27935
27925
27932
27927
27930
27922
27925
27929
27927
27924
27927
27932
27927
27925
27922
27923
27910
27911
27911
27909
27906
27900
27901
27901
27888
27891
27892
27900
27895
27901
27903
27892
27894
27900
27895
27887
27885
27884
27877
27882
27875
27868
27875
27871
27866
27869
27871
27864
27871
27866
27871
27866
27871
27868
27868
27857
27855
27855
27849
27851
27847
27847
27844
27844
27835
27841
27837
27842
27851
27847
27846
27847
27847
27845
27844
27836
27837
27831
27826
27823
27825
27821
27821
27804
27813
27818
27820
27815
27819
27819
27812
27817
27814
27818
27820
27810
27809
27813
27802
27794
27796
27791
27795
27790
27788
27783
27781
27792
27791
27799
27793
27785
27792
27792
27790
27790
27782
27783
27773
27772
27771
27765
27766
27767
27760
27761
27764
27765
27759
27759
27766
27767
27767
27772
27756
27755
27754
27749
27751
27750
27743
27740
27743
27742
27741
27739
27741
27740
27743
27735
27739
27741
27732
27732
27733
27731
27725
27724
27725
27727
27721
27719
27719
27715
27711
27717
27713
27715
27714
27710
27717
27716
27719
27718
27709
27708
27707
27700
27694
27695
27695
27686
27691
27687
27685
27685
27686
27685
27687
27687
27691
27689
27693
27689
27684
27686
27681
27678
27679
27674
27666
27661
27660
27663
27657
27661
27666
27666
27671
27663
27668
27661
27671
27668
27655
27655
27654
27648
27653
27651
27647
27642
27644
27637
27644
27638
27641
27642
27641
27641
27644
27642
27640
27641
27634
27637
27629
27628
27628
27622
27622
27614
27621
27617
27613
27619
27621
27612
27620
27618
27621
27626
27623
27620
27613
27604
27611
27607
27602
27600
27598
27596
27592
27586
27595
27594
27590
27590
27598
27595
27595
27595
27589
27592
27591
27588
27582
27581
27582
27575
27570
27573
27577
27559
27565
27569
27565
27572
27575
27572
27574
27577
27575
27564
27573
27567
27567
27558
27564
27557
27549
27549
27551
27542
27549
27546
27551
27543
27547
27549
27555
27548
27552
27549
27551
27550
27540
27535
27532
27526
27525
27524
27527
27516
27526
27522
27525
27527
27526
27527
27527
27527
27525
27527
27525
27524
27514
27514
27508
27514
27501
27502
27500
27503
27500
27498
27503
27505
27503
27510
27511
27509
27507
27504
27503
27499
27495
27492
27487
27487
27487
27486
27484
27479
27479
27478
27484
27478
27487
27482
27487
27484
27485
27479
27487
27479
27471
27471
27467
27466
27455
27466
27457
27453
27452
27453
27454
27462
27462
27461
27463
27454
27460
27456
27452
27454
27441
27447
27442
27435
27436
27438
27438
27428
27433
27436
27434
27431
27439
27443
27433
27437
27441
27438
27439
27431
27429
27431
27423
27421
27411
27416
27409
27419
27409
27413
27411
27413
27416
27413
27417
27418
27418
27418
27412
27406
27399
27403
27399
27398
27399
27391
27387
27390
27388
27388
27388
27387
27391
27396
27396
27397
27396
27395
27395
27380
27384
27374
27376
27375
27373
27367
27375
27372
27366
27367
27367
27367
27367
27373
27373
27375
27373
27372
27375
27367
27358
27359
27356
27358
27353
27355
27356
27345
27351
27351
27349
27351
27351
27349
27349
27355
27354
27346
27347
27349
27336
27340
27339
27334
27337
27330
27326
27319
27321
27322
27329
27329
27332
27335
27335
27338
27334
27339
27328
27327
27319
27319
27313
27319
27311
27311
27303
27308
27308
27305
27302
27313
27308
27307
27311
27302
27313
27310
27308
27305
27303
27307
27292
27287
27292
27285
27287
27287
27284
27285
27284
27289
27291
27291
27292
27287
27292
27288
27292
27281
27281
27273
27272
27271
27271
27269
27267
27269
27263
27263
27265
27267
27271
27277
27277
27276
27271
27271
27264
27260
27262
27255
27251
27255
27252
27247
27245
27237
27247
27247
27247
27252
27255
27255
27252
27252
27255
27253
27246
27245
27242
27238
27229
27237
27225
27231
27230
27225
27229
27229
27227
27236
27231
27236
27223
27234
27230
27235
27229
27231
27216
27218
27215
27212
27209
27215
27212
27210
27204
27207
27212
27207
27204
27212
27212
27215
27210
27212
27207
27204
27206
27202
27195
27196
27193
27196
27191
27185
27194
27190
27186
27186
27189
27189
27196
27184
27193
27189
27189
27185
27183
27176
27176
27175
27173
27167
27173
27173
27172
27172
27173
27167
27172
27175
27183
27175
27183
27176
27183
27173
27173
27167
27175
27172
27166
27164
27143
27161
27148
27163
27143
27162
27159
27170
27190
27179
27187
27191
27183
27170
27172
27168
27164
27154
27164
27159
27164
27148
27143
27149
27149
27143
27149
27143
27143
27151
27149
27143
27143
27135
27140
27132
27133
27127
27122
27119
27125
27127
27127
27124
27123
27128
27127
27117
27127
27135
27127
27127
27132
27119
27119
27109
27111
27109
27111
27109
27106
27106
27103
27100
27103
27105
27103
27110
27111
27111
27113
27110
27104
27103
27096
27103
27092
27095
27085
27087
27090
27081
27084
27087
27085
27090
27087
27085
27089
27095
27094
27089
27085
27090
27082
27079
27078
27073
27073
27071
27068
27071
27064
27066
27071
27067
27073
27077
27068
27076
27070
27071
27071
27067
27066
27063
27057
27059
27055
27054
27053
27055
27049
27046
27052
27057
27048
27060
27057
27060
27063
27055
27057
27057
27046
27045
27044
27043
27042
27034
27039
27032
27039
27038
27033
27036
27046
27046
27043
27046
27047
27042
27034
27042
27038
27034
27038
27029
27007
27025
27023
27023
27017
27021
27023
27023
27037
27031
27028
27029
27026
27037
27027
27031
27028
27015
27015
27009
27012
27015
27007
27008
27014
27007
27010
27012
27012
27015
27013
27017
27015
27018
27015
27013
27009
27006
27010
27005
26999
26996
26996
27001
26995
26999
26995
26999
26999
27005
27007
27015
27007
27011
27004
27004
27001
26997
26993
26993
26990
26984
26986
26986
26986
26989
26986
26986
26999
26997
26994
26996
27001
26998
26994
26992
26983
26982
26988
26982
26980
26983
26977
26975
26982
26977
26980
26979
26980
26983
26991
26982
26987
26983
26987
26983
26981
26975
26975
26978
26969
26964
26965
26970
26967
26961
26963
26967
26971
26975
26969
26968
26977
26979
26979
26966
26969
26961
26961
26964
26959
26964
26957
26961
26957
26956
26957
26956
26957
26958
26956
26950
26951
26951
26958
26954
26957
26953
26947
26953
26953
26951
26943
26952
26951
26953
26948
26949
26951
26950
26949
26949
26951
26949
26949
26949
26951
26938
26947
26947
26948
26949
26950
26944
26948
26949
26945
26951
26943
26946
26946
26945
26950
26947
26950
26948
26945
26944
26945
26948
26943
26947
26948
26940
26945
26943
26943
26945
26948
26945
26950
26946
26949
26948
26950
26946
26948
26945
26945
26937
26945
26939
26937
26941
26947
26942
26951
26944
26948
26947
26948
26942
26951
26946
26948
26943
26940
26948
26938
26943
26941
26948
26951
26950
26948
26949
26951
26943
26951
26948
26948
26951
26949
26950
26939
26951
26949
26950
26955
26950
26946
26953
26951
26948
26951
26951
26958
26959
26955
26955
26951
26950
26959
26956
26954
26959
26957
26953
26956
26967
26955
26959
26959
26959
26959
26956
26967
26958
26969
26962
26974
26969
26967
26967
26966
26961
26971
26965
26973
26970
26973
26967
26970
26974
26975
26983
26972
26977
26980
26975
26979
26983
26983
26982
26981
26982
26983
26991
26983
26984
26983
26991
26985
26995
26989
26990
26989
26993
26997
26999
26999
26993
26999
26996
27001
26997
27001
27001
27006
27006
27005
27003
27011
27005
27006
27007
27013
27017
27014
27018
27015
27013
27021
27015
27019
27023
27018
27023
27028
27029
27029
27032
27028
27033
27037
27039
27030
27038
27039
27039
27040
27044
27049
27047
27054
27047
27052
27045
27057
27055
27058
27055
27065
27062
27063
27066
27068
27062
27072
27068
27076
27075
27078
27079
27082
27087
27092
27087
27084
27085
27094
27089
27093
27099
27100
27097
27101
27103
27109
27110
27110
27114
27117
27116
27119
27124
27118
27126
27126
27125
27131
27133
27137
27138
27139
27140
27143
27143
27143
27156
27149
27159
27148
27162
27162
27163
27169
27170
27170
27174
27175
27174
27182
27180
27183
27188
27191
27192
27197
27197
27196
27196
27206
27205
27212
27213
27215
27218
27213
27227
27221
27222
27231
27230
27239
27238
27246
27243
27240
27252
27247
27255
27255
27261
27258
27262
27263
27268
27271
27280
27276
27280
27285
27291
27287
27299
27293
27302
27301
27308
27311
27313
27317
27323
27324
27334
27327
27329
27335
27341
27343
27342
27349
27356
27356
27363
27361
27366
27367
27366
27381
27380
27381
27383
27388
27387
27391
27393
27399
27404
27409
27407
27416
27413
27419
27426
27431
27431
27438
27438
27444
27449
27455
27455
27455
27463
27462
27475
27474
27479
27482
27485
27487
27500
27497
27502
27502
27504
27514
27513
27525
27520
27521
27527
27527
27533
27536
27543
27551
27552
27557
27558
27558
27569
27571
27582
27583
27592
27585
27593
27594
27596
27607
27610
27615
27617
27620
27620
27629
27632
27636
27647
27645
27655
27655
27669
27668
27673
27670
27678
27686
27693
27691
27693
27703
27710
27707
27706
27717
27722
27726
27727
27735
27743
27741
27745
27752
27758
27766
27767
27770
27778
27783
27791
27791
27793
27804
27801
27810
27819
27815
27823
27830
27829
27839
27846
27846
27848
27857
27865
27866
27873
27878
27882
27887
27893
27895
27896
27898
27909
27915
27923
27923
27924
27940
27940
27943
27956
27950
27964
27964
27951
27973
27983
27988
27987
27999
28001
28007
28012
28005
28019
28026
28030
28034
28046
28045
28045
28052
28060
28063
28068
28076
28079
28081
28087
28092
28100
28104
28104
28110
28120
28127
28131
28139
28136
28146
28146
28159
28154
28173
28183
28196
28191
28189
28205
28196
28215
28207
28228
28222
28247
28255
28232
28255
28249
28268
28263
28287
28278
28297
28293
28309
28305
28316
28322
28327
28327
28329
28340
28348
28346
28353
28358
28374
28372
28375
28380
28389
28391
28398
28399
28404
28396
28421
28433
28429
28437
28447
28457
28453
28459
28457
28466
28469
28482
28482
28490
28493
28505
28511
28514
28524
28529
28535
28535
28541
28545
28551
28556
28567
28568
28581
28566
28580
28591
28592
28600
28602
28613
28620
28623
28634
28643
28644
28647
28655
28655
28665
28664
28679
28679
28687
28694
28691
28702
28710
28718
28722
28725
28728
28730
28747
28755
28758
28764
28765
28767
28777
28773
28791
28796
28799
28799
28807
28815
28827
28830
28829
28838
28847
28848
28857
28868
28862
28876
28879
28885
28884
28899
28900
28902
28923
28927
28933
28941
28946
28944
28959
28963
28965
28967
28974
28978
28985
28995
28992
29005
29012
29012
29020
29026
29027
29036
29039
29047
29052
29057
29057
29065
29076
29077
29091
29098
29103
29111
29118
29119
29123
29121
29131
29142
29135
29147
29154
29159
29167
29178
29175
29179
29191
29189
29204
29205
29215
29228
29231
29231
29239
29247
29249
29253
29262
29266
29271
29284
29287
29292
29301
29306
29309
29313
29324
29325
29329
29333
29351
29343
29345
29355
29362
29371
29374
29380
29387
29390
29396
29405
29411
29412
29427
29423
29435
29438
29444
29447
29453
29456
29471
29471
29475
29483
29485
29493
29499
29510
29504
29512
29526
29526
29531
29537
29540
29549
29552
29552
29562
29563
29575
29574
29583
29589
29596
29598
29613
29612
29616
29631
29630
29639
29641
29647
29651
29652
29663
29670
29672
29684
29680
29692
29698
29703
29702
29703
29722
29723
29724
29731
29732
29749
29748
29755
29758
29767
29772
29781
29777
29787
29791
29797
29804
29815
29815
29816
29825
29831
29839
29833
29851
29853
29858
29871
29871
29871
29883
29884
29889
29898
29902
29911
29918
29927
29927
29923
29943
29943
29946
29951
29954
29967
29977
29981
29987
29990
29994
30001
30002
29998
30014
30013
30025
30031
30030
30037
30049
30059
30060
30066
30071
30068
30084
30087
30092
30095
30098
30101
30106
30108
30119
30126
30132
30130
30140
30148
30149
30152
30164
30167
30170
30177
30183
30193
30193
30201
30204
30212
30214
30220
30228
30231
30240
30234
30246
30246
30266
30265
30271
30279
30276
30285
30293
30293
30297
30308
30310
30317
30324
30332
30338
30341
30343
30348
30351
30358
30367
30368
30372
30383
30373
30381
30395
30394
30406
30410
30407
30415
30419
30429
30429
30437
30439
30446
30449
30452
30454
30456
30468
30481
30472
30479
30494
30493
30503
30501
30516
30519
30522
30527
30535
30535
30546
30539
30547
30545
30558
30556
30567
30574
30578
30572
30583
30591
30597
30601
30600
30615
30620
30623
30636
30633
30631
30642
30645
30657
30660
30661
30678
30674
30676
30682
30686
30695
30699
30700
30707
30711
30711
30716
30725
30727
30740
30740
30751
30748
30756
30757
30767
30765
30774
30770
30775
30783
30786
30797
30799
30800
30807
30810
30807
30826
30823
30829
30836
30846
30844
30846
30850
30855
30861
30863
30873
30858
30876
30885
30884
30897
30899
30895
30903
30910
30926
30919
30924
30925
30933
30930
30939
30948
30947
30955
30958
30958
30973
30980
30974
30988
30993
30990
31004
30999
31010
31011
31020
31020
31023
31023
31029
31033
31030
31036
31043
31051
31055
31054
31069
31058
31073
31072
31071
31076
31082
31089
31097
31095
31101
31109
31111
31119
31125
31125
31127
31137
31140
31143
31146
31148
31157
31150
31167
31167
31169
31175
31183
31178
31191
31193
31191
31188
31194
31207
31207
31209
31212
31214
31217
31217
31215
31225
31230
31237
31239
31250
31246
31255
31266
31265
31259
31265
31270
31273
31273
31270
31283
31284
31286
31288
31294
31294
31303
31295
31313
31308
31319
31316
31324
31327
31334
31335
31339
31338
31343
31341
31343
31351
31351
31351
31358
31365
31367
31375
31373
31370
31383
31388
31389
31389
31399
31399
31391
31398
31404
31409
31409
31406
31407
31408
31416
31423
31420
31412
31429
31427
31429
31434
31431
31446
31453
31446
31444
31457
31463
31463
31461
31467
31463
31475
31471
31479
31476
31471
31476
31487
31487
31486
31479
31495
31503
31492
31494
31493
31511
31516
31516
31519
31519
31525
31525
31531
31526
31519
31513
31535
31547
31537
31545
31546
31541
31550
31550
31556
31551
31571
31567
31569
31561
31567
31567
31582
31580
31591
31591
31588
31591
31591
31599
31594
31605
31607
31609
31603
31623
31617
31617
31621
31627
31607
31622
31614
31631
31629
31625
31618
31637
31631
31645
31636
31650
31638
31655
31656
31655
31668
31671
31676
31675
31668
31679
31679
31679
31679
31685
31686
31687
31687
31689
31687
31690
31698
31700
31687
31695
31703
31703
31706
31719
31719
31718
31719
31716
31724
31716
31729
31735
31727
31732
31732
31743
31746
31747
31736
31744
31742
31748
31750
31751
31756
31759
31750
31759
31767
31770
31751
31772
31771
31764
31769
31773
31773
31774
31783
31785
31783
31791
31781
31789
31797
31795
31796
31796
31796
31807
31799
31807
31803
31802
31806
31812
31809
31808
31815
31816
31820
31822
31823
31830
31834
31827
31827
31826
31837
31837
31843
31836
31847
31844
31852
31855
31860
31865
31857
31866
31860
31865
31868
31871
31876
31879
31881
31885
31884
31876
31879
31891
31890
31880
31879
31883
31879
31885
31892
31887
31897
31899
31896
31895
31902
31900
31903
31901
31903
31903
31893
31890
31910
31908
31907
31917
31915
31916
31910
31924
31919
31923
31921
31922
31919
31925
31925
31924
31911
31919
31931
31931
31911
31937
31930
31934
31934
31935
31916
31932
31939
31938
31931
31945
31940
31942
31932
31936
31943
31928
31942
31946
31947
31943
31943
31941
31956
31951
31959
31927
31953
31956
31953
31959
31958
31961
31959
31954
31963
31955
31959
31970
31973
31967
31971
31957
31973
31971
31974
31967
31969
31966
31962
31965
31964
31978
31968
31973
31975
31975
31974
31976
31980
31975
31985
31980
31974
31970
31987
31982
31986
31983
31985
31972
31988
31987
31983
31991
31991
31982
31988
31997
31998
31998
31999
31990
31998
31998
31997
31996
31998
32015
32006
31986
32007
32002
32001
31999
31999
32005
32007
32012
32007
32015
32013
32005
31994
32015
32020
32022
32025
32027
32031
32020
32028
32025
32028
32016
32021
32014
32024
32023
32031
32020
32019
32023
32030
32022
32036
32033
32037
32036
32036
32028
32031
32032
32036
32030
32037
32043
32034
32039
32039
32039
32041
32043
32046
32039
32049
32037
32033
32037
32047
32050
32049
32047
32053
32054
32039
32045
32047
32046
32044
32054
32052
32057
32054
32056
32060
32063
32061
32063
32071
32054
32057
32070
32067
32068
32059
32066
32063
32069
32068
32076
32073
32071
32075
32070
32063
32071
32083
32082
32087
32081
32079
32082
32084
32090
32084
32085
32087
32090
32092
32087
32095
32079
32092
32093
32091
32092
32094
32105
32102
32102
32089
32102
32104
32109
32109
32092
32105
32094
32103
32103
32100
32110
32094
32111
32114
32114
32111
32111
32111
32111
32113
32115
32111
32125
32123
32126
32127
32127
32119
32122
32118
32123
32117
32122
32125
32119
32116
32117
32125
32124
32126
32130
32133
32108
32124
32124
32127
32127
32129
32131
32135
32135
32126
32127
32128
32132
32130
32136
32135
32131
32134
32132
32125
32135
32135
32135
32142
32135
32143
32135
32138
32138
32140
32137
32149
32141
32151
32143
32143
32148
32143
32140
32147
32135
32135
32143
32139
32138
32135
32130
32136
32143
32148
32149
32151
32146
32154
32142
32149
32154
32148
32148
32143
32135
32148
32151
32153
32152
32153
32142
32156
32149
32151
32159
32137
32165
32150
32162
32156
32163
32159
32160
32158
32157
32163
32162
32161
32161
32164
32159
32159
32156
32169
32173
32167
32175
32175
32171
32175
32175
32184
32173
32187
32175
32176
32173
32174
32175
32185
32183
32177
32181
32186
32183
32186
32189
32184
32188
32191
32185
32175
32189
32181
32191
32189
32188
32191
32188
32192
32192
32202
32189
32194
32188
32204
32199
32199
32199
32195
32198
32192
32189
32203
32198
32199
32199
32199
32207
32195
32201
32200
32202
32205
32204
32202
32207
32204
32206
32186
32199
32207
32207
32207
32211
32195
32204
32196
32202
32212
32203
32213
32207
32212
32202
32205
32207
32212
32209
32210
32209
32215
32212
32215
32206
32213
32217
32206
32209
32206
32211
32207
32215
32202
32212
32212
32206
32204
32204
32215
32200
32214
32197
32207
32215
32212
32216
32210
32207
32213
32215
32213
32207
32217
32223
32216
32217
32218
32220
32220
32208
32220
32206
32221
32215
32209
32220
32215
32215
32208
32220
32220
32212
32215
32218
32218
32212
32223
32221
32223
32216
32222
32221
32222
32215
32223
32215
32214
32223
32218
32218
32219
32220
32213
32212
32207
32219
32220
32215
32213
32225
32215
32220
32211
32206
32220
32219
32223
32218
32216
32218
32223
32215
32214
32215
32213
32215
32212
32198
32212
32197
32212
32215
32216
32211
32210
32206
32201
32210
32213
32214
32218
32219
32220
32221
32215
32217
32220
32227
32215
32220
32217
32221
32219
32213
32212
32208
32217
32219
32222
32221
32217
32227
32229
32225
32228
32231
32224
32231
32230
32231
32220
32229
32209
32233
32226
32229
32229
32226
32233
32234
32234
32229
32233
32237
32235
32228
32233
32231
32232
32225
32236
32231
32231
32236
32233
32239
32235
32243
32231
32239
32239
32246
32245
32247
32252
32230
32243
32245
32237
32250
32247
32245
32244
32258
32245
32247
32250
32255
32236
32247
32253
32236
32254
32252
32257
32255
32255
32259
32249
32252
32258
32254
32250
32237
32247
32245
32251
32239
32252
32241
32250
32240
32260
32255
32253
32263
32263
32263
32255
32247
32239
32257
32257
32260
32263
32263
32250
32253
32263
32263
32263
32258
32260
32262
32263
32260
32263
32260
32259
32261
32253
32260
32255
32263
32263
32263
32257
32262
32252
32253
32257
32263
32260
32260
32255
32255
32260
32258
32253
32257
32253
32262
32258
32248
32255
32244
32250
32248
32255
32250
32240
32253
32237
32260
32231
32249
32247
32255
32252
32254
32253
32251
32246
32241
32245
32237
32239
32240
32241
32239
32237
32239
32236
32244
32244
32245
32246
32239
32239
32238
32237
32239
32246
32239
32244
32236
32255
32246
32251
32252
32244
32254
32244
32259
32252
32261
32254
32255
32259
32254
32252
32258
32255
32260
32262
32252
32252
32258
32262
32229
32255
32251
32253
32244
32250
32253
32255
32254
32261
32255
32255
32250
32255
32252
32257
32259
32261
32255
32257
32250
32252
32242
32246
32247
32252
32228
32249
32231
32249
32253
32252
32255
32251
32252
32247
32251
32244
32246
32250
32248
32246
32245
32248
32255
32237
32251
32258
32249
32255
32263
32244
32251
32255
32258
32255
32248
32231
32258
32247
32255
32259
32252
32260
32247
32254
32246
32254
32259
32252
32253
32247
32260
32257
32249
32253
32247
32247
32242
32244
32246
32245
32252
32246
32258
32257
32251
32256
32236
32255
32244
32246
32252
32249
32257
32239
32244
32249
32241
32234
32245
32239
32247
32231
32244
32241
32229
32247
32246
32222
32238
32246
32241
32237
32241
32244
32244
32241
32222
32231
32231
32238
32238
32246
32243
32230
32238
32247
32239
32239
32239
32243
32231
32242
32231
32236
32234
32231
32231
32232
32222
32237
32231
32234
32228
32231
32230
32228
32231
32226
32225
32229
32224
32223
32219
32228
32214
32218
32222
32225
32222
32219
32221
32215
32207
32208
32223
32219
32222
32215
32217
32223
32219
32210
32215
32206
32212
32213
32222
32199
32207
32205
32205
32212
32205
32207
32215
32207
32196
32207
32212
32206
32207
32207
32196
32202
32206
32200
32198
32203
32199
32204
32204
32198
32205
32203
32198
32189
32198
32195
32196
32197
32199
32192
32198
32195
32189
32196
32189
32190
32183
32188
32195
32195
32191
32187
32184
32187
32183
32183
32180
32182
32175
32173
32177
32172
32169
32167
32173
32174
32174
32172
32173
32175
32158
32164
32168
32164
32171
32166
32164
32167
32161
32164
32163
32170
32165
32167
32159
32162
32143
32159
32151
32159
32164
32154
32156
32153
32154
32157
32159
32150
32156
32153
32156
32149
32134
32129
32137
32134
32137
32129
32139
32138
32135
32134
32141
32142
32140
32140
32134
32133
32129
32127
32135
32129
32119
32107
32124
32126
32124
32126
32131
32134
32114
32124
32127
32117
32124
32118
32113
32117
32119
32095
32103
32108
32111
32095
32106
32100
32103
32102
32103
32102
32101
32104
32103
32079
32106
32111
32100
32103
32103
32081
32094
32096
32096
32093
32098
32084
32087
32092
32095
32093
32078
32092
32090
32088
32086
32086
32087
32083
32078
32078
32078
32086
32078
32079
32080
32079
32087
32061
32069
32082
32079
32083
32068
32077
32072
32075
32076
32071
32073
32070
32063
32068
32078
32070
32065
32071
32066
32071
32055
32062
32068
32067
32068
32068
32058
32066
32070
32071
32058
32065
32039
32050
32045
32052
32050
32053
32054
32047
32050
32051
32063
32051
32052
32033
32044
32044
32051
32053
32039
32042
32051
32047
32051
32036
32045
32041
32041
32038
32038
32036
32040
32034
32025
32028
32033
32030
32035
32037
32017
32031
32025
32027
32026
32015
32028
32037
32028
32031
32020
32016
32015
32019
32000
32013
32014
32014
32019
32006
32007
32001
32010
31999
32007
31991
31999
32004
32006
32005
31999
32007
31994
31998
31996
31999
32005
32002
31997
31995
31991
31991
31988
31998
31983
31988
31993
31991
31991
31972
31981
31988
31989
31980
31985
31989
31983
31962
31980
31975
31980
31979
31963
31981
31975
31978
31975
31974
31980
31972
31974
31970
31970
31960
31968
31968
31966
31973
31968
31969
31961
31957
31964
31962
31969
31964
31964
31959
31967
31956
31967
31957
31958
31953
31961
31959
31950
31949
31951
31948
31948
31953
31939
31946
31947
31953
31943
31948
31947
31944
31953
31938
31946
31945
31938
31940
31936
31935
31934
31932
31940
31939
31936
31925
31930
31930
31928
31929
31923
31914
31927
31925
31919
31912
31924
31924
31924
31925
31916
31910
31914
31908
31915
31903
31908
31909
31899
31911
31906
31908
31911
31908
31903
31896
31899
31899
31901
31903
31893
31889
31903
31892
31892
31887
31888
31886
31881
31890
31883
31879
31871
31878
31877
31878
31879
31866
31868
31868
31871
31868
31863
31862
31867
31863
31860
31854
31852
31857
31854
31850
31849
31851
31852
31847
31847
31852
31847
31847
31847
31847
31831
31842
31845
31842
31844
31831
31836
31840
31831
31829
31828
31826
31815
31827
31821
31828
31822
31816
31821
31823
31815
31819
31805
31812
31818
31807
31804
31799
31804
31807
31804
31804
31807
31798
31804
31801
31805
31793
31796
31781
31787
31788
31793
31784
31782
31780
31782
31791
31783
31772
31780
31783
31783
31778
31774
31783
31776
31775
31780
31775
31770
31765
31770
31769
31743
31764
31767
31751
31747
31748
31751
31758
31740
31746
31751
31751
31745
31747
31751
31743
31742
31748
31723
31734
31735
31741
31746
31722
31732
31732
31726
31723
31729
31724
31730
31732
31716
31725
31722
31723
31716
31719
31719
31712
31705
31715
31713
31702
31702
31706
31709
31704
31700
31700
31703
31689
31691
31695
31695
31692
31692
31684
31685
31677
31684
31679
31682
31677
31677
31668
31674
31678
31670
31671
31662
31663
31662
31669
31662
31652
31660
31660
31659
31663
31654
31654
31646
31654
31650
31644
31660
31649
31648
31650
31644
31650
31647
31645
31652
31636
31644
31651
31641
31642
31642
31640
31637
31643
31647
31632
31636
31635
31634
31644
31638
31644
31641
31645
31634
31637
31639
31628
31622
31623
31623
31623
31619
31616
31620
31620
31612
31617
31615
31602
31603
31612
31613
31606
31613
31592
31607
31599
31607
31591
31588
31592
31597
31585
31591
31586
31591
31586
31584
31584
31578
31572
31582
31577
31582
31582
31571
31575
31565
31575
31562
31568
31564
31559
31562
31557
31550
31552
31556
31557
31548
31558
31535
31545
31546
31551
31553
31535
31535
31545
31532
31532
31528
31529
31535
31530
31532
31531
31518
31514
31527
31524
31527
31532
31519
31533
31525
31525
31508
31514
31510
31521
31508
31492
31501
31501
31502
31507
31495
31497
31500
31507
31494
31495
31495
31493
31494
31487
31495
31488
31491
31495
31478
31490
31484
31491
31488
31485
31487
31484
31487
31463
31482
31484
31465
31483
31481
31471
31478
31471
31469
31468
31458
31470
31476
31468
31469
31453
31458
31459
31460
31460
31456
31459
31455
31447
31453
31458
31459
31452
31455
31450
31444
31452
31447
31443
31450
31431
31433
31445
31445
31442
31442
31439
31440
31437
31431
31436
31429
31438
31415
31433
31432
31426
31431
31431
31423
31425
31422
31426
31425
31420
31417
31427
31419
31408
31412
31414
31403
31409
31411
31408
31396
31402
31399
31403
31401
31401
31396
31394
31399
31400
31401
31397
31398
31382
31394
31378
31380
31385
31388
31378
31383
31386
31380
31381
31380
31382
31372
31367
31367
31372
31367
31367
31370
31358
31363
31357
31366
31355
31351
31343
31358
31356
31357
31348
31356
31350
31349
31361
31341
31355
31342
31342
31332
31346
31345
31343
31342
31332
31338
31324
31335
31324
31329
31334
31327
31329
31324
31327
31322
31325
31322
31319
31312
31325
31316
31318
31314
31313
31316
31317
31306
31310
31305
31301
31308
31301
31303
31301
31302
31295
31289
31295
31300
31294
31296
31290
31288
31292
31287
31281
31287
31287
31272
31270
31276
31284
31281
31279
31276
31269
31284
31261
31270
31277
31270
31264
31262
31269
31263
31260
31262
31266
31263
31263
31263
31262
31257
31257
31247
31255
31239
31245
31250
31244
31247
31239
31238
31237
31239
31239
31236
31239
31221
31233
31237
31229
31231
31237
31226
31221
31235
31222
31221
31223
31228
31227
31223
31220
31215
31223
31221
31220
31210
31213
31214
31206
31205
31212
31207
31216
31204
31207
31203
31199
31196
31199
31203
31196
31189
31197
31190
31199
31195
31197
31199
31196
31177
31198
31190
31196
31195
31180
31187
31188
31180
31172
31173
31185
31178
31180
31179
31182
31177
31174
31154
31172
31172
31170
31166
31166
31167
31167
31159
31167
31159
31159
31167
31157
31154
31161
31154
31159
31143
31152
31163
31159
31168
31148
31148
31151
31143
31135
31144
31142
31134
31141
31143
31139
31148
31137
31143
31143
31129
31133
31137
31137
31140
31140
31140
31137
31135
31132
31131
31130
31125
31114
31120
31125
31113
31127
31125
31127
31101
31123
31105
31119
31100
31118
31111
31111
31111
31111
31109
31103
31102
31103
31103
31097
31101
31095
31100
31096
31100
31101
31100
31097
31095
31087
31080
31092
31081
31089
31084
31087
31089
31079
31087
31082
31076
31087
31087
31077
31074
31074
31071
31074
31068
31074
31079
31076
31071
31065
31062
31065
31063
31060
31062
31068
31056
31057
31064
31060
31056
31063
31065
31058
31047
31053
31058
31057
31044
31039
31042
31031
31044
31046
31042
31041
31044
31042
31042
31041
31038
31039
31034
31035
31042
31037
31029
31027
31031
31025
31022
31022
31017
31021
31017
31021
31017
31010
31012
31013
31018
31012
31022
31012
31014
31012
31012
31016
31013
31008
31008
31012
31002
30991
31004
31001
31007
31007
31004
31005
30999
30997
30996
30982
30992
30996
30998
30983
30990
30988
30983
30985
30983
30983
30982
30983
30976
30977
30977
30977
30980
30981
30983
30970
30967
30973
30975
30980
30972
30976
30956
30960
30961
30964
30964
30961
30967
30959
30965
30957
30966
30966
30967
30960
30956
30952
30956
30956
30955
30949
30956
30953
30948
30948
30950
30945
30950
30943
30941
30944
30943
30932
30938
30926
30943
30948
30939
30947
30943
30935
30938
30929
30933
30926
30934
30931
30930
30931
30933
30925
30926
30926
30929
30929
30924
30923
30925
30920
30920
30919
30917
30916
30909
30918
30919
30918
30919
30913
30908
30914
30903
30907
30913
30906
30906
30906
30905
30901
30903
30897
30906
30900
30892
30892
30902
30893
30896
30893
30894
30898
30889
30892
30897
30899
30899
30882
30887
30887
30884
30886
30881
30886
30879
30884
30871
30881
30871
30877
30871
30876
30871
30860
30866
30877
30866
30868
30871
30869
30871
30866
30871
30862
30863
30871
30865
30860
30867
30858
30865
30863
30855
30857
30863
30850
30855
30850
30847
30855
30851
30855
30848
30848
30847
30844
30839
30832
30839
30836
30838
30834
30836
30839
30834
30831
30836
30832
30843
30831
30836
30831
30826
30831
30822
30823
30823
30821
30823
30815
30829
30821
30822
30820
30821
30816
30807
30809
30813
30813
30806
30811
30799
30798
30802
30800
30797
30802
30799
30806
30799
30798
30801
30807
30794
30802
30788
30798
30794
30801
30789
30794
30806
30804
30792
30799
30798
30798
30804
30806
30799
30796
30795
30800
30799
30802
30792
30805
30799
30792
30799
30797
30801
30797
30799
30790
30782
30798
30790
30789
30783
30780
30780
30764
30772
30762
30773
30778
30775
30772
30772
30779
30775
30780
30773
30769
30769
30769
30773
30767
30769
30757
30765
30759
30767
30749
30758
30752
30757
30754
30749
30759
30755
30754
30748
30749
30746
30751
30743
30743
30747
30743
30740
30742
30743
30737
30734
30741
30743
30743
30740
30734
30733
30735
30727
30737
30737
30727
30733
30734
30741
30716
30724
30727
30727
30725
30719
30723
30706
30714
30716
30716
30717
30719
30717
30709
30709
30713
30706
30701
30705
30711
30710
30713
30710
30711
30701
30707
30687
30702
30697
30700
30698
30694
30694
30698
30690
30689
30684
30693
30680
30687
30700
30693
30701
30690
30692
30689
30687
30686
30685
30679
30684
30682
30671
30677
30683
30691
30679
30677
30684
30684
30673
30679
30676
30677
30666
30671
30676
30670
30671
30677
30669
30676
30666
30668
30665
30666
30670
30654
30655
30660
30654
30660
30657
30661
30660
30659
30655
30647
30653
30648
30657
30652
30649
30656
30654
30645
30651
30647
30647
30647
30645
30644
30644
30644
30645
30640
30639
30651
30646
30645
30642
30639
30632
30634
30636
30642
30635
30636
30634
30635
30630
30631
30629
30631
30631
30631
30629
30625
30620
30628
30623
30625
30617
30628
30616
30620
30617
30623
30612
30613
30615
30613
30612
30623
30617
30618
30620
30612
30615
30618
30615
30609
30614
30610
30612
30602
30604
30606
30600
30605
30612
30601
30606
30602
30597
30604
30599
30599
30606
30599
30607
30596
30598
30593
30596
30599
30591
30591
30590
30590
30593
30595
30596
30580
30590
30589
30588
30583
30580
30574
30580
30577
30582
30580
30585
30581
30588
30575
30578
30575
30575
30572
30573
30575
30577
30570
30579
30574
30575
30572
30569
30567
30564
30561
30562
30557
30565
30567
30567
30557
30559
30548
30564
30548
30550
30549
30555
30553
30557
30552
30549
30554
30546
30548
30549
30548
30549
30553
30555
30549
30548
30548
30541
30541
30543
30546
30551
30543
30548
30532
30534
30534
30539
30521
30535
30532
30537
30535
30532
30532
30537
30530
30534
30532
30534
30527
30530
30527
30533
30533
30517
30522
30520
30523
30524
30514
30518
30521
30524
30519
30525
30520
30523
30513
30500
30508
30516
30516
30515
30519
30516
30510
30515
30510
30517
30505
30501
30508
30503
30512
30503
30503
30511
30506
30506
30508
30508
30515
30498
30507
30502
30500
30503
30502
30505
30503
30508
30495
30500
30505
30494
30504
30499
30502
30489
30494
30495
30494
30495
30487
30497
30492
30493
30492
30495
30501
30485
30495
30492
30492
30482
30494
30487
30490
30490
30489
30490
30487
30480
30487
30487
30484
30484
30476
30476
30471
30484
30481
30484
30485
30479
30486
30474
30471
30478
30478
30482
30473
30478
30470
30476
30471
30480
30471
30471
30471
30475
30470
30478
30470
30464
30471
30469
30462
30468
30466
30465
30471
30471
30471
30463
30471
30470
30468
30463
30460
30460
30463
30454
30461
30462
30456
30464
30459
30452
30461
30460
30462
30460
30455
30460
30453
30461
30453
30448
30463
30457
30459
30454
30452
30452
30455
30439
30448
30446
30452
30447
30444
30450
30441
30446
30446
30442
30441
30444
30447
30445
30447
30446
30449
30438
30441
30444
30441
30437
30439
30444
30445
30444
30438
30439
30438
30436
30441
30439
30438
30444
30438
30437
30431
30431
30437
30438
30429
30436
30436
30439
30436
30433
30434
30434
30436
30433
30429
30429
30423
30438
30431
30421
30423
30428
30428
30431
30428
30429
30420
30430
30435
30420
30428
30428
30428
30417
30421
30427
30420
30423
30422
30421
30426
30419
30423
30414
30405
30421
30422
30418
30423
30418
30414
30415
30415
30417
30420
30415
30415
30412
30416
30421
30416
30423
30418
30419
30416
30422
30417
30421
30414
30421
30418
30422
30413
30414
30421
30410
30406
30401
30412
30412
30412
30408
30418
30412
30408
30412
30409
30410
30406
30408
30407
30411
30410
30408
30409
30404
30407
30407
30409
30412
30409
30410
30415
30411
30404
30406
30404
30409
30407
30406
30398
30396
30411
30404
30404
30404
30397
30407
30400
30406
30404
30398
30407
30404
30401
30397
30396
30407
30405
30407
30406
30399
30398
30404
30403
30398
30399
30396
30399
30403
30398
30396
30400
30396
30404
30399
30394
30399
30400
30401
30405
30406
30406
30404
30400
30401
30396
30396
30396
30399
30407
30401
30400
30400
30403
30407
30405
30407
30407
30407
30404
30404
30402
30399
30399
30399
30402
30404
30389
30407
30398
30399
30406
30405
30402
30400
30404
30406
30410
30404
30412
30412
30405
30406
30413
30411
30410
30414
30413
30400
30405
30404
30406
30401
30403
30405
30399
30404
30405
30412
30414
30406
30412
30412
30408
30410
30406
30413
30407
30412
30410
30415
30413
30408
30402
30412
30414
30407
30418
30415
30417
30414
30415
30407
30414
30415
30410
30406
30414
30411
30410
30404
30412
30412
30410
30418
30421
30415
30417
30414
30416
30416
30421
30420
30426
30420
30425
30431
30431
30436
30417
30424
30421
30433
30420
30438
30422
30430
30437
30438
30444
30444
30447
30449
30452
30444
30444
30448
30448
30449
30459
30445
30444
30452
30452
30452
30455
30453
30453
30459
30440
30463
30461
30447
30446
30453
30453
30453
30450
30449
30458
30465
30449
30461
30455
30462
30469
30460
30454
30455
30467
30471
30462
30467
30469
30471
30471
30463
30469
30458
30476
30470
30476
30452
30471
30476
30478
30478
30474
30471
30479
30476
30471
30485
30478
30475
30479
30488
30485
30485
30484
30484
30491
30489
30486
30481
30487
30495
30494
30500
30496
30503
30488
30496
30500
30493
30490
30496
30503
30495
30499
30506
30507
30511
30501
30494
30492
30503
30509
30509
30500
30490
30514
30511
30507
30517
30506
30516
30516
30524
30517
30523
30516
30522
30517
30519
30521
30511
30527
30528
30534
30526
30529
30524
30532
30522
30525
30535
30534
30533
30536
30542
30542
30543
30543
30545
30538
30542
30542
30545
30554
30548
30541
30557
30551
30540
30559
30560
30561
30567
30556
30563
30565
30567
30565
30565
30565
30566
30566
30563
30565
30575
30575
30572
30580
30580
30574
30578
30578
30582
30589
30584
30591
30595
30593
30591
30595
30599
30598
30596
30599
30596
30607
30596
30607
30599
30602
30604
30607
30607
30603
30607
30609
30612
30618
30631
30620
30624
30629
30630
30620
30628
30625
30629
30631
30631
30639
30638
30636
30638
30628
30639
30636
30644
30644
30645
30646
30647
30652
30657
30647
30655
30655
30653
30663
30654
30662
30665
30656
30669
30660
30672
30668
30666
30675
30678
30678
30677
30686
30692
30685
30687
30686
30695
30694
30692
30698
30700
30699
30703
30693
30698
30701
30701
30718
30717
30711
30724
30721
30718
30727
30727
30727
30720
30735
30727
30727
30734
30727
30735
30732
30740
30735
30740
30742
30747
30749
30746
30754
30741
30756
30750
30752
30753
30759
30752
30761
30756
30760
30774
30765
30776
30776
30777
30786
30774
30774
30773
30787
30788
30794
30790
30794
30788
30799
30797
30796
30804
30806
30806
30811
30798
30810
30814
30812
30814
30815
30820
30817
30823
30823
30833
30827
30836
30834
30833
30839
30836
30836
30830
30837
30839
30847
30848
30855
30855
30855
30855
30858
30860
30865
30866
30873
30871
30879
30876
30878
30874
30886
30878
30883
30879
30885
30885
30887
30884
30887
30888
30893
30895
30900
30900
30911
30906
30912
30904
30908
30910
30915
30914
30921
30919
30922
30930
30929
30927
30929
30930
30933
30936
30940
30942
30938
30948
30948
30951
30946
30956
30959
30957
30950
30954
30960
30966
30966
30965
30974
30964
30976
30975
30980
30980
30975
30983
30983
30983
30983
30992
30992
30996
30993
31001
31011
31003
31009
31015
31016
31010
31008
31016
31014
31015
31019
31027
31033
31028
31031
31031
31037
31044
31034
31039
31037
31055
31049
31045
31051
31055
31062
31061
31059
31060
31062
31064
31068
31063
31073
31071
31077
31071
31078
31076
31078
31090
31090
31087
31092
31092
31094
31095
31090
31092
31092
31099
31101
31114
31111
31113
31114
31111
31119
31122
31125
31121
31116
31126
31133
31135
31132
31132
31134
31141
31125
31144
31144
31143
31144
31148
31151
31151
31159
31159
31164
31164
31172
31167
31164
31166
31174
31172
31175
31180
31176
31190
31172
31182
31177
31183
31191
31191
31198
31189
31199
31206
31202
31206
31200
31212
31209
31207
31209
31215
31215
31220
31219
31226
31226
31225
31222
31236
31231
31231
31236
31239
31239
31255
31239
31247
31239
31244
31246
31253
31250
31252
31256
31263
31260
31264
31263
31266
31272
31269
31271
31277
31276
31287
31284
31287
31287
31284
31286
31289
31287
31300
31292
31299
31300
31292
31296
31303
31303
31303
31307
31313
31308
31313
31316
31319
31319
31318
31326
31325
31332
31331
31334
31335
31333
31335
31332
31335
31342
31345
31343
31345
31335
31343
31347
31356
31341
31356
31357
31356
31365
31360
31356
31364
31356
31356
31372
31368
31372
31377
31375
31379
31375
31385
31391
31389
31390
31383
31386
31388
31393
31390
31391
31398
31396
31392
31403
31404
31399
31400
31404
31414
31404
31415
31411
31410
31403
31417
31423
31423
31429
31424
31417
31418
31431
31424
31426
31428
31434
31439
31437
31439
31445
31442
31449
31426
31448
31447
31453
31458
31450
31453
31457
31458
31454
31461
31462
31452
31463
31460
31465
31468
31468
31476
31472
31471
31477
31460
31477
31476
31478
31482
31479
31482
31491
31481
31486
31492
31487
31483
31487
31495
31504
31492
31495
31509
31503
31488
31508
31511
31511
31495
31497
31511
31517
31513
31515
31510
31522
31519
31520
31521
31526
31526
31527
31535
31519
31535
31532
31527
31527
31534
31536
31546
31529
31537
31543
31542
31545
31540
31546
31547
31553
31548
31551
31535
31553
31569
31562
31559
31561
31563
31558
31556
31556
31564
31556
31557
31567
31567
31575
31564
31574
31567
31567
31568
31575
31573
31582
31575
31581
31574
31578
31588
31575
31582
31576
31590
31588
31591
31591
31591
31591
31596
31596
31599
31597
31604
31596
31604
31618
31615
31619
31609
31614
31612
31623
31629
31622
31623
31630
31636
31633
31631
31633
31637
31625
31630
31647
31646
31648
31649
31649
31649
31641
31644
31650
31653
31650
31646
31654
31648
31654
31661
31659
31647
31647
31635
31652
31650
31654
31658
31657
31663
31661
31671
31663
31663
31668
31671
31671
31670
31675
31667
31671
31671
31660
31645
31668
31669
31677
31668
31676
31673
31676
31671
31670
31677
31679
31683
31679
31685
31665
31678
31684
31676
31676
31676
31684
31687
31680
31685
31684
31690
31685
31693
31684
31688
31691
31691
31702
31691
31700
31692
31692
31695
31697
31692
31693
31697
31668
31683
31695
31692
31697
31698
31695
31701
31703
31708
31694
31703
31705
31701
31708
31708
31701
31716
31687
31708
31693
31704
31709
31708
31710
31701
31716
31711
31717
31701
31711
31695
31716
31708
31714
31713
31719
31719
31712
31702
31716
31710
31717
31716
31713
31721
31714
31719
31721
31716
31718
31719
31724
31727
31732
31725
31743
31732
31725
31725
31718
31726
31727
31730
31732
31727
31723
31734
31733
31727
31732
31714
31732
31735
31730
31727
31743
31734
31737
31724
31733
31729
31735
31737
31736
31748
31732
31736
31730
31735
31727
31740
31727
31735
31727
31738
31739
31747
31743
31748
31743
31749
31732
31735
31738
31740
31740
31748
31751
31747
31748
31746
31751
31746
31740
31750
31751
31756
31751
31751
31751
31741
31751
31751
31754
31751
31757
31751
31751
31751
31748
31751
31751
31759
31751
31751
31743
31751
31751
31751
31759
31740
31751
31751
31751
31763
31756
31757
31766
31751
31751
31761
31765
31762
31767
31751
31758
31764
31761
31765
31759
31767
31761
31762
31743
31765
31761
31759
31761
31751
31753
31759
31770
31764
31767
31751
31764
31764
31759
31760
31766
31765
31765
31767
31756
31760
31748
31759
31748
31767
31757
31764
31768
31772
31766
31764
31760
31766
31766
31769
31761
31767
31770
31770
31767
31769
31772
31767
31765
31764
31766
31764
31770
31765
31760
31764
31765
31765
31762
31764
31762
31756
31764
31760
31751
31756
31758
31767
31765
31763
31750
31764
31762
31765
31766
31764
31776
31770
31773
31748
31765
31761
31764
31765
31758
31748
31751
31748
31751
31750
31761
31762
31767
31751
31757
31759
31765
31770
31751
31751
31764
31759
31759
31764
31751
31762
31744
31751
31759
31764
31770
31767
31744
31758
31764
31764
31757
31762
31764
31764
31739
31751
31756
31751
31761
31748
31751
31758
31751
31759
31750
31751
31751
31751
31759
31747
31751
31757
31764
31751
31758
31749
31751
31759
31751
31758
31751
31751
31759
31751
31749
31737
31751
31749
31742
31748
31751
31751
31741
31751
31750
31751
31748
31748
31748
31743
31744
31751
31747
31751
31746
31746
31749
31745
31751
31751
31751
31746
31748
31751
31748
31751
31750
31732
31743
31750
31751
31735
31740
31739
31727
31740
31740
31743
31748
31745
31737
31738
31742
31748
31745
31729
31739
31738
31740
31732
31732
31735
31743
31735
31740
31740
31749
31733
31743
31736
31735
31746
31727
31727
31733
31726
31718
31734
31732
31729
31735
31735
31734
31726
31734
31735
31735
31728
31734
31719
31734
31729
31733
31730
31732
31742
31728
31732
31733
31727
31724
31723
31733
31724
31732
31729
31727
31726
31726
31721
31719
31727
31716
31725
31727
31726
31716
31721
31725
31716
31724
31725
31716
31708
31719
31725
31722
31719
31716
31727
31712
31716
31719
31719
31722
31698
31714
31718
31719
31716
31716
31719
31695
31716
31711
31710
31708
31710
31704
31712
31716
31716
31710
31709
31704
31703
31702
31703
31704
31704
31695
31703
31707
31708
31700
31710
31699
31706
31705
31703
31695
31690
31701
31703
31698
31705
31701
31701
31695
31694
31700
31704
31703
31700
31703
31676
31694
31686
31692
31695
31696
31695
31691
31695
31684
31692
31686
31684
31692
31677
31688
31695
31680
31690
31693
31686
31686
31687
31682
31685
31683
31684
31687
31671
31681
31687
31679
31678
31684
31678
31683
31680
31677
31678
31664
31669
31670
31675
31670
31673
31661
31664
31672
31678
31676
31669
31675
31673
31679
31671
31672
31673
31673
31669
31678
31677
31668
31661
31663
31671
31663
31666
31663
31668
31667
31663
31660
31662
31663
31661
31660
31659
31668
31643
31655
31662
31660
31656
31660
31653
31659
31655
31662
31655
31655
31654
31655
31645
31650
31650
31647
31646
31652
31650
31639
31654
31647
31647
31649
31647
31648
31632
31649
31654
31652
31649
31650
31646
31645
31644
31638
31638
31639
31636
31630
31636
31638
31634
31639
31629
31630
31633
31630
31634
31638
31636
31631
31636
31624
31633
31620
31624
31629
31625
31631
31613
31622
31622
31623
31617
31627
31623
31613
31622
31617
31619
31613
31617
31610
31613
31615
31614
31610
31610
31618
31615
31617
31613
31614
31599
31609
31610
31606
31602
31600
31599
31594
31604
31598
31604
31596
31595
31591
31597
31583
31603
31604
31599
31598
31590
31604
31599
31594
31599
31580
31596
31604
31591
31600
31598
31604
31605
31598
31601
31605
31605
31604
31601
31605
31605
31606
31598
31602
31598
31602
31599
31599
31595
31589
31594
31599
31594
31602
31593
31599
31591
31592
31591
31591
31592
31591
