EDA
38327
38327
38318
38279
38308
38288
38316
38315
38309
38319
38317
38327
38319
38319
38313
38306
38319
38313
38271
38311
38300
38308
38316
38313
38314
38304
38319
38308
38320
38287
38318
38311
38321
38315
38313
38311
38319
38310
38325
38319
38292
38271
38300
38311
38308
38316
38304
38315
38308
38315
38303
38313
38306
38308
38312
38309
38311
38314
38311
38319
38308
38308
38318
38289
38316
38297
38319
38266
38305
38253
38303
38270
38313
38314
38311
38310
38263
38313
38286
38303
38306
38306
38319
38309
38316
38316
38307
38311
38319
38314
38318
38319
38311
38312
38316
38310
38312
38313
38316
38324
38302
38305
38287
38315
38299
38302
38311
38297
38297
38295
38305
38292
38287
38264
38279
38266
38269
38279
38268
38271
38268
38261
38268
38263
38276
38277
38276
38281
38294
38292
38311
38308
38311
38322
38323
38330
38330
38339
38332
38339
38309
38319
38334
38328
38327
38326
38335
38326
38340
38330
38334
38324
38327
38338
38324
38332
38335
38347
38315
38335
38333
38335
38340
38293
38324
38341
38308
38327
38317
38293
38323
38331
38327
38337
38335
38320
38326
38327
38314
38300
38319
38324
38321
38331
38279
38317
38319
38324
38319
38316
38332
38265
38310
38279
38314
38324
38319
38331
38332
38325
38323
38321
38325
38313
38322
38319
38319
38308
38312
38317
38331
38310
38327
38273
38322
38294
38318
38284
38310
38316
38324
38322
38335
38310
38308
38327
38319
38317
38295
38271
38308
38305
38323
38303
38320
38308
38331
38279
38319
38320
38319
38325
38314
38311
38314
38325
38319
38317
38319
38319
38325
38317
38315
38272
38315
38324
38311
38335
38323
38316
38278
38316
38302
38308
38311
38316
38311
38316
38310
38310
38317
38309
38318
38319
38324
38272
38311
38279
38319
38279
38316
38318
38316
38319
38320
38285
38315
38279
38318
38308
38316
38324
38318
38320
38311
38326
38315
38318
38317
38325
38317
38329
38318
38326
38319
38327
38271
38319
38319
38319
38332
38321
38327
38326
38311
38326
38319
38319
38326
38316
38321
38307
38325
38333
38332
38309
38287
38303
38332
38330
38337
38325
38324
38335
38295
38327
38329
38332
38327
38330
38326
38330
38319
38324
38331
38329
38279
38319
38322
38320
38327
38324
38324
38335
38327
38339
38327
38341
38332
38338
38299
38326
38343
38343
38340
38312
38332
38330
38333
38328
38324
38327
38285
38306
38317
38340
38335
38335
38324
38334
38342
38335
38342
38343
38339
38337
38298
38335
38338
38334
38342
38342
38302
38343
38347
38345
38338
38344
38347
38336
38301
38301
38341
38350
38342
38335
38327
38327
38333
38309
38331
38346
38347
38348
38344
38348
38351
38351
38342
38303
38337
38349
38348
38335
38343
38340
38351
38319
38348
38349
38351
38343
38351
38351
38340
38340
38345
38350
38355
38351
38299
38356
38359
38337
38346
38335
38343
38351
38340
38344
38304
38317
38347
38350
38352
38350
38343
38306
38354
38359
38349
38349
38356
38351
38353
38348
38345
38303
38353
38354
38355
38356
38321
38353
38356
38358
38352
38351
38360
38358
38356
38359
38352
38342
38330
38353
38358
38348
38348
38342
38344
38345
38355
38350
38350
38343
38302
38351
38343
38350
38351
38359
38308
38367
38356
38351
38319
38351
38359
38353
38308
38356
38365
38362
38366
38330
38364
38372
38374
38357
38327
38359
38372
38375
38372
38339
38366
38361
38360
38372
38370
38374
38375
38365
38369
38375
38375
38335
38371
38356
38372
38374
38380
38372
38383
38375
38322
38372
38350
38375
38372
38369
38375
38375
38372
38373
38370
38372
38380
38375
38384
38375
38381
38378
38369
38350
38366
38380
38360
38375
38372
38383
38325
38369
38362
38375
38379
38378
38376
38366
38364
38383
38343
38386
38389
38387
38380
38374
38372
38357
38375
38354
38383
38383
38390
38375
38375
38385
38363
38379
38385
38388
38399
38384
38398
38348
38392
38382
38386
38399
38394
38394
38398
38396
38397
38407
38402
38407
38402
38392
38406
38398
38394
38390
38397
38354
38376
38397
38391
38393
38349
38396
38387
38396
38388
38404
38391
38407
38397
38401
38377
38402
38403
38404
38407
38397
38407
38356
38400
38407
38407
38394
38375
38396
38407
38406
38406
38405
38407
38404
38399
38383
38403
38407
38398
38381
38391
38399
38407
38404
38407
38365
38400
38407
38404
38407
38407
38407
38396
38379
38407
38421
38407
38420
38407
38407
38420
38386
38407
38417
38413
38418
38370
38407
38407
38407
38422
38420
38424
38406
38407
38421
38420
38435
38420
38430
38379
38407
38420
38407
38423
38423
38399
38423
38407
38422
38416
38439
38383
38407
38422
38407
38428
38385
38420
38419
38407
38425
38375
38407
38407
38416
38431
38367
38423
38423
38372
38418
38431
38418
38425
38427
38431
38425
38423
38439
38420
38427
38428
38423
38377
38423
38431
38431
38432
38433
38434
38384
38425
38420
38418
38416
38407
38404
38405
38407
38406
38393
38404
38397
38398
38396
38407
38404
38415
38432
38435
38446
38441
38452
38453
38455
38463
38470
38468
38429
38465
38460
38473
38479
38455
38471
38471
38479
38454
38438
38468
38481
38479
38471
38468
38471
38422
38463
38474
38433
38455
38464
38458
38465
38428
38466
38468
38446
38467
38462
38469
38458
38458
38476
38466
38460
38471
38470
38475
38422
38462
38468
38407
38470
38471
38426
38467
38477
38468
38462
38476
38468
38477
38431
38468
38471
38471
38473
38478
38439
38466
38454
38454
38471
38470
38421
38462
38479
38474
38485
38433
38471
38484
38487
38478
38481
38476
38455
38471
38475
38465
38471
38468
38484
38420
38466
38473
38471
38465
38464
38471
38478
38436
38470
38471
38447
38462
38471
38469
38462
38471
38479
38464
38474
38463
38471
38469
38470
38470
38479
38471
38471
38485
38432
38479
38487
38456
38476
38476
38428
38471
38487
38485
38476
38476
38469
38487
38495
38472
38485
38462
38478
38479
38487
38447
38477
38495
38487
38473
38476
38478
38486
38480
38495
38495
38487
38490
38490
38484
38455
38484
38487
38485
38490
38456
38481
38482
38484
38487
38480
38484
38484
38487
38479
38461
38484
38494
38439
38485
38488
38495
38487
38487
38484
38482
38487
38487
38483
38483
38479
38453
38479
38471
38482
38477
38483
38438
38487
38486
38491
38490
38492
38446
38484
38487
38471
38492
38500
38489
38492
38495
38500
38499
38469
38484
38494
38499
38477
38495
38494
38486
38495
38490
38501
38492
38498
38468
38495
38503
38495
38499
38487
38489
38501
38494
38501
38508
38492
38503
38496
38500
38502
38507
38511
38500
38511
38452
38503
38502
38500
38492
38503
38506
38502
38498
38479
38495
38517
38503
38503
38510
38479
38503
38508
38463
38492
38503
38490
38494
38503
38460
38495
38497
38490
38500
38498
38501
38508
38490
38501
38511
38506
38495
38464
38507
38492
38511
38506
38450
38508
38503
38500
38499
38470
38503
38503
38509
38504
38484
38503
38494
38517
38505
38494
38509
38501
38508
38525
38517
38503
38470
38508
38508
38506
38503
38498
38503
38500
38455
38500
38508
38501
38498
38497
38500
38511
38511
38488
38460
38503
38473
38495
38502
38503
38500
38471
38499
38503
38511
38506
38467
38490
38502
38486
38496
38503
38501
38508
38503
38489
38497
38500
38500
38516
38500
38501
38484
38498
38514
38508
38503
38503
38495
38506
38502
38503
38502
38506
38487
38511
38487
38495
38499
38505
38482
38489
38511
38468
38499
38507
38453
38503
38511
38511
38501
38509
38506
38490
38509
38507
38487
38481
38503
38507
38503
38502
38462
38508
38500
38493
38503
38500
38515
38503
38508
38500
38487
38469
38503
38495
38494
38479
38500
38500
38492
38501
38495
38494
38500
38492
38497
38492
38500
38494
38494
38502
38503
38502
38495
38501
38511
38503
38473
38495
38500
38506
38490
38503
38503
38502
38497
38502
38503
38454
38495
38507
38462
38502
38503
38503
38511
38457
38497
38505
38508
38492
38506
38508
38510
38517
38505
38463
38508
38506
38503
38503
38503
38496
38503
38458
38495
38458
38501
38493
38502
38503
38491
38470
38502
38503
38511
38502
38486
38477
38462
38503
38502
38484
38498
38495
38493
38491
38491
38501
38503
38492
38500
38500
38492
38498
38502
38485
38497
38508
38479
38503
38503
38455
38503
38503
38452
38492
38495
38462
38497
38492
38491
38503
38503
38457
38500
38506
38500
38497
38509
38502
38495
38484
38473
38495
38485
38495
38497
38452
38483
38493
38509
38516
38499
38508
38475
38502
38503
38506
38510
38511
38498
38506
38471
38503
38502
38503
38503
38498
38484
38455
38496
38469
38494
38502
38507
38502
38500
38495
38470
38498
38460
38504
38499
38503
38503
38489
38458
38503
38500
38505
38503
38500
38503
38495
38470
38505
38503
38500
38498
38506
38503
38503
38489
38492
38476
38494
38479
38495
38503
38487
38503
38470
38493
38495
38500
38495
38484
38500
38494
38486
38493
38488
38503
38445
38488
38492
38487
38501
38441
38490
38494
38488
38497
38495
38476
38463
38490
38486
38486
38485
38492
38472
38439
38492
38496
38483
38490
38492
38501
38500
38486
38454
38495
38498
38489
38502
38500
38498
38455
38484
38494
38489
38479
38479
38485
38465
38466
38452
38461
38457
38442
38452
38452
38449
38452
38455
38452
38460
38464
38471
38471
38478
38487
38489
38492
38507
38509
38515
38508
38511
38510
38516
38496
38519
38516
38506
38511
38478
38515
38511
38511
38503
38503
38502
38511
38508
38508
38509
38511
38503
38476
38504
38508
38507
38508
38511
38519
38484
38503
38513
38509
38497
38508
38502
38500
38500
38507
38501
38470
38500
38503
38455
38490
38503
38510
38502
38487
38492
38507
38482
38502
38500
38455
38500
38479
38501
38511
38496
38502
38508
38511
38506
38501
38479
38500
38503
38503
38508
38503
38486
38498
38503
38508
38507
38501
38479
38437
38494
38501
38495
38503
38452
38501
38498
38495
38484
38447
38501
38495
38493
38495
38450
38484
38479
38484
38501
38489
38498
38492
38494
38454
38492
38503
38495
38501
38450
38495
38485
38492
38492
38500
38485
38479
38486
38494
38431
38481
38487
38491
38486
38475
38493
38492
38494
38492
38491
38499
38493
38503
38444
38487
38493
38492
38494
38446
38485
38486
38485
38484
38476
38484
38499
38484
38440
38484
38488
38492
38478
38468
38491
38495
38485
38478
38478
38484
38481
38482
38474
38447
38484
38485
38485
38492
38467
38479
38484
38493
38489
38481
38462
38495
38503
38489
38490
38487
38450
38480
38455
38487
38452
38484
38453
38481
38501
38476
38486
38485
38485
38487
38438
38481
38491
38485
38485
38484
38489
38485
38439
38483
38485
38447
38490
38470
38475
38489
38495
38447
38486
38479
38486
38495
38479
38486
38451
38482
38482
38445
38488
38499
38459
38487
38494
38479
38484
38484
38490
38501
38489
38486
38495
38487
38488
38495
38499
38498
38458
38487
38495
38489
38502
38490
38495
38447
38492
38502
38495
38503
38495
38479
38437
38486
38491
38484
38486
38434
38479
38487
38474
38478
38461
38479
38486
38484
38479
38484
38486
38498
38486
38499
38466
38486
38493
38487
38487
38484
38487
38491
38493
38487
38490
38455
38484
38489
38471
38487
38501
38453
38490
38506
38484
38498
38499
38498
38466
38481
38447
38483
38480
38479
38478
38487
38479
38469
38477
38487
38490
38473
38469
38479
38479
38476
38482
38455
38472
38478
38482
38484
38477
38465
38479
38481
38440
38492
38487
38485
38482
38439
38479
38476
38486
38481
38478
38458
38430
38471
38470
38472
38476
38476
38463
38437
38452
38407
38464
38476
38436
38468
38471
38469
38479
38444
38475
38487
38474
38476
38470
38487
38476
38462
38433
38471
38436
38479
38478
38478
38477
38479
38489
38479
38479
38449
38477
38484
38471
38481
38428
38485
38478
38471
38471
38479
38486
38469
38479
38487
38478
38472
38450
38425
38462
38473
38465
38484
38471
38469
38487
38469
38468
38430
38471
38479
38472
38484
38475
38477
38461
38475
38479
38471
38485
38462
38467
38469
38468
38466
38460
38429
38467
38463
38465
38462
38470
38471
38471
38463
38447
38466
38481
38471
38477
38470
38479
38470
38471
38462
38460
38466
38426
38463
38456
38460
38472
38475
38470
38432
38475
38472
38471
38475
38446
38470
38468
38474
38476
38462
38463
38472
38466
38460
38452
38460
38479
38470
38470
38468
38476
38476
38470
38469
38418
38468
38475
38472
38471
38455
38446
38466
38463
38468
38420
38460
38460
38471
38478
38476
38475
38461
38473
38483
38450
38471
38479
38471
38468
38471
38476
38485
38453
38461
38468
38466
38459
38458
38459
38469
38430
38457
38467
38460
38464
38458
38464
38444
38460
38468
38464
38465
38461
38463
38429
38466
38474
38482
38470
38471
38471
38468
38471
38475
38464
38465
38468
38471
38455
38430
38463
38468
38466
38462
38460
38478
38479
38479
38468
38478
38473
38472
38475
38477
38471
38479
38471
38454
38438
38471
38476
38473
38463
38464
38470
38478
38438
38466
38476
38468
38477
38468
38479
38470
38471
38468
38445
38426
38465
38462
38462
38479
38463
38463
38424
38461
38468
38465
38476
38475
38464
38449
38475
38471
38456
38466
38471
38455
38456
38458
38460
38457
38466
38464
38452
38452
38459
38463
38464
38468
38427
38475
38479
38470
38461
38471
38470
38471
38431
38458
38471
38431
38464
38475
38466
38468
38457
38468
38474
38471
38476
38476
38479
38476
38471
38421
38465
38463
38471
38471
38479
38466
38479
38476
38447
38461
38463
38454
38444
38426
38436
38446
38437
38436
38423
38431
38431
38420
38420
38407
38430
38426
38438
38442
38449
38455
38469
38466
38472
38470
38487
38455
38487
38477
38484
38479
38460
38476
38490
38463
38474
38473
38476
38490
38484
38489
38426
38484
38466
38472
38487
38484
38480
38487
38495
38487
38480
38430
38471
38471
38475
38485
38485
38487
38490
38485
38476
38484
38479
38474
38488
38487
38485
38487
38486
38480
38486
38483
38484
38475
38476
38485
38483
38476
38471
38484
38487
38487
38493
38479
38476
38492
38487
38484
38460
38480
38479
38423
38484
38482
38437
38478
38462
38471
38423
38479
38481
38479
38479
38466
38479
38477
38458
38476
38484
38460
38479
38470
38471
38468
38473
38474
38453
38431
38464
38482
38471
38474
38431
38470
38484
38477
38465
38461
38470
38479
38434
38466
38471
38465
38463
38465
38471
38471
38462
38468
38479
38482
38469
38446
38476
38478
38428
38476
38473
38471
38474
38465
38475
38483
38422
38469
38468
38468
38476
38423
38468
38471
38476
38469
38458
38476
38479
38468
38474
38472
38475
38449
38463
38471
38420
38473
38466
38471
38464
38423
38461
38471
38471
38463
38484
38471
38461
38428
38465
38423
38455
38455
38461
38455
38439
38465
38465
38477
38474
38430
38471
38470
38471
38483
38439
38471
38477
38473
38481
38476
38453
38469
38463
38471
38471
38462
38467
38424
38468
38476
38464
38456
38473
38470
38474
38478
38470
38471
38466
38468
38471
38463
38455
38460
38474
38449
38456
38470
38461
38465
38478
38468
38471
38479
38479
38470
38472
38468
38456
38466
38468
38465
38431
38469
38469
38465
38471
38468
38476
38447
38471
38485
38479
38465
38479
38471
38471
38431
38475
38487
38470
38463
38451
38463
38486
38454
38468
38491
38476
38478
38476
38476
38491
38476
38479
38484
38483
38468
38480
38478
38471
38458
38468
38474
38471
38458
38464
38479
38474
38428
38461
38482
38479
38479
38470
38481
38433
38475
38484
38471
38481
38471
38482
38471
38468
38468
38478
38470
38444
38423
38470
38470
38466
38477
38475
38466
38468
38471
38469
38471
38471
38471
38468
38419
38460
38471
38460
38463
38471
38467
38463
38471
38455
38420
38471
38470
38467
38470
38459
38469
38468
38439
38459
38463
38455
38467
38407
38471
38463
38467
38474
38443
38469
38429
38468
38468
38464
38467
38456
38468
38452
38454
38460
38463
38407
38463
38461
38458
38471
38458
38453
38473
38458
38463
38460
38457
38452
38446
38456
38457
38454
38463
38457
38453
38454
38452
38427
38463
38470
38407
38454
38467
38456
38455
38407
38449
38447
38460
38468
38463
38459
38462
38455
38463
38462
38463
38449
38463
38456
38475
38430
38469
38474
38456
38463
38463
38450
38461
38453
38466
38456
38460
38442
38455
38451
38442
38438
38433
38458
38462
38453
38469
38459
38461
38455
38461
38407
38452
38470
38431
38454
38452
38446
38460
38456
38454
38452
38455
38449
38444
38447
38463
38459
38455
38457
38455
38463
38455
38453
38453
38443
38460
38438
38450
38463
38461
38447
38463
38462
38461
38436
38451
38465
38407
38460
38455
38454
38460
38423
38455
38463
38407
38446
38469
38447
38454
38466
38407
38462
38447
38468
38463
38456
38471
38439
38442
38455
38452
38467
38423
38449
38448
38450
38449
38454
38452
38449
38455
38447
38452
38452
38452
38454
38406
38442
38455
38454
38453
38407
38455
38454
38447
38459
38446
38444
38444
38432
38407
38452
38444
38460
38444
38457
38445
38455
38449
38452
38444
38455
38452
38430
38449
38452
38445
38446
38401
38452
38451
38438
38447
38458
38462
38460
38452
38404
38450
38451
38455
38451
38455
38403
38453
38454
38447
38454
38438
38453
38454
38447
38439
38397
38442
38446
38440
38439
38443
38447
38394
38445
38442
38437
38452
38397
38437
38436
38445
38440
38438
38433
38455
38444
38451
38444
38447
38399
38445
38428
38447
38444
38439
38439
38436
38451
38397
38431
38436
38420
38426
38453
38439
38436
38447
38439
38446
38437
38446
38454
38438
38446
38439
38454
38389
38438
38449
38388
38438
38436
38439
38445
38445
38448
38434
38447
38441
38430
38396
38422
38412
38407
38402
38403
38396
38396
38390
38389
38394
38397
38391
38398
38404
38406
38414
38431
38428
38444
38453
38460
38436
38444
38421
38455
38454
38460
38449
38442
38458
38460
38463
38457
38431
38456
38468
38465
38463
38452
38462
38460
38404
38446
38462
38449
38460
38407
38444
38453
38452
38459
38461
38454
38453
38452
38456
38470
38456
38447
38453
38447
38464
38439
38446
38454
38430
38449
38459
38407
38439
38447
38390
38446
38444
38446
38444
38446
38453
38448
38404
38439
38449
38447
38441
38407
38434
38442
38443
38447
38443
38434
38426
38432
38450
38447
38439
38431
38439
38449
38451
38455
38444
38443
38437
38443
38446
38439
38439
38431
38439
38442
38447
38449
38389
38447
38438
38439
38441
38406
38438
38442
38436
38444
38432
38438
38391
38431
38395
38433
38437
38431
38438
38439
38445
38406
38445
38444
38442
38455
38444
38439
38399
38439
38444
38439
38438
38438
38437
38437
38432
38431
38442
38436
38438
38439
38443
38390
38428
38439
38431
38423
38431
38439
38429
38430
38430
38407
38421
38423
38423
38431
38439
38407
38426
38431
38439
38428
38384
38434
38407
38431
38375
38430
38390
38430
38407
38424
38421
38428
38437
38428
38429
38404
38415
38433
38436
38447
38388
38422
38438
38431
38431
38423
38435
38407
38431
38436
38426
38438
38406
38428
38443
38436
38440
38407
38434
38439
38436
38438
38444
38440
38439
38428
38418
38434
38431
38432
38407
38437
38428
38429
38407
38423
38439
38433
38427
38426
38420
38407
38428
38433
38421
38424
38427
38383
38431
38434
38436
38423
38436
38438
38422
38442
38447
38444
38420
38444
38438
38432
38439
38401
38439
38423
38438
38431
38385
38437
38439
38423
38435
38434
38420
38436
38445
38431
38433
38403
38432
38438
38407
38432
38407
38439
38438
38435
38444
38439
38420
38402
38431
38435
38430
38437
38439
38439
38428
38442
38439
38442
38439
38446
38436
38439
38432
38442
38439
38424
38435
38435
38425
38407
38446
38436
38439
38430
38439
38407
38437
38422
38431
38421
38400
38434
38428
38426
38425
38407
38426
38428
38420
38423
38434
38407
38423
38429
38390
38434
38435
38420
38425
38431
38433
38427
38423
38427
38407
38424
38437
38427
38424
38427
38375
38431
38416
38422
38431
38426
38440
38407
38423
38423
38430
38438
38428
38428
38428
38431
38386
38431
38434
38427
38406
38399
38427
38424
38427
38434
38433
38427
38428
38407
38428
38430
38424
38428
38418
38417
38420
38425
38425
38423
38426
38406
38427
38428
38431
38420
38407
38431
38434
38423
38436
38422
38422
38429
38418
38426
38423
38412
38418
38421
38415
38391
38419
38427
38428
38431
38420
38422
38399
38407
38396
38407
38407
38423
38407
38422
38376
38420
38391
38418
38407
38428
38422
38431
38422
38430
38428
38438
38431
38436
38400
38431
38428
38425
38439
38431
38422
38428
38422
38431
38383
38422
38433
38421
38426
38427
38423
38423
38425
38425
38422
38420
38425
38431
38423
38427
38422
38428
38419
38426
38394
38418
38407
38402
38407
38430
38426
38407
38402
38423
38431
38427
38423
38420
38407
38383
38407
38407
38407
38426
38407
38407
38428
38424
38430
38432
38429
38414
38431
38436
38407
38407
38426
38428
38428
38407
38429
38428
38430
38426
38422
38436
38398
38428
38430
38417
38435
38436
38386
38431
38431
38430
38439
38386
38422
38437
38437
38407
38418
38427
38434
38429
38431
38407
38426
38437
38434
38439
38387
38428
38433
38439
38426
38431
38436
38432
38376
38423
38425
38428
38444
38436
38435
38433
38436
38420
38437
38436
38445
38397
38438
38437
38437
38420
38432
38434
38435
38434
38440
38388
38431
38420
38428
38433
38428
38433
38429
38431
38435
38429
38414
38431
38436
38431
38426
38415
38420
38422
38431
38428
38431
38439
38435
38429
38392
38427
38431
38437
38407
38391
38422
38430
38422
38431
38428
38438
38431
38428
38429
38428
38429
38437
38439
38424
38433
38439
38439
38449
38396
38434
38401
38441
38429
38428
38437
38433
38439
38434
38446
38399
38428
38420
38431
38417
38407
38420
38407
38407
38407
38407
38400
38397
38407
38389
38407
38399
38407
38407
38407
38433
38436
38438
38436
38445
38462
38458
38470
38470
38466
38460
38452
38418
38468
38471
38475
38471
38420
38463
38471
38471
38432
38455
38437
38463
38452
38454
38462
38461
38467
38458
38463
38455
38452
38455
38458
38453
38456
38444
38452
38464
38413
38463
38469
38457
38474
38465
38471
38470
38474
38463
38455
38407
38456
38470
38455
38463
38460
38476
38471
38475
38471
38471
38479
38470
38470
38464
38471
38443
38471
38454
38460
38477
38470
38464
38466
38463
38463
38471
38471
38463
38471
38445
38464
38465
38464
38471
38470
38469
38473
38474
38420
38468
38468
38462
38466
38453
38470
38472
38473
38474
38473
38470
38463
38476
38468
38468
38423
38471
38471
38462
38471
38415
38460
38463
38460
38463
38407
38456
38423
38455
38460
38463
38466
38471
38468
38469
38479
38475
38477
38462
38479
38462
38471
38475
38473
38479
38439
38471
38471
38476
38475
38474
38476
38468
38484
38470
38478
38479
38453
38480
38478
38485
38476
38479
38487
38472
38477
38443
38492
38490
38495
38471
38490
38483
38494
38486
38474
38487
38488
38483
38476
38485
38444
38481
38476
38474
38470
38487
38476
38495
38482
38492
38487
38490
38487
38487
38492
38485
38494
38480
38482
38484
38484
38482
38487
38490
38483
38479
38476
38454
38460
38455
38484
38487
38476
38486
38493
38479
38478
38493
38482
38478
38477
38471
38468
38457
38463
38467
38484
38468
38478
38500
38495
38487
38487
38503
38506
38511
38511
38500
38503
38506
38503
38502
38493
38488
38509
38503
38503
38467
38511
38498
38510
38517
38515
38515
38504
38519
38508
38509
38503
38503
38503
38508
38500
38455
38501
38516
38512
38513
38461
38517
38517
38509
38516
38516
38527
38524
38527
38524
38502
38494
38511
38524
38518
38514
38517
38508
38529
38519
38525
38511
38527
38527
38532
38493
38524
38535
38487
38524
38535
38532
38533
38535
38524
38533
38528
38524
38523
38529
38534
38534
38535
38535
38534
38532
38526
38530
38527
38535
38547
38508
38530
38540
38538
38527
38535
38533
38524
38543
38535
38525
38527
38530
38535
38532
38543
38540
38534
38538
38543
38511
38526
38535
38532
38540
38487
38526
38534
38535
38525
38535
38540
38525
38519
38529
38545
38501
38535
38556
38511
38536
38548
38497
38548
38541
38547
38550
38501
38543
38548
38545
38535
38548
38553
38554
38553
38546
38554
38559
38554
38530
38551
38553
38559
38548
38551
38558
38561
38535
38565
38564
38566
38564
38525
38565
38571
38573
38568
38564
38566
38567
38558
38565
38527
38559
38569
38548
38564
38562
38556
38558
38558
38558
38572
38566
38575
38543
38562
38559
38566
38570
38567
38555
38542
38564
38565
38567
38580
38521
38571
38572
38563
38578
38569
38568
38548
38576
38583
38574
38578
38559
38577
38589
38542
38570
38580
38575
38566
38548
38575
38587
38572
38580
38559
38574
38598
38586
38591
38550
38586
38594
38586
38590
38591
38593
38588
38583
38548
38602
38588
38592
38587
38590
38603
38599
38601
38580
38596
38608
38602
38606
38599
38599
38598
38597
38566
38606
38606
38602
38607
38593
38607
38612
38602
38626
38615
38616
38610
38623
38619
38610
38615
38618
38562
38612
38622
38618
38622
38564
38622
38624
38631
38631
38589
38625
38626
38612
38620
38631
38616
38613
38627
38612
38620
38568
38613
38621
38627
38631
38611
38622
38624
38628
38637
38612
38630
38638
38633
38641
38634
38636
38590
38628
38607
38633
38635
38634
38638
38630
38644
38598
38636
38640
38636
38652
38644
38644
38612
38639
38655
38587
38640
38631
38630
38644
38599
38637
38649
38654
38645
38645
38639
38646
38647
38655
38660
38622
38652
38663
38633
38654
38662
38603
38652
38660
38654
38652
38650
38663
38661
38658
38662
38663
38662
38663
38654
38663
38644
38637
38660
38663
38671
38658
38640
38657
38663
38660
38644
38646
38662
38663
38652
38663
38663
38636
38663
38684
38677
38672
38674
38660
38631
38662
38627
38663
38662
38671
38684
38668
38665
38668
38655
38662
38663
38658
38661
38653
38660
38645
38647
38641
38652
38647
38639
38648
38645
38644
38640
38659
38663
38663
38679
38686
38690
38702
38711
38719
38674
38719
38692
38718
38711
38709
38734
38719
38724
38726
38726
38686
38726
38721
38719
38726
38717
38723
38674
38721
38723
38727
38725
38721
38722
38729
38730
38727
38733
38707
38725
38733
38727
38732
38737
38743
38695
38739
38732
38727
38735
38732
38751
38734
38724
38733
38712
38676
38726
38732
38735
38743
38733
38732
38700
38736
38743
38736
38727
38740
38748
38746
38726
38735
38746
38751
38692
38729
38748
38740
38754
38695
38751
38759
38751
38758
38750
38743
38723
38751
38748
38712
38735
38749
38750
38751
38748
38751
38716
38756
38751
38759
38754
38708
38756
38756
38762
38703
38755
38703
38748
38714
38754
38730
38751
38732
38757
38755
38752
38766
38754
38759
38717
38754
38719
38750
38710
38757
38764
38764
38764
38764
38767
38767
38756
38761
38731
38766
38765
38773
38756
38759
38767
38772
38769
38791
38759
38768
38729
38781
38772
38762
38774
38767
38773
38767
38783
38772
38772
38751
38774
38774
38783
38783
38783
38774
38791
38791
38791
38788
38732
38791
38791
38743
38775
38783
38786
38780
38775
38791
38788
38804
38775
38764
38796
38791
38800
38790
38791
38797
38802
38805
38797
38805
38807
38804
38812
38805
38804
38796
38803
38786
38806
38791
38801
38820
38808
38815
38807
38815
38759
38807
38813
38799
38804
38791
38804
38809
38808
38803
38793
38805
38812
38807
38805
38774
38801
38811
38812
38823
38813
38812
38807
38823
38823
38774
38806
38819
38815
38822
38820
38828
38791
38824
38839
38835
38839
38837
38828
38831
38833
38839
38813
38839
38838
38803
38838
38838
38785
38828
38829
38836
38842
38846
38846
38846
38855
38804
38843
38844
38847
38846
38791
38845
38851
38850
38847
38790
38844
38847
38862
38852
38852
38847
38848
38823
38843
38846
38847
38855
38855
38858
38845
38844
38853
38844
38847
38836
38838
38847
38841
38855
38812
38835
38847
38847
38857
38843
38859
38863
38855
38849
38845
38860
38862
38862
38846
38860
38854
38860
38847
38858
38855
38842
38814
38863
38812
38867
38863
38863
38868
38870
38863
38865
38879
38868
38870
38811
38863
38870
38855
38868
38861
38871
38863
38871
38860
38864
38868
38865
38850
38871
38857
38860
38867
38863
38868
38871
38862
38851
38868
38874
38877
38856
38847
38879
38879
38876
38884
38883
38878
38892
38878
38889
38847
38869
38885
38815
38869
38876
38835
38873
38883
38831
38873
38879
38885
38876
38871
38884
38889
38882
38875
38887
38878
38885
38890
38884
38884
38872
38891
38895
38892
38884
38868
38887
38900
38885
38891
38893
38888
38846
38884
38895
38887
38892
38839
38884
38885
38879
38888
38884
38894
38863
38893
38901
38844
38891
38892
38898
38892
38907
38892
38878
38853
38889
38893
38892
38906
38855
38892
38909
38898
38911
38910
38907
38906
38903
38857
38903
38885
38908
38916
38906
38904
38906
38909
38911
38902
38910
38900
38903
38908
38903
38873
38900
38909
38909
38916
38864
38902
38913
38903
38910
38905
38913
38908
38900
38911
38887
38902
38906
38903
38908
38873
38910
38919
38917
38918
38908
38852
38884
38855
38903
38892
38906
38910
38903
38919
38885
38911
38918
38887
38919
38919
38919
38919
38890
38912
38918
38919
38919
38885
38911
38919
38919
38918
38919
38918
38919
38919
38919
38918
38919
38919
38933
38887
38928
38941
38932
38918
38919
38928
38939
38919
38919
38935
38892
38928
38933
38919
38937
38939
38938
38935
38943
38935
38933
38943
38939
38932
38919
38935
38949
38887
38919
38940
38940
38919
38932
38940
38933
38933
38919
38943
38895
38919
38917
38935
38937
38935
38937
38934
38940
38874
38935
38932
38931
38919
38903
38931
38934
38939
38936
38941
38945
38894
38940
38943
38936
38945
38942
38934
38940
38948
38943
38906
38940
38940
38934
38919
38933
38940
38945
38951
38903
38938
38916
38933
38942
38948
38939
38895
38951
38946
38943
38941
38943
38930
38942
38944
38948
38953
38903
38946
38957
38949
38953
38950
38964
38957
38948
38951
38950
38934
38950
38895
38942
38948
38948
38956
38948
38947
38919
38946
38951
38943
38955
38940
38937
38903
38950
38900
38943
38940
38940
38945
38919
38932
38890
38909
38916
38912
38912
38897
38903
38903
38903
38900
38900
38897
38900
38915
38911
38911
38930
38934
38932
38916
38954
38953
38964
38958
38974
38991
38982
38980
38980
38988
38951
38979
38947
38979
38966
38973
38967
38982
38978
38919
38971
38972
38978
38971
38964
38974
38989
38960
38983
38968
38978
38982
38983
38978
38969
38968
38980
38916
38968
38980
38981
38975
38974
38983
38977
38960
38973
38980
38956
38972
38974
38964
38976
38980
38975
38969
38935
38959
38985
38914
38975
38968
38972
38980
38972
38975
38977
38969
38942
38964
38975
38965
38974
38967
38959
38942
38960
38963
38967
38966
38965
38962
38959
38973
38981
38975
38965
38932
38975
38971
38975
38983
38919
38975
38960
38975
38983
38972
38971
38959
38967
38983
38965
38970
38971
38972
38990
38919
38968
38962
38981
38960
38972
38976
38980
38985
38980
38972
38933
38980
38958
38983
38978
38975
38980
38978
38978
38978
38975
38935
38975
38983
38980
38979
38980
38972
38972
38970
38932
38972
38965
38975
38972
38971
38976
38974
38980
38946
38975
38956
38975
38974
38969
38982
38938
38971
38943
38967
38979
38972
38972
38975
38972
38927
38966
38974
38977
38980
38974
38950
38978
38983
38974
38956
38988
38958
38982
38967
38964
38982
38975
38976
38980
38975
38990
38988
38988
38986
38996
38959
38988
38984
38991
38987
38980
38982
38982
38934
38988
38983
38970
38983
38991
38994
38961
38988
38995
38996
38990
38991
38983
39004
38962
39002
38967
38985
38987
38932
38999
38980
38976
38983
38981
38984
38982
38977
38983
38947
38975
38990
38970
38982
38983
38983
38981
38983
38977
38919
38977
38989
38978
38979
38954
38988
38986
38976
38989
38985
38988
38952
38980
38959
38980
38989
38991
38997
38983
38982
38984
38997
38983
38998
38998
38980
38991
38983
39003
38995
38996
38988
38996
38980
38985
38983
38983
38983
38986
38985
38988
38983
38943
38982
38989
38985
38972
38981
38986
38995
38969
38991
38995
38989
38982
38956
38978
38980
38983
38983
38919
38975
38981
38975
38989
38980
38956
38967
38980
38983
38974
38969
38954
38980
38976
38977
38983
38935
38972
38979
38979
38974
38980
38972
38930
38986
38978
38983
38989
38982
38974
38983
38991
38991
38976
38980
38956
38982
38983
38980
38974
38951
38980
38967
38977
38983
38982
38983
38943
38972
38983
38975
38972
38978
38991
38933
38967
38943
38974
38983
38966
38974
38919
38977
38965
38972
38980
38916
38968
38975
38975
38950
38932
38967
38972
38964
38967
38971
38968
38963
38960
38968
38964
38966
38967
38974
38951
38959
38968
38940
38967
38977
38967
38956
38910
38965
38966
38964
38975
38933
38960
38980
38926
38967
38975
38963
38966
38954
38972
38974
38950
38967
38980
38975
38978
38980
38975
38970
38916
38962
38972
38919
38959
38964
38967
38969
38919
38967
38972
38963
38972
38938
38953
38916
38959
38958
38964
38968
38963
38974
38971
38967
38967
38960
38967
38954
38973
38961
38964
38919
38972
38965
38964
38962
38972
38969
38964
38965
38956
38967
38910
38963
38968
38967
38965
38964
38970
38967
38972
38972
38969
38971
38967
38970
38963
38959
38956
38967
38943
38948
38959
38964
38943
38956
38940
38964
38969
38959
38970
38967
38965
38908
38962
38950
38961
38971
38959
38964
38915
38965
38966
38955
38958
38955
38968
38964
38962
38967
38975
38965
38975
38967
38967
38959
38967
38969
38965
38959
38959
38959
38950
38959
38919
38946
38919
38952
38964
38966
38956
38967
38966
38936
38964
38966
38971
38975
38956
38961
38961
38965
38979
38934
38961
38971
38950
38964
38979
38952
38972
38966
38967
38966
38962
38974
38967
38964
38964
38967
38910
38955
38964
38959
38967
38972
38959
38967
38956
38964
38970
38962
38975
38966
38965
38938
38958
38963
38965
38963
38963
38952
38964
38900
38955
38951
38954
38959
38913
38958
38967
38957
38950
38932
38950
38958
38967
38954
38950
38955
38956
38959
38946
38955
38927
38950
38934
38944
38936
38952
38956
38956
38961
38957
38960
38959
38967
38950
38962
38954
38956
38957
38959
38952
38962
38962
38964
38957
38964
38958
38952
38949
38955
38964
38959
38964
38967
38956
38937
38957
38959
38952
38967
38971
38960
38949
38964
38959
38975
38943
38965
38963
38956
38956
38954
38951
38957
38943
38932
38936
38919
38930
38919
38914
38906
38895
38902
38908
38897
38908
38908
38919
38908
38919
38919
38938
38940
38944
38946
38927
38964
38966
38965
38981
38969
38956
38917
38969
38964
38973
38974
38981
38965
38978
38967
38965
38970
38953
38914
38967
38967
38903
38955
38970
38964
38961
38941
38967
38975
38964
38979
38975
38975
38930
38967
38959
38965
38962
38961
38948
38907
38964
38916
38971
38910
38967
38940
38967
38943
38956
38975
38964
38983
38970
38975
38919
38965
38958
38967
38968
38907
38957
38964
38956
38951
38967
38967
38954
38962
38963
38959
38969
38950
38967
38903
38957
38965
38952
38949
38944
38946
38956
38959
38956
38884
38941
38959
38954
38958
38911
38965
38964
38960
38965
38951
38963
38959
38958
38950
38946
38949
38952
38967
38957
38954
38940
38940
38909
38951
38967
38919
38965
38975
38950
38963
38909
38952
38956
38951
38951
38919
38961
38946
38958
38942
38911
38948
38956
38943
38957
38959
38966
38952
38963
38965
38958
38950
38959
38943
38966
38957
38956
38950
38956
38959
38918
38958
38956
38960
38953
38939
38964
38964
38911
38954
38955
38961
38957
38954
38951
38951
38948
38901
38948
38951
38919
38955
38963
38956
38951
38954
38954
38958
38951
38959
38908
38948
38956
38953
38961
38957
38941
38911
38951
38947
38965
38961
38964
38966
38919
38964
38956
38961
38970
38965
38967
38959
38974
38945
38962
38958
38965
38968
38962
38956
38919
38964
38964
38965
38965
38964
38919
38961
38956
38959
38967
38958
38919
38964
38919
38964
38962
38963
38964
38965
38973
38919
38972
38979
38972
38942
38932
38964
38942
38960
38980
38967
38968
38975
38975
38965
38975
38964
38975
38966
38980
38964
38932
38983
38980
38975
38972
38973
38967
38973
38983
38968
38964
38975
38906
38963
38975
38979
38967
38965
38974
38956
38974
38956
38971
38974
38945
38980
38965
38973
38967
38991
38972
38967
38918
38941
38971
38950
38966
38974
38973
38966
38972
38974
38980
38940
38972
38980
38982
38976
38983
38986
38981
38974
38954
38975
38971
38970
38967
38954
38979
38967
38960
38972
38975
38989
38931
38975
38977
38978
38967
38969
38978
38975
38972
38916
38975
38977
38929
38975
38967
38970
38945
38967
38973
38969
38972
38972
38976
38984
38980
38974
38989
38980
38973
38983
38975
38971
38964
38964
38979
38957
38981
38973
38979
38983
38961
38943
38966
38980
38975
38979
38955
38975
38972
38957
38960
38972
38971
38974
38974
38975
38980
38932
38974
38983
38976
38975
38988
38976
38983
38943
38980
38983
38970
38977
38972
38974
38981
38981
38973
38972
38977
38980
38959
38974
38989
38983
38975
38983
38981
38974
38983
38981
38964
38959
38980
38983
38981
38980
38974
38983
38935
38980
38933
38983
38940
38985
38949
38979
38932
38998
38996
38943
38985
38980
38988
38994
38991
38995
38946
38991
38977
38983
38994
38995
38999
38990
38980
38975
38983
38990
38983
38984
38991
38980
38948
38975
38935
38984
38997
38994
38990
38991
38990
38983
38994
38998
38999
38991
38990
38975
38984
38938
38991
38949
38982
38932
38996
38944
38980
38996
38983
38999
38964
38993
39012
38983
38990
39000
38991
38997
38965
38999
38998
38996
38979
38990
38987
38998
38991
38990
38983
38991
38948
38991
38988
38994
38999
38998
38994
38991
38999
38996
38948
38996
39005
38993
39007
38998
38999
39007
39011
38999
38982
39010
38958
39005
38954
39012
38999
39011
39006
38999
38985
39004
39010
38999
38999
38988
39004
39012
39013
39012
39010
39004
39023
39012
39011
38991
39005
38982
39004
38999
39007
39004
39007
39010
39009
38988
38982
39013
39021
39019
39014
39019
39018
38970
38975
38983
39016
39013
39015
39015
39013
38994
39004
39004
39007
38967
39005
39006
39014
39007
39023
39015
38985
39023
39031
39011
39012
39015
39012
39008
39015
39014
39015
38964
39007
39028
39014
39015
39013
39016
39016
39020
39026
39031
39024
39037
39028
39031
39018
39015
39039
39036
39029
39037
39031
38988
39045
39034
39031
39036
39021
39045
39037
39034
39047
39018
39038
39039
39036
39043
39036
39030
39028
39021
39028
39019
38993
39013
39011
39008
39000
39007
39004
39004
39002
39002
39006
39015
39014
39023
39024
39042
39046
39047
39044
39028
39063
39078
39068
39083
39079
39082
39038
39080
39084
39093
39087
39045
39087
39084
39076
39082
39046
39071
39074
39029
39074
39076
39070
39081
39028
39084
39084
39068
39084
39076
39087
39079
39075
39086
39071
39087
39047
39083
39044
39076
39085
39090
39038
39092
39095
39092
39075
39060
39076
39092
39092
39092
39084
39100
39062
39078
39085
39086
39089
39086
39080
39087
39077
39047
39088
39092
39099
39093
39046
39094
39105
39037
39098
39098
39096
39085
39092
39100
39096
39092
39095
39103
39100
39092
39102
39103
39111
39063
39102
39110
39106
39111
39107
39086
39052
39099
39107
39092
39111
39105
39110
39118
39110
39098
39104
39103
39110
39105
39102
39119
39064
39109
39116
39110
39109
39117
39118
39116
39119
39119
39121
39117
39113
39120
39125
39127
39110
39119
39143
39079
39125
39137
39103
39124
39112
39127
39127
39125
39131
39103
39124
39134
39135
39132
39116
39133
39135
39133
39133
39097
39141
39137
39140
39140
39127
39143
39134
39135
39145
39132
39143
39136
39148
39147
39099
39134
39138
39143
39143
39092
39146
39146
39142
39151
39135
39149
39129
39142
39146
39148
39146
39158
39146
39141
39152
39159
39156
39146
39161
39159
39124
39162
39168
39116
39162
39156
39127
39164
39175
39118
39160
39164
39167
39164
39154
39162
39175
39172
39175
39151
39158
39143
39167
39147
39166
39169
39168
39172
39170
39175
39191
39189
39181
39190
39180
39194
39185
39205
39195
39199
39190
39188
39151
39207
39191
39194
39191
39175
39194
39215
39197
39199
39213
39208
39201
39204
39207
39213
39164
39212
39175
39212
39212
39210
39207
39215
39206
39214
39164
39208
39215
39212
39206
39210
39212
39222
39211
39211
39206
39210
39231
39220
39224
39188
39219
39220
39210
39231
39166
39217
39221
39231
39238
39207
39222
39231
39237
39238
39238
39234
39232
39236
39236
39234
39247
39175
39228
39244
39230
39239
39226
39241
39197
39236
39256
39189
39246
39250
39244
39254
39194
39237
39249
39247
39246
39187
39244
39231
39244
39239
39250
39254
39247
39252
39254
39262
39252
39254
39255
39256
39207
39241
39254
39249
39233
39236
39260
39263
39204
39247
39268
39222
39263
39258
39248
39263
39226
39259
39260
39258
39242
39267
39262
39259
39263
39268
39263
39267
39221
39271
39276
39275
39271
39268
39277
39276
39243
39271
39284
39269
39285
39262
39274
39295
39284
39282
39287
39283
39284
39270
39288
39303
39263
39295
39298
39256
39288
39284
39295
39295
39292
39303
39296
39303
39303
39301
39294
39303
39294
39302
39305
39303
39303
39311
39271
39310
39300
39308
39308
39264
39303
39293
39309
39309
39303
39310
39307
39300
39311
39311
39312
39316
39295
39324
39324
39311
39318
39327
39317
39316
39327
39320
39326
39284
39324
39327
39327
39317
39313
39324
39331
39335
39332
39335
39332
39341
39335
39329
39342
39335
39341
39341
39343
39343
39292
39338
39349
39295
39334
39350
39311
39342
39351
39346
39359
39338
39354
39363
39316
39354
39364
39319
39361
39342
39364
39350
39364
39332
39364
39356
39313
39359
39364
39367
39364
39375
39359
39380
39327
39380
39382
39335
39383
39387
39381
39391
39340
39375
39369
39383
39387
39343
39380
39381
39388
39393
39396
39359
39383
39391
39397
39384
39385
39390
39391
39396
39361
39380
39393
39375
39388
39393
39396
39389
39399
39399
39380
39399
39405
39407
39399
39399
39398
39405
39399
39398
39412
39354
39412
39418
39370
39407
39421
39407
39417
39427
39398
39417
39431
39381
39421
39413
39416
39422
39423
39420
39429
39376
39389
39385
39430
39431
39428
39431
39431
39413
39431
39430
39431
39447
39389
39439
39431
39431
39431
39387
39431
39431
39430
39431
39431
39430
39446
39444
39444
39412
39431
39455
39453
39455
39448
39455
39446
39455
39455
39431
39431
39394
39441
39404
39452
39431
39439
39447
39431
39447
39445
39447
39441
39441
39431
39431
39421
39445
39431
39431
39431
39444
39450
39463
39468
39461
39460
39491
39471
39501
39476
39503
39478
39508
39495
39516
39518
39521
39516
39524
39523
39523
39509
39519
39524
39519
39518
39524
39489
39521
39527
39477
39511
39532
39524
39522
39527
39471
39520
39524
39513
39524
39524
39516
39534
39521
39522
39519
39524
39530
39527
39525
39525
39527
39527
39525
39526
39534
39528
39534
39533
39543
39530
39524
39537
39527
39535
39540
39546
39493
39530
39532
39550
39540
39549
39550
39524
39516
39540
39543
39501
39540
39535
39543
39503
39546
39547
39552
39546
39550
39551
39550
39551
39554
39559
39557
39511
39551
39558
39559
39558
39556
39548
39535
39554
39563
39564
39570
39527
39558
39567
39564
39567
39564
39573
39575
39567
39563
39574
39572
39570
39523
39570
39579
39566
39572
39576
39583
39575
39559
39569
39573
39581
39580
39587
39575
39575
39574
39575
39583
39580
39584
39558
39590
39591
39546
39588
39588
39597
39589
39591
39594
39594
39595
39582
39596
39589
39596
39586
39589
39583
39599
39540
39591
39597
39584
39607
39547
39599
39597
39607
39596
39609
39603
39607
39561
39607
39604
39611
39607
39614
39590
39610
39609
39600
39624
39620
39596
39591
39615
39626
39623
39623
39589
39621
39623
39628
39616
39623
39626
39624
39622
39622
39630
39621
39601
39628
39630
39620
39635
39624
39628
39638
39605
39634
39638
39637
39634
39637
39633
39628
39639
39641
39645
39594
39638
39623
39635
39655
39619
39643
39654
39596
39646
39633
39641
39647
39641
39655
39630
39645
39646
39650
39644
39607
39655
39655
39646
39648
39655
39655
39655
39645
39662
39652
39665
39662
39655
39663
39650
39655
39669
39667
39659
39667
39669
39663
39665
39653
39643
39677
39671
39664
39668
39686
39676
39668
39669
39663
39678
39675
39669
39671
39668
39669
39656
39678
39671
39679
39683
39671
39675
39674
39679
39686
39687
39679
39683
39673
39687
39684
39684
39690
39682
39687
39687
39695
39678
39695
39687
39680
39660
39695
39684
39647
39687
39695
39684
39684
39668
39687
39695
39680
39668
39646
39679
39687
39695
39687
39684
39684
39699
39631
39687
39687
39687
39687
39652
39687
39698
39654
39685
39687
39692
39687
39692
39695
39699
39646
39695
39695
39643
39690
39698
39700
39687
39697
39699
39701
39655
39700
39706
39699
39687
39679
39708
39716
39668
39704
39714
39669
39703
39713
39706
39709
39700
39713
39710
39652
39701
39717
39711
39710
39701
39710
39712
39705
39714
39722
39722
39719
39709
39726
39720
39720
39711
39717
39724
39727
39724
39727
39711
39726
39727
39732
39680
39727
39720
39724
39727
39726
39738
39711
39710
39740
39679
39718
39734
39722
39712
39688
39720
39730
39726
39726
39708
39725
39721
39733
39700
39681
39721
39735
39679
39722
39719
39724
39740
39703
39731
39733
39724
39724
39721
39732
39735
39732
39734
39737
39727
39698
39736
39746
39695
39740
39744
39687
39735
39748
39708
39738
39748
39740
39737
39748
39742
39751
39750
39755
39748
39758
39758
39759
39758
39750
39759
39709
39750
39758
39747
39743
39751
39759
39762
39750
39763
39753
39752
39764
39759
39756
39760
39756
39764
39706
39751
39762
39751
39730
39698
39750
39759
39746
39756
39752
39765
39754
39758
39751
39748
39713
39751
39703
39734
39748
39740
39703
39743
39751
39744
39746
39749
39757
39708
39751
39760
39755
39753
39750
39759
39771
39743
39765
39767
39719
39771
39764
39766
39762
39765
39746
39738
39761
39756
39763
39759
39740
39765
39764
39768
39759
39734
39771
39772
39770
39753
39732
39759
39775
39769
39775
39719
39759
39775
39775
39759
39736
39783
39778
39783
39778
39761
39782
39779
39733
39770
39782
39775
39760
39764
39767
39766
39770
39768
39753
39757
39772
39719
39756
39772
39760
39765
39764
39760
39752
39734
39748
39751
39751
39749
39748
39748
39753
39766
39765
39769
39790
39798
39758
39790
39765
39808
39783
39815
39764
39815
39783
39827
39823
39820
39829
39821
39822
39780
39814
39828
39831
39838
39758
39815
39813
39822
39821
39815
39819
39814
39809
39756
39812
39815
39812
39807
39812
39807
39807
39814
39815
39815
39807
39791
39815
39815
39814
39800
39810
39806
39815
39808
39815
39813
39807
39800
39807
39788
39801
39804
39790
39791
39800
39807
39758
39815
39820
39811
39814
39760
39796
39795
39802
39804
39799
39810
39806
39810
39804
39815
39805
39812
39812
39805
39799
39802
39799
39815
39815
39815
39811
39814
39821
39813
39798
39766
39802
39808
39810
39806
39813
39815
39812
39788
39815
39814
39760
39807
39815
39812
39797
39772
39804
39812
39804
39815
39797
39810
39815
39764
39809
39815
39780
39812
39812
39814
39804
39807
39774
39813
39811
39758
39796
39810
39764
39813
39807
39803
39812
39759
39804
39807
39814
39812
39769
39809
39807
39815
39762
39802
39812
39796
39807
39809
39815
39802
39810
39807
39807
39814
39815
39815
39790
39817
39807
39821
39813
39790
39799
39801
39815
39813
39815
39796
39811
39818
39813
39821
39760
39815
39826
39798
39823
39815
39812
39820
39820
39812
39799
39811
39827
39812
39812
39820
39810
39776
39812
39815
39769
39812
39816
39813
39815
39819
39818
39812
39799
39815
39807
39815
39823
39815
39807
39810
39812
39799
39812
39815
39821
39814
39814
39815
39807
39815
39815
39820
39820
39822
39815
39817
39816
39814
39823
39815
39815
39819
39815
39815
39830
39818
39807
39813
39815
39821
39780
39823
39818
39815
39815
39818
39823
39819
39815
39822
39820
39773
39825
39838
39838
39815
39823
39771
39831
39815
39821
39825
39808
39821
39824
39815
39836
39820
39806
39767
39805
39823
39826
39819
39820
39818
39836
39815
39829
39816
39815
39768
39815
39815
39812
39825
39789
39815
39815
39813
39812
39799
39815
39818
39812
39812
39807
39783
39789
39814
39812
39809
39815
39772
39794
39805
39799
39807
39759
39796
39809
39762
39807
39811
39750
39815
39815
39812
39804
39815
39812
39811
39815
39799
39808
39798
39809
39797
39796
39796
39801
39806
39804
39815
39807
39809
39805
39807
39815
39804
39794
39772
39807
39814
39810
39807
39775
39791
39804
39767
39803
39804
39764
39804
39807
39759
39796
39804
39798
39802
39780
39790
39807
39798
39814
39798
39791
39740
39799
39787
39791
39793
39748
39788
39806
39798
39793
39791
39802
39802
39756
39804
39798
39798
39799
39742
39785
39785
39783
39791
39782
39791
39783
39791
39789
39788
39785
39788
39791
39799
39797
39795
39751
39798
39785
39786
39788
39736
39782
39788
39783
39794
39783
39782
39799
39783
39797
39764
39792
39800
39796
39796
39782
39791
39792
39791
39789
39791
39777
39775
39783
39788
39741
39791
39791
39739
39793
39796
39794
39788
39740
39782
39796
39786
39783
39732
39781
39776
39782
39783
39767
39780
39786
39784
39793
39755
39785
39785
39785
39788
39728
39783
39787
39780
39774
39786
39783
39791
39737
39775
39772
39777
39782
39777
39778
39774
39782
39789
39780
39782
39743
39779
39763
39781
39783
39777
39790
39783
39780
39779
39783
39772
39752
39732
39779
39783
39768
39778
39782
39790
39720
39773
39764
39774
39767
39774
39783
39777
39772
39778
39772
39771
39777
39766
39767
39773
39780
39767
39744
39765
39774
39725
39775
39746
39767
39764
39767
39767
39760
39767
39751
39752
39758
39756
39708
39756
39748
39764
39767
39763
39760
39716
39760
39770
39724
39754
39765
39751
39750
39709
39760
39764
39754
39766
39700
39756
39758
39753
39748
39751
39713
39754
39758
39742
39732
39714
39741
39745
39743
39740
39735
39731
39732
39719
39733
39736
39740
39750
39754
39742
39754
39756
39740
39764
39779
39778
39782
39775
39776
39790
39782
39766
39781
39793
39722
39790
39796
39791
39783
39790
39783
39780
39751
39766
39774
39772
39759
39760
39762
39750
39748
39751
39738
39724
39754
39764
39757
39751
39739
39764
39752
39740
39735
39750
39726
39751
39758
39757
39754
39700
39756
39740
39751
39748
39748
39747
39755
39749
39751
39711
39751
39750
39708
39743
39748
39748
39743
39744
39718
39751
39759
39741
39754
39758
39752
39754
39751
39739
39730
39735
39753
39750
39748
39747
39751
39746
39750
39745
39732
39687
39742
39750
39743
39744
39740
39744
39754
39743
39723
39724
39751
39738
39738
39734
39727
39742
39742
39724
39738
39732
39742
39710
39732
39717
39735
39734
39735
39738
39735
39733
39740
39739
39728
39684
39722
39726
39718
39732
39719
39725
39729
39720
39734
39678
39727
39736
39708
39735
39723
39717
39732
39735
39728
39716
39714
39719
39708
39732
39719
39719
39716
39719
39726
39703
39721
39727
39724
39720
39718
39735
39687
39724
39720
39727
39718
39720
39718
39722
39718
39718
39714
39718
39680
39719
39724
39716
39722
39719
39729
39720
39724
39682
39732
39732
39687
39716
39727
39727
39727
39727
39714
39706
39718
39720
39719
39721
39719
39718
39720
39722
39711
39727
39722
39724
39719
39718
39719
39708
39713
39713
39719
39720
39717
39687
39714
39724
39726
39716
39730
39718
39730
39676
39713
39723
39718
39722
39731
39727
39727
39725
39727
39700
39679
39711
39722
39712
39716
39722
39723
39732
39722
39716
39717
39721
39711
39700
39710
39723
39719
39718
39719
39708
39700
39725
39716
39724
39719
39716
39724
39723
39720
39711
39704
39718
39718
39711
39708
39717
39704
39708
39708
39711
39702
39710
39700
39710
39711
39719
39658
39703
39716
39711
39660
39711
39718
39673
39709
39695
39706
39708
39707
39710
39711
39687
39710
39704
39703
39710
39652
39700
39702
39692
39695
39701
39655
39701
39696
39708
39705
39695
39703
39681
39697
39708
39706
39701
39700
39695
39708
39687
39703
39700
39708
39700
39700
39699
39683
39687
39686
39684
39699
39646
39684
39696
39652
39687
39700
39701
39687
39698
39695
39703
39695
39677
39668
39686
39687
39687
39680
39686
39686
39694
39676
39679
39626
39679
39687
39684
39684
39684
39687
39628
39679
39680
39683
39683
39678
39687
39687
39669
39662
39681
39682
39676
39687
39668
39684
39684
39655
39687
39650
39678
39687
39679
39674
39628
39676
39683
39671
39671
39674
39671
39622
39653
39686
39681
39678
39687
39687
39680
39636
39686
39687
39671
39676
39680
39670
39675
39679
39679
39671
39687
39621
39676
39683
39678
39672
39683
39683
39678
39679
39683
39675
39668
39636
39663
39679
39648
39660
39655
39664
39668
39656
39668
39644
39663
39669
39673
39674
39676
39620
39666
39673
39671
39660
39624
39663
39668
39615
39663
39673
39630
39671
39674
39642
39676
39668
39671
39647
39658
39677
39662
39670
39668
39650
39666
39668
39623
39655
39660
39656
39662
39667
39677
39658
39660
39663
39668
39652
39654
39660
39663
39653
39662
39633
39656
39669
39620
39652
39662
39660
39661
39661
39671
39641
39681
39671
39668
39668
39663
39677
39615
39663
39663
39655
39660
39663
39623
39655
39645
39644
39651
39655
39655
39655
39656
39659
39659
39611
39655
39658
39663
39663
39653
39654
39655
39655
39657
39648
39655
39653
39655
39658
39613
39649
39658
39653
39634
39615
39652
39655
39650
39662
39609
39647
39649
39660
39604
39647
39653
39618
39642
39660
39654
39648
39642
39662
39656
39655
39645
39655
39655
39654
39650
39655
39654
39655
39632
39655
39648
39642
39647
39643
39655
39595
39647
39646
39659
39642
39642
39652
39633
39647
39638
39624
39630
39606
39622
39624
39620
39612
39610
39623
39636
39603
39610
39628
39630
39639
39643
39630
39642
39655
39655
39618
39656
39669
39662
39664
39675
39676
39672
39663
39665
39678
39614
39673
39676
39675
39680
39620
39668
39660
39671
39670
39662
39660
39661
39660
39668
39660
39660
39660
39657
39668
39671
39613
39659
39655
39663
39658
39658
39659
39655
39647
39649
39639
39649
39654
39656
39642
39635
39655
39652
39646
39639
39636
39647
39646
39654
39630
39613
39641
39654
39596
39654
39655
39591
39643
39655
39646
39628
39593
39645
39646
39639
39641
39591
39632
39642
39644
39631
39635
39630
39644
39604
39629
39639
39630
39623
39615
39629
39611
39584
39635
39637
39634
39614
39624
39625
39640
39623
39623
39625
39594
39620
39603
39599
39622
39632
39583
39624
39632
39633
39617
39628
39631
39633
39645
39631
39597
39636
39630
39632
39626
39621
39591
39631
39626
39630
39631
39628
39623
39626
39640
39611
39631
39638
39592
39631
39628
39620
39630
39576
39616
39633
39631
39625
39622
39576
39615
39630
39619
39624
39582
39623
39622
39628
39631
39627
39614
39617
39620
39607
39620
39617
39623
39623
39591
39612
39622
39615
39615
39624
39623
39620
39620
39567
39621
39631
39631
39580
39612
39626
39623
39626
39575
39610
39614
39623
39621
39574
39619
39603
39615
39627
39594
39618
39631
39588
39612
39623
39607
39618
39623
39616
39614
39618
39594
39615
39623
39578
39623
39631
39580
39622
39613
39628
39625
39615
39623
39620
39625
39624
39616
39614
39623
39622
39627
39617
39580
39615
39639
39623
39631
39589
39627
39624
39625
39620
39628
39625
39621
39628
39569
39623
39627
39623
39621
39623
39623
39612
39623
39622
39570
39612
39628
39618
39620
39613
39608
39615
39591
39604
39610
39602
39601
39612
39549
39599
39606
39559
39612
39613
39604
39616
39612
39610
39614
39601
39598
39610
39615
39559
39612
39615
39610
39605
39614
39618
39612
39616
39618
39608
39623
39618
39620
39622
39622
39617
39615
39616
39587
39603
39623
39565
39621
39615
39614
39612
39620
39556
39610
39621
39614
39626
39614
39610
39607
39610
39619
39591
39606
39559
39612
39609
39596
39607
39607
39588
39604
39566
39607
39610
39607
39606
39597
39609
39590
39607
39607
39599
39593
39607
39614
39559
39601
39605
39554
39600
39596
39566
39595
39592
39596
39599
39599
39615
39580
39599
39599
39596
39583
39559
39591
39598
39594
39583
39591
39599
39591
39588
39591
39598
39559
39596
39605
39596
39615
39562
39598
39596
39591
39604
39598
39595
39589
39593
39598
39596
39609
39598
39596
39601
39607
39599
39606
39603
39591
39599
39607
39618
39566
39600
39604
39602
39598
39606
39588
39595
39546
39598
39604
39596
39605
39601
39599
39567
39598
39603
39599
39599
39558
39591
39564
39583
39540
39587
39551
39589
39588
39588
39596
39582
39594
39591
39603
39591
39590
39590
39599
39551
39589
39571
39583
39593
39588
39589
39586
39588
39589
39585
39591
39590
39586
39591
39535
39588
39581
39591
39599
39591
39589
39540
39589
39591
39583
39559
39532
39575
39583
39580
39590
39527
39582
39583
39581
39583
39585
39583
39583
39531
39586
39573
39590
39576
39588
39583
39524
39585
39578
39582
39588
39587
39583
39582
39593
39574
39564
39589
39591
39589
39593
39591
39581
39548
39578
39588
39581
39595
39549
39575
39580
39591
39592
39593
39580
39535
39581
39591
39589
39583
39575
39578
39588
39535
39578
39582
39581
39590
39578
39578
39595
39576
39587
39580
39586
39581
39580
39588
39575
39585
39581
39588
39589
39579
39586
39535
39583
39586
39538
39572
39572
39574
39585
39577
39579
39572
39574
39585
39580
39583
39583
39594
39548
39591
39598
39575
39589
39583
39583
39591
39587
39596
39556
39586
39591
39591
39591
39586
39582
39595
39550
39591
39604
39546
39589
39588
39558
39583
39594
39562
39583
39574
39573
39586
39575
39532
39578
39580
39586
39594
39528
39574
39590
39559
39582
39562
39585
39569
39578
39587
39573
39584
39564
39583
39583
39574
39580
39588
39567
39559
39573
39567
39538
39567
39575
39571
39582
39579
39572
39583
39583
39583
39575
39579
39579
39582
39587
39575
39575
39580
39580
39582
39574
39578
39580
39579
39572
39573
39579
39582
39577
39581
39572
39575
39587
39575
39575
39580
39583
39535
39580
39580
39583
39582
39572
39572
39535
39587
39570
39569
39583
39576
39572
39569
39583
39579
39564
39535
39560
39570
39540
39559
39559
39540
39550
39547
39543
39550
39548
39544
39550
39552
39559
39567
39564
39579
39574
39592
39578
39598
39596
39602
39602
39566
39607
39596
39551
39594
39604
39602
39595
39604
39607
39598
39612
39548
39590
39590
39591
39599
39591
39558
39591
39566
39590
39598
39592
39596
39548
39587
39583
39591
39588
39596
39559
39582
39591
39543
39596
39599
39567
39590
39608
39562
39588
39586
39593
39566
39583
39596
39583
39576
39583
39593
39591
39574
39581
39580
39579
39580
39583
39583
39580
39579
39582
39580
39589
39558
39589
39589
39559
39551
39580
39583
39544
39588
39559
39576
39583
39572
39583
39527
39580
39576
39580
39570
39566
39580
39532
39570
39580
39543
39566
39583
39525
39585
39577
39564
39573
39583
39521
39572
39578
39566
39563
39566
39575
39581
39549
39578
39580
39572
39583
39527
39575
39583
39559
39580
39571
39591
39540
39589
39559
39573
39526
39574
39585
39550
39575
39579
39558
39577
39586
39575
39584
39579
39580
39575
39574
39584
39583
39579
39582
39583
39575
39527
39566
39548
39574
39583
39582
39578
39590
39576
39587
39582
39559
39583
39588
39570
39580
39535
39586
39580
39550
39553
39573
39575
39583
39519
39572
39579
39559
39583
39578
39583
39581
39573
39574
39578
39569
39527
39567
39566
39572
39558
39557
39572
39559
39571
39575
39572
39577
39583
39575
39583
39575
39580
39573
39589
39572
39573
39532
39564
39580
39557
39575
39575
39526
39583
39580
39575
39564
39543
39590
39583
39590
39596
39588
39588
39583
39543
39580
39583
39556
39583
39585
39526
39576
39590
39586
39583
39559
39591
39596
39586
39571
39588
39590
39582
39543
39586
39594
39582
39586
39587
39580
39559
39580
39585
39574
39589
39548
39588
39597
39530
39578
39583
39543
39575
39579
39525
39570
39575
39519
39575
39575
39526
39570
39587
39541
39569
39574
39567
39578
39579
39569
39573
39577
39580
39583
39580
39527
39567
39573
39578
39573
39567
39516
39572
39575
39575
39568
39526
39567
39570
39567
39573
39570
39565
39580
39572
39575
39576
39569
39559
39564
39566
39569
39575
39570
39559
39579
39572
39580
39538
39570
39578
39522
39580
39568
39574
39562
39568
39583
39556
39559
39559
39568
39567
39559
39564
39559
39575
39518
39564
39564
39572
39561
39559
39564
39500
39558
39559
39540
39552
39560
39535
39559
39560
39566
39559
39557
39560
39516
39559
39567
39566
39563
39559
39566
39559
39556
39562
39558
39559
39515
39559
39559
39554
39559
39550
39554
39556
39503
39553
39567
39532
39559
39543
39534
39545
39560
39550
39555
39551
39547
39564
39535
39559
39571
39559
39559
39571
39559
39567
39571
39572
39531
39558
39565
39556
39569
39535
39559
39559
39536
39557
39559
39549
39559
39557
39535
39556
39559
39543
39548
39551
39559
39558
39546
39551
39558
39550
39550
39553
39555
39556
39556
39558
39559
39556
39557
39563
39548
39559
39556
39550
39559
39559
39564
39520
39549
39556
39551
39559
39556
39550
39541
39557
39559
39541
39558
39559
39552
39508
39559
39571
39561
39559
39554
39558
39559
39559
39532
39551
39551
39556
39510
39557
39551
39506
39559
39559
39508
39556
39556
39554
39559
39502
39547
39558
39499
39546
39559
39551
39546
39532
39548
39544
39548
39551
39553
39541
39526
39558
39558
39511
39553
39553
39503
39559
39555
39551
39555
39550
39553
39558
39513
39558
39559
39519
39541
39559
39546
39548
39555
39505
39553
39554
39548
39559
39546
39558
39556
39559
39556
39524
39548
39551
39503
39550
39551
39551
39535
39551
39543
39535
39549
39545
39538
39547
39543
39538
39554
39551
39543
39551
39519
39550
39559
39550
39555
39552
39559
39551
39556
39549
39553
39546
39553
39558
39553
39559
39556
39553
39553
39505
39554
39559
39550
39559
39540
39551
39556
39558
39556
39545
39535
39546
39551
39559
39552
39556
39502
39555
39553
39550
39564
39556
39545
39559
39559
39559
39565
39559
39548
39557
39572
39556
39559
39550
39549
39559
39552
39559
39553
39550
39547
39551
39556
39559
39559
39557
39556
39557
39551
39557
39518
39556
39557
39554
39553
39552
39543
39549
39559
39525
39567
39543
39559
39559
39559
39543
39553
39567
39559
39559
39564
39548
39556
39559
39554
39556
39559
39542
39551
39546
39559
39549
39550
39556
39548
39542
39553
39556
39559
39523
39559
39558
39558
39556
39545
39559
39559
39551
39549
39554
39551
39556
39556
39559
39559
39563
39513
39559
39558
39533
39553
39553
39537
39557
39550
39516
39554
39542
39548
39535
39559
39553
39499
39550
39550
39551
39545
39557
39548
39555
39556
39556
39559
39556
39502
39551
39551
39559
39493
39556
39545
39556
39501
39556
39555
39548
39551
39543
39546
39550
39559
39557
39524
39552
39545
39545
39536
39511
39534
39524
39532
39516
39532
39535
39535
39541
39543
39535
39543
39543
39557
39559
39558
39566
39563
39580
39580
39575
39592
39588
39588
39591
39551
39596
39595
39527
39596
39602
39547
39578
39591
39591
39587
39597
39589
39565
39580
39582
39583
39527
39582
39589
39526
39580
39586
39579
39583
39572
39575
39583
39583
39588
39574
39572
39550
39571
39575
39565
39572
39567
39575
39583
39565
39573
39573
39566
39572
39566
39573
39538
39567
39559
39572
39551
39559
39559
39562
39568
39572
39572
39568
39560
39570
39580
39575
39580
39526
39577
39593
39556
39575
39578
39591
39580
39566
39582
39586
39575
39580
39529
39576
39583
39534
39572
39582
39548
39583
39587
39546
39577
39580
39555
39591
39579
39578
39566
39570
39574
39527
39564
39581
39552
39575
39570
39572
39569
39583
39591
39587
39583
39586
39580
39574
39569
39574
39574
39578
39525
39578
39572
39560
39572
39586
39535
39564
39571
39572
39569
39574
39558
39569
39567
39570
39580
39572
39575
39569
39568
39516
39575
39583
39556
39589
39585
39585
39548
39580
39564
39580
39540
39589
39581
39583
39583
39575
39582
39548
39578
39584
39556
39580
39579
39581
39591
39580
39588
39583
39568
39567
39588
39592
39548
39587
39591
39542
39580
39578
39535
39580
39580
39591
39583
39583
39588
39581
39587
39580
39581
39592
39588
39543
39585
39572
39589
39585
39582
39580
39589
39575
39584
39588
39548
39587
39590
39551
39597
39599
39551
39593
39593
39598
39604
39567
39594
39588
39588
39590
39598
39543
39594
39599
39596
39591
39591
39599
39594
39598
39553
39590
39595
39590
39593
39594
39594
39567
39599
39593
39598
39543
39591
39599
39588
39591
39599
39582
39595
39599
39551
39591
39611
39567
39593
39594
39558
39596
39604
39567
39597
39594
39602
39598
39595
39591
39599
39605
39591
39596
39604
39553
39599
39598
39602
39607
39604
39591
39590
39592
39584
39590
39594
39596
39590
39606
39548
39599
39605
39598
39593
39599
39594
39592
39604
39599
39591
39591
39589
39591
39583
39593
39606
39554
39599
39597
39594
39599
39591
39579
39594
39599
39601
39595
39595
39579
39596
39559
39580
39587
39523
39580
39591
39582
39588
39585
39584
39585
39595
39568
39587
39588
39596
39543
39584
39573
39594
39567
39591
39599
39544
39575
39599
39572
39591
39597
39564
39591
39599
39588
39591
39595
39595
39598
39599
39596
39591
39585
39588
39574
39572
39591
39591
39588
39594
39591
39590
39588
39592
39577
39595
39594
39591
39591
39592
39588
39596
39578
39588
39592
39534
39588
39600
39573
39599
39596
39599
39592
39588
39596
39592
39575
39591
39588
39580
39589
39592
39581
39588
39594
39591
39588
39603
39602
39582
39592
39605
39550
39596
39599
39535
39594
39606
39591
39591
39595
39540
39582
39588
39541
39582
39586
39588
39588
39582
39592
39538
39591
39597
39596
39590
39593
39580
39585
39591
39543
39590
39585
39558
39591
39583
39588
39591
39599
39571
39598
39604
39599
39602
39595
39606
39597
39599
39595
39594
39542
39591
39596
39542
39583
39599
39588
39596
39596
39591
39607
39599
39599
39598
39602
39602
39583
39606
39594
39604
39604
39591
39607
39579
39596
39598
39578
39596
39584
39591
39599
39596
39596
39559
39599
39602
39596
39596
39606
39599
39603
39604
39599
39595
39592
39591
39596
39598
39603
39575
39551
39592
39611
39607
39603
39612
39555
39598
39604
39559
39591
39602
39594
39587
39587
39604
39590
39601
39599
39593
39590
39591
39588
39566
39598
39596
39603
39598
39596
39551
39591
39601
39562
39596
39604
39590
39590
39599
39603
39599
39602
39575
39614
39615
39567
39609
39618
39604
39609
39615
39615
39567
39606
39618
39599
39607
39604
39619
39623
39613
39622
39609
39622
39623
39569
39623
39628
39570
39616
39623
39595
39607
39620
39617
39612
39614
39606
39612
39616
39578
39622
39626
39618
39622
39621
39620
39629
39613
39627
39559
39612
39616
39623
39617
39620
39618
39609
39615
39623
39607
39576
39618
39631
39612
39623
39623
39625
39615
39628
39622
39628
39623
39624
39628
39626
39621
39623
39631
39622
39622
39630
39634
39599
39623
39618
39642
39620
39630
39634
39580
39620
39628
39598
39625
39625
39620
39623
39631
39634
39626
39636
39638
39632
39639
39642
39633
39645
39593
39627
39629
39632
39578
39623
39637
39628
39630
39625
39630
39588
39632
39631
39623
39639
39633
39605
39636
39637
39585
39639
39639
39636
39624
39628
39643
39633
39647
39636
39631
39632
39647
39650
39641
39636
39651
39647
39630
39623
39637
39647
39632
39633
39636
39630
39627
39624
39636
39618
39621
39621
39618
39622
39622
39620
39622
39623
39623
39623
39620
39646
39633
39636
39655
39660
39655
39680
39670
39677
39687
39616
39693
39686
39671
39692
39701
39701
39693
39687
39697
39652
39678
39687
39671
39681
39679
39679
39687
39681
39687
39669
39678
39687
39654
39686
39695
39660
39687
39698
39665
39686
39687
39687
39631
39687
39684
39687
39655
39682
39687
39646
39684
39701
39677
39686
39695
39687
39687
39703
39687
39695
39636
39687
39687
39683
39687
39679
39687
39687
39687
39682
39687
39697
39700
39687
39698
39694
39700
39708
39672
39699
39677
39697
39699
39694
39703
39699
39687
39703
39697
39713
39658
39708
39713
39703
39716
39652
39703
39710
39719
39718
39678
39714
39718
39719
39710
39716
39712
39708
39722
39711
39716
39721
39718
39665
39719
39714
39716
39666
39719
39726
39718
39719
39718
39706
39714
39702
39726
39719
39725
39727
39726
39729
39733
39739
39734
39737
39735
39694
39732
39732
39735
39734
39725
39708
39732
39718
39733
39697
39727
39726
39732
39730
39740
39733
39730
39719
39742
39743
39745
39723
39746
39732
39745
39692
39747
39752
39703
39748
39760
39710
39762
39748
39764
39762
39765
39759
39716
39759
39769
39772
39768
39761
39759
39765
39775
39759
39767
39748
39772
39770
39783
39726
39783
39772
39780
39774
39783
39783
39775
39780
39783
39779
39785
39783
39783
39799
39754
39780
39785
39741
39786
39782
39790
39791
39780
39791
39790
39792
39799
39796
39804
39791
39804
39807
39767
39797
39805
39800
39804
39799
39820
39812
39831
39766
39818
39799
39765
39824
39815
39815
39815
39824
39796
39823
39820
39767
39831
39823
39822
39814
39796
39832
39847
39831
39846
39839
39841
39847
39831
39815
39836
39847
39844
39855
39790
39847
39852
39838
39852
39856
39839
39799
39853
39846
39848
39847
39852
39855
39811
39850
39860
39857
39863
39809
39856
39875
39805
39855
39856
39815
39858
39875
39845
39875
39879
39827
39872
39883
39879
39871
39892
39879
39863
39871
39879
39881
39872
39868
39866
39879
39885
39860
39884
39888
39850
39887
39879
39884
39891
39890
39896
39885
39893
39892
39898
39902
39831
39895
39898
39887
39896
39913
39852
39908
39908
39908
39911
39915
39909
39917
39848
39912
39913
39895
39907
39919
39878
39918
39919
39869
39923
39924
39927
39925
39939
39927
39927
39943
39884
39941
39940
39921
39938
39935
39935
39935
39932
39930
39943
39943
39900
39935
39943
39943
39943
39908
39943
39943
39943
39956
39959
39956
39968
39925
39963
39972
39908
39950
39966
39918
39962
39972
39919
39966
39972
39974
39981
39974
39980
39980
39976
39991
39975
39981
39935
39980
39980
39991
39935
39984
40004
39995
40000
39989
40004
39994
39981
39993
39996
40006
40000
40008
39966
40010
40009
39964
40007
40008
40018
40015
40015
40013
40015
40018
40018
40028
40031
40023
40024
40031
40028
40030
40012
40026
40032
40031
40021
39994
40026
40039
39998
40025
40039
40042
40039
40041
40059
40006
40055
40055
40029
40049
40044
40026
40047
40054
40007
40052
40042
40049
40058
40054
40058
40007
40063
40061
40071
40070
40071
40078
40070
40069
40078
40063
40069
40076
40078
40031
40077
40087
40030
40087
40101
40094
40095
40100
40047
40101
40105
40040
40105
40103
40049
40107
40111
40071
40108
40108
40110
40060
40116
40126
40122
40123
40122
40127
40130
40124
40132
40123
40135
40129
40128
40125
40132
40111
40135
40133
40132
40092
40135
40154
40148
40148
40087
40156
40149
40164
40148
40155
40148
40156
40118
40154
40156
40132
40164
40167
40167
40167
40127
40173
40176
40113
40175
40172
40184
40180
40181
40174
40188
40174
40194
40185
40167
40190
40184
40197
40182
40182
40198
40206
40199
40204
40215
40209
40206
40218
40204
40216
40180
40208
40214
40166
40213
40231
40199
40218
40213
40224
40166
40234
40227
40230
40231
40239
40226
40239
40224
40239
40231
40235
40231
40228
40237
40239
40216
40191
40231
40198
40236
40246
40238
40245
40255
40242
40191
40250
40263
40260
40260
40228
40259
40258
40212
40245
40266
40260
40285
40261
40282
40277
40222
40278
40278
40287
40278
40284
40238
40276
40284
40279
40278
40287
40287
40284
40292
40291
40292
40296
40290
40295
40300
40266
40295
40308
40303
40305
40304
40303
40305
40305
40306
40287
40308
40312
40251
40308
40310
40311
40316
40270
40319
40307
40321
40312
40319
40326
40322
40322
40319
40318
40314
40321
40327
40312
40302
40288
40314
40317
40316
40318
40307
40321
40327
40327
40334
40335
40338
40354
40356
40358
40356
40372
40379
40372
40385
40390
40338
40394
40391
40389
40402
40347
40398
40400
40398
40406
40404
40397
40404
40404
40391
40399
40396
40409
40350
40406
40404
40396
40419
40418
40413
40419
40414
40372
40422
40423
40418
40415
40361
40415
40406
40411
40415
40409
40400
40367
40409
40420
40364
40420
40431
40372
40421
40426
40425
40424
40398
40439
40432
40436
40436
40436
40439
40431
40433
40445
40436
40439
40446
40445
40452
40436
40418
40447
40455
40455
40439
40428
40448
40455
40392
40452
40455
40389
40454
40462
40455
40455
40455
40462
40479
40460
40467
40472
40416
40479
40478
40416
40465
40479
40454
40479
40475
40470
40477
40476
40414
40481
40476
40483
40485
40484
40486
40479
40478
40486
40502
40431
40491
40491
40484
40494
40494
40491
40486
40446
40485
40498
40487
40500
40497
40507
40508
40512
40506
40510
40471
40502
40511
40506
40516
40508
40500
40510
40505
40518
40518
40519
40508
40476
40518
40511
40522
40527
40518
40519
40526
40526
40517
40508
40527
40530
40503
40518
40533
40522
40530
40521
40535
40540
40519
40538
40544
40501
40542
40551
40495
40545
40556
40485
40544
40544
40495
40538
40556
40495
40548
40556
40502
40559
40567
40501
40551
40567
40559
40567
40564
40565
40550
40559
40556
40572
40555
40551
40565
40508
40553
40556
40560
40565
40575
40564
40580
40580
40577
40577
40582
40534
40578
40583
40562
40577
40581
40583
40583
40580
40594
40569
40595
40591
40604
40592
40596
40591
40550
40601
40607
40604
40601
40613
40567
40593
40607
40575
40599
40604
40604
40604
40572
40607
40615
40612
40607
40591
40615
40625
40593
40619
40628
40574
40615
40614
40557
40612
40621
40620
40618
40623
40623
40621
40560
40613
40631
40628
40618
40628
40631
40626
40631
40614
40631
40623
40628
40620
40620
40634
40561
40616
40615
40631
40628
40622
40612
40636
40631
40639
40633
40634
40631
40636
40580
40629
40645
40644
40633
40638
40646
40629
40588
40636
40644
40578
40647
40636
40639
40639
40612
40639
40647
40644
40641
40591
40644
40647
40647
40644
40652
40655
40647
40655
40650
40660
40589
40655
40654
40657
40655
40599
40658
40652
40655
40668
40655
40636
40612
40652
40649
40657
40663
40660
40646
40655
40661
40660
40622
40658
40655
40651
40654
40655
40658
40652
40662
40652
40666
40599
40662
40670
40622
40671
40671
40671
40673
40679
40663
40674
40618
40671
40679
40628
40661
40677
40674
40663
40670
40653
40672
40671
40677
40629
40669
40679
40644
40676
40687
40644
40678
40681
40636
40682
40686
40631
40673
40682
40640
40673
40679
40684
40682
40684
40647
40673
40685
40694
40685
40636
40683
40683
40679
40664
40655
40685
40700
40683
40686
40655
40686
40686
40631
40686
40692
40634
40684
40686
40679
40686
40668
40679
40662
40683
40687
40639
40679
40684
40689
40695
40660
40695
40700
40671
40703
40694
40706
40703
40700
40703
40708
40646
40708
40710
40703
40711
40646
40710
40711
40711
40706
40711
40724
40711
40692
40668
40712
40687
40711
40727
40727
40722
40711
40709
40714
40711
40709
40672
40719
40719
40667
40711
40663
40716
40710
40725
40732
40724
40711
40733
40726
40724
40732
40719
40727
40701
40681
40718
40728
40734
40711
40700
40722
40730
40726
40721
40738
40732
40724
40735
40735
40734
40737
40733
40728
40736
40732
40732
40742
40734
40740
40673
40729
40733
40745
40743
40692
40743
40743
40743
40740
40746
40738
40685
40742
40703
40751
40743
40743
40730
40724
40745
40750
40704
40758
40761
40697
40758
40752
40756
40764
40751
40743
40727
40751
40752
40759
40757
40702
40762
40758
40756
40757
40761
40767
40764
40773
40711
40764
40765
40761
40750
40728
40759
40767
40762
40757
40757
40756
40770
40724
40762
40774
40774
40771
40762
40769
40762
40771
40765
40770
40763
40766
40743
40757
40756
40764
40775
40703
40763
40769
40768
40775
40727
40767
40778
40743
40766
40759
40781
40774
40774
40746
40772
40774
40772
40774
40778
40783
40755
40757
40779
40783
40732
40774
40782
40790
40788
40734
40778
40780
40729
40780
40766
40780
40796
40783
40770
40782
40783
40775
40772
40783
40788
40752
40774
40770
40772
40775
40764
40775
40773
40756
40782
40782
40759
40780
40796
40788
40807
40831
40821
40839
40807
40830
40844
40835
40838
40766
40832
40828
40839
40839
40839
40820
40807
40824
40830
40782
40815
40836
40758
40822
40820
40774
40815
40828
40783
40830
40838
40832
40821
40798
40821
40829
40825
40822
40825
40789
40817
40834
40772
40830
40833
40780
40831
40817
40826
40839
40830
40830
40832
40834
40812
40829
40828
40772
40830
40839
40780
40826
40838
40783
40826
40829
40839
40838
40846
40786
40830
40833
40829
40839
40839
40790
40830
40839
40788
40839
40836
40796
40831
40831
40809
40839
40852
40781
40836
40814
40836
40851
40775
40831
40838
40836
40826
40836
40836
40839
40802
40836
40855
40839
40830
40820
40847
40849
40796
40843
40860
40855
40852
40848
40842
40855
40832
40847
40839
40847
40839
40839
40855
40836
40847
40855
40807
40851
40846
40814
40855
40839
40863
40849
40855
40806
40861
40855
40856
40847
40860
40863
40855
40839
40866
40870
40867
40868
40860
40866
40862
40858
40863
40815
40852
40861
40867
40849
40823
40860
40848
40861
40871
40861
40871
40860
40855
40858
40863
40862
40868
40863
40848
40850
40859
40870
40865
40863
40860
40868
40862
40871
40854
40845
40868
40868
40871
40862
40876
40862
40871
40839
40871
40868
40806
40867
40870
40836
40871
40875
40828
40862
40884
40887
40887
40886
40881
40895
40892
40898
40887
40895
40890
40892
40874
40884
40887
40844
40884
40887
40887
40888
40889
40893
40895
40899
40884
40898
40893
40893
40895
40906
40900
40877
40901
40903
40887
40903
40885
40906
40898
40903
40911
40893
40896
40839
40900
40902
40846
40901
40910
40871
40894
40898
40853
40898
40909
40874
40898
40903
40901
40904
40898
40908
40915
40897
40879
40900
40913
40871
40902
40904
40897
40910
40911
40848
40900
40903
40906
40901
40910
40913
40904
40860
40892
40892
40919
40924
40860
40922
40925
40922
40908
40890
40906
40924
40874
40911
40911
40847
40914
40929
40855
40908
40924
40864
40918
40919
40918
40916
40927
40926
40924
40927
40857
40916
40910
40925
40862
40927
40908
40929
40923
40923
40926
40926
40904
40927
40918
40924
40928
40894
40924
40912
40922
40864
40920
40926
40924
40924
40918
40922
40926
40879
40924
40926
40927
40927
40927
40927
40935
40862
40922
40924
40920
40919
40915
40927
40917
40871
40917
40927
40924
40932
40879
40919
40918
40924
40912
40919
40924
40935
40921
40920
40862
40919
40926
40926
40929
40919
40933
40924
40926
40935
40936
40943
40935
40941
40945
40940
40940
40940
40926
40935
40934
40927
40938
40935
40928
40935
40912
40941
40935
40940
40909
40951
40934
40935
40948
40943
40948
40943
40942
40919
40948
40916
40935
40887
40935
40943
40916
40952
40936
40916
40951
40958
40954
40951
40966
40951
40959
40960
40946
40950
40949
40944
40949
40943
40943
40935
40945
40954
40894
40949
40955
40942
40951
40900
40951
40951
40963
40951
40957
40951
40949
40940
40959
40948
40949
40957
40957
40925
40942
40950
40954
40956
40948
40951
40958
40967
40911
40963
40966
40935
40966
40966
40967
40948
40967
40950
40953
40967
40967
40967
40961
40981
40934
40982
40967
40975
40975
40967
40967
40967
40983
40967
40967
40932
40978
40983
40967
40978
40983
40983
40967
40989
40988
40967
40981
40967
40984
40980
40977
40967
40943
40978
40980
40987
40933
40967
40967
40982
40986
40980
40976
40995
40980
40983
40991
40987
40977
40977
40991
40933
40974
40981
40982
40988
40996
40977
40980
40938
40988
40941
40992
41001
40947
40991
40996
40996
40987
41003
40988
40998
40996
40999
40992
41003
40956
40989
40990
40993
40999
40999
40999
40989
40993
41007
40982
40997
40990
40998
40964
40991
40998
40950
40996
41007
40951
40996
40990
40999
41007
40998
41005
40997
40999
41009
40998
40999
40996
41015
40954
41006
40999
40999
41004
41010
40997
41005
41001
40999
41005
41004
40999
40943
40992
40996
40941
40990
41005
40997
40999
40999
40996
40997
41007
41002
40951
41005
41006
41002
41006
40989
40991
40991
40959
40999
40999
40989
40991
40991
40991
40993
40994
40984
40990
40999
40967
41001
41017
41031
41029
41036
41036
41047
41039
41041
40994
41055
41062
41058
41050
41039
41060
41052
41047
41051
41047
41054
41032
41044
41037
41055
41049
41044
41052
40991
41036
41034
41028
41040
41036
41040
41004
41037
41035
41032
40967
41038
41029
41037
41031
41029
41039
40986
41033
41029
41053
41044
41035
41030
41030
41039
41039
41033
41025
41039
41039
41012
41035
41028
41036
41016
41039
41031
41039
41039
41028
41034
41031
41023
41028
41028
41031
41019
41033
41030
41030
41028
40992
41024
40967
41031
41046
40967
41031
41039
40998
41036
41012
41015
41031
41030
40981
41027
41039
41007
41038
41036
41020
41035
41023
41038
41034
41028
41029
41041
41037
41044
41040
41043
41026
41036
41033
41039
41028
41036
41032
41046
41039
41045
41039
41036
41044
41043
41041
41042
41002
41038
41045
41041
41025
41039
41028
41031
41042
41035
41039
41044
41042
41047
41039
41039
41049
41047
41045
41047
41039
41055
41046
41047
40991
41037
41044
40988
41029
41037
41042
41040
40999
41030
41055
41052
41039
41046
41047
41053
41004
41041
41060
41048
41052
40994
41052
41039
41046
41043
40991
41047
41055
41031
41051
41053
41031
41057
41054
40999
41063
41058
41021
41066
41045
41045
41057
41063
41057
41052
41061
41061
41070
41063
41006
41063
41023
41071
41079
41071
41048
41066
41071
41075
41069
41048
41063
41079
41068
41065
41063
41061
41060
41055
41075
41063
41069
41071
41075
41070
41078
41061
41063
41071
41006
41063
41060
41063
41061
41061
41071
41066
41060
41073
41076
41079
41077
41079
41076
41084
41084
41079
41079
41070
41071
41076
41074
41064
41023
41073
41076
41079
41074
41079
41076
41079
41086
41071
41038
41078
41083
41093
41095
41084
41086
41090
41092
41095
41037
41081
41092
41094
41083
41076
41084
41095
41031
41085
41087
41084
41086
41076
41084
41082
41039
41083
41093
41047
41079
41074
41084
41087
41044
41086
41095
41085
41079
41079
41058
41079
41084
41046
41076
41078
41066
41076
41071
41063
41053
41071
41076
41069
41063
41084
41087
41076
41082
41022
41074
41087
41070
41084
41047
41068
41057
41077
41076
41071
41063
41061
41069
41079
41077
41072
41089
41057
41072
41092
41076
41079
41055
41082
41087
41020
41079
41087
41085
41085
41081
41087
41076
41071
41084
41092
41052
41086
41084
41095
41095
41078
41093
41085
41087
41092
41093
41092
41084
41086
41082
41023
41070
41087
41036
41076
41076
41086
41084
41085
41084
41092
41084
41063
41086
41085
41033
41081
41087
41087
41091
41090
41076
41086
41031
41084
41090
41045
41078
41079
41068
41078
41079
41068
41071
41064
41079
41063
41071
41066
41058
41071
41067
41079
41071
41077
41047
41079
41077
41084
41087
41087
41088
41033
41079
41087
41086
41079
41091
41079
41071
41079
41084
41071
41077
41095
41063
41089
41095
41078
41095
41087
41095
41086
41091
41087
41094
41093
41054
41084
41092
41092
41086
41087
41093
41047
41094
41095
41095
41095
41095
41108
41046
41091
41095
41087
41092
41092
41100
41095
41087
41087
41084
41084
41028
41085
41083
41039
41088
41095
41055
41087
41084
41071
41086
41087
41071
41076
41077
41092
41079
41085
41087
41095
41036
41094
41095
41069
41095
41109
41095
41096
41095
41096
41095
41047
41101
41103
41116
41045
41108
41079
41103
41101
41092
41104
41109
41102
41049
41100
41111
41078
41103
41106
41079
41109
41103
41110
41111
41095
41092
41094
41102
41087
41095
41094
41095
41042
41092
41058
41095
41108
41095
41090
41092
41102
41045
41090
41094
41087
41094
41077
41052
41094
41095
41092
41095
41106
41111
41095
41095
41060
41095
41105
41095
41107
41094
41097
41038
41094
41087
41067
41092
41084
41092
41095
41095
41103
41092
41094
41095
41095
41052
41108
41093
41100
41094
41095
41094
41092
41092
41087
41092
41094
41044
41091
41094
41111
41076
41092
41103
41094
41094
41103
41102
41052
41095
41084
41095
41095
41079
41084
41090
41084
41082
41083
41087
41069
41092
41093
41087
41088
41104
41127
41113
41120
41100
41134
41089
41135
41127
41141
41128
41122
41140
41089
41117
41136
41151
41142
41142
41135
41141
41133
41141
41070
41127
41127
41120
41122
41092
41122
41129
41068
41119
41139
41091
41120
41135
41097
41129
41119
41122
41079
41127
41124
41124
41126
41116
41124
41125
41120
41131
41076
41122
41124
41112
41127
41127
41135
41069
41124
41137
41127
41120
41135
41134
41127
41116
41093
41127
41132
41086
41121
41132
41079
41132
41140
41103
41131
41126
41110
41125
41134
41077
41127
41133
41103
41126
41102
41134
41127
41120
41126
41095
41135
41135
41134
41079
41125
41134
41129
41126
41127
41133
41085
41126
41118
41126
41127
41115
41116
41068
41117
41131
41067
41123
41127
41093
41125
41126
41124
41103
41127
41132
41117
41119
41071
41120
41115
41126
41065
41127
41119
41132
41070
41131
41124
41103
41135
41132
41137
41130
41133
41141
41127
41124
41111
41139
41127
41126
41134
41113
41127
41125
41117
41141
41135
41140
41144
41138
41135
41141
41143
41158
41111
41140
41146
41143
41135
41148
41140
41074
41141
41130
41143
41141
41150
41143
41122
41150
41155
41144
41106
41150
41143
41142
41146
41148
41153
41147
41143
41091
41122
41100
41151
41151
41145
41159
41127
41151
41167
41146
41146
41145
41151
41134
41148
41142
41090
41140
41147
41145
41132
41143
41146
41141
41156
41150
41142
41159
41117
41159
41159
41160
41159
41156
41159
41156
41167
41110
41151
41166
41159
41178
41114
41158
41171
41172
41170
41134
41163
41171
41172
41165
41132
41167
41167
41159
41156
41158
41164
41170
41109
41157
41159
41164
41157
41178
41167
41180
41117
41164
41170
41168
41164
41183
41170
41175
41167
41170
41167
41166
41175
41142
41164
41173
41173
41167
41172
41171
41165
41172
41170
41175
41175
41175
41158
41167
41175
41168
41174
41118
41166
41182
41177
41173
41142
41183
41190
41181
41177
41180
41116
41178
41191
41158
41174
41183
41187
41181
41183
41166
41173
41172
41174
41175
41176
41127
41169
41183
41135
41180
41183
41172
41172
41183
41127
41172
41183
41182
41175
41186
41122
41182
41163
41155
41190
41191
41191
41187
41159
41176
41180
41184
41190
41183
41172
41191
41129
41183
41193
41178
41181
41188
41191
41140
41187
41188
41191
41191
41191
41198
41191
41183
41191
41184
41186
41187
41188
41174
41183
41191
41188
41183
41195
41185
41191
41190
41190
41194
41195
41194
41183
41186
41197
41144
41197
41204
41198
41196
41193
41135
41199
41204
41207
41214
41159
41219
41215
41175
41211
41212
41161
41199
41210
41205
41218
41151
41204
41212
41205
41202
41205
41207
41207
41151
41207
41220
41221
41212
41222
41212
41215
41213
41214
41212
41182
41212
41220
41169
41215
41205
41214
41212
41207
41221
41191
41214
41223
41157
41223
41215
41191
41214
41214
41191
41218
41180
41214
41197
41215
41223
41235
41223
41231
41231
41222
41233
41236
41212
41222
41191
41222
41239
41180
41231
41238
41245
41236
41191
41234
41238
41239
41242
41188
41245
41242
41247
41244
41191
41236
41237
41249
41237
41250
41242
41250
41222
41251
41252
41191
41249
41255
41246
41255
41204
41253
41260
41260
41266
41262
41256
41223
41257
41265
41265
41258
41254
41251
41263
41223
41250
41260
41263
41268
41207
41256
41255
41252
41252
41263
41259
41251
41255
41263
41259
41260
41232
41254
41269
41261
41271
41271
41214
41268
41278
41268
41277
41275
41276
41263
41265
41215
41268
41252
41264
41263
41258
41271
41233
41267
41263
41262
41269
41263
41257
41270
41275
41277
41268
41279
41272
41286
41269
41284
41278
41265
41285
41223
41295
41274
41288
41286
41287
41300
41220
41286
41282
41287
41290
41287
41271
41279
41280
41286
41286
41279
41287
41270
41266
41277
41286
41255
41287
41284
41274
41283
41284
41283
41283
41286
41278
41301
41293
41308
41307
41311
41316
41281
41346
41335
41342
41351
41351
41347
41356
41357
41282
41351
41359
41351
41359
41358
41359
41354
41348
41340
41351
41342
41342
41319
41343
41350
41278
41335
41343
41343
41343
41342
41340
41351
41345
41324
41327
41346
41344
41285
41343
41332
41337
41338
41337
41351
41306
41340
41343
41344
41351
41351
41351
41359
41324
41351
41351
41353
41348
41359
41355
41361
41317
41357
41364
41330
41359
41359
41364
41367
41327
41359
41359
41367
41319
41372
41361
41375
41319
41365
41362
41367
41362
41354
41371
41357
41361
41372
41343
41375
41366
41364
41314
41364
41372
41367
41367
41378
41340
41375
41371
41364
41373
41367
41376
41380
41366
41383
41375
41391
41375
41377
41335
41380
41382
41380
41389
41388
41388
41373
41374
41391
41373
41372
41392
41388
41391
41351
41394
41386
41404
41399
41407
41406
41397
41399
41397
41396
41376
41396
41404
41391
41403
41404
41345
41405
41404
41402
41405
41411
41409
41411
41412
41405
41415
41406
41405
41420
41412
41415
41414
41415
41359
41423
41412
41413
41383
41412
41420
41364
41414
41419
41399
41414
41418
41426
41413
41416
41429
41431
41375
41423
41437
41391
41428
41433
41382
41430
41438
41439
41427
41419
41441
41444
41390
41432
41447
41446
41428
41437
41437
41447
41388
41441
41453
41431
41439
41450
41460
41451
41452
41460
41391
41446
41469
41444
41444
41463
41466
41472
41408
41465
41478
41478
41468
41461
41479
41479
41427
41479
41479
41479
41479
41479
41479
41479
41479
41479
41479
41479
41478
41455
41479
41479
41492
41476
41461
41500
41501
41503
41492
41474
41493
41503
41492
41511
41491
41502
41502
41479
41503
41507
41484
41497
41500
41511
41492
41505
41495
41508
41510
41508
41508
41511
41446
41493
41516
41446
41507
41508
41505
41500
41503
41503
41496
41508
41451
41511
41511
41517
41511
41516
41516
41458
41517
41524
41471
41519
41520
41463
41517
41524
41479
41519
41524
41524
41479
41535
41532
41533
41535
41540
41533
41511
41540
41519
41537
41463
41538
41545
41511
41542
41524
41543
41530
41535
41540
41545
41538
41547
41528
41541
41538
41539
41547
41543
41546
41537
41532
41521
41542
41548
41544
41543
41540
41511
41543
41517
41518
41548
41540
41505
41549
41556
41551
41549
41559
41510
41538
41548
41543
41541
41494
41549
41551
41546
41564
41511
41556
41551
41523
41556
41560
41516
41564
41571
41566
41567
41556
41567
41573
41540
41575
41558
41548
41572
41583
41524
41575
41582
41530
41583
41591
41526
41581
41597
41531
41583
41579
41550
41591
41583
41580
41591
41585
41607
41602
41591
41590
41599
41599
41607
41597
41591
41587
41595
41596
41586
41599
41596
41591
41599
41607
41551
41602
41606
41607
41607
41615
41604
41614
41603
41620
41617
41572
41615
41620
41568
41620
41627
41612
41616
41612
41607
41607
41551
41615
41612
41558
41621
41626
41581
41620
41619
41588
41631
41638
41589
41630
41639
41628
41633
41635
41636
41622
41622
41645
41645
41581
41644
41655
41643
41654
41640
41654
41652
41650
41658
41596
41655
41655
41659
41602
41651
41661
41643
41660
41665
41607
41666
41670
41644
41669
41663
41672
41662
41660
41660
41664
41668
41676
41599
41670
41655
41663
41671
41663
41668
41674
41679
41690
41659
41671
41681
41628
41674
41678
41663
41670
41668
41671
41663
41622
41669
41671
41681
41669
41655
41674
41684
41678
41671
41623
41676
41686
41676
41678
41684
41691
41676
41644
41681
41690
41689
41674
41690
41687
41685
41663
41689
41690
41694
41695
41708
41663
41699
41708
41707
41707
41703
41703
41707
41687
41694
41700
41658
41707
41646
41703
41710
41672
41701
41719
41660
41703
41700
41670
41708
41703
41687
41704
41712
41678
41716
41719
41733
41742
41740
41752
41756
41763
41757
41769
41762
41755
41771
41770
41765
41768
41762
41767
41766
41717
41765
41775
41767
41764
41749
41758
41773
41749
41775
41775
41767
41771
41710
41767
41768
41764
41772
41766
41758
41735
41764
41768
41711
41766
41764
41765
41770
41704
41759
41767
41761
41767
41771
41759
41767
41764
41753
41752
41766
41770
41703
41757
41767
41767
41766
41708
41766
41775
41775
41776
41724
41783
41767
41768
41764
41766
41764
41780
41766
41766
41778
41785
41783
41781
41719
41789
41785
41776
41781
41774
41728
41775
41783
41787
41793
41741
41780
41786
41791
41791
41791
41772
41789
41786
41799
41735
41796
41799
41796
41803
41799
41790
41799
41799
41799
41799
41751
41791
41794
41793
41735
41802
41811
41798
41799
41805
41807
41807
41804
41803
41802
41809
41802
41794
41781
41805
41799
41799
41796
41798
41767
41802
41812
41799
41796
41790
41804
41799
41804
41799
41804
41799
41803
41783
41793
41807
41796
41802
41774
41800
41800
41811
41754
41812
41823
41809
41822
41808
41818
41820
41820
41827
41815
41819
41756
41812
41828
41817
41820
41831
41831
41823
41836
41828
41831
41823
41828
41838
41838
41838
41838
41844
41835
41838
41820
41845
41831
41837
41831
41844
41830
41840
41841
41844
41839
41799
41807
41846
41839
41852
41830
41824
41846
41849
41820
41847
41850
41851
41828
41839
41839
41847
41799
41844
41845
41855
41849
41838
41847
41862
41810
41846
41854
41806
41844
41860
41804
41836
41854
41799
41852
41852
41795
41853
41852
41850
41854
41849
41850
41863
41853
41852
41863
41849
41863
41822
41856
41854
41852
41852
41863
41842
41863
41862
41806
41863
41863
41805
41870
41875
41820
41871
41871
41845
41883
41862
41866
41868
41870
41858
41854
41876
41874
41886
41873
41873
41879
41871
41885
41874
41855
41863
41860
41876
41846
41877
41863
41876
41860
41875
41863
41863
41863
41875
41862
41868
41812
41868
41864
41863
41868
41863
41840
41876
41842
41860
41863
41802
41868
41868
41865
41863
41830
41871
41871
41857
41808
41868
41863
41871
41839
41866
41863
41858
41820
41863
41858
41862
41855
41831
41858
41870
41860
41829
41861
41862
41870
41869
41860
41876
41876
41881
41880
41823
41871
41877
41868
41882
41832
41873
41879
41881
41879
41820
41875
41874
41870
41876
41830
41874
41884
41876
41857
41856
41876
41874
41807
41870
41871
41813
41871
41871
41879
41871
41868
41879
41877
41895
41886
41882
41839
41876
41891
41878
41875
41849
41886
41881
41822
41876
41879
41887
41876
41883
41886
41882
41885
41808
41878
41884
41876
41875
41879
41870
41870
41869
41863
41863
41871
41863
41838
41857
41860
41872
41854
41868
41863
41890
41882
41887
41891
41890
41880
41886
41881
41868
41820
41866
41879
41881
41879
41823
41882
41884
41830
41892
41895
41830
41886
41895
41886
41895
41890
41888
41895
41894
41892
41884
41888
41893
41877
41902
41852
41890
41893
41900
41895
41890
41908
41884
41898
41894
41893
41886
41881
41894
41892
41895
41879
41892
41900
41889
41889
41884
41893
41825
41879
41895
41884
41887
41894
41888
41886
41892
41814
41868
41885
41804
41874
41884
41879
41876
41887
41871
41879
41876
41859
41878
41826
41888
41879
41819
41895
41884
41818
41891
41882
41884
41882
41876
41895
41884
41885
41887
41895
41911
41900
41877
41900
41900
41895
41908
41839
41895
41903
41855
41899
41897
41886
41903
41895
41830
41895
41895
41839
41892
41900
41892
41890
41872
41907
41828
41895
41892
41831
41887
41900
41830
41885
41901
41886
41887
41895
41837
41889
41888
41895
41887
41902
41863
41893
41885
41878
41871
41871
41882
41879
41866
41879
41881
41885
41877
41880
41892
41911
41895
41904
41916
41924
41918
41932
41926
41932
41863
41917
41943
41905
41921
41918
41920
41885
41922
41924
41876
41914
41939
41884
41925
41927
41863
41917
41927
41879
41927
41918
41934
41916
41916
41917
41854
41925
41917
41913
41916
41924
41925
41918
41927
41875
41919
41914
41921
41871
41905
41916
41889
41910
41915
41911
41850
41914
41910
41919
41910
41913
41913
41874
41910
41924
41918
41919
41902
41910
41914
41914
41924
41887
41906
41903
41916
41892
41910
41905
41916
41848
41900
41903
41913
41878
41902
41910
41889
41895
41890
41894
41900
41892
41844
41898
41894
41900
41848
41900
41898
41903
41899
41844
41903
41905
41839
41894
41903
41844
41895
41900
41838
41894
41881
41903
41895
41900
41902
41902
41902
41897
41908
41883
41909
41916
41855
41911
41911
41909
41905
41912
41911
41911
41903
41908
41913
41847
41917
41901
41903
41872
41916
41911
41914
41863
41911
41920
41884
41900
41901
41903
41892
41904
41902
41895
41903
41908
41903
41878
41901
41927
41879
41908
41922
41895
41911
41917
41917
41900
41903
41895
41903
41903
41900
41900
41875
41901
41909
41847
41908
41906
41884
41911
41919
41859
41903
41908
41903
41903
41874
41901
41903
41870
41890
41895
41893
41878
41841
41888
41894
41903
41894
41903
41846
41903
41910
41861
41901
41910
41908
41903
41900
41898
41911
41845
41901
41903
41903
41909
41914
41911
41906
41908
41906
41910
41918
41918
41911
41920
41888
41919
41893
41910
41919
41913
41902
41919
41915
41896
41909
41911
41919
41919
41910
41898
41914
41914
41905
41927
41903
41899
41911
41919
41919
41854
41904
41905
41919
41918
41919
41905
41903
41917
41911
41923
41916
41909
41927
41917
41906
41916
41841
41908
41910
41828
41903
41878
41901
41911
41900
41899
41907
41903
41845
41898
41901
41850
41898
41897
41860
41895
41903
41909
41891
41903
41908
41903
41841
41902
41911
41908
41909
41852
41900
41911
41911
41903
41911
41899
41900
41900
41828
41898
41902
41899
41890
41899
41895
41887
41877
41903
41908
41910
41902
41878
41906
41903
41900
41904
41857
41907
41898
41900
41898
41839
41892
41910
41908
41903
41879
41902
41871
41903
41906
41906
41906
41908
41897
41903
41893
41895
41876
41905
41902
41841
41900
41908
41917
41899
41892
41902
41911
41879
41903
41894
41903
41901
41885
41887
41892
41894
41832
41887
41891
41829
41887
41887
41895
41900
41854
41894
41893
41899
41892
41901
41895
41884
41900
41898
41895
41900
41893
41895
41894
41892
41855
41885
41895
41898
41895
41902
41889
41828
41903
41900
41902
41901
41900
41903
41895
41911
41903
41847
41911
41903
41900
41866
41907
41900
41894
41884
41903
41905
41902
41852
41910
41908
41913
41910
41915
41903
41908
41861
41904
41884
41897
41905
41908
41911
41852
41910
41919
41913
41916
41908
41927
41903
41903
41903
41909
41915
41902
41900
41901
41908
41879
41898
41880
41892
41912
41903
41895
41909
41909
41908
41909
41880
41903
41910
41919
41918
41896
41903
41900
41884
41831
41896
41892
41894
41902
41903
41899
41892
41879
41900
41911
41915
41895
41878
41910
41914
41907
41906
41898
41905
41903
41903
41911
41847
41895
41895
41895
41906
41909
41900
41911
41908
41910
41876
41911
41919
41911
41919
41908
41916
41903
41921
41916
41877
41912
41913
41916
41912
41893
41927
41934
41881
41920
41927
41873
41927
41930
41909
41911
41927
41918
41927
41912
41927
41925
41924
41935
41927
41926
41927
41920
41925
41871
41931
41919
41914
41916
41924
41919
41927
41868
41921
41918
41906
41927
41916
41926
41872
41921
41924
41892
41910
41914
41891
41905
41910
41916
41908
41917
41900
41916
41917
41927
41948
41943
41959
41958
41956
41958
41966
41982
41924
41975
41983
41975
41978
41988
41967
41975
41975
41916
41968
41972
41980
41978
41911
41978
41959
41974
41975
41983
41983
41980
41981
41981
41977
41973
41919
41970
41973
41969
41969
41964
41973
41983
41945
41972
41988
41977
41975
41983
41940
41974
41988
41964
41974
41975
41983
41909
41973
41983
41972
41978
41983
41940
41966
41978
41967
41978
41972
41973
41972
41967
41975
41977
41972
41973
41967
41983
41953
41980
41959
41915
41974
41972
41969
41927
41980
41978
41978
41981
41983
41981
41990
41985
41977
41978
41978
41983
41943
41986
41981
41984
41991
41991
41991
42011
41991
41991
42015
41991
42004
41991
42002
41936
42002
41983
42006
41937
41990
41991
42012
42007
42014
42006
42005
41984
42009
42004
42021
42014
42015
42012
41952
42017
42015
41986
42007
41991
42010
42009
42010
42018
42007
42023
41964
42023
42023
41967
42026
42024
42005
42021
42021
42023
41991
42023
42035
42023
42031
42028
42039
41980
42025
42039
41980
42039
42044
42047
42042
42044
42049
42039
42032
42047
42044
42039
42045
42044
42021
42020
42055
42053
41991
42046
42062
42056
42054
41988
42058
42052
42010
42060
42054
42055
42050
42053
42052
42071
42023
42065
42061
42068
42066
42081
42073
42077
42085
42082
42083
42087
42072
42087
42079
42079
42084
42080
42071
42084
42066
42079
42087
42082
42092
42103
42070
42095
42100
42036
42095
42098
42057
42095
42101
42096
42095
42101
42103
42103
42111
42068
42109
42110
42045
42101
42109
42083
42118
42117
42077
42115
42119
42119
42119
42118
42111
42119
42052
42118
42127
42127
42077
42118
42127
42133
42097
42143
42146
42159
42089
42150
42137
42138
42151
42143
42148
42119
42143
42138
42142
42152
42151
42151
42090
42156
42158
42143
42162
42156
42167
42102
42161
42160
42169
42164
42172
42173
42111
42161
42167
42172
42131
42173
42174
42182
42169
42182
42183
42183
42174
42143
42181
42188
42175
42199
42119
42181
42194
42158
42177
42179
42188
42199
42198
42203
42135
42193
42202
42184
42196
42194
42207
42199
42206
42208
42163
42202
42206
42194
42212
42212
42212
42170
42220
42214
42231
42159
42227
42231
42196
42228
42234
42220
42237
42231
42234
42220
42239
42230
42180
42238
42239
42237
42234
42241
42184
42238
42260
42180
42257
42256
42209
42262
42275
42190
42260
42260
42215
42264
42277
42236
42268
42271
42285
42290
42284
42284
42239
42289
42286
42290
42219
42284
42291
42255
42281
42284
42286
42231
42287
42303
42275
42298
42276
42303
42244
42314
42302
42310
42316
42308
42311
42259
42303
42308
42323
42247
42300
42300
42318
42247
42316
42322
42265
42317
42315
42319
42254
42318
42332
42323
42286
42326
42326
42339
42333
42327
42343
42340
42332
42343
42292
42348
42351
42359
42300
42364
42346
42375
42375
42371
42367
42374
42373
42383
42318
42370
42367
42375
42374
42387
42367
42383
42385
42388
42387
42339
42388
42398
42359
42399
42387
42394
42406
42406
42403
42330
42403
42407
42409
42407
42412
42415
42415
42423
42359
42415
42403
42422
42394
42428
42421
42422
42359
42423
42427
42438
42359
42431
42433
42421
42439
42424
42439
42431
42438
42436
42447
42368
42444
42438
42447
42447
42439
42447
42420
42458
42447
42448
42444
42442
42456
42454
42448
42465
42453
42466
42463
42470
42427
42458
42457
42470
42448
42456
42474
42407
42467
42474
42423
42477
42490
42460
42487
42491
42455
42489
42481
42473
42501
42498
42429
42503
42503
42455
42502
42501
42503
42519
42503
42503
42458
42503
42516
42494
42512
42518
42510
42519
42503
42510
42492
42519
42524
42526
42527
42519
42532
42532
42533
42543
42559
42560
42567
42583
42583
42593
42603
42589
42598
42604
42597
42612
42538
42599
42615
42590
42602
42596
42596
42599
42604
42551
42602
42607
42603
42613
42559
42597
42604
42566
42606
42614
42615
42590
42599
42606
42615
42551
42606
42612
42615
42618
42612
42613
42631
42626
42630
42564
42630
42634
42631
42631
42566
42631
42632
42631
42618
42639
42631
42653
42654
42612
42639
42652
42658
42597
42656
42649
42660
42647
42663
42656
42660
42656
42671
42658
42663
42639
42662
42668
42668
42658
42671
42668
42652
42671
42682
42683
42680
42690
42686
42690
42639
42684
42682
42652
42689
42686
42695
42694
42687
42700
42639
42692
42701
42664
42703
42708
42671
42714
42710
42707
42705
42707
42711
42654
42706
42710
42711
42700
42708
42708
42692
42687
42710
42724
42644
42716
42729
42726
42723
42725
42735
42708
42725
42730
42732
42738
42726
42735
42735
42738
42743
42742
42746
42753
42754
42758
42754
42759
42775
42759
42767
42759
42767
42755
42745
42759
42702
42764
42775
42768
42770
42769
42777
42750
42780
42782
42781
42783
42783
42785
42781
42783
42788
42783
42748
42787
42789
42798
42807
42786
42802
42731
42804
42805
42814
42780
42814
42804
42820
42815
42813
42819
42815
42808
42812
42823
42814
42822
42831
42780
42827
42836
42831
42836
42830
42828
42824
42837
42820
42829
42844
42834
42836
42844
42816
42840
42836
42844
42823
42851
42853
42820
42843
42849
42837
42863
42871
42838
42860
42863
42877
42804
42860
42865
42866
42804
42868
42871
42841
42879
42871
42887
42833
42884
42882
42893
42879
42884
42887
42894
42866
42887
42892
42897
42867
42900
42897
42901
42903
42898
42900
42910
42911
42901
42916
42842
42911
42908
42916
42916
42908
42916
42870
42915
42910
42919
42909
42922
42916
42933
42922
42924
42935
42934
42871
42922
42934
42878
42927
42942
42943
42866
42924
42939
42874
42935
42937
42887
42924
42902
42943
42926
42884
42935
42959
42887
42940
42943
42954
42887
42959
42942
42944
42961
42948
42948
42948
42955
42954
42956
42959
42962
42961
42965
42965
42895
42964
42953
42972
42965
42902
42961
42948
42951
42972
42953
42974
42967
42978
42976
42980
42978
42991
42987
42996
42927
42995
42995
42993
42994
42974
42991
42990
42983
42989
42988
42991
42997
42999
42938
42994
43004
42996
43002
43007
43007
43006
42932
42997
43006
42983
43009
42990
43015
42950
42996
43012
42952
43006
43007
43015
42977
43015
43015
43015
43015
43015
43007
43015
42956
43015
43015
43015
42973
43010
43015
43015
42998
43024
43015
43031
43033
43014
43033
43036
43036
42982
43039
43044
43046
42985
43042
43047
43052
43052
43043
43038
43051
43059
42990
43055
43042
43046
42999
43053
43055
43062
43063
43063
43060
43063
43074
43068
43046
43044
43063
43052
43066
43078
43047
43078
43070
43076
43087
43044
43078
43077
43072
43084
43015
43072
43073
43075
43079
43084
43078
43059
43015
43078
43087
43015
43068
43079
43087
43074
43080
43086
43092
43080
43079
43100
43050
43090
43095
43093
43088
43089
43087
43098
43092
43095
43094
43096
43103
43095
43106
43106
43031
43111
43106
43103
43108
43049
43100
43098
43108
43103
43055
43110
43110
43112
43041
43115
43119
43104
43118
43082
43109
43113
43108
43118
43114
43108
43108
43111
43125
43063
43106
43076
43122
43122
43116
43121
43121
43124
43071
43135
43134
43127
43135
43127
43125
43119
43130
43089
43134
43127
43111
43132
43117
43130
43061
43131
43128
43141
43140
43117
43119
43139
43127
43135
43137
43123
43084
43132
43124
43134
43052
43134
43135
43111
43138
43135
43127
43143
43142
43143
43134
43141
43135
43079
43125
43111
43131
43114
43124
43124
43111
43087
43127
43129
43125
43142
43138
43149
43160
43169
43148
43179
43182
43190
43205
43198
43207
43199
43207
43212
43134
43213
43207
43216
43139
43214
43204
43218
43175
43212
43207
43204
43204
43156
43207
43192
43173
43208
43140
43207
43199
43206
43164
43211
43207
43214
43199
43209
43223
43210
43199
43214
43143
43215
43202
43207
43170
43199
43207
43190
43200
43192
43206
43203
43199
43206
43204
43204
43202
43212
43206
43210
43209
43206
43213
43219
43217
43206
43206
43214
43210
43223
43214
43219
43151
43214
43218
43157
43207
43230
43163
43215
43220
43148
43210
43215
43212
43210
43137
43207
43209
43143
43208
43218
43192
43221
43221
43156
43220
43226
43156
43223
43204
43228
43222
43223
43229
43221
43214
43183
43224
43228
43172
43239
43230
43183
43230
43243
43175
43239
43239
43236
43236
43238
43240
43198
43244
43228
43231
43237
43239
43251
43174
43239
43237
43195
43236
43237
43215
43247
43237
43242
43212
43244
43252
43247
43204
43237
43247
43241
43247
43255
43255
43248
43259
43186
43260
43242
43255
43263
43243
43258
43249
43261
43263
43252
43258
43252
43188
43254
43255
43268
43201
43260
43229
43254
43198
43262
43260
43252
43255
43261
43196
43259
43260
43255
43263
43271
43262
43270
43271
43205
43271
43270
43271
43215
43271
43262
43271
43271
43271
43268
43271
43266
43271
43204
43271
43255
43271
43279
43271
43286
43251
43285
43303
43303
43250
43295
43282
43308
43231
43286
43287
43303
43239
43293
43303
43291
43289
43291
43296
43303
43306
43254
43303
43300
43303
43302
43304
43309
43302
43301
43239
43296
43287
43303
43307
43302
43319
43305
43306
43311
43311
43311
43311
43307
43313
43244
43308
43289
43305
43258
43312
43306
43308
43268
43309
43306
43312
43311
43308
43316
43239
43313
43320
43324
43268
43324
43327
43335
43329
43317
43307
43327
43332
43255
43332
43324
43316
43294
43291
43326
43326
43324
43330
43266
43323
43332
43337
43320
43350
43271
43330
43335
43285
43324
43327
43325
43331
43330
43335
43302
43335
43335
43350
43289
43334
43337
43342
43271
43342
43348
43271
43336
43340
43306
43337
43336
43340
43336
43341
43297
43343
43335
43335
43343
43348
43342
43271
43335
43335
43332
43341
43339
43335
43343
43335
43338
43311
43342
43342
43348
43303
43340
43334
43351
43279
43351
43351
43364
43304
43370
43354
43338
43356
43366
43356
43364
43343
43349
43351
43359
43370
43356
43359
43365
43362
43351
43366
43372
43371
43318
43364
43383
43382
43310
43364
43364
43337
43372
43375
43368
43311
43381
43373
43383
43357
43378
43383
43391
43311
43380
43382
43395
43391
43382
43391
43323
43395
43391
43334
43389
43399
43399
43332
43404
43399
43392
43412
43399
43406
43372
43396
43398
43396
43404
43406
43367
43398
43399
43338
43399
43411
43393
43393
43392
43400
43404
43390
43407
43409
43406
43414
43412
43410
43414
43393
43413
43408
43423
43348
43412
43420
43366
43420
43421
43388
43428
43424
43375
43427
43439
43374
43431
43441
43398
43436
43436
43375
43428
43447
43451
43446
43455
43444
43442
43451
43451
43440
43416
43454
43445
43452
43446
43454
43455
43458
43448
43391
43455
43426
43458
43414
43458
43464
43467
43463
43461
43470
43471
43470
43470
43461
43404
43462
43460
43450
43474
43456
43466
43455
43468
43462
43407
43476
43472
43476
43476
43479
43470
43466
43407
43479
43468
43399
43469
43467
43477
43475
43471
43435
43477
43471
43484
43431
43481
43458
43455
43492
43495
43463
43487
43507
43457
43482
43503
43471
43515
43500
43488
43503
43495
43463
43507
43484
43495
43516
43518
43507
43519
43527
43520
43527
43462
43523
43519
43524
43526
43460
43522
43520
43517
43519
43479
43527
43524
43527
43527
43532
43550
43554
43519
43556
43556
43564
43583
43585
43589
43526
43599
43600
43596
43575
43614
43588
43600
43586
43583
43591
43596
43518
43588
43574
43590
43590
43516
43584
43592
43576
43595
43564
43596
43613
43604
43605
43553
43615
43612
43612
43622
43623
43621
43582
43614
43628
43560
43614
43622
43578
43631
43623
43624
43628
43635
43586
43630
43642
43638
43625
43622
43640
43647
43636
43629
43635
43641
43630
43580
43639
43636
43642
43655
43577
43636
43653
43589
43646
43654
43614
43652
43647
43592
43654
43668
43648
43658
43647
43655
43655
43678
43669
43668
43669
43604
43662
43671
43668
43673
43655
43671
43602
43647
43655
43656
43662
43662
43671
43665
43679
43662
43646
43686
43690
43623
43687
43697
43647
43695
43703
43695
43694
43704
43710
43710
43711
43710
43706
43652
43707
43716
43654
43716
43725
43726
43723
43684
43727
43733
43656
43733
43735
43741
43728
43732
43740
43743
43751
43674
43746
43746
43744
43754
43759
43754
43763
43763
43770
43758
43764
43759
43726
43764
43764
43716
43767
43766
43765
43758
43767
43764
43772
43780
43775
43780
43716
43782
43783
43784
43743
43791
43791
43796
43727
43791
43783
43779
43783
43788
43775
43758
43782
43780
43786
43796
43798
43781
43805
43804
43747
43817
43824
43820
43816
43841
43828
43829
43823
43825
43825
43802
43831
43840
43834
43845
43846
43846
43842
43844
43812
43856
43858
43852
43852
43821
43855
43876
43877
43859
43866
43866
43815
43879
43884
43874
43874
43884
43875
43885
43884
43894
43823
43892
43892
43886
43830
43888
43887
43822
43827
43897
43903
43877
43895
43911
43842
43911
43916
43892
43914
43919
43901
43919
43914
43935
43916
43920
43901
43924
43930
43930
43862
43927
43934
43879
43935
43934
43892
43927
43879
43932
43886
43900
43940
43940
43928
43929
43897
43919
43940
43916
43949
43948
43871
43957
43958
43942
43959
43951
43965
43930
43965
43956
43962
43958
43958
43953
43968
43951
43970
43966
43974
43981
43909
43958
43983
43976
43973
43975
43973
43983
43975
43977
43971
43975
43975
43978
43930
43970
43983
43921
43980
43976
43974
43989
43991
44006
43927
44007
43999
43998
43983
44004
44012
44001
43998
44004
44007
44000
44006
43947
44006
44008
44009
44015
44015
44021
43965
44016
44023
44024
44021
44030
44023
44023
44020
44024
44021
44020
44023
43950
44031
44030
43966
44028
44037
43979
44039
44039
43972
44033
44036
44039
44039
44039
44028
44039
44039
44039
43997
44039
44055
43997
44052
44058
44060
44054
44051
44064
44062
44062
43983
44065
44067
44047
44061
44062
44063
44056
44039
44039
44071
44063
44070
44073
44080
44084
44039
44069
44084
44005
44076
44082
44004
44076
44076
44088
44078
44092
44084
44085
44084
44100
44101
44100
44103
44111
44071
44103
44118
44054
44114
44112
44108
44104
44118
44124
44088
44080
44105
44111
44118
44108
44119
44126
44116
44103
44116
44112
44124
44134
44129
44079
44124
44135
44070
44127
44119
44092
44116
44116
44118
44109
44119
44123
44071
44124
44125
44135
44129
44039
44131
44106
44102
44124
44125
44119
44126
44132
44068
44142
44136
44141
44140
44151
44146
44140
44159
44149
44156
44158
44094
44162
44149
44159
44145
44164
44095
44148
44140
44157
44153
44157
44160
44159
44175
44148
44159
44165
44097
44167
44167
44097
44160
44174
44167
44167
44167
44092
44165
44149
44178
44103
44164
44167
44181
44134
44180
44167
44172
44132
44167
44165
44165
44165
44159
44155
44167
44164
44167
44175
44171
44161
44179
44176
44175
44175
44131
44175
44177
44143
44164
44180
44172
44160
44164
44178
44180
44175
44181
44174
44191
44197
44205
44207
44174
44217
44215
44220
44215
44229
44236
44244
44247
44172
44247
44249
44214
44248
44242
44247
44244
44242
44260
44186
44251
44240
44262
44193
44256
44254
44229
44248
44232
44246
44251
44239
44247
44180
44240
44240
44239
44188
44244
44230
44254
44171
44249
44239
44250
44245
44244
44244
44242
44196
44249
44247
44249
44225
44244
44244
44247
44250
44253
44252
44249
44253
44256
44252
44255
44248
44245
44238
44249
44255
44193
44248
44246
44244
44247
44245
44247
44183
44241
44238
44180
44248
44228
44244
44199
44247
44257
44248
44251
44253
44239
44255
44244
44255
44252
44257
44260
44259
44260
44268
44261
44232
44250
44257
44209
44257
44244
44260
44263
44271
44244
44250
44266
44223
44254
44250
44263
44268
44258
44279
44263
44268
44260
44270
44210
44263
44265
44260
44268
44274
44258
44268
44199
44268
44233
44261
44271
44275
44279
44212
44276
44275
44272
44282
44261
44279
44278
44278
44265
44254
44276
44276
44265
44279
44273
44271
44284
44279
44275
44207
44284
44292
44225
44281
44287
44252
44291
44287
44223
44276
44284
44284
44274
44279
44276
44278
44225
44268
44215
44260
44223
44254
44277
44282
44276
44279
44213
44270
44276
44220
44273
44282
44238
44285
44284
44264
44291
44289
44287
44286
44284
44292
44254
44283
44278
44287
44292
44276
44268
44287
44276
44285
44282
44284
44293
44287
44295
44295
44295
44258
44292
44276
44295
44303
44303
44302
44304
44300
44296
44311
44286
44298
44302
44302
44304
44311
44295
44269
44308
44303
44311
44276
44308
44310
44316
44241
44309
44304
44234
44294
44295
44295
44295
44290
44308
44294
44295
44295
44294
44295
44252
44295
44308
44252
44303
44305
44311
44308
44295
44308
44304
44295
44289
44295
44296
44309
44277
44252
44284
44292
44248
44295
44301
44295
44308
44293
44300
44309
44256
44295
44308
44295
44292
44228
44300
44295
44303
44302
44236
44304
44295
44308
44295
44295
44295
44309
44252
44295
44282
44292
44295
44230
44308
44295
44294
44244
44311
44295
44308
44273
44310
44295
44303
44244
44294
44311
44317
44306
44284
44309
44309
44295
44295
44308
44295
44295
44252
44290
44303
44288
44308
44282
44303
44295
44295
44302
44305
44292
44294
44231
44295
44295
44289
44286
44290
44238
44292
44284
44284
44295
44287
44228
44295
44295
44302
44286
44287
44295
44215
44295
44295
44277
44287
44294
44284
44292
44301
44295
44308
44288
44252
44296
44295
44311
44286
44314
44287
44303
44222
44292
44293
44291
44214
44293
44280
44288
44294
44288
44292
44295
44300
44310
44279
44319
44294
44309
44308
44304
44295
44316
44295
44296
44266
44302
44316
44303
44311
44314
44231
44303
44317
44300
44319
44308
44255
44308
44311
44295
44311
44252
44300
44300
44307
44308
44274
44312
44308
44302
44308
44317
44250
44319
44308
44303
44313
44252
44322
44311
44314
44290
44308
44311
44300
44263
44301
44292
44295
44312
44268
44316
44308
44308
44315
44244
44313
44316
44316
44319
44277
44287
44308
44286
44303
44300
44305
44286
44305
44244
44317
44302
44301
44288
44300
44311
44272
44285
44285
44295
44247
44293
44279
44266
44279
44295
44247
44295
44311
44295
44295
44268
44303
44310
44255
44295
44306
44309
44298
44300
44282
44315
44294
44270
44311
44303
44248
44295
44309
44311
44295
44300
44255
44294
44298
44301
44292
44308
44238
44300
44302
44309
44231
44302
44300
44234
44295
44316
44236
44303
44303
44304
44295
44309
44311
44308
44308
44308
44295
44306
44229
44295
44303
44220
44289
44263
44286
44226
44287
44262
44286
44286
44234
44285
44275
44288
44288
44276
44284
44287
44279
44288
44291
44284
44295
44295
44311
44313
44324
44332
44336
44332
44351
44340
44355
44364
44364
44356
44358
44364
44359
44349
44357
44363
44352
44355
44273
44351
44359
44287
44348
44348
44286
44348
44317
44352
44354
44276
44355
44349
44348
44343
44335
44348
44295
44342
44349
44336
44329
44340
44350
44341
44311
44348
44340
44343
44328
44343
44349
44337
44348
44265
44340
44324
44325
44326
44319
44336
44261
44316
44327
44333
44334
44327
44335
44276
44341
44346
44268
44346
44348
44264
44337
44345
44295
44340
44338
44348
44354
44349
44348
44272
44352
44364
44343
44340
44286
44345
44350
44276
44349
44348
44294
44340
44356
44304
44332
44340
44351
44341
44348
44355
44348
44348
44348
44356
44272
44348
44350
44342
44349
44342
44340
44327
44328
44337
44348
44335
44343
44349
44353
44352
44322
44348
44357
44290
44358
44359
44292
44341
44346
44349
44350
44346
44345
44336
44351
44345
44345
44347
44341
44359
44353
44358
44308
44350
44350
44358
44292
44354
44349
44350
44292
44356
44357
44286
44348
44356
44327
44344
44346
44357
44367
44356
44359
44308
44360
44363
44356
44286
44362
44363
44335
44359
44358
44308
44356
44365
44338
44359
44354
44344
44365
44356
44356
44366
44363
44353
44375
44372
44334
44356
44359
44362
44356
44365
44365
44321
44372
44378
44311
44371
44373
44310
44369
44366
44368
44383
44319
44359
44375
44381
44372
44376
44372
44383
44375
44365
44364
44382
44385
44356
44370
44388
44385
44386
44319
44380
44376
44373
44391
44380
44356
44309
44364
44383
44370
44372
44377
44326
44391
44391
44385
44380
44390
44387
44330
44384
44388
44385
44336
44388
44372
44380
44369
44382
44383
44386
44353
44390
44392
44332
44391
44412
44326
44397
44388
44407
44351
44404
44420
44393
44409
44399
44397
44413
44380
44373
44404
44418
44392
44406
44391
44414
44404
44388
44412
44406
44418
44404
44391
44405
44418
44400
44409
44409
44374
44384
44404
44397
44401
44408
44410
44414
44349
44401
44415
44415
44405
44420
44375
44414
44409
44384
44407
44409
44350
44397
44404
44410
44417
44347
44412
44413
44380
44418
44416
44422
44423
44344
44417
44420
44383
44421
44416
44437
44383
44429
44422
44426
44380
44432
44442
44437
44423
44436
44449
44423
44434
44454
44390
44430
44433
44383
44430
44439
44400
44442
44439
44454
44380
44452
44450
44423
44461
44453
44460
44453
44412
44447
44455
44456
44452
44444
44454
44404
44454
44465
44385
44452
44453
44397
44458
44436
44453
44444
44452
44456
44396
44453
44461
44454
44454
44455
44432
44447
44457
44455
44459
44452
44456
44431
44455
44449
44464
44396
44460
44453
44468
44456
44455
44471
44423
44457
44460
44455
44471
44438
44458
44452
44461
44464
44414
44478
44475
44471
44412
44479
44468
44480
44473
44422
44471
44475
44476
44476
44476
44486
44417
44478
44486
44487
44463
44484
44495
44447
44494
44493
44418
44476
44478
44463
44478
44494
44476
44487
44478
44484
44490
44483
44487
44478
44493
44497
44431
44484
44490
44428
44487
44487
44471
44488
44484
44486
44487
44475
44488
44449
44494
44492
44479
44495
44491
44503
44428
44493
44494
44486
44469
44497
44461
44480
44492
44486
44491
44484
44493
44502
44418
44493
44500
44444
44495
44503
44452
44498
44495
44429
44494
44498
44495
44489
44498
44416
44492
44420
44492
44503
44506
44498
44516
44492
44502
44504
44503
44510
44510
44447
44515
44512
44468
44500
44510
44434
44500
44509
44458
44498
44478
44511
44510
44503
44503
44487
44495
44507
44506
44492
44495
44490
44464
44468
44493
44481
44472
44492
44489
44495
44437
44487
44502
44484
44485
44492
44494
44498
44494
44489
44489
44495
44490
44508
44508
44524
44485
44518
44528
44468
44546
44551
44511
44551
44560
44518
44549
44567
44551
44551
44527
44551
44551
44462
44548
44545
44471
44539
44550
44470
44541
44551
44545
44548
44541
44551
44551
44504
44545
44551
44548
44545
44540
44548
44468
44532
44541
44464
44545
44548
44548
44545
44551
44524
44546
44550
44484
44550
44551
44500
44548
44548
44470
44532
44534
44534
44532
44541
44542
44508
44524
44536
44536
44529
44532
44534
44471
44535
44541
44540
44532
44540
44465
44526
44535
44477
44527
44524
44533
44540
44538
44545
44532
44532
44529
44538
44548
44551
44548
44551
44545
44534
44543
44542
44537
44545
44533
44551
44508
44542
44550
44518
44550
44549
44540
44546
44543
44551
44543
44545
44535
44521
44543
44551
44536
44547
44548
44540
44551
44478
44550
44535
44550
44545
44547
44548
44548
44551
44537
44551
44542
44546
44550
44551
44468
44550
44548
44551
44540
44520
44570
44551
44488
44564
44562
44495
44550
44562
44491
44550
44550
44472
44548
44551
44546
44535
44519
44545
44548
44524
44548
44526
44551
44564
44551
44567
44571
44560
44566
44558
44575
44574
44566
44561
44566
44566
44551
44570
44559
44567
44570
44502
44560
44570
44565
44572
44564
44580
44507
44572
44551
44567
44568
44570
44565
44570
44550
44564
44575
44551
44570
44568
44573
44566
44496
44564
44565
44522
44568
44560
44572
44572
44550
44550
44570
44551
44572
44578
44564
44566
44551
44572
44560
44561
44561
44544
44566
44572
44583
44547
44573
44565
44583
44565
44564
44572
44494
44572
44572
44564
44559
44568
44581
44512
44573
44572
44578
44502
44580
44570
44580
44580
44575
44571
44533
44572
44564
44558
44520
44559
44561
44575
44551
44567
44565
44581
44500
44572
44576
44515
44567
44565
44551
44564
44572
44542
44575
44551
44572
44564
44567
44569
44487
44551
44575
44482
44574
44559
44516
44565
44565
44564
44571
44568
44551
44570
44486
44575
44565
44565
44551
44556
44543
44561
44570
44567
44563
44481
44551
44551
44485
44551
44550
44471
44548
44548
44541
44474
44549
44543
44550
44569
44503
44551
44551
44551
44551
44566
44515
44551
44567
44512
44551
44564
44535
44562
44551
44520
44545
44550
44551
44479
44546
44550
44502
44540
44550
44490
44542
44545
44487
44542
44543
44540
44551
44544
44551
44500
44549
44567
44527
44551
44551
44559
44567
44492
44551
44561
44487
44548
44551
44487
44540
44551
44551
44538
44556
44548
44548
44550
44551
44551
44551
44522
44531
44551
44534
44551
44551
44490
44548
44548
44548
44544
44471
44541
44548
44476
44538
44540
44482
44540
44543
44484
44548
44529
44535
44551
44538
44536
44540
44546
44496
44540
44543
44524
44524
44524
44527
44512
44529
44542
44468
44535
44542
44532
44532
44524
44524
44530
44498
44543
44533
44538
44531
44540
44551
44484
44541
44546
44535
44549
44541
44549
44476
44532
44537
44535
44551
44526
44512
44516
44532
44519
44521
44525
44454
44529
44526
44527
44520
44535
44535
44532
44524
44524
44516
44527
44529
44519
44521
44456
44518
44519
44519
44519
44517
44447
44506
44511
44511
44525
44525
44519
44526
44500
44519
44511
44524
44515
44511
44510
44437
44506
44509
44439
44488
44496
44490
44486
44501
44488
44490
44497
44489
44494
44431
44495
44498
44502
44492
44495
44487
44461
44452
44482
44482
44493
44492
44468
44479
44486
44486
44494
44460
44487
44488
44412
44484
44457
44476
44476
44468
44479
44475
44474
44478
44414
44487
44476
44405
44478
44478
44436
44478
44462
44468
44420
44460
44463
44462
44458
44460
44447
44463
44468
44432
44463
44471
44452
44478
44492
44494
44496
44495
44504
44513
44519
44512
44452
44500
44527
44447
44506
44515
44458
44496
44509
44438
44500
44514
44423
44494
44495
44492
44501
44414
44494
44494
44399
44479
44470
44401
44479
44468
44444
44458
44471
44469
44461
44460
44468
44433
44423
44458
44455
44397
44455
44462
44390
44449
44460
44451
44445
44452
44386
44444
44455
44375
44455
44452
44396
44444
44459
44452
44453
44452
44374
44438
44420
44429
44440
44446
44440
44438
44436
44442
44428
44438
44437
44444
44367
44437
44446
44364
44431
44422
44436
44430
44428
44439
44429
44423
44431
44428
44431
44359
44423
44433
44372
44423
44417
44382
44420
44423
44423
44415
44421
44420
44412
44410
44385
44414
44421
44368
44410
44400
44346
44405
44404
44356
44398
44392
44407
44405
44388
44397
44343
44392
44390
44387
44396
44380
44361
44399
44391
44318
44382
44388
44335
44380
44396
44401
44405
44388
44395
44386
44388
44388
44388
44316
44390
44391
44383
44359
44324
44386
44391
44326
44383
44394
44386
44358
44322
44388
44388
44372
44374
44383
44322
44375
44376
44311
44367
44374
44324
44364
44356
44373
44308
44377
44378
44378
44311
44367
44367
44318
44364
44367
44323
44350
44347
44351
44356
44346
44348
44279
44348
44354
44335
44359
44316
44356
44359
44364
44359
44356
44356
44352
44354
44356
44356
44291
44365
44348
44356
44295
44336
44352
44348
44355
44337
44351
44327
44354
44350
44358
44356
44273
44354
44356
44351
44305
44340
44328
44348
44343
44345
44349
44353
44346
44350
44351
44292
44348
44340
44346
44308
44308
44351
44346
44335
44340
44342
44340
44331
44343
44287
44343
44337
44353
44343
44286
44345
44342
44308
44314
44326
44335
44327
44313
44313
44316
44319
44317
44314
44311
44313
44303
44318
44305
44303
44295
44319
44294
44311
44311
44298
44310
44295
44300
44295
44295
44292
44295
44295
44215
44294
44295
44244
44289
44290
44231
44286
44295
44226
44284
44292
44272
44283
44294
44258
44295
44272
44290
44282
44293
44207
44273
44284
44292
44292
44282
44282
44284
44287
44295
44258
44227
44278
44279
44278
44276
44252
44268
44264
44286
44279
44281
44207
44273
44279
44271
44285
44273
44273
44217
44276
44279
44205
44267
44264
44208
44253
44258
44181
44244
44268
44179
44246
44263
44214
44255
44252
44183
44252
44256
44244
44236
44234
44254
44222
44235
44234
44241
44239
44245
44236
44230
44238
44239
