EDA
55044
54967
55037
55044
54959
55036
55046
55028
55023
55022
55012
54933
54978
54996
54987
54986
54964
54982
54980
54975
54957
54972
54972
54972
54959
54961
54964
54963
54966
54959
54948
54950
54927
54938
54932
54854
54916
54919
54908
54919
54859
54910
54895
54903
54908
54900
54900
54879
54893
54879
54887
54844
54876
54866
54812
54860
54850
54860
54846
54853
54830
54844
54837
54847
54833
54782
54839
54829
54824
54751
54822
54807
54820
54726
54791
54791
54788
54780
54719
54780
54768
54768
54737
54772
54780
54775
54774
54764
54756
54764
54746
54740
54714
54744
54734
54719
54726
54714
54717
54726
54708
54709
54719
54717
54663
54710
54711
54718
54696
54703
54692
54695
54685
54677
54647
54671
54663
54599
54652
54663
54660
54652
54662
54631
54644
54648
54663
54639
54653
54570
54639
54630
54631
54622
54592
54609
54607
54591
54559
54580
54595
54597
54599
54598
54584
54595
54588
54535
54580
54575
54568
54568
54501
54556
54551
54535
54535
54455
54535
54516
54521
54527
54463
54532
54527
54524
54527
54526
54519
54437
54511
54488
54484
54500
54471
54470
54469
54469
54471
54468
54431
54471
54460
54469
54460
54426
54460
54463
54463
54448
54364
54432
54434
54433
54431
54420
54423
54407
54396
54381
54407
54406
54417
54399
54406
54401
54396
54358
54402
54399
54396
54380
54369
54375
54305
54359
54360
54348
54343
54340
54335
54324
54333
54326
54316
54310
54316
54310
54313
54312
54306
54308
54310
54292
54288
54303
54302
54304
54308
54245
54300
54311
54308
54308
54305
54300
54300
54263
54293
54292
54279
54279
54271
54215
54252
54263
54244
54252
54241
54181
54231
54244
54239
54239
54238
54164
54231
54244
54228
54231
54216
54209
54151
54188
54198
54196
54189
54188
54113
54183
54184
54181
54180
54176
54138
54183
54140
54173
54175
54094
54160
54152
54146
54140
54059
54151
54136
54124
54124
54124
54101
54119
54046
54116
54119
54119
54051
54116
54116
54116
54103
54097
54106
54086
54074
54083
54002
54072
54077
54076
54031
54071
54064
54079
54015
54068
54062
54062
54011
54060
54057
54055
54041
53988
54031
54032
54022
53981
54020
54012
54023
54020
53956
54004
54023
54023
54018
54020
53940
54004
54006
53991
53990
53960
53991
53976
53973
53974
53975
53967
53918
53962
53960
53924
53951
53966
53964
53967
53967
53918
53948
53951
53944
53917
53937
53924
53934
53924
53920
53919
53921
53863
53918
53924
53835
53908
53919
53904
53908
53910
53908
53871
53894
53892
53886
53879
53877
53886
53800
53868
53873
53866
53836
53876
53873
53876
53856
53871
53876
53863
53802
53850
53848
53846
53767
53804
53828
53831
53830
53830
53831
53796
53828
53820
53828
53829
53759
53831
53818
53823
53812
53804
53807
53767
53716
53782
53791
53790
53767
53767
53791
53695
53780
53783
53767
53780
53758
53764
53767
53767
53767
53687
53750
53741
53743
53732
53671
53738
53732
53726
53721
53692
53721
53735
53734
53698
53713
53720
53731
53723
53727
53665
53710
53703
53702
53700
53628
53669
53693
53695
53678
53679
53684
53689
53685
53689
53668
53679
53687
53678
53674
53606
53679
53656
53659
53597
53652
53646
53639
53591
53654
53636
53639
53630
53644
53652
53647
53612
53653
53639
53636
53639
53631
53615
53624
53583
53620
53615
53607
53586
53615
53607
53607
53614
53602
53605
53570
53605
53607
53572
53598
53596
53599
53572
53591
53580
53588
53559
53564
53575
53502
53578
53566
53501
53572
53567
53575
53575
53555
53562
53548
53559
53550
53506
53556
53544
53465
53537
53532
53540
53540
53534
53539
53543
53532
53543
53534
53540
53491
53535
53529
53455
53527
53511
53511
53511
53511
53511
53511
53508
53492
53511
53511
53511
53511
53508
53521
53479
53511
53511
53511
53439
53492
53492
53488
53484
53487
53476
53476
53415
53476
53495
53479
53483
53484
53487
53493
53408
53478
53495
53487
53479
53430
53465
53455
53468
53463
53425
53455
53462
53458
53460
53460
53460
53460
53463
53434
53456
53463
53458
53474
53455
53456
53454
53382
53456
53444
53452
53436
53438
53447
53449
53436
53454
53449
53460
53445
53458
53452
53450
53420
53444
53446
53447
53407
53446
53444
53447
53439
53436
53399
53443
53445
53440
53447
53436
53399
53447
53429
53447
53452
53407
53443
53432
53442
53364
53436
53430
53439
53435
53444
53436
53436
53452
53415
53445
53460
53403
53446
53448
53452
53375
53433
53438
53438
53439
53408
53439
53431
53452
53397
53443
53436
53447
53383
53463
53455
53446
53430
53452
53457
53447
53404
53447
53448
53447
53407
53446
53444
53436
53444
53422
53446
53459
53454
53455
53460
53460
53476
53393
53463
53456
53455
53455
53460
53458
53460
53454
53447
53461
53449
53469
53396
53476
53479
53468
53479
53439
53478
53487
53476
53423
53476
53476
53487
53414
53479
53477
53483
53428
53479
53487
53487
53499
53460
53511
53509
53511
53471
53509
53511
53511
53511
53479
53511
53508
53510
53501
53511
53511
53511
53511
53524
53528
53452
53535
53526
53526
53532
53511
53508
53518
53524
53504
53503
53511
53508
53509
53526
53538
53546
53537
53552
53564
53582
53556
53589
53604
53612
53617
53604
53618
53617
53623
53583
53620
53620
53628
53615
53616
53631
53621
53559
53628
53639
53647
53583
53649
53669
53663
53631
53662
53649
53660
53660
53620
53670
53665
53658
53685
53676
53615
53671
53703
53701
53703
53659
53700
53719
53723
53708
53727
53671
53727
53716
53734
53726
53735
53703
53741
53743
53743
53763
53679
53756
53767
53735
53783
53788
53716
53767
53798
53794
53790
53798
53734
53783
53812
53810
53808
53814
53831
53767
53832
53847
53853
53846
53863
53861
53868
53793
53876
53876
53879
53876
53886
53873
53895
53840
53888
53887
53911
53920
53878
53930
53932
53935
53951
53948
53959
53955
53972
53889
53934
53974
53955
53973
53974
53972
53953
53991
53996
54004
54018
54020
53980
54049
54040
54045
54056
54048
54046
54060
54013
54055
54071
54083
54007
54078
54084
54102
54048
54104
54116
54119
54082
54142
54137
54140
54149
54151
54161
54150
54161
54168
54110
54177
54179
54181
54191
54175
54205
54127
54229
54196
54240
54236
54188
54244
54260
54247
54263
54228
54279
54263
54276
54279
54268
54279
54215
54304
54311
54304
54330
54317
54337
54340
54353
54349
54367
54361
54321
54376
54372
54380
54367
54396
54388
54406
54370
54415
54404
54420
54398
54439
54455
54460
54468
54452
54468
54472
54476
54420
54493
54492
54495
54503
54423
54511
54518
54514
54535
54485
54544
54565
54559
54564
54567
54574
54587
54593
54588
54607
54558
54596
54608
54548
54608
54616
54626
54625
54647
54647
54663
54652
54687
54685
54681
54687
54696
54708
54704
54708
54718
54636
54724
54724
54726
54682
54738
54759
54758
54696
54773
54760
54784
54727
54791
54812
54812
54807
54791
54815
54744
54844
54830
54839
54804
54849
54847
54788
54871
54855
54884
54855
54893
54908
54903
54911
54869
54919
54935
54929
54935
54941
54940
54919
54951
54950
54961
54975
54978
54902
54991
54958
54988
55007
55019
55016
55017
55024
54989
55044
55036
55039
55016
55038
55044
55047
55046
55071
55076
55084
55045
55092
55105
55112
55111
55116
55129
55124
55084
55137
55118
55135
55058
55146
55149
55156
55154
55108
55164
55173
55175
55124
55189
55174
55205
55196
55175
55222
55217
55220
55218
55231
55228
55224
55153
55243
55232
55239
55190
55250
55262
55276
55269
55293
55284
55287
55284
55287
55303
55300
55292
55292
55287
55298
55312
55268
55303
55325
55266
55324
55340
55286
55358
55351
55367
55366
55367
55373
55364
55372
55389
55374
55382
55333
55391
55388
55388
55329
55391
55399
55415
55348
55421
55431
55431
55391
55438
55443
55431
55438
55439
55447
55455
55450
55450
55452
55415
55463
55391
55476
55466
55486
55484
55490
55484
55495
55494
55517
55500
55498
55506
55479
55510
55508
55508
55477
55511
55489
55527
55504
55520
55530
55514
55543
55543
55499
55534
55553
55548
55548
55556
55549
55558
55551
55540
55554
55559
55498
55556
55559
55559
55501
55586
55556
55583
55585
55579
55591
55584
55514
55582
55583
55586
55579
55580
55587
55598
55586
55574
55596
55517
55604
55575
55607
55615
55599
55620
55599
55599
55530
55611
55607
55610
55559
55600
55602
55615
55548
55602
55604
55608
55612
55604
55623
55623
55624
55559
55635
55617
55623
55548
55623
55595
55612
55606
55619
55616
55623
55606
55631
55623
55594
55636
55636
55611
55637
55639
55639
55546
55631
55628
55628
55628
55620
55630
55635
55582
55625
55621
55628
55582
55631
55628
55624
55590
55625
55622
55624
55588
55620
55592
55616
55599
55600
55598
55582
55554
55594
55591
55599
55604
55612
55615
55616
55623
55639
55640
55620
55646
55649
55646
55636
55638
55639
55638
55634
55628
55628
55548
55618
55631
55622
55637
55556
55630
55596
55620
55630
55551
55613
55623
55615
55608
55602
55608
55588
55607
55598
55599
55559
55599
55588
55598
55595
55613
55612
55566
55589
55591
55583
55532
55590
55584
55576
55538
55572
55568
55564
55559
55548
55559
55559
55569
55515
55567
55559
55557
55556
55479
55551
55559
55540
55549
55543
55500
55551
55537
55540
55547
55482
55535
55535
55535
55518
55527
55526
55453
55535
55516
55522
55452
55525
55502
55508
55508
55456
55452
55500
55495
55495
55484
55457
55490
55480
55495
55490
55486
55480
55475
55463
55471
55475
55477
55398
55457
55455
55444
55364
55451
55452
55453
55455
55439
55436
55443
55431
55356
55431
55420
55414
55364
55404
55396
55404
55399
55396
55388
55333
55374
55388
55390
55387
55388
55348
55382
55391
55372
55375
55278
55359
55348
55353
55303
55332
55338
55334
55333
55334
55255
55322
55322
55327
55303
55249
55303
55303
55303
55292
55285
55287
55286
55274
55204
55270
55256
55263
55176
55260
55254
55246
55224
55252
55233
55242
55201
55230
55228
55156
55214
55212
55200
55180
55191
55191
55188
55188
55174
55175
55101
55168
55144
55156
55159
55156
55151
55149
55157
55142
55083
55126
55126
55119
55063
55111
55087
55093
55028
55084
55090
55076
55076
55076
55070
55077
55066
55062
54991
55047
55047
55044
55024
54955
55021
55023
55022
55008
54988
54993
55004
54989
54999
54981
54975
54974
54991
54888
54980
54964
54952
54956
54892
54948
54935
54919
54908
54916
54902
54862
54900
54865
54895
54901
54875
54884
54882
54887
54872
54791
54861
54863
54838
54847
54839
54831
54823
54823
54812
54791
54806
54791
54791
54738
54788
54791
54783
54774
54778
54684
54766
54753
54743
54743
54743
54733
54655
54718
54711
54706
54695
54646
54692
54702
54685
54692
54655
54670
54663
54659
54660
54574
54641
54631
54639
54623
54620
54622
54611
54535
54607
54607
54603
54524
54596
54567
54588
54581
54532
54574
54565
54556
54487
54535
54527
54524
54440
54514
54503
54495
54503
54460
54495
54491
54482
54476
54469
54463
54463
54453
54382
54447
54435
54428
54367
54407
54396
54399
54353
54404
54390
54372
54367
54375
54375
54367
54359
54364
54352
54279
54343
54343
54327
54297
54313
54288
54300
54271
54279
54279
54279
54199
54260
54254
54263
54255
54196
54249
54236
54247
54212
54217
54212
54205
54134
54167
54183
54178
54172
54174
54164
54151
54150
54109
54140
54148
54147
54062
54095
54113
54110
54116
54096
54087
54095
54061
54076
54054
54071
54014
54055
54045
54055
53994
54036
54035
54030
53958
54017
53998
54007
53940
53991
53983
53978
53895
53956
53963
53951
53951
53945
53940
53903
53929
53933
53927
53876
53905
53916
53899
53895
53876
53886
53877
53798
53871
53863
53844
53841
53830
53839
53828
53821
53831
53751
53814
53809
53799
53788
53796
53788
53747
53764
53767
53700
53751
53748
53735
53684
53720
53722
53716
53662
53706
53706
53703
53630
53684
53687
53671
53612
53660
53654
53659
53572
53631
53631
53628
53575
53607
53606
53599
53575
53583
53583
53587
53583
53574
53579
53559
53548
53510
53542
53534
53527
53511
53510
53508
53510
53465
53487
53495
53492
53471
53452
53479
53399
53468
53455
53455
53444
53429
53445
53421
53428
53407
53415
53410
53399
53365
53396
53396
53383
53375
53378
53380
53367
53303
53350
53347
53332
53304
53327
53319
53314
53300
53226
53269
53255
53255
53248
53237
53198
53221
53238
53228
53236
53214
53220
53230
53218
53222
53212
53213
53212
53204
53175
53210
53206
53207
53197
53175
53187
53182
53187
53094
53166
53167
53159
53150
53147
53127
53127
53114
53118
53087
53095
53092
53087
53031
53087
53068
53071
53069
53067
53056
53063
53023
53042
53049
53034
53036
52980
53008
52999
52994
52990
52985
52977
52980
52921
52958
52965
52965
52958
52958
52950
52891
52946
52932
52927
52927
52910
52887
52903
52892
52895
52871
52828
52871
52871
52860
52860
52787
52839
52847
52847
52845
52757
52839
52820
52805
52821
52712
52799
52782
52775
52783
52703
52772
52752
52762
52757
52691
52743
52743
52741
52742
52671
52733
52715
52724
52630
52680
52692
52698
52692
52662
52679
52676
52671
52623
52654
52655
52649
52623
52647
52638
52638
52589
52615
52612
52608
52596
52588
52591
52588
52575
52520
52567
52571
52567
52543
52557
52551
52503
52549
52538
52471
52526
52527
52519
52505
52511
52502
52419
52484
52487
52468
52471
52415
52468
52452
52452
52383
52436
52455
52447
52433
52431
52439
52423
52423
52382
52396
52398
52391
52389
52359
52385
52311
52364
52359
52358
52342
52359
52356
52359
52347
52333
52349
52260
52327
52322
52323
52262
52301
52301
52215
52278
52292
52276
52213
52260
52271
52278
52231
52256
52244
52255
52231
52231
52231
52142
52218
52206
52200
52197
52199
52199
52190
52189
52128
52178
52173
52175
52175
52148
52171
52161
52164
52103
52143
52136
52127
52111
52115
52119
52108
52111
52084
52103
52094
52102
52057
52089
52082
52093
52010
52071
52071
52071
51999
52047
52047
52046
52052
52036
52039
52020
52028
51975
52015
52019
52005
52001
51994
51999
52006
52002
51935
51985
51975
51975
51924
51962
51951
51956
51909
51947
51938
51947
51938
51898
51926
51942
51934
51930
51924
51924
51879
51903
51895
51895
51892
51892
51820
51871
51876
51879
51857
51868
51866
51805
51854
51871
51848
51852
51847
51795
51839
51839
51831
51820
51815
51816
51815
51742
51776
51795
51801
51788
51795
51788
51799
51785
51770
51764
51774
51782
51769
51758
51759
51681
51751
51739
51742
51732
51735
51719
51704
51713
51719
51719
51655
51709
51708
51719
51705
51703
51695
51695
51679
51679
51637
51671
51670
51665
51662
51604
51660
51663
51652
51647
51631
51642
51648
51647
51606
51614
51624
51623
51615
51615
51606
51596
51543
51588
51591
51599
51520
51588
51577
51583
51522
51589
51569
51586
51503
51565
51569
51559
51472
51559
51551
51559
51536
51511
51530
51532
51453
51524
51519
51523
51455
51524
51516
51518
51519
51496
51501
51505
51500
51439
51495
51478
51479
51479
51463
51476
51477
51475
51463
51430
51452
51460
51459
51463
51456
51399
51451
51445
51444
51436
51436
51380
51406
51425
51413
51417
51428
51346
51407
51410
51420
51417
51412
51414
51404
51407
51357
51393
51391
51390
51340
51391
51372
51367
51315
51372
51362
51375
51303
51367
51348
51364
51364
51353
51353
51356
51283
51343
51334
51334
51279
51325
51330
51319
51246
51247
51244
51255
51262
51279
51303
51306
51310
51302
51263
51302
51295
51287
51287
51207
51278
51272
51270
51270
51247
51260
51254
51253
51260
51207
51260
51260
51255
51263
51183
51254
51239
51244
51183
51228
51220
51238
51238
51230
51207
51227
51191
51207
51207
51220
51157
51207
51207
51205
51207
51206
51131
51188
51205
51188
51183
51175
51191
51180
51127
51173
51171
51175
51163
51149
51169
51167
51158
51119
51165
51166
51156
51080
51151
51124
51135
51076
51111
51110
51112
51100
51107
51089
51100
51100
51103
51108
51095
51111
51114
51118
51127
51071
51100
51119
51124
51104
51121
51116
51055
51117
51103
51109
51111
51038
51091
51111
51094
51098
51100
51036
51104
51090
51093
51079
51039
51079
51062
51079
51074
51036
51063
51071
51071
51071
51006
51060
51068
51071
51069
51071
51007
51063
51056
50980
51047
51055
51046
51047
50980
51034
51029
51044
51041
51039
51028
51038
51039
50967
51029
51047
51036
51028
51006
51026
51020
51014
51023
51006
50960
51004
51012
51007
51022
50951
51006
50998
51006
50961
51015
51013
51011
50959
51003
50990
51003
50966
50989
50994
50916
50984
50988
50980
50991
50983
50919
50990
50983
50980
50991
50965
50975
50972
50980
50964
50900
50965
50971
50951
50967
50964
50900
50966
50958
50957
50967
50970
50951
50964
50960
50979
50903
50932
50951
50951
50947
50951
50932
50951
50940
50951
50870
50944
50942
50951
50943
50951
50895
50940
50942
50951
50895
50940
50946
50934
50941
50938
50880
50926
50922
50934
50913
50926
50929
50940
50932
50939
50935
50935
50871
50935
50949
50903
50918
50935
50855
50927
50919
50887
50919
50918
50892
50924
50914
50868
50911
50919
50922
50924
50922
50918
50863
50916
50919
50919
50909
50902
50904
50901
50911
50911
50882
50907
50908
50839
50919
50919
50862
50919
50919
50856
50910
50911
50883
50909
50906
50895
50900
50907
50842
50898
50909
50865
50896
50915
50906
50911
50917
50911
50916
50924
50906
50903
50915
50863
50905
50903
50828
50892
50903
50833
50892
50902
50847
50903
50911
50844
50903
50902
50852
50903
50915
50864
50905
50901
50903
50908
50903
50884
50910
50886
50846
50902
50901
50900
50871
50908
50908
50911
50887
50903
50904
50897
50916
50895
50903
50903
50900
50886
50895
50890
50887
50902
50852
50890
50903
50900
50895
50906
50840
50909
50898
50847
50903
50892
50895
50892
50887
50887
50854
50878
50886
50894
50892
50890
50879
50900
50895
50900
50900
50907
50911
50836
50868
50903
50889
50886
50890
50892
50895
50830
50885
50899
50893
50895
50895
50902
50857
50908
50899
50905
50900
50824
50895
50894
50895
50892
50838
50887
50892
50895
50884
50845
50890
50893
50903
50903
50884
50903
50916
50894
50900
50909
50903
50900
50914
50902
50830
50901
50892
50895
50906
50897
50844
50892
50913
50910
50910
50910
50908
50844
50893
50900
50908
50900
50897
50896
50876
50906
50897
50911
50855
50911
50893
50908
50908
50908
50911
50911
50868
50912
50911
50916
50919
50914
50914
50911
50908
50908
50919
50919
50918
50870
50913
50917
50916
50900
50916
50935
50862
50927
50927
50926
50916
50905
50932
50923
50917
50926
50855
50918
50913
50919
50929
50919
50924
50935
50934
50919
50935
50947
50943
50930
50910
50927
50930
50943
50924
50925
50932
50937
50932
50936
50882
50940
50944
50943
50948
50949
50916
50948
50940
50951
50884
50943
50938
50940
50932
50946
50937
50951
50948
50951
50926
50948
50948
50949
50950
50951
50965
50951
50951
50895
50951
50951
50948
50951
50951
50918
50944
50948
50951
50951
50967
50940
50964
50951
50967
50891
50964
50969
50967
50965
50926
50963
50965
50964
50962
50929
50916
50951
50954
50951
50967
50971
50959
50966
50974
50915
50951
50983
50959
50968
50977
50932
50970
50972
50969
50979
50936
50968
50951
50975
50980
50982
50917
50960
50983
50991
50983
50980
50989
50989
50985
50916
50985
50983
50985
50979
50982
50977
50935
50967
50970
50964
50982
50964
50976
50973
50927
50958
50952
50959
50966
50983
50975
50944
50964
50983
50984
50988
51005
50951
51008
51015
51012
51020
51031
50951
51015
51028
51028
51022
51028
50975
51018
51023
51015
50989
51021
51018
51023
50951
51020
51028
51035
51029
51006
51030
51039
51047
50974
51033
51031
51031
51031
51031
51013
51018
51031
51021
50966
51031
51031
51037
51047
50988
51044
51044
51038
51050
51047
50978
51047
51045
51040
51036
51023
51044
51047
51047
51005
51047
51053
51049
50994
51055
51055
51067
51071
51010
51060
51039
51060
51052
51063
51041
50999
51055
51045
51049
51049
51069
51060
51040
51062
51061
51063
51079
51071
51075
51075
51065
51079
51073
51005
51075
51068
51070
51071
51007
51071
51079
51062
51079
51068
51079
51080
51090
51079
51078
51087
51060
51084
51076
51087
51095
51041
51087
51079
51086
51084
51089
51047
51087
51098
51107
51103
51099
51087
51100
51092
51109
51103
51108
51095
51092
51103
51109
51060
51103
51095
51111
51111
51046
51127
51113
51114
51124
51127
51071
51097
51118
51132
51124
51124
51119
51119
51117
51126
51127
51071
51124
51127
51135
51135
51135
51122
51142
51151
51146
51145
51071
51110
51135
51135
51125
51143
51142
51071
51146
51138
51148
51079
51148
51151
51158
51093
51167
51159
51167
51167
51111
51164
51158
51167
51168
51100
51119
51152
51166
51165
51101
51151
51164
51171
51164
51103
51169
51195
51184
51191
51183
51181
51191
51183
51190
51175
51191
51191
51148
51189
51191
51197
51189
51172
51192
51206
51198
51207
51207
51207
51204
51207
51207
51207
51207
51206
51151
51207
51203
51207
51207
51162
51207
51207
51230
51231
51156
51233
51239
51233
51236
51238
51236
51233
51238
51238
51246
51238
51218
51239
51239
51255
51253
51255
51207
51266
51257
51271
51199
51271
51264
51269
51269
51232
51271
51277
51283
51203
51282
51274
51274
51284
51284
51286
51292
51292
51238
51279
51309
51297
51303
51303
51268
51276
51311
51308
51309
51303
51255
51302
51304
51316
51295
51321
51319
51327
51329
51332
51335
51335
51305
51327
51340
51332
51335
51316
51332
51335
51343
51279
51351
51348
51351
51363
51293
51362
51362
51381
51310
51372
51367
51375
51378
51323
51372
51368
51380
51382
51351
51380
51391
51396
51327
51392
51397
51404
51404
51397
51413
51418
51415
51406
51401
51419
51409
51413
51416
51353
51416
51427
51423
51430
51436
51383
51455
51458
51455
51388
51457
51452
51461
51462
51463
51463
51457
51470
51463
51474
51479
51471
51484
51430
51492
51487
51500
51494
51486
51511
51518
51518
51511
51463
51519
51519
51519
51519
51523
51518
51526
51540
51524
51492
51533
51548
51559
51484
51556
51561
51564
51567
51528
51540
51567
51574
51581
51572
51581
51582
51556
51591
51583
51591
51598
51591
51609
51615
51623
51622
51591
51637
51630
51622
51635
51575
51632
51644
51629
51646
51636
51591
51651
51663
51656
51664
51605
51663
51676
51668
51694
51687
51703
51644
51695
51687
51695
51708
51714
51710
51654
51706
51698
51701
51711
51735
51719
51710
51751
51751
51736
51746
51687
51757
51756
51719
51758
51764
51686
51767
51762
51764
51783
51719
51791
51791
51802
51796
51809
51802
51816
51815
51764
51815
51826
51821
51757
51821
51831
51842
51832
51825
51846
51860
51853
51825
51870
51869
51887
51808
51887
51884
51893
51887
51846
51896
51892
51908
51911
51927
51911
51913
51924
51878
51932
51935
51943
51944
51920
51948
51964
51958
51948
51945
51944
51948
51950
51941
51940
51962
51938
51967
51975
51996
51983
52006
52028
52036
52037
52055
52070
52069
52068
52083
52078
52012
52084
52095
52094
52103
52026
52103
52102
52118
52117
52083
52131
52135
52135
52156
52071
52151
52166
52151
52160
52172
52114
52168
52175
52177
52190
52132
52195
52196
52199
52204
52218
52212
52198
52228
52231
52246
52255
52204
52252
52260
52256
52251
52261
52277
52271
52291
52280
52244
52299
52308
52316
52317
52286
52324
52321
52337
52343
52348
52339
52358
52356
52287
52356
52359
52375
52380
52294
52382
52389
52404
52399
52407
52408
52415
52431
52380
52431
52445
52447
52455
52448
52455
52452
52464
52399
52479
52484
52480
52429
52487
52503
52519
52439
52528
52527
52540
52477
52529
52540
52555
52557
52527
52559
52564
52579
52506
52567
52589
52590
52602
52564
52609
52631
52630
52596
52632
52639
52659
52599
52654
52650
52668
52667
52602
52678
52679
52694
52679
52711
52709
52710
52719
52743
52743
52693
52743
52743
52764
52760
52711
52774
52774
52774
52780
52780
52790
52805
52815
52810
52807
52843
52820
52852
52844
52794
52863
52870
52871
52879
52808
52847
52884
52894
52900
52908
52839
52911
52926
52926
52935
52936
52908
52942
52967
52979
52958
52980
52988
52989
52999
52974
52999
53014
53013
52973
53023
52999
53045
53045
53023
53062
53060
53076
53076
53084
53023
53095
53109
53110
53110
53108
53085
53122
53127
53127
53140
53077
53156
53154
53177
53175
53121
53188
53204
53204
53210
53135
53215
53228
53228
53198
53220
53251
53252
53255
53255
53254
53275
53276
53228
53286
53300
53309
53339
53250
53327
53334
53347
53291
53338
53358
53370
53358
53295
53356
53380
53372
53392
53405
53402
53342
53372
53436
53447
53447
53438
53454
53464
53391
53460
53470
53479
53495
53493
53454
53500
53511
53512
53446
53526
53541
53544
53559
53502
53566
53584
53580
53588
53527
53589
53592
53594
53580
53615
53628
53623
53631
53572
53639
53660
53667
53679
53619
53687
53695
53692
53694
53655
53713
53713
53724
53709
53726
53731
53748
53743
53759
53754
53764
53785
53767
53799
53800
53814
53818
53820
53824
53845
53830
53836
53842
53847
53863
53828
53867
53860
53876
53885
53894
53895
53895
53927
53917
53863
53937
53956
53959
53956
53956
53975
53966
53940
53975
53974
53991
53940
54005
54015
54012
54023
54023
54044
54055
54058
54015
54075
54087
54079
54022
54086
54090
54089
54103
54100
54058
54124
54132
54140
54143
54080
54160
54178
54176
54135
54183
54168
54196
54206
54140
54210
54212
54218
54231
54221
54228
54247
54263
54252
54269
54271
54276
54279
54297
54296
54311
54318
54279
54325
54335
54339
54343
54351
54279
54349
54365
54364
54375
54388
54396
54372
54378
54417
54430
54431
54436
54444
54415
54445
54461
54450
54453
54471
54479
54485
54450
54489
54495
54500
54506
54514
54526
54535
54535
54535
54559
54508
54476
54502
54508
54535
54535
54581
54590
54582
54590
54602
54615
54616
54556
54620
54638
54638
54644
54655
54628
54663
54668
54672
54634
54686
54679
54620
54690
54689
54631
54708
54718
54727
54708
54729
54736
54727
54758
54759
54702
54780
54780
54695
54783
54788
54791
54791
54805
54811
54766
54820
54828
54835
54796
54850
54847
54820
54870
54876
54881
54884
54884
54900
54903
54897
54908
54908
54908
54916
54902
54919
54932
54938
54945
54955
54959
54967
54975
54975
54976
54994
54980
54982
54992
54984
55002
55006
54997
54996
54994
55012
54984
55000
55015
54991
55036
55044
55039
55071
55074
55079
55071
55108
55116
55127
55105
55126
55141
55136
55150
55151
55117
55164
55136
55175
55180
55120
55199
55192
55207
55220
55134
55214
55219
55143
55220
55238
55172
55239
55241
55246
55252
55258
55268
55237
55284
55276
55210
55302
55292
55268
55303
55303
55275
55324
55301
55326
55279
55335
55332
55344
55357
55343
55355
55284
55374
55375
55380
55303
55399
55396
55407
55354
55404
55404
55343
55422
55407
55357
55430
55420
55389
55438
55414
55453
55450
55474
55471
55477
55431
55479
55458
55491
55404
55500
55493
55501
55508
55500
55511
55526
55511
55527
55519
55530
55532
55526
55540
55559
55559
55572
55580
55575
55548
55591
55575
55589
55583
55597
55569
55523
55582
55613
55615
55605
55631
55633
55632
55645
55647
55652
55655
55623
55669
55671
55663
55669
55676
55621
55670
55685
55676
55686
55698
55652
55708
55727
55726
55719
55730
55727
55668
55740
55743
55745
55748
55759
55756
55697
55727
55767
55726
55767
55769
55715
55791
55803
55815
55807
55815
55815
55747
55812
55815
55815
55828
55828
55825
55815
55838
55846
55845
55815
55867
55856
55877
55874
55804
55879
55886
55900
55894
55901
55895
55896
55908
55908
55917
55815
55911
55916
55923
55919
55932
55925
55943
55898
55943
55959
55965
55895
55956
55970
55973
55975
55972
55975
55975
55988
55974
55986
55980
56004
55927
56006
56010
56022
56030
56002
56036
56031
56039
55998
56036
56047
56006
56036
56046
56046
56047
56052
56063
56065
55987
56071
56087
56068
56094
56095
56014
56092
56111
56115
56097
56104
56120
56028
56116
56116
56116
56127
56125
56140
56136
56071
56151
56137
56153
56164
56160
56104
56165
56172
56174
56164
56174
56181
56181
56183
56174
56199
56188
56145
56192
56207
56199
56212
56215
56175
56223
56225
56235
56228
56230
56209
56233
56238
56207
56237
56244
56187
56247
56199
56261
56261
56260
56271
56287
56292
56295
56287
56289
56295
56288
56292
56295
56292
56297
56295
56316
56229
56263
56324
56312
56324
56292
56327
56327
56265
56344
56352
56346
56351
56356
56356
56308
56352
56356
56359
56360
56363
56363
56376
56368
56309
56380
56372
56405
56396
56404
56327
56391
56407
56412
56390
56407
56399
56327
56399
56414
56406
56423
56412
56403
56428
56414
56436
56439
56356
56436
56449
56454
56453
56450
56385
56452
56449
56455
56452
56460
56398
56467
56468
56476
56471
56484
56487
56487
56420
56455
56501
56501
56495
56511
56508
56509
56515
56511
56516
56503
56509
56505
56511
56521
56526
56512
56526
56495
56541
56542
56546
56519
56550
56551
56559
56471
56549
56557
56534
56571
56500
56556
56558
56566
56570
56568
56559
56577
56570
56583
56519
56583
56583
56561
56599
56580
56542
56599
56591
56600
56592
56607
56559
56598
56604
56612
56599
56629
56611
56623
56558
56623
56629
56625
56636
56631
56629
56563
56620
56630
56564
56638
56639
56616
56647
56645
56641
56654
56644
56647
56661
56651
56653
56642
56648
56655
56638
56657
56652
56656
56582
56607
56616
56671
56657
56668
56675
56612
56687
56684
56687
56670
56679
56676
56684
56631
56679
56684
56679
56679
56682
56623
56679
56679
56686
56703
56615
56695
56704
56700
56708
56703
56642
56707
56705
56703
56697
56702
56668
56700
56711
56672
56697
56719
56646
56724
56717
56724
56727
56679
56732
56735
56743
56723
56644
56726
56718
56734
56716
56698
56732
56666
56726
56725
56727
56724
56664
56733
56735
56719
56729
56720
56700
56708
56716
56735
56719
56725
56740
56733
56759
56747
56727
56767
56772
56776
56728
56796
56796
56799
56740
56794
56804
56805
56783
56799
56783
56788
56766
56789
56783
56778
56779
56802
56791
56724
56796
56796
56804
56807
56764
56807
56812
56796
56743
56799
56783
56798
56735
56806
56797
56806
56775
56796
56807
56805
56802
56813
56820
56732
56815
56812
56809
56806
56800
56815
56735
56797
56804
56806
56812
56790
56764
56804
56821
56807
56807
56823
56816
56823
56757
56820
56831
56823
56814
56804
56815
56759
56814
56807
56799
56816
56768
56743
56823
56822
56819
56828
56764
56820
56831
56825
56828
56836
56740
56829
56825
56830
56822
56780
56814
56799
56820
56830
56809
56831
56831
56827
56778
56828
56839
56839
56831
56836
56748
56800
56838
56818
56812
56815
56756
56807
56790
56824
56839
56783
56829
56832
56831
56820
56816
56839
56813
56836
56831
56828
56772
56830
56823
56823
56826
56835
56831
56825
56828
56767
56839
56839
56833
56839
56839
56839
56763
56839
56839
56807
56821
56836
56742
56820
56833
56831
56828
56836
56757
56821
56831
56820
56831
56839
56764
56839
56839
56820
56833
56823
56822
56745
56822
56772
56817
56823
56751
56830
56830
56820
56821
56748
56822
56828
56829
56823
56838
56775
56831
56821
56831
56812
56773
56812
56820
56807
56814
56815
56739
56829
56800
56820
56820
56814
56828
56820
56807
56820
56799
56807
56775
56751
56725
56803
56796
56807
56799
56807
56807
56804
56805
56772
56806
56804
56815
56815
56748
56806
56812
56805
56791
56797
56782
56799
56805
56796
56798
56800
56748
56805
56804
56807
56807
56767
56812
56772
56796
56804
56794
56790
56792
56796
56791
56711
56764
56780
56788
56774
56788
56772
56781
56781
56796
56791
56784
56791
56735
56783
56784
56797
56775
56774
56775
56692
56736
56767
56769
56782
56775
56776
56777
56774
56772
56724
56775
56775
56772
56775
56757
56749
56759
56685
56727
56757
56754
56727
56741
56751
56765
56758
56759
56710
56764
56751
56711
56759
56757
56751
56756
56666
56708
56746
56736
56740
56735
56724
56728
56740
56735
56655
56716
56743
56733
56733
56734
56725
56659
56682
56679
56686
56735
56718
56711
56711
56709
56636
56708
56711
56710
56711
56711
56637
56692
56711
56723
56708
56711
56718
56701
56706
56695
56695
56612
56695
56692
56695
56678
56695
56612
56687
56692
56689
56684
56684
56678
56643
56687
56677
56679
56678
56647
56679
56671
56655
56662
56647
56583
56615
56663
56666
56655
56626
56660
56666
56660
56577
56644
56653
56654
56653
56583
56647
56638
56630
56551
56631
56621
56633
56625
56636
56636
56628
56573
56637
56634
56615
56629
56623
56618
56548
56613
56616
56614
56607
56566
56599
56604
56598
56612
56604
56570
56615
56606
56615
56580
56599
56598
56591
56519
56591
56583
56583
56583
56533
56575
56572
56576
56569
56567
56562
56534
56575
56565
56551
56575
56563
56564
56532
56543
56556
56550
56550
56546
56532
56455
56524
56539
56532
56533
56524
56530
56463
56463
56455
56527
56524
56520
56519
56523
56519
56447
56487
56510
56500
56503
56486
56493
56447
56497
56502
56490
56494
56437
56489
56484
56487
56487
56485
56419
56471
56476
56468
56469
56454
56455
56452
56452
56452
56447
56470
56453
56455
56374
56444
56460
56447
56391
56437
56442
56436
56428
56389
56439
56436
56418
56422
56428
56423
56437
56420
56423
56431
56326
56376
56410
56415
56406
56398
56404
56326
56382
56389
56375
56372
56356
56348
56348
56324
56359
56358
56372
56372
56372
56375
56374
56368
56390
56375
56380
56348
56381
56381
56375
56372
56292
56367
56360
56366
56367
56327
56295
56367
56375
56372
56324
56359
56327
56346
56357
56340
56351
56351
56300
56348
56327
56327
56327
56324
56327
56327
56244
56301
56327
56327
56327
56327
56324
56239
56325
56324
56311
56308
56311
56308
56267
56311
56308
56292
56303
56310
56302
56228
56264
56299
56303
56276
56292
56298
56223
56284
56284
56295
56284
56287
56279
56199
56263
56279
56284
56271
56279
56284
56278
56280
56239
56273
56284
56280
56276
56271
56268
56215
56263
56270
56263
56262
56263
56193
56212
56266
56276
56260
56263
56268
56273
56264
56268
56267
56260
56263
56254
56255
56250
56170
56188
56199
56255
56239
56251
56255
56244
56246
56231
56255
56253
56253
56262
56258
56260
56255
56257
56199
56244
56247
56255
56238
56245
56261
56245
56255
56196
56255
56260
56256
56270
56255
56196
56263
56261
56256
56263
56248
56263
56243
56198
56185
56260
56262
56247
56252
56260
56258
56199
56268
56271
56260
56260
56271
56263
56270
56267
56263
56255
56188
56228
56253
56258
56276
56268
56271
56279
56279
56279
56287
56269
56238
56287
56285
56287
56284
56284
56231
56245
56287
56295
56295
56292
56287
56289
56299
56301
56228
56242
56308
56310
56319
56316
56308
56314
56239
56278
56244
56292
56319
56319
56311
56327
56316
56327
56327
56327
56260
56286
56327
56342
56354
56350
56327
56343
56348
56354
56362
56351
56317
56291
56303
56369
56361
56374
56383
56388
56324
56388
56388
56397
56399
56398
56414
56327
56411
56421
56421
56407
56420
56375
56327
56421
56428
56436
56431
56438
56447
56455
56462
56455
56470
56477
56464
56463
56475
56476
56471
56477
56487
56481
56412
56502
56500
56511
56518
56519
56535
56518
56455
56500
56551
56556
56543
56551
56551
56527
56558
56566
56564
56558
56566
56583
56576
56583
56513
56583
56606
56620
56607
56621
56579
56637
56628
56583
56639
56640
56647
56575
56655
56646
56678
56634
56679
56676
56687
56695
56612
56703
56705
56724
56719
56734
56727
56663
56741
56736
56741
56737
56757
56747
56750
56772
56785
56775
56780
56799
56807
56807
56812
56828
56756
56839
56839
56839
56839
56839
56838
56869
56839
56875
56875
56879
56883
56816
56839
56902
56917
56927
56940
56941
56932
56938
56956
56961
56895
56935
56967
56956
56972
56967
56977
56990
57005
56934
56967
57021
57031
57012
57055
57059
57028
56997
57070
57071
57077
57087
57086
57092
57095
57024
57085
57119
57119
57119
57135
57140
57164
57174
57177
57191
57191
57191
57199
57157
57204
57207
57205
57214
57231
57189
57205
57247
57255
57223
57264
57287
57284
57300
57311
57304
57276
57318
57332
57341
57335
57351
57343
57351
57306
57372
57365
57367
57380
57396
57399
57407
57422
57436
57431
57439
57463
57460
57457
57479
57441
57447
57476
57486
57492
57502
57498
57511
57444
57527
57538
57551
57556
57573
57574
57575
57510
57526
57588
57598
57604
57596
57607
57607
57623
57591
57639
57647
57647
57660
57677
57671
57682
57703
57695
57708
57723
57727
57727
57684
57697
57742
57751
57727
57767
57756
57767
57703
57782
57798
57805
57807
57825
57831
57764
57791
57823
57846
57863
57863
57863
57863
57880
57887
57894
57828
57879
57920
57924
57914
57884
57942
57959
57964
57967
57945
57984
57990
57984
57991
57993
57962
57998
58021
58031
58036
58028
58048
58023
58062
58082
58085
58099
58108
58064
58143
58143
58148
58151
58144
58159
58076
58154
58174
58094
58180
58191
58132
58215
58215
58228
58231
58231
58247
58180
58164
58252
58271
58275
58228
58281
58284
58287
58311
58292
58301
58316
58234
58324
58341
58331
58359
58364
58360
58295
58375
58372
58375
58396
58407
58407
58414
58369
58423
58422
58437
58435
58438
58445
58375
58463
58468
58487
58495
58500
58503
58503
58516
58439
58530
58535
58532
58537
58535
58538
58563
58559
58557
58572
58500
58588
58548
58606
58599
58607
58564
58617
58628
58629
58646
58640
58650
58567
58588
58656
58668
58622
58676
58687
58695
58703
58718
58708
58726
58727
58727
58743
58744
58717
58750
58751
58759
58695
58767
58780
58748
58767
58799
58805
58801
58810
58815
58756
58806
58836
58844
58848
58853
58851
58862
58789
58833
58856
58879
58887
58887
58887
58887
58911
58908
58887
58920
58933
58934
58940
58940
58949
58951
58957
58966
58959
58972
58964
58976
58974
58991
58941
58919
58993
58998
59014
59015
59014
59036
59028
59041
58952
58977
59007
59028
59060
59063
59063
59055
59071
59072
59071
59078
59084
59093
59075
59071
59124
59119
59119
59119
59136
59124
59127
59142
59133
59082
59143
59158
59143
59143
59143
59156
59166
59173
59119
59196
59195
59193
59204
59204
59208
59222
59207
59141
59143
59206
59221
59220
59220
59228
59215
59222
59234
59221
59238
59252
59246
59251
59271
59270
59252
59287
59271
59281
59287
59268
59293
59284
59284
59294
59310
59244
59311
59308
59316
59317
59232
59342
59326
59340
59342
59340
59348
59354
59281
59294
59331
59367
59354
59349
59364
59367
59327
59370
59355
59373
59390
59366
59399
59398
59399
59329
59399
59399
59399
59399
59399
59354
59399
59399
59420
59413
59420
59383
59356
59420
59444
59437
59445
59454
59453
59450
59452
59463
59479
59460
59455
59460
59454
59433
59463
59458
59463
59484
59479
59476
59399
59495
59502
59492
59508
59469
59492
59500
59495
59496
59492
59500
59511
59503
59508
59463
59519
59519
59514
59519
59508
59494
59537
59535
59532
59543
59543
59495
59525
59541
59540
59540
59543
59495
59533
59549
59542
59548
59563
59558
59477
59545
59563
59579
59576
59567
59533
59556
59581
59559
59567
59572
59573
59554
59583
59591
59584
59583
59569
59591
59552
59607
59574
59596
59606
59596
59599
59604
59615
59604
59588
59599
59588
59582
59590
59548
59606
59615
59603
59607
59612
59615
59583
59623
59620
59615
59612
59618
59623
59620
59610
59622
59608
59614
59604
59615
59621
59556
59588
59623
59630
59631
59621
59639
59631
59639
59543
59580
59628
59631
59633
59614
59631
59628
59624
59551
59637
59636
59612
59639
59628
59559
59646
59649
59644
59620
59639
59636
59636
59583
59647
59631
59631
59628
59637
59636
59583
59644
59643
59593
59647
59645
59652
59649
59650
59591
59620
59647
59636
59624
59635
59623
59631
59636
59637
59554
59609
59639
59639
59630
59631
59620
59644
59610
59624
59636
59621
59623
59637
59628
59631
59567
59629
59622
59628
59623
59610
59610
59625
59622
59550
59574
59623
59639
59632
59612
59623
59619
59628
59566
59620
59614
59583
59620
59617
59524
59611
59612
59607
59619
59623
59622
59623
59551
59591
59625
59623
59623
59610
59600
59604
59512
59589
59599
59543
59588
59604
59566
59596
59599
59614
59596
59591
59605
59564
59607
59612
59598
59599
59593
59557
59588
59600
59590
59591
59601
59592
59544
59607
59612
59585
59599
59607
59614
59514
59525
59580
59607
59591
59582
59580
59577
59569
59572
59543
59583
59559
59567
59579
59497
59586
59559
59558
59495
59556
59567
59566
59556
59561
59559
59551
59559
59503
59557
59548
59551
59511
59551
59543
59549
59554
59548
59476
59521
59557
59559
59545
59523
59527
59532
59546
59449
59527
59535
59525
59526
59508
59518
59524
59489
59477
59527
59527
59527
59448
59524
59516
59519
59445
59505
59519
59495
59500
59504
59414
59501
59495
59495
59495
59500
59503
59412
59500
59488
59495
59492
59485
59455
59493
59476
59476
59468
59476
59390
59452
59399
59468
59462
59460
59476
59460
59481
59483
59431
59471
59460
59463
59463
59455
59463
59454
59364
59431
59444
59451
59452
59445
59446
59447
59437
59447
59432
59375
59416
59446
59444
59442
59367
59430
59420
59431
59421
59415
59326
59399
59399
59399
59399
59386
59399
59399
59415
59399
59399
59399
59399
59334
59363
59399
59399
59381
59362
59383
59381
59366
59368
59368
59377
59300
59382
59373
59374
59381
59380
59308
59383
59380
59363
59367
59358
59354
59334
59356
59348
59348
59335
59336
59343
59343
59271
59343
59350
59359
59343
59342
59349
59324
59319
59335
59325
59334
59303
59322
59316
59307
59298
59303
59236
59267
59295
59309
59319
59311
59300
59303
59307
59303
59263
59298
59294
59293
59270
59271
59216
59271
59285
59261
59270
59271
59271
59271
59206
59260
59279
59268
59265
59252
59253
59252
59260
59241
59236
59230
59236
59246
59152
59236
59246
59239
59231
59237
59239
59237
59160
59231
59229
59173
59230
59207
59212
59211
59120
59166
59199
59215
59183
59190
59185
59199
59110
59202
59205
59198
59198
59193
59199
59106
59194
59189
59182
59171
59188
59175
59166
59113
59141
59166
59167
59156
59153
59160
59167
59159
59153
59167
59143
59103
59126
59143
59140
59143
59116
59121
59109
59055
59076
59106
59119
59117
59124
59116
59116
59119
59117
59119
59119
59111
59111
59076
59098
59042
59087
59084
59083
59087
58998
59031
59072
59091
59073
59076
59084
59087
59087
59079
59079
59079
59078
59068
59050
59063
59015
59015
59037
59052
59052
59032
59031
59030
59043
59038
59004
59044
59036
59039
59026
59035
59015
59015
59023
58925
58954
58936
58980
58988
58999
59005
59013
58997
59014
58985
58988
59004
58996
58988
58980
58919
58956
58970
58977
58980
58980
58958
58957
58959
58959
58959
58950
58959
58951
58945
58950
58953
58959
58947
58870
58927
58948
58943
58940
58934
58925
58919
58847
58887
58916
58919
58919
58917
58911
58887
58926
58910
58919
58911
58832
58887
58905
58887
58887
58841
58887
58854
58874
58879
58868
58878
58866
58866
58863
58869
58868
58876
58864
58869
58863
58854
58855
58847
58840
58828
58740
58801
58834
58820
58826
58821
58831
58821
58818
58809
58804
58815
58806
58823
58756
58807
58807
58805
58788
58780
58775
58782
58762
58756
58767
58759
58754
58756
58759
58759
58756
58743
58755
58759
58759
58740
58740
58661
58673
58703
58740
58727
58722
58716
58710
58711
58694
58717
58702
58698
58697
58708
58695
58628
58695
58711
58698
58681
58684
58592
58671
58676
58685
58660
58656
58615
58663
58625
58655
58663
58663
58574
58653
58651
58652
58647
58631
58628
58631
58568
58612
58615
58609
58607
58588
58591
58591
58596
58596
58609
58607
58604
58607
58596
58612
58591
58596
58601
58594
58516
58591
58591
58575
58578
58578
58567
58482
58555
58552
58560
58542
58558
58558
58520
58556
58556
58532
58532
58535
58517
58516
58438
58492
58508
58503
58503
58497
58492
58511
58502
58495
58500
58444
58503
58447
58474
58501
58486
58485
58404
58468
58451
58460
58461
58447
58431
58453
58452
58444
58455
58447
58415
58436
58431
58439
58436
58415
58327
58399
58402
58423
58404
58375
58375
58375
58303
58375
58399
58375
58375
58340
58375
58375
58375
58318
58365
58366
58353
58346
58349
58312
58340
58343
58326
58333
58324
58327
58317
58316
58327
58324
58324
58247
58287
58316
58303
58298
58303
58300
58301
58215
58279
58271
58247
58273
58268
58247
58263
58191
58260
58263
58247
58263
58257
58230
58247
58236
58238
58229
58151
58167
58221
58215
58223
58204
58208
58199
58212
58148
58202
58151
58199
58198
58186
58172
58195
58184
58175
58175
58159
58171
58165
58150
58100
58150
58150
58144
58148
58148
58143
58126
58143
58143
58136
58119
58058
58092
58119
58119
58111
58103
58101
58013
58100
58076
58084
58087
58007
58090
58040
58084
57999
58077
58079
58065
58004
58047
58063
58047
58040
58043
58036
58036
57947
58013
58023
58015
58015
58015
58015
57953
58020
58013
58007
57999
57991
57959
57990
57980
57983
57967
57973
57900
57959
57957
57950
57951
57951
57863
57914
57948
57945
57938
57928
57895
57943
57916
57915
57919
57855
57908
57896
57886
57884
57871
57799
57853
57887
57877
57863
57873
57863
57782
57847
57863
57812
57860
57852
57847
57805
57839
57837
57820
57820
57812
57759
57804
57812
57817
57812
57812
57821
57751
57805
57809
57799
57799
57799
57718
57781
57775
57735
57763
57746
57753
57685
57719
57748
57751
57751
57749
57735
57668
57727
57735
57717
57711
57716
57725
57639
57703
57702
57698
57687
57604
57678
57687
57677
57679
57685
57679
57607
57687
57663
57671
57656
57652
57647
57566
57620
57644
57580
57620
57607
57607
57607
57572
57572
57602
57604
57607
57596
57596
57511
57583
57591
57581
57589
57566
57571
57567
57562
57493
57524
57542
57547
57532
57531
57526
57524
57527
57526
57535
57450
57518
57512
57511
57503
57500
57489
57478
57476
57453
57436
57462
57477
57444
57468
57469
57476
57461
57390
57460
57455
57439
57425
57436
57441
57351
57423
57417
57415
57407
57407
57388
57407
57407
57407
57391
57396
57385
57373
57386
57391
57383
57351
57374
57367
57351
57313
57351
57335
57343
57342
57327
57326
57276
57333
57319
57332
57303
57326
57325
57252
57311
57294
57298
57296
57284
57287
57284
57279
57265
57268
57266
57183
57241
57260
57247
57255
57239
57254
57204
57247
57254
57239
57151
57231
57215
57220
57204
57212
57191
57194
57148
57181
57188
57127
57183
57166
57182
57166
57095
57158
57167
57167
57153
57150
57150
57143
57133
57057
57124
57116
57117
57114
57108
57031
57060
57103
57095
57084
57092
57095
57086
57012
57077
57087
57069
57055
57063
57052
56999
57044
57037
56992
57029
57030
57028
57028
57026
56951
56996
57010
57020
57013
57007
57005
56988
56997
56996
56989
56896
56967
56967
56966
56940
56964
56967
56957
56956
56884
56949
56956
56943
56955
56925
56909
56929
56931
56916
56903
56924
56837
56903
56900
56892
56887
56887
56862
56879
56857
56870
56864
56836
56839
56839
56839
56820
56814
56788
56812
56811
56810
56806
56819
56816
56812
56828
56830
56838
56833
56782
56823
56839
56828
56822
56812
56815
56799
56735
56763
56791
56788
56787
56756
56772
56781
56769
56770
56766
56693
56748
56757
56746
56746
56750
56743
56711
56735
56727
56726
56711
56703
56671
56711
56679
56708
56701
56615
56702
56701
56693
56695
56695
56683
56679
56621
56660
56660
56583
56662
56646
56647
56653
56564
56636
56636
56634
56626
56634
56575
56622
56623
56619
56619
56567
56615
56606
56583
56588
56583
56496
56560
56580
56582
56521
56575
56572
56572
56501
56513
56558
56564
56566
56551
56560
56558
56543
56509
56540
56524
56530
56517
56519
56525
56516
56514
56485
56522
56519
56516
56519
56517
56511
56511
56455
56469
56487
56485
56478
56474
56446
56468
56455
56472
56468
56417
56455
56455
56469
56455
56463
56467
56455
56454
56396
56388
56422
56422
56421
56431
56415
56423
56417
56422
56413
56370
56415
56408
56398
56421
56404
56397
56414
56414
56405
56391
56403
56399
56380
56327
56391
56383
56383
56372
56373
56359
56367
56375
56375
56368
56380
56382
56380
56358
56367
56359
56292
56295
56301
56284
56263
56252
56294
56284
56327
56327
56340
56327
56327
56325
56327
56327
56327
56327
56327
56327
56250
56276
56302
56303
56316
56290
56287
56303
56298
56295
56298
56297
56247
56289
56255
56223
56239
56263
56289
56286
56285
56277
56281
56271
56271
56271
56194
56268
56274
56277
56275
56276
56276
56271
56265
56271
56199
56207
56267
56270
56262
56277
56263
56255
56244
56247
56245
56245
56255
56255
56199
56193
56245
56255
56247
56268
56261
56247
56255
56244
56255
56247
56231
56244
56239
56236
56234
56236
56242
56247
56214
56168
56197
56245
56255
56255
56245
56199
56243
56239
56245
56236
56236
56238
56230
56199
56244
56239
56223
56237
56246
56196
56239
56248
56244
56250
56241
56247
56239
56252
56189
56246
56255
56237
56244
56223
56167
56231
56236
56247
56230
56246
56255
56180
56186
56207
56247
56252
56255
56261
56239
56228
56244
56240
56233
56247
56175
56248
56255
56247
56252
56215
56266
56252
56262
56263
56247
56245
56247
56260
56269
56257
56263
56249
56253
56255
56263
56262
56260
56193
56231
56271
56275
56276
56279
56284
56285
56287
56292
56273
56277
56247
56224
56260
56282
56276
56287
56276
56288
56292
56295
56295
56303
56298
56228
56247
56309
56308
56324
56315
56301
56294
56303
56308
56308
56310
56234
56293
56311
56324
56324
56327
56327
56327
56356
56351
56327
56294
56351
56366
56327
56359
56350
56359
56351
56279
56316
56358
56383
56366
56367
56382
56378
56317
56354
56391
56388
56390
56389
56396
56388
56406
56407
56405
56399
56341
56391
56401
56408
56412
56423
56415
56416
56428
56436
56447
56441
56453
56446
56375
56407
56437
56446
56447
56455
56453
56442
56455
56463
56455
56476
56464
56404
56469
56484
56484
56500
56508
56492
56500
56503
56503
56500
56433
56463
56455
56503
56511
56519
56516
56529
56532
56541
56532
56533
56551
56543
56556
56559
56561
56567
56567
56495
56500
56524
56558
56575
56574
56583
56583
56583
56591
56577
56533
56615
56607
56624
56618
56632
56622
56620
56623
56634
56635
56620
56606
56645
56655
56647
56665
56620
56604
56679
56687
56692
56679
56684
56693
56689
56635
56630
56689
56705
56700
56711
56711
56700
56711
56727
56718
56735
56732
56687
56684
56726
56736
56728
56735
56726
56732
56735
56734
56756
56724
56759
56759
56781
56788
56797
56800
56772
56831
56836
56862
56854
56854
56869
56871
56868
56868
56791
56887
56884
56871
56870
56874
56884
56903
56903
56807
56839
56876
56916
56935
56923
56940
56943
56940
56868
56943
56956
56947
56940
56956
56967
56903
56958
56967
56978
56980
56988
56935
56967
56999
57006
57005
57020
56997
57027
57028
56999
57031
57039
57052
57030
57039
57044
56966
56980
57063
57063
57076
57072
57082
57084
57092
57023
57095
57108
57084
57116
57123
57106
57117
57037
57127
57127
57133
57140
57137
57149
57146
57156
57170
57085
57141
57182
57189
57188
57193
57189
57194
57105
57181
57202
57212
57215
57214
57218
57213
57233
57231
57247
57152
57257
57258
57254
57271
57189
57255
57274
57269
57287
57279
57287
57247
57291
57309
57314
57302
57316
57319
57327
57276
57334
57347
57334
57351
57350
57351
57311
57348
57351
57351
57351
57364
57316
57381
57383
57391
57400
57399
57382
57403
57411
57421
57421
57431
57439
57436
57351
57408
57455
57436
57447
57447
57453
57452
57460
57460
57415
57443
57479
57500
57502
57502
57500
57509
57438
57519
57516
57518
57518
57519
57506
57469
57534
57530
57519
57539
57543
57559
57564
57478
57559
57571
57583
57584
57577
57535
57506
57494
57585
57597
57591
57599
57511
57553
57607
57620
57607
57607
57569
57631
57638
57632
57637
57644
57650
57644
57596
57649
57660
57652
57660
57655
57655
57658
57668
57668
57600
57648
57684
57686
57694
57693
57708
57716
57709
57703
57700
57716
57710
57708
57635
57701
57714
57726
57719
57735
57655
57708
57735
57757
57755
57760
57765
57767
57698
57775
57767
57767
57767
57770
57684
57781
57772
57780
57791
57780
57759
57764
57814
57802
57777
57801
57812
57829
57748
57820
57820
57780
57823
57812
57831
57780
57837
57829
57847
57833
57841
57807
57863
57863
57863
57846
57855
57862
57863
57863
57863
57863
57808
57863
57884
57863
57863
57884
57892
57891
57903
57831
57901
57909
57910
57911
57916
57926
57863
57914
57925
57919
57922
57914
57839
57924
57914
57927
57926
57852
57932
57928
57951
57943
57910
57956
57953
57958
57863
57967
57959
57944
57953
57879
57959
57948
57957
57959
57959
57969
57973
57975
57983
57911
57975
57983
57991
57991
57989
57980
57991
57988
57964
57991
57924
57988
57983
57991
57988
57948
57998
57983
57999
57999
57940
58023
58031
58014
58014
57944
58014
58031
58018
58016
58021
57997
58020
58020
58023
58028
57937
58015
58038
58039
58022
58036
58052
58031
58046
58039
58046
58051
58028
58041
58052
58038
58052
58055
57985
58046
58047
58051
58049
58055
58052
58062
58069
58031
58063
58077
58049
58062
58062
58055
58055
58055
58054
57991
58071
58068
58060
58063
58071
57991
58076
58079
58077
58071
58084
58046
58020
58060
58072
58071
58078
58066
58070
58077
58067
57991
58060
58079
58087
58063
58078
58076
58023
58077
58072
58078
58068
58079
58013
58066
58076
58070
58071
58069
58068
58004
58071
58076
58076
58060
58087
58071
58076
58079
58063
58076
58077
57991
58047
58070
58071
58063
58071
58071
58008
58071
58063
58071
57999
58079
58071
58086
58078
58071
58077
58071
58080
57991
58061
58063
58055
58061
58054
58051
58063
58062
58006
57991
57991
58062
58063
58068
58069
58071
58063
58063
57972
58012
58047
58063
58055
58047
58044
58044
58032
58039
58050
58041
57979
58016
58047
58040
58036
58052
58044
58039
58039
58015
58020
58019
58020
57978
58022
58020
58027
58023
58028
58051
58040
58031
58048
58044
58049
57986
58055
58052
58044
58049
58039
58028
58021
58023
58031
57980
57967
58031
58037
58022
58022
58023
58009
58023
58015
57941
58020
58014
58021
58015
58004
57991
57996
57935
57971
57991
57988
57991
57991
57991
57991
57990
57991
57991
57991
57991
57908
57924
57983
57991
57980
57977
57972
57975
57890
57967
57903
57967
57980
57882
57903
57966
57966
57967
57967
57967
57967
57954
57958
57863
57863
57879
57891
57925
57943
57943
57912
57942
57931
57860
57919
57926
57860
57925
57930
57935
57924
57925
57919
57924
57914
57908
57911
57909
57911
57906
57814
57879
57903
57908
57908
57893
57899
57909
57895
57812
57823
57889
57882
57882
57887
57863
57863
57820
57862
57863
57814
57859
57852
57847
57796
57790
57863
57863
57855
57863
57855
57854
57844
57844
57770
57835
57837
57820
57822
57823
57829
57758
57836
57831
57814
57815
57831
57837
57768
57823
57823
57807
57812
57802
57726
57791
57796
57804
57788
57788
57781
57716
57783
57796
57780
57783
57748
57788
57775
57779
57775
57723
57767
57759
57751
57745
57759
57735
57741
57735
57735
57746
57716
57735
57702
57734
57735
57733
57647
57733
57732
57716
57717
57652
57709
57711
57692
57700
57695
57617
57661
57690
57689
57687
57687
57692
57684
57684
57684
57676
57671
57645
57687
57660
57655
57660
57655
57655
57639
57575
57639
57639
57637
57639
57636
57620
57591
57636
57626
57623
57630
57636
57621
57548
57606
57607
57580
57596
57599
57583
57588
57596
57597
57580
57511
57543
57596
57588
57582
57572
57578
57567
57575
57514
57567
57559
57559
57538
57535
57543
57495
57527
57543
57535
57540
57532
57543
57524
57534
57524
57529
57444
57508
57515
57468
57498
57503
57495
57486
57439
57493
57479
57484
57479
57479
57466
57428
57431
57479
57470
57476
57479
57444
57463
57447
57444
57442
57420
57409
57436
57422
57434
57424
57436
57428
57343
57423
57423
57415
57407
57415
57326
57406
57404
57391
57391
57372
57379
57310
57316
57380
57367
57351
57351
57351
57351
57351
57349
57277
57348
57351
57348
57331
57327
57263
57315
57326
57327
57319
57312
57234
57294
57311
57303
57316
57311
57303
57276
57252
57284
57286
57275
57279
57279
57275
57262
57263
57255
57191
57252
57255
57188
57244
57255
57246
57172
57245
57240
57244
57244
57230
57223
57219
57223
57193
57152
57188
57207
57199
57190
57180
57190
57191
57191
57108
57162
57188
57186
57175
57188
57179
57164
57179
57151
57156
57095
57108
57149
57135
57087
57124
57124
57125
57044
57124
57133
57116
57124
57110
57117
57111
57039
57092
57095
57094
57069
57079
57079
57066
56995
57061
57063
57063
57070
57051
57047
57055
57045
57039
57037
56967
56980
57020
57031
57020
57015
57015
56956
57007
57020
57010
56976
56998
56989
56989
56991
56996
56908
56981
56983
56959
56967
56967
56964
56949
56945
56909
56936
56942
56938
56932
56910
56919
56919
56903
56884
56919
56916
56906
56907
56906
56897
56815
56829
56884
56879
56882
56877
56860
56839
56863
56839
56839
56767
56815
56839
56839
56836
56836
56839
56839
56820
56823
56806
56815
56798
56806
56797
56799
56794
56783
56775
56775
56783
56772
56774
56767
56775
56775
56767
56759
56751
56743
56741
56743
56734
56740
56724
56732
56727
56644
56654
56711
56703
56708
56709
56711
56710
56709
56687
56686
56686
56678
56620
56615
56599
56638
56638
56636
56631
56637
56621
56625
56623
56639
56615
56631
56638
56638
56634
56627
56578
56628
56620
56613
56604
56605
56520
56550
56535
56581
56583
56583
56572
56576
56580
56571
56510
56550
56557
56558
56551
56546
56527
56468
56501
56519
56511
56519
56503
56502
56493
56479
56452
56478
56502
56500
56495
56471
56478
56482
56468
56461
56455
56447
56452
56373
56359
56391
56402
56437
56431
56415
56423
56419
56414
56412
56350
56373
56399
56401
56397
56372
56388
56383
56370
56371
56367
56359
56279
56326
56343
56351
56327
56294
56348
56316
56327
56327
56317
56326
56316
56309
56314
56300
56288
56287
56196
56223
56260
56268
56264
56270
56255
56260
56262
56253
56166
56188
56175
56199
56230
56229
56231
56230
56212
56215
56199
56199
56199
56188
56188
56177
56191
56182
56161
56138
56111
56116
56148
56167
56162
56151
56151
56147
56157
56135
56087
56124
56124
56109
56102
56119
56070
56102
56105
56105
56103
56090
56096
56031
56028
56087
56071
56068
56062
56053
56055
56039
55975
55988
56035
56036
56023
56017
56020
56022
56007
55951
55978
56012
55996
56007
55994
55988
55977
55983
55971
55972
55966
55964
55957
55957
55955
55943
55935
55943
55943
55935
55934
55863
55932
55924
55916
55911
55911
55902
55889
55881
55884
55836
55876
55875
55863
55860
55863
55791
55868
55868
55858
55853
55847
55815
55831
55828
55815
55815
55804
55728
55799
55796
55791
55789
55813
55788
55783
55783
55770
55790
55780
55719
55781
55761
55760
55748
55682
55727
55727
55719
55730
55719
55719
55709
55708
55679
55708
55708
55697
55700
55700
55687
55662
55660
55678
55671
55677
55663
55654
55644
55647
55585
55644
55628
55628
55634
55636
55631
55635
55623
55559
55614
55619
55604
55599
55590
55594
55588
55578
55495
55532
55543
55559
55559
55559
55559
55551
55551
55544
55556
55534
55471
55520
55528
55530
55517
55519
55495
55503
55502
55487
55476
55481
55397
55463
55491
55479
55478
55467
55463
55471
55462
55463
55441
55399
55359
55404
55423
55409
55413
55407
55399
55404
55405
55406
55394
55399
55388
55399
55389
55348
55380
55372
55383
55367
55356
55353
55343
55337
55340
55261
55302
55327
55316
55291
55303
55303
55303
55303
55303
55303
55280
55240
55286
55274
55268
55268
55266
55266
55223
55250
55242
55236
55236
55238
55236
55239
55235
55175
55190
55224
55228
55227
55204
55204
55162
55135
55167
55175
55172
55169
55163
55164
55162
55167
55159
55079
55166
55151
55159
55142
55060
55132
55129
55119
55119
55108
55111
55066
55099
55063
55086
55094
55086
55084
55085
55090
55070
55028
55005
55071
55076
55055
55047
54994
55032
55047
55038
55021
55024
55018
55006
55019
54983
55006
55010
54998
55007
55004
54942
54945
54983
54976
54983
54966
54961
54887
54948
54948
54940
54935
54932
54895
54919
54922
54933
54913
54916
54911
54918
54911
54905
54837
54868
54887
54884
54871
54879
54871
54871
54854
54863
54855
54855
54791
54814
54836
54846
54839
54822
54831
54743
54814
54804
54815
54791
54766
54788
54788
54775
54780
54764
54768
54736
54758
54763
54767
54750
54759
54708
54737
54743
54749
54727
54716
54711
54704
54702
54697
54695
54698
54691
54679
54679
54623
54622
54639
54660
54655
54652
54663
54671
54652
54660
54654
54647
54636
54635
54628
54575
54535
54574
54599
54607
54607
54600
54600
54606
54596
54588
54551
54585
54578
54560
54556
54535
54551
54529
54533
54480
54495
54495
54492
54486
54503
54492
54503
54503
54455
54489
54498
54492
54500
54495
54503
54484
54487
54484
54476
54405
54445
54461
54471
54454
54460
54447
54447
54447
54447
54445
54446
54382
54423
54428
54423
54412
54407
54407
54393
54318
54350
54368
54382
54380
54375
54373
54316
54375
54365
54351
54361
54356
54356
54343
54279
54327
54320
54303
54309
54311
54311
54297
54273
54247
54279
54300
54279
54273
54279
54279
54278
54277
54263
54269
54206
54212
54252
54249
54231
54231
54223
54180
54215
54214
54215
54151
54209
54212
54215
54207
54207
54198
54196
54191
54092
54111
54090
54090
54100
54119
54151
54149
54150
54143
54094
54142
54142
54127
54127
54132
54132
54123
54045
54113
54106
54110
54088
54085
54055
54084
54079
54073
54075
54068
54062
54056
54059
54069
54021
54021
54045
54052
54044
54047
54039
54020
54020
54023
54005
53930
53978
53996
53999
53991
53999
53976
53983
53972
53986
53975
53983
53971
53895
53962
53956
53959
53951
53931
53939
53892
53929
53924
53908
53919
53919
53926
53908
53924
53914
53916
53831
53869
53868
53887
53884
53882
53880
53863
53868
53868
53859
53855
53861
53852
53799
53836
53852
53845
53855
53834
53843
53838
53832
53839
53767
53802
53812
53807
53799
53788
53719
53780
53767
53764
53767
53767
53767
53702
53724
53766
53766
53759
53755
53751
53751
53735
53738
53734
53724
53654
53636
53674
53706
53700
53707
53707
53703
53703
53701
53695
53691
53687
53687
53682
53671
53668
53660
53614
53579
53598
53620
53639
53639
53631
53624
53639
53636
53624
53543
53620
53629
53631
53592
53611
53604
53599
53532
53594
53581
53583
53572
53583
53575
53566
53530
53566
53575
53566
53570
53552
53556
53548
53556
53532
53532
53471
53524
53519
53511
53511
53511
53511
53428
53495
53501
53492
53501
53493
53439
53500
53492
53478
53484
53450
53455
53461
53442
53452
53447
53388
53424
53437
53444
53436
53430
53447
53437
53436
53420
53430
53423
53347
53351
53343
53415
53407
53324
53383
53383
53383
53382
53345
53367
53367
53367
53361
53369
53365
53367
53367
53356
53356
53356
53276
53323
53332
53332
53328
53311
53316
53300
53313
53255
53311
53300
53303
53311
53300
53303
53229
53295
53295
53286
53279
53279
53278
53268
53188
53255
53252
53236
53246
53236
53245
53183
53238
53246
53238
53247
53231
53237
53219
53231
53218
53145
53191
53204
53207
53191
53188
53160
53180
53182
53177
53183
53179
53189
53178
53181
53175
53159
53172
53177
53167
53158
53166
53157
53149
53137
53127
53127
53060
53095
53122
53116
53127
53100
53119
53127
53116
53118
53041
53065
53100
53116
53089
53071
53084
53075
53079
53084
53075
53013
53063
53063
53056
53064
53057
53063
53068
53048
53049
53056
53045
52960
53015
53020
53031
53026
53013
53022
53013
52999
52999
52998
52943
52999
52999
52991
52998
52999
52992
52975
52962
52976
52974
52959
52958
52959
52948
52941
52885
52894
52900
52928
52939
52945
52935
52943
52935
52927
52932
52930
52844
52879
52901
52911
52892
52897
52891
52889
52881
52811
52871
52887
52884
52860
52887
52869
52878
52885
52871
52836
52823
52846
52852
52844
52853
52836
52829
52836
52823
52828
52831
52743
52806
52820
52800
52823
52811
52807
52819
52735
52743
52790
52788
52774
52787
52782
52774
52769
52775
52771
52695
52758
52767
52756
52764
52748
52753
52696
52734
52730
52724
52711
52708
52703
52649
52676
52661
52660
52644
52660
52663
52663
52663
52663
52671
52673
52679
52671
52687
52694
52686
52685
52684
52688
52685
52615
52652
52655
52679
52660
52655
52663
52668
52663
52663
52599
52653
52661
52647
52647
52644
52646
52633
52628
52566
52612
52628
52615
52583
52559
52548
52607
52607
52599
52615
52605
52606
52601
52549
52551
52583
52575
52577
52577
52567
52562
52559
52558
52551
52539
52500
52518
52551
52539
52549
52548
52548
52532
52538
52535
52541
52529
52524
52515
52452
52468
52453
52484
52500
52502
52487
52500
52505
52487
52487
52502
52478
52415
52463
52476
52479
52471
52463
52463
52460
52459
52454
52452
52375
52415
52438
52452
52452
52447
52443
52447
52446
52423
52391
52416
52437
52420
52413
52418
52396
52392
52407
52390
52397
52391
52398
52393
52390
52396
52315
52343
52343
52332
52359
52374
52367
52369
52365
52359
52359
52352
52341
52342
52343
52351
52359
52340
52317
52265
52325
52332
52335
52343
52324
52335
52327
52321
52308
52304
52314
52247
52254
52298
52314
52295
52295
52295
52294
52303
52284
52270
52231
52258
52279
52279
52287
52274
52275
52263
52260
52248
52255
52254
52181
52223
52231
52239
52244
52250
52231
52247
52246
52247
52231
52231
52231
52186
52215
52220
52213
52199
52207
52199
52199
52199
52203
52198
52199
52199
52196
52196
52205
52189
52191
52195
52191
52175
52170
52180
52170
52166
52165
52098
52103
52141
52135
52126
52127
52143
52133
52148
52150
52151
52150
52132
52143
52141
52127
52117
52135
52119
52116
52110
52127
52113
52125
52034
52053
52066
52065
52044
52071
52097
52095
52093
52091
52077
52087
52090
52074
52079
52072
52076
52063
52071
52072
52071
52078
52077
52076
52076
52062
52032
52038
52065
52060
52055
52043
52037
52039
52039
52028
52025
52030
52031
52036
52039
52037
52026
52027
52031
52025
52030
52023
52012
52022
52014
52008
52007
52005
52003
51996
51997
51986
51990
51988
51924
51941
51985
51969
51984
51975
51975
51972
51975
51975
51975
51932
51893
51884
51903
51906
51911
51890
51891
51898
51924
51928
51951
51951
51956
51951
51951
51951
51943
51888
51918
51931
51934
51922
51926
51927
51909
51919
51912
51919
51852
51847
51881
51910
51915
51919
51903
51914
51905
51889
51911
51893
51895
51814
51834
51836
51836
51810
51815
51844
51870
51872
51872
51868
51863
51874
51873
51872
51858
51852
51853
51847
51847
51847
51847
51834
51815
51767
51782
51774
51836
51842
51833
51844
51831
51839
51842
51760
51828
51828
51801
51820
51814
51815
51751
51800
51809
51801
51801
51800
51803
51791
51799
51811
51807
51807
51807
51735
51719
51771
51783
51777
51774
51776
51775
51776
51774
51772
51764
51772
51711
51756
51719
51716
51714
51719
51708
51719
51709
51757
51759
51753
51743
51754
51743
51749
51738
51738
51733
51741
51734
51719
51735
51741
51719
51743
51736
51734
51719
51733
51683
51713
51716
51711
51708
51700
51637
51676
51695
51695
51692
51697
51698
51695
51695
51703
51693
51708
51700
51692
51687
51610
51647
51679
51676
51660
51663
51658
51596
51645
51661
51659
51673
51661
51655
51663
51654
51665
51658
51662
51660
51653
51583
51631
51636
51625
51630
51631
51585
51623
51624
51628
51637
51622
51629
51620
51631
51628
51553
51588
51620
51623
51607
51602
51604
51605
51597
51590
51572
51590
51612
51602
51598
51609
51606
51529
51551
51564
51591
51588
51583
51580
51575
51573
51556
51557
51559
51550
51524
51534
51525
51520
51511
51517
51511
51500
51510
51500
51508
51511
51487
51511
51512
51516
51524
51533
51540
51532
51543
51493
51492
51500
51500
51494
51513
51511
51549
51557
51550
51548
51548
51535
51541
51534
51468
51513
51519
51526
51516
51531
51527
51526
51521
51450
51521
51519
51527
51510
51516
51511
51511
51505
51439
51439
51447
51473
51447
51479
51473
51482
51495
51476
51484
51495
51493
51495
51495
51486
51485
51487
51476
51479
51470
51463
51463
51463
51455
51460
51463
51454
51440
51412
51445
51448
51449
51453
51452
51455
51454
51420
51450
51442
51433
51428
51422
51399
51361
51364
51351
51367
51355
51430
51428
51431
51428
51431
51431
51426
51415
51401
51404
51410
51413
51396
51399
51404
51399
51391
51407
51399
51387
51396
51391
51390
51396
51392
51399
51394
51394
51394
51383
51390
51389
51383
51370
51367
51367
51367
51357
51364
51364
51370
51373
51364
51370
51366
51348
51362
51366
51364
51356
51355
51358
51354
51335
51335
51335
51320
51349
51335
51343
51344
51345
51335
51335
51335
51335
51335
51271
51292
51333
51319
51317
51317
51309
51311
51319
51316
51295
51274
51323
51310
51316
51327
51324
51319
51318
51289
51310
51308
51301
51305
51303
51297
51300
51295
51294
51284
51229
51238
51251
51278
51275
51279
51290
51288
51297
51293
51287
51283
51292
51286
51278
51266
51271
51263
51264
51271
51271
51266
51271
51268
51259
51205
51234
51263
51261
51271
51268
51265
51264
51242
51257
51263
51252
51239
51183
51175
51167
51161
51166
51188
51199
51188
51172
51205
51199
51205
51199
51234
51232
51236
51229
51231
51222
51217
51221
51226
51207
51207
51207
51207
51207
51222
51207
51228
51226
51207
51207
51207
51204
51204
51202
51196
51196
51183
51140
51124
51135
51192
51203
51185
51176
51195
51183
51151
51153
51159
51164
51156
51182
51170
51175
51177
51175
51174
51175
51164
51173
51148
51164
51122
51102
51119
51175
51180
51172
51181
51165
51164
51165
51164
51109
51092
51134
51135
51153
51140
51143
51143
51148
51146
51150
51152
51158
51151
51143
51144
51151
51146
51151
51135
51135
51126
51125
51126
51126
51110
51132
51125
51132
51127
51133
51119
51120
51136
51132
51133
51135
51116
51118
51119
51125
51119
51101
51119
51108
51111
51111
51046
51065
51092
51079
51108
51095
51108
51106
51108
51103
51102
51111
51092
51103
51087
51093
51091
51092
51086
51022
51063
51079
51079
51079
51087
51092
51094
51084
51079
51084
51021
51046
51057
51079
51069
51063
51071
51076
51060
51005
51031
51060
51068
51061
51075
51071
51068
51065
51070
51075
51064
51070
51074
51063
50989
51035
51055
51047
51055
51045
51052
51062
51049
51060
50991
51052
51055
51052
51047
51063
51052
51046
51047
50983
51028
51036
51035
51031
51047
51031
51039
51028
51036
51036
51029
51023
51008
50973
51036
51031
51031
51039
51023
51024
51017
51020
51024
51004
51015
51015
51014
51012
51012
51014
51012
51014
51022
51023
51031
51023
51014
51002
50959
50941
50958
50996
50992
50997
50997
50988
50998
50986
50989
50997
51007
50993
50992
50991
50990
50988
50988
50988
50991
50967
50976
50974
50965
50973
50965
50972
50974
50951
50951
50963
50963
50951
50979
50966
50967
50933
50951
50935
50962
50945
50948
50945
50950
50942
50951
50942
50951
50950
50943
50923
50945
50936
50944
50940
50951
50949
50948
50947
50942
50933
50938
50927
50938
50941
50933
50935
50935
50871
50868
50862
50883
50908
50919
50916
50900
50897
50888
50876
50860
50857
50838
50830
50830
50816
50828
50836
50822
50839
50839
50849
50863
50879
50887
50886
50896
50904
50916
50918
50918
50913
50908
50914
50904
50899
50902
50901
50884
50895
50901
50908
50905
50903
50911
50908
50901
50895
50839
50855
50836
50823
50821
50886
50884
50886
50894
50887
50887
50892
50883
50884
50895
50892
50895
50892
50891
50886
50886
50884
50887
50873
50871
50871
50866
50871
50865
50861
50860
50869
50855
50871
50871
50844
50871
50877
50876
50871
50873
50863
50870
50859
50855
50847
50844
50839
50849
50839
50852
50844
50854
50846
50853
50862
50852
50852
50855
50850
50852
50846
50849
50842
50839
50838
50820
50823
50830
50839
50839
50839
50832
50767
50791
50801
50836
50834
50836
50832
50831
50838
50823
50823
50823
50815
50822
50740
50771
50800
50810
50807
50821
50822
50818
50811
50823
50804
50823
50822
50823
50814
50813
50806
50807
50798
50738
50761
50804
50793
50804
50799
50807
50804
50815
50820
50740
50776
50774
50792
50797
50800
50808
50798
50789
50791
50791
50790
50788
50783
50791
50790
50799
50791
50805
50794
50798
50797
50806
50798
50793
50799
50791
50781
50775
50778
50782
50783
50767
50774
50778
50773
50783
50791
50783
50790
50791
50788
50785
50784
50778
50786
50781
50774
50775
50759
50759
50695
50766
50775
50768
50773
50760
50719
50772
50773
50764
50759
50774
50775
50778
50775
50708
50767
50758
50756
50751
50754
50748
50745
50740
50759
50764
50754
50756
50767
50764
50694
50723
50754
50759
50751
50749
50751
50750
50750
50742
50735
50738
50732
50676
50717
50729
50742
50747
50743
50751
50757
50751
50753
50749
50752
50738
50669
50711
50725
50727
50729
50727
50724
50735
50729
50722
50743
50743
50740
50735
50688
50724
50743
50735
50726
50710
50671
50678
50711
50726
50711
50716
50716
50708
50725
50719
50719
50729
50728
50718
50722
50724
50729
50694
50671
50701
50711
50695
50695
50695
50695
50649
50660
50694
50695
50695
50695
50715
50717
50718
50716
50644
50676
50695
50695
50695
50695
50692
50692
50694
50695
50695
50690
50695
50695
50695
50684
50652
50694
50695
50704
50695
50695
50695
50695
50695
50684
50695
50645
50652
50678
50692
50679
50686
50681
50686
50695
50687
50695
50694
50695
50695
50695
50695
50644
50668
50680
50679
50668
50673
50673
50669
50664
50676
50674
50676
50681
50684
50687
50616
50639
50686
50682
50681
50684
50677
50668
50679
50666
50660
50663
50663
50652
50662
50663
50660
50665
50670
50663
50671
50662
50671
50668
50671
50620
50590
50607
50612
50644
50649
50644
50649
50659
50654
50654
50654
50648
50655
50663
50660
50658
50661
50659
50655
50624
50655
50658
50652
50648
50639
50644
50647
50647
50646
50644
50652
50652
50657
50660
50652
50620
50604
50641
50647
50639
50636
50641
50644
50632
50641
50636
50644
50636
50574
50631
50639
50638
50634
50645
50661
50647
50640
50622
50648
50637
50639
50638
50636
50615
50575
50567
50574
50604
50622
50625
50631
50630
50620
50638
50580
50582
50604
50624
50638
50626
50628
50631
50620
50627
50614
50609
50620
50583
50542
50574
50606
50620
50612
50615
50622
50615
50626
50620
50627
50612
50613
50551
50599
50610
50607
50604
50600
50599
50539
50604
50599
50607
50604
50602
50609
50586
50539
50590
50593
50604
50588
50596
50593
50603
50588
50595
50584
50599
50535
50557
50561
50596
50607
50599
50598
50598
50590
50604
50590
50580
50540
50567
50567
50556
50544
50545
50542
50530
50543
50500
50540
50532
50540
50539
50540
50551
50559
50566
50566
50573
50585
50577
50580
50581
50588
50588
50582
50576
50567
50583
50572
50591
50548
50591
50596
50591
50596
50590
50584
50590
50580
50527
50537
50567
50559
50567
50572
50573
50572
50575
50567
50500
50567
50574
50585
50575
50574
50543
50557
50575
50551
50575
50564
50558
50492
50511
50551
50562
50564
50567
50560
50567
50559
50567
50567
50504
50559
50557
50566
50554
50559
50561
50476
50526
50551
50551
50558
50541
50548
50479
50554
50541
50548
50550
50559
50489
50556
50557
50548
50546
50550
50543
50529
50478
50535
50534
50528
50525
50535
50538
50492
50538
50543
50542
50552
50543
50550
50549
50525
50500
50518
50537
50528
50535
50524
50527
50524
50526
50535
50535
50468
50482
50523
50526
50532
50484
50533
50540
50540
50535
50527
50525
50529
50519
50458
50482
50496
50502
50519
50523
50519
50519
50523
50524
50479
50527
50527
50519
50535
50487
50517
50458
50466
50507
50500
50506
50500
50516
50516
50507
50497
50508
50513
50511
50527
50517
50514
50516
50531
50517
50439
50486
50499
50498
50501
50503
50496
50511
50503
50494
50511
50503
50454
50477
50496
50517
50519
50516
50513
50511
50503
50500
50511
50428
50476
50494
50497
50496
50503
50503
50495
50428
50452
50503
50503
50514
50511
50516
50511
50438
50497
50494
50503
50488
50493
50487
50481
50486
50486
50500
50500
50488
50439
50500
50494
50495
50503
50506
50495
50472
50488
50495
50498
50495
50498
50453
50495
50485
50497
50482
50491
50495
50431
50447
50492
50507
50508
50431
50490
50500
50486
50488
50492
50434
50486
50493
50484
50498
50482
50468
50491
50484
50494
50499
50495
50502
50439
50502
50492
50503
50500
50503
50439
50487
50492
50473
50484
50492
50484
50439
50479
50494
50498
50495
50437
50497
50494
50503
50498
50505
50463
50499
50489
50502
50415
50460
50439
50492
50485
50494
50490
50495
50495
50498
50488
50431
50495
50492
50497
50503
50429
50494
50488
50482
50481
50481
50414
50485
50480
50479
50494
50494
50421
50494
50495
50498
50501
50500
50476
50501
50501
50487
50496
50439
50476
50486
50499
50487
50418
50468
50500
50492
50497
50500
50436
50496
50503
50500
50439
50494
50493
50502
50490
50422
50480
50487
50487
50494
50439
50499
50490
50498
50439
50487
50503
50503
50500
50429
50497
50503
50497
50439
50482
50480
50491
50486
50495
50421
50492
50490
50491
50494
50503
50460
50501
50500
50502
50503
50468
50502
50500
50504
50503
50429
50492
50492
50498
50495
50431
50477
50494
50495
50505
50502
50497
50500
50508
50518
50506
50470
50503
50500
50506
50495
50503
50500
50496
50492
50501
50503
50502
50516
50503
50519
50513
50517
50527
50524
50510
50462
50517
50502
50502
50500
50503
50506
50503
50517
50507
50497
50488
50500
50504
50509
50508
50508
50511
50487
50500
50516
50502
50495
50501
50492
50500
50503
50468
50495
50490
50503
50500
50500
50509
50431
50479
50508
50503
50509
50508
50503
50502
50436
50492
50493
50495
50484
50493
50492
50463
50485
50493
50501
50498
50503
50503
50502
50510
50502
50503
50495
50500
50503
50417
50425
50437
50433
50462
50481
50484
50480
50488
50486
50500
50500
50502
50426
50490
50511
50494
50500
50494
50491
50488
50425
50476
50481
50491
50481
50494
50495
50485
50501
50490
50486
50488
50484
50486
50484
50449
50471
50460
50469
50452
50452
50434
50439
50453
50446
50455
50463
50474
50475
50484
50455
50488
50493
50494
50502
50510
50517
50517
50428
50428
50439
50455
50495
50484
50501
50493
50486
50498
50510
50500
50510
50435
50454
50468
50505
50499
50503
50500
50495
50487
50487
50488
50486
50486
50490
50500
50490
50496
50494
50494
50500
50439
50498
50487
50494
50500
50495
50487
50485
50490
50484
50499
50486
50487
50487
50492
50490
50479
50488
50452
50430
50454
50498
50503
50500
50503
50491
50502
50485
50499
50487
50487
50492
50493
50439
50445
50479
50489
50487
50493
50492
50492
50492
50492
50493
50453
50439
50462
50490
50485
50495
50476
50479
50478
50470
50478
50484
50484
50487
50489
50479
50500
50499
50428
50413
50422
50439
50488
50486
50484
50485
50480
50438
50406
50412
50410
50412
50439
50464
50468
50447
50471
50431
50449
50435
50462
50484
50479
50462
50477
50460
50465
50470
50468
50468
50460
50471
50473
50476
50476
50479
50479
50487
50400
50479
50477
50483
50476
50471
50484
50468
50460
50458
50460
50453
50407
50439
50466
50471
50474
50476
50478
50474
50484
50484
50476
50490
50486
50479
50423
50423
50454
50453
50464
50468
50469
50478
50471
50471
50476
50471
50407
50476
50472
50485
50484
50480
50479
50471
50399
50428
50458
50460
50456
50454
50471
50465
50398
50423
50439
50449
50468
50469
50479
50472
50471
50481
50476
50479
50468
50400
50417
50463
50453
50458
50452
50460
50463
50465
50463
50477
50460
50479
50473
50479
50483
50408
50463
50456
50460
50470
50463
50462
50463
50391
50389
50460
50454
50463
50462
50475
50466
50477
50398
50439
50464
50471
50472
50467
50468
50390
50463
50457
50464
50453
50455
50463
50404
50422
50453
50470
50460
50468
50460
50478
50470
50471
50465
50439
50377
50458
50447
50460
50444
50439
50452
50455
50446
50454
50458
50468
50468
50468
50465
50468
50390
50460
50460
50463
50454
50439
50448
50439
50447
50449
50407
50453
50448
50439
50444
50453
50468
50468
50469
50463
50454
50467
50462
50468
50448
50447
50374
50374
50415
50439
50439
50453
50436
50439
50436
50423
50380
50391
50410
50429
50439
50439
50450
50439
50439
50429
50436
50439
50438
50439
50432
50439
50439
50439
50457
50444
50455
50452
50439
50439
50422
50383
50418
50415
50439
50438
50434
50408
50429
50435
50432
50431
50388
50431
50431
50438
50453
50448
50455
50444
50423
50380
50439
50434
50439
50437
50426
50431
50359
50426
50426
50429
50431
50383
50429
50439
50439
50439
50439
50381
50439
50439
50439
50439
50436
50431
50404
50360
50412
50426
50409
50416
50429
50430
50439
50416
50431
50436
50439
50439
50439
50364
50420
50437
50421
50420
50420
50423
50420
50426
50417
50359
50415
50423
50426
50423
50420
50435
50421
50437
50421
50428
50428
50428
50428
50423
50383
50369
50389
50404
50415
50408
50420
50422
50413
50430
50424
50426
50422
50377
50364
50386
50415
50412
50407
50406
50404
50404
50402
50402
50406
50407
50407
50410
50415
50413
50402
50407
50359
50413
50423
50415
50413
50413
50411
50407
50405
50398
50398
50402
50348
50372
50407
50408
50398
50401
50412
50409
50406
50405
50356
50407
50390
50398
50391
50399
50406
50390
50394
50394
50402
50387
50375
50402
50390
50396
50407
50402
50413
50415
50406
50415
50399
50383
50333
50348
50390
50386
50377
50381
50378
50388
50378
50382
50372
50332
50360
50354
50353
50344
50344
50340
50353
50351
50348
50349
50351
50326
50335
50351
50359
50340
50374
50367
50378
50391
50399
50407
50407
50398
50407
50401
50403
50388
50393
50388
50394
50400
50379
50399
50397
50396
50391
50380
50388
50401
50402
50397
50395
50407
50407
50406
50399
50335
50327
50362
50372
50375
50392
50383
50386
50388
50391
50386
50389
50398
50389
50396
50397
50394
50395
50399
50391
50384
50388
50382
50376
50373
50352
50343
50319
50317
50317
50380
50372
50377
50388
50390
50390
50391
50392
50383
50388
50391
50382
50380
50387
50380
50380
50391
50374
50377
50380
50311
50359
50380
50382
50388
50382
50391
50397
50391
50394
50372
50340
50382
50375
50384
50380
50387
50378
50372
50385
50374
50344
50356
50388
50395
50396
50388
50394
50383
50396
50391
50395
50311
50345
50376
50380
50383
50380
50388
50380
50375
50396
50383
50396
50404
50404
50403
50398
50398
50396
50332
50342
50397
50384
50380
50383
50389
50388
50317
50325
50364
50388
50392
50406
50407
50407
50404
50420
50412
50406
50342
50357
50389
50393
50404
50404
50396
50406
50403
50398
50401
50423
50415
50340
50378
50404
50427
50430
50427
50428
50429
50415
50415
50420
50412
50403
50342
50402
50414
50415
50407
50418
50420
50424
50388
50414
50426
50437
50434
50428
50430
50351
50388
50420
50424
50407
50421
50420
50430
50427
50428
50436
50398
50429
50439
50439
50439
50436
50439
50439
50439
50439
50433
50438
50439
50437
50439
50439
50375
50412
50431
50447
50460
50462
50460
50468
50458
50477
50396
50438
50462
50454
50444
50455
50448
50454
50463
50460
50463
50463
50463
50468
50468
50472
50495
50484
50489
50492
50483
50487
50486
50484
50480
50490
50484
50484
50492
50489
50495
50428
50439
50500
50509
50500
50515
50518
50512
50514
50516
50513
50508
50513
50508
50439
50506
50511
50500
50505
50516
50517
50524
50519
50454
50511
50535
50535
50540
50538
50534
50551
50535
50487
50535
50541
50532
50535
50543
50553
50543
50553
50559
50487
50543
50562
50567
50567
50554
50561
50562
50556
50567
50563
50566
50564
50567
50574
50567
50575
50566
50567
50525
50562
50592
50599
50596
50596
50609
50613
50607
50598
50606
50602
50525
50554
50561
50596
50590
50599
50601
50600
50620
50613
50612
50629
50567
50613
50626
50631
50633
50636
50628
50639
50625
50630
50551
50591
50630
50636
50631
50643
50652
50652
50652
50658
50663
50607
50670
50663
50662
50669
50670
50665
50671
50673
50678
50599
50620
50668
50691
50679
50693
50693
50692
50692
50658
50695
50715
50695
50695
50695
50657
50687
50692
50704
50695
50695
50695
50708
50668
50657
50648
50669
50662
50668
50670
50684
50719
50750
50724
50695
50670
50692
50716
50741
50739
50740
50740
50750
50750
50743
50752
50759
50761
50780
50775
50783
50782
50775
50780
50786
50775
50783
50782
50713
50767
50769
50783
50788
50788
50788
50796
50804
50807
50805
50819
50818
50780
50823
50823
50823
50815
50815
50823
50817
50746
50798
50820
50813
50823
50820
50833
50838
50837
50772
50804
50843
50837
50846
50855
50834
50855
50846
50847
50847
50847
50863
50855
50791
50823
50860
50868
50858
50871
50872
50878
50886
50887
50890
50895
50901
50895
50901
50892
50900
50895
50904
50879
50830
50853
50911
50910
50911
50927
50915
50906
50924
50932
50940
50932
50895
50916
50919
50908
50908
50924
50902
50892
50893
50891
50887
50890
50896
50888
50913
50919
50924
50910
50943
50950
50951
50948
50967
50974
50983
50991
50996
51002
50996
51000
50959
50964
50980
50987
51028
50968
51009
51039
51034
51031
51036
51043
51036
50999
50999
51014
51035
51005
51004
51026
51039
51051
51048
51053
51061
51055
51071
51063
51071
51068
51068
51068
51068
51068
51060
51057
51066
51064
51071
51070
51071
51079
51079
51078
51018
51042
51039
51101
51092
51108
51103
51100
51100
51086
51095
51087
51092
51100
51103
51101
51110
51030
51039
51036
51070
51111
51127
51055
51055
51046
51059
51119
51055
51055
51092
51084
51102
51117
51119
51127
51116
51139
51132
51136
51141
51140
51147
51148
51152
51148
51156
51152
51148
51150
51147
51143
51070
51085
51100
51127
51094
51084
51116
51126
51132
51139
51159
51163
51167
51173
51177
51183
51093
51167
51168
51158
51175
51164
51180
51172
51173
51183
51183
51140
51118
51129
51164
51143
51174
51204
51194
51204
51184
51197
51183
51198
51140
51189
51199
51184
51191
51198
51199
51207
51207
51128
51207
51207
51207
51217
51207
51207
51207
51207
51207
51207
51207
51207
51204
51207
51207
51148
51146
51175
51175
51200
51196
51183
51188
51204
51224
51230
51228
51236
51228
51230
51232
51227
51207
51233
51241
51239
51244
51242
51175
51181
51185
51197
51207
51175
51230
51236
51238
51240
51239
51244
51242
51237
51246
51238
51244
51252
51252
51256
51254
51218
51249
51256
51256
51260
51260
51265
51258
51251
51255
51259
51254
51253
51258
51259
51237
51189
51199
51231
51270
51275
51283
51276
51278
51287
51270
51271
51280
51268
51268
51266
51262
51191
51202
51196
51244
51268
51270
51277
51284
51284
51268
51295
51280
51284
51250
51243
51284
51276
51276
51273
51273
51278
51279
51268
51287
51283
51300
51285
51295
51262
51226
51267
51302
51302
51307
51295
51299
51288
51285
51292
51295
51286
51300
51291
51231
51282
51293
51298
51300
51308
51300
51311
51311
51318
51306
51313
51304
51311
51294
51290
51300
51291
51292
51303
51302
51302
51296
51308
51308
51315
51319
51319
51316
51327
51319
51325
51313
51310
51311
51313
51311
51309
51306
51313
51316
51311
51312
51308
51322
51325
51327
51335
51325
51323
51329
51327
51319
51319
51317
51308
51307
51311
51246
51271
51303
51305
51309
51329
51311
51317
51316
51324
51327
51324
51325
51326
51310
51319
51317
51313
51316
51318
51305
51325
51318
51310
51332
51324
51306
51319
51286
51281
51274
51271
51322
51327
51318
51313
51252
51253
51254
51271
51301
51294
51310
51321
51318
51327
51329
51324
51334
51324
51333
51332
51325
51332
51332
51327
51310
51327
51316
51267
51244
51258
51265
51314
51321
51320
51334
51331
51335
51328
51335
51300
51262
51269
51308
51317
51316
51310
51316
51311
51308
51310
51309
51312
51327
51310
51312
51328
51327
51335
51333
51319
51325
51316
51323
51310
51319
51308
51296
51309
51302
51300
51308
51321
51308
51308
51316
51316
51293
51317
51281
51247
51268
51279
51296
51295
51300
51295
51296
51303
51287
51293
51279
51296
51297
51305
51300
51310
51303
51305
51311
51303
51303
51292
51292
51275
51266
51287
51287
51285
51282
51287
51279
51276
51294
51284
51298
51292
51298
51284
51303
51292
51299
51273
51295
51279
51284
51271
51207
51207
51268
51271
51270
51277
51261
51268
51278
51266
51277
51254
51244
51242
51206
51223
51204
51204
51196
51188
51178
51181
51189
51196
51193
51196
51207
51207
51225
51247
51254
51260
51264
51229
51268
51272
51276
51283
51277
51285
51270
51271
51191
51262
51271
51274
51277
51275
51273
51286
51273
51223
51201
51220
51238
51237
51271
51255
51265
51263
51260
51254
51252
51262
51260
51257
51188
51244
51260
51261
51258
51263
51257
51259
51260
51178
51205
51226
51236
51237
51244
51244
51228
51207
51242
51230
51238
51207
51202
51245
51236
51244
51244
51252
51242
51177
51167
51236
51228
51228
51223
51228
51207
51207
51227
51226
51155
51199
51220
51223
51204
51212
51228
51223
51174
51207
51223
51207
51206
51205
51187
51180
51205
51205
51202
51203
51207
51204
51207
51207
51207
51146
51205
51206
51186
51204
51207
51206
51151
51196
51199
51175
51191
51183
51195
51188
51199
51178
51191
51199
51207
51199
51194
51183
51196
51127
51148
51162
51151
51183
51176
51181
51183
51172
51175
51166
51178
51183
51175
51186
51116
51119
51141
51150
51175
51169
51168
51159
51156
51158
51164
51147
51150
51149
51156
51156
51154
51166
51152
51159
51164
51165
51158
51164
51159
51159
51140
51151
51143
51141
51148
51138
51147
51143
51137
51135
51124
51073
51096
51085
51135
51141
51142
51146
51140
51138
51135
51118
51124
51132
51124
51114
51116
51121
51116
51113
51119
51126
51118
51132
51079
51087
51116
51112
51127
51103
51125
51119
51103
51111
51100
51103
51103
51103
51111
51100
51100
51100
51108
51094
51119
51107
51109
51103
51108
51107
51103
51093
51097
51091
51085
51079
51087
51079
51078
51078
51087
51087
51023
51055
51084
51092
51084
51100
51079
51079
51077
51063
51068
51078
51065
51063
51060
51060
51068
51065
51068
51062
51070
51076
51064
51063
51071
51001
50996
51012
51056
51047
51058
51045
51044
51042
51040
51047
51047
51046
51055
51038
50980
51051
51047
51050
51036
51052
51055
51046
51038
50968
51023
51031
51015
51020
51021
51020
51015
51015
50961
51012
51020
51023
51029
51028
51027
51014
51022
51023
50975
51011
50997
51007
51002
50999
50938
50983
50996
51006
50999
50992
50994
51007
50998
50940
50999
50991
50996
50989
50991
50919
50975
50967
50966
50968
50948
50906
50965
50960
50961
50972
50974
50974
50967
50905
50967
50958
50964
50967
50948
50951
50948
50932
50948
50870
50924
50932
50948
50947
50938
50935
50930
50873
50892
50924
50949
50948
50939
50932
50932
50919
50924
50916
50922
50895
50911
50919
50855
50868
50837
50850
50854
50870
50884
50874
50887
50911
50901
50910
50895
50884
50887
50880
50887
50879
50882
50886
50823
50869
50879
50879
50875
50871
50884
50878
50807
50858
50868
50857
50855
50855
50860
50783
50838
50836
50836
50841
50832
50829
50839
50838
50794
50801
50824
50839
50831
50833
50828
50829
50815
50823
50799
50742
50798
50791
50791
50791
50791
50791
50791
50791
50790
50788
50788
50790
50788
50791
50791
50772
50767
50759
50774
50759
50758
50744
50745
50751
50742
50680
50679
50695
50743
50735
50748
50743
50743
50743
50732
50735
50724
50686
50706
50632
50663
50695
50695
50676
50695
50684
50695
50687
50695
50695
50616
50669
50662
50678
50676
50678
50661
50660
50663
50655
50660
50644
50644
50647
50579
50639
50572
50584
50639
50606
50631
50628
50628
50628
50626
50615
50612
50604
50563
50585
50582
50590
50567
50566
50575
50560
50552
50556
50544
50532
50540
50524
50519
50512
50492
50502
50500
50499
50496
50499
50498
50500
50498
50505
50470
50496
50512
50516
50519
50534
50538
50527
50524
50525
50522
50508
50511
50503
50503
50490
50488
50493
50409
50416
50438
50460
50437
50407
50468
50469
50466
50460
50460
50467
50454
50439
50433
50429
50431
50417
50423
50414
50411
50343
50343
50393
50404
50394
50390
50396
50393
50399
50388
50382
50388
50388
50372
50359
50374
50357
50356
50343
50278
50308
50327
50340
50333
50335
50324
50316
50324
50319
50311
50311
50293
50303
50292
50284
50279
50288
50287
50268
50183
50215
50221
50263
50257
50255
50244
50249
50247
50251
50245
50238
50229
50228
50215
50215
50220
50211
50188
50183
50150
50122
50143
50168
50179
50176
50167
50183
50172
50174
50159
50164
50152
50155
50129
50138
50141
50124
50118
50116
50111
50042
50073
50028
50054
50089
50092
50092
50092
50078
50092
50092
50084
50071
50057
50048
50055
50047
50046
50039
49981
49978
50015
50020
50012
50018
50015
50015
50013
49937
49964
49997
49998
49991
49980
49980
49980
49964
49892
49892
49938
49945
49942
49927
49920
49927
49927
49920
49927
49927
49911
49911
49911
49904
49895
49892
49886
49864
49878
49860
49865
49847
49863
49854
49845
49839
49832
49840
49837
49831
49829
49759
49772
49773
49749
49735
49724
49741
49751
49767
49740
49752
49737
49758
49754
49748
49766
49756
49751
49745
49749
49740
49703
49655
49685
49663
49702
49687
49700
49687
49671
49671
49668
49671
49671
49592
49591
49652
49654
49647
49652
49650
49644
49636
49627
49557
49604
49607
49604
49594
49591
49575
49583
49583
49580
49575
49569
49580
49567
49562
49562
49567
49549
49541
49535
49535
49535
49532
49519
49511
49511
49503
49500
49486
49495
49483
49488
49486
49468
49483
49473
49476
49468
49460
49455
49442
49438
49434
49395
49351
49347
49399
49404
49403
49399
49396
49391
49398
49407
49384
49385
49383
49372
49375
49350
49351
49350
49341
49330
49327
49321
49316
49314
49323
49308
49300
49303
49255
49238
49268
49261
49278
49277
49268
49265
49261
49247
49236
49236
49239
49235
49236
49226
49223
49180
49174
49206
49206
49198
49212
49202
49191
49191
49123
49159
49159
49157
49145
49148
49125
49135
49132
49120
49132
49119
49126
49121
49105
49076
49086
49107
49098
49089
49087
49081
49084
49069
49063
48980
49006
49030
49031
49031
49028
49023
49020
49023
49020
49023
49007
48978
48948
48942
48941
48980
48972
48977
48966
48964
48958
48956
48948
48948
48948
48940
48934
48941
48932
48927
48932
48924
48932
48845
48871
48860
48876
48879
48876
48866
48859
48860
48855
48863
48855
48845
48846
48837
48840
48836
48839
48830
48823
48780
48815
48811
48802
48801
48778
48775
48770
48770
48770
48764
48762
48757
48751
48735
48748
48744
48746
48735
48733
48717
48660
48678
48694
48692
48695
48687
48679
48674
48673
48677
48668
48665
48647
48661
48647
48644
48582
48631
48633
48624
48620
48612
48597
48596
48588
48599
48583
48580
48575
48579
48565
48575
48565
48561
48550
48561
48516
48492
48527
48516
48519
48516
48500
48502
48503
48486
48485
48476
48476
48471
48479
48456
48471
48463
48462
48422
48445
48444
48447
48437
48424
48421
48422
48412
48413
48399
48400
48388
48327
48356
48372
48375
48364
48367
48364
48356
48350
48356
48351
48335
48334
48324
48300
48286
48280
48271
48215
48235
48231
48218
48220
48223
48228
48222
48250
48231
48231
48231
48231
48236
48236
48228
48172
48186
48187
48209
48199
48225
48200
48204
48199
48192
48191
48199
48194
48181
48177
48172
48175
48181
48163
48159
48135
48135
48135
48132
48124
48127
48112
48096
48039
48058
48060
48087
48085
48085
48085
48087
48071
48071
48056
48066
48057
48047
48032
48028
48034
48030
47975
48007
48007
48004
47999
48007
48003
48005
47998
47997
47988
47992
47983
47969
47957
47895
47896
47925
47932
47935
47928
47918
47919
47902
47911
47862
47879
47868
47908
47911
47876
47839
47812
47813
47814
47839
47848
47844
47847
47836
47837
47831
47820
47821
47818
47820
47813
47773
47792
47799
47796
47791
47791
47784
47762
47781
47764
47757
47751
47751
47684
47697
47735
47735
47722
47727
47727
47724
47724
47719
47675
47675
47694
47693
47685
47684
47669
47670
47670
47665
47654
47588
47638
47631
47623
47640
47623
47623
47623
47620
47623
47615
47623
47597
47595
47588
47588
47549
47532
47561
47564
47559
47550
47552
47544
47549
47545
47546
47556
47546
47533
47534
47527
47517
47508
47495
47495
47494
47485
47484
47479
47471
47471
47463
47462
47413
47457
47457
47461
47450
47455
47444
47422
47367
47367
47364
47356
47392
47399
47389
47403
47388
47380
47377
47395
47380
47395
47375
47367
47367
47362
47359
47358
47353
47340
47332
47332
47327
47317
47323
47303
47303
47303
47295
47300
47300
47295
47289
47285
47279
47270
47271
47264
47271
47260
47254
47242
47239
47238
47238
47215
47226
47222
47220
47160
47167
47202
47215
47204
47199
47197
47190
47198
47183
47182
47161
47160
47153
47154
47154
47146
47144
47136
47143
47135
47138
47141
47141
47129
47111
47111
47111
47050
47103
47087
47092
47076
47070
47065
47059
47062
47061
47056
47055
47052
47056
47052
47046
47046
47042
47047
47048
47031
47028
47018
47012
47013
47006
47006
46997
46986
46995
46983
46983
46983
46975
46980
46907
46915
46900
46918
46904
46906
46921
46927
46928
46919
46914
46929
46919
46912
46910
46896
46892
46837
46870
46891
46901
46887
46900
46887
46879
46882
46869
46850
46788
46838
46836
46837
46823
46817
46823
46816
46816
46815
46820
46808
46823
46811
46817
46758
46743
46765
46790
46787
46772
46775
46764
46762
46767
46717
46694
46755
46745
46736
46737
46737
46751
46740
46721
46735
46726
46727
46727
46710
46713
46703
46701
46693
46700
46692
46679
46613
46613
46632
46650
46664
46655
46661
46660
46661
46653
46644
46644
46636
46647
46627
46627
46615
46614
46620
46618
46615
46599
46599
46591
46599
46599
46593
46585
46588
46587
46552
46564
46568
46567
46558
46554
46555
46530
46551
46533
46519
46535
46534
46543
46527
46533
46532
46534
46526
46525
46519
46463
46429
46465
46461
46463
46449
46465
46471
46453
46463
46471
46470
46471
46459
46461
46458
46461
46453
46445
46380
46426
46428
46412
46416
46406
46407
46407
46391
46397
46396
46327
46383
46383
46383
46386
46389
46376
46375
46368
46330
46319
46311
46324
46343
46320
46326
46316
46319
46321
46314
46319
46317
46319
46314
46310
46265
46300
46303
46300
46282
46292
46279
46276
46277
46271
46269
46213
46255
46256
46250
46241
46260
46247
46246
46248
46245
46244
46246
46239
46230
46228
46199
46153
46199
46190
46172
46120
46142
46137
46148
46148
46135
46140
46135
46140
46146
46140
46143
46140
46135
46134
46132
46134
46126
46084
46112
46132
46127
46133
46127
46125
46129
46132
46120
46125
46054
46117
46112
46105
46110
46106
46087
46087
46084
46079
46079
45997
46002
46063
46057
46050
46055
46012
45990
45983
46012
46045
46034
45988
46028
46028
46020
46017
46022
46013
45998
45995
46007
45985
45921
45977
45988
45978
45980
45983
45999
45980
45980
45974
45968
45966
45956
45943
45942
45951
45942
45940
45927
45918
45881
45866
45908
45903
45914
45917
45919
45908
45909
45916
45901
45901
45893
45892
45879
45872
45865
45797
45853
45852
45855
45855
45852
45862
45854
45845
45855
45852
45851
45843
45847
45831
45828
45820
45812
45809
45748
45767
45758
45751
45794
45783
45788
45791
45780
45783
45783
45788
45783
45779
45767
45783
45765
45750
45743
45748
45735
45735
45730
45725
45728
45730
45718
45724
45711
45718
45726
45721
45725
45717
45708
45711
45694
45696
45622
45652
45664
45645
45633
45610
45654
45662
45657
45652
45652
45652
45645
45657
45654
45652
45642
45641
45627
45635
45620
45618
45620
45616
45614
45610
45601
45604
45601
45600
45599
45603
45602
45603
45535
45538
45548
45584
45575
45572
45567
45565
45562
45555
45541
45486
45488
45507
45536
45532
45540
45533
45540
45535
45526
45526
45524
45519
45513
45518
45492
45508
45498
45493
45480
45484
45490
45487
45495
45482
45487
45479
45484
45480
45475
45476
45464
45466
45463
45452
45444
45435
45439
45386
45420
45420
45414
45420
45423
45419
45422
45431
45419
45415
45414
45415
45404
45407
45404
45402
45389
45383
45383
45385
45372
45368
45366
45367
45367
45368
45368
45372
45365
45366
45359
45362
45358
45349
45351
45350
45340
45327
45327
45318
45315
45316
45311
45311
45319
45311
45319
45310
45319
45303
45314
45306
45247
45241
45231
45239
45278
45279
45279
45268
45205
45223
45226
45252
45246
45246
45238
45236
45200
45199
45216
45206
45244
45229
45223
45222
45221
45150
45159
45175
45154
45157
45167
45191
45196
45188
45188
45190
45194
45199
45191
45188
45188
45180
45180
45166
45099
45143
45150
45148
45136
45145
45135
45135
45135
45140
45159
45126
45135
45158
45136
45141
45127
45128
45114
45110
45114
45106
45099
45099
45094
45092
45097
45093
45091
45089
45028
45062
45053
45039
45086
45079
45081
45063
45063
45063
45071
45044
45045
45046
45037
45031
45020
44996
45026
45031
45038
45048
45039
45044
45039
45026
45020
45028
45026
45018
45007
45004
44993
44999
44996
44988
44990
44985
44990
44988
44988
44987
44991
45010
45004
44978
44970
44967
44964
44960
44948
44948
44910
44885
44890
44892
44883
44884
44935
44932
44935
44936
44950
44928
44941
44935
44934
44924
44909
44911
44906
44900
44903
44897
44895
44890
44891
44895
44886
44886
44887
44887
44892
44892
44895
44879
44892
44876
44871
44868
44860
44855
44848
44850
44848
44843
44839
44838
44844
44844
44834
44836
44842
44839
44836
44843
44825
44836
44814
44802
44801
44807
44804
44801
44798
44804
44804
44804
44777
44796
44786
44783
44783
44794
44781
44778
44774
44769
44773
44764
44756
44727
44719
44692
44751
44746
44746
44751
44751
44755
44753
44757
44756
44759
44750
44746
44744
44729
44726
44723
44700
44696
44700
44691
44685
44668
44669
44655
44655
44645
44652
44647
44652
44652
44661
44655
44650
44639
44660
44654
44655
44667
44658
44672
44652
44652
44643
44660
44648
44676
44679
44669
44679
44679
44687
44670
44668
44667
44658
44660
44655
44653
44667
44647
44637
44631
44638
44637
44643
44639
44645
44644
44640
44649
44639
44610
44647
44645
44629
44628
44625
44628
44620
44629
44618
44613
44612
44612
44615
44612
44627
44627
44621
44623
44618
44614
44596
44558
44551
44576
44574
44599
44593
44586
44583
44579
44598
44604
44598
44612
44582
44606
44615
44606
44598
44599
44596
44580
44588
44588
44572
44559
44565
44522
44543
44524
44565
44576
44568
44574
44572
44574
44579
44583
44574
44568
44582
44572
44571
44562
44551
44551
44551
44551
44548
44551
44551
44551
44551
44551
44559
44551
44558
44565
44574
44564
44564
44562
44562
44551
44545
44548
44543
44550
44542
44543
44540
44550
44551
44551
44548
44568
44560
44567
44567
44570
44565
44567
44560
44551
44551
44550
44543
44551
44551
44487
44502
44545
44551
44544
44551
44551
44566
44583
44559
44570
44580
44561
44575
44564
44564
44551
44551
44551
44551
44575
44551
44551
44573
44567
44577
44583
44581
44589
44588
44595
44594
44592
44590
44580
44578
44580
44551
44524
44551
44567
44582
44580
44579
44591
44588
44598
44593
44623
44610
44615
44612
44612
44599
44604
44601
44602
44604
44581
44596
44600
44598
44604
44606
44615
44618
44625
44627
44633
44644
44629
44628
44637
44639
44637
44628
44643
44639
44647
44635
44632
44631
44647
44646
44655
44663
44663
44664
44668
44674
44623
44625
44655
44669
44671
44676
44663
44666
44670
44673
44676
44678
44679
44690
44628
44686
44703
44709
44711
44712
44727
44715
44722
44715
44708
44719
44659
44678
44719
44719
44719
44724
44727
44750
44743
44743
44742
44766
44763
44772
44773
44775
44771
44759
44772
44756
44718
44719
44754
44752
44772
44770
44780
44798
44796
44799
44802
44807
44807
44761
44780
44819
44807
44826
44807
44820
44807
44838
44829
44833
44820
44828
44855
44862
44849
44847
44860
44860
44875
44871
44871
44878
44883
44870
44825
44822
44836
44863
44876
44871
44879
44863
44872
44846
44855
44852
44887
44884
44904
44884
44906
44926
44924
44932
44935
44933
44930
44928
44951
44940
44950
44948
44962
44959
44961
44979
44988
44986
44941
44991
44956
44972
45005
45007
44999
45007
45002
45002
45013
45006
45020
45030
45023
45031
45031
45041
45056
45061
45063
45060
45076
45079
45063
45070
45076
45069
45063
45082
45079
45057
45028
45079
45078
45063
45040
45111
45125
45132
45130
45140
45143
45143
45141
45108
45085
45096
45092
45112
45092
45116
45158
45157
45164
45178
45171
45188
45188
45207
45191
45210
45206
45207
45207
45217
45206
45215
45218
45213
45218
45218
45220
45222
45231
45234
45234
45250
45248
45259
45263
45264
45273
45279
45268
45265
45280
45278
45271
45272
45287
45268
45284
45287
45295
45302
45302
45312
45318
45319
45340
45334
45340
45319
45351
45351
45355
45344
45342
45357
45340
45348
45365
45363
45360
45374
45380
45383
45391
45407
45404
45404
45399
45415
45415
45348
45380
45405
45412
45403
45407
45414
45423
45415
45439
45435
45447
45460
45460
45470
45462
45469
45464
45469
45468
45460
45470
45460
45448
45447
45442
45428
45439
45425
45431
45432
45423
45436
45432
45439
45448
45461
45482
45476
45492
45486
45495
45503
45516
45532
45535
45540
45559
45519
45565
45573
45575
45591
45597
45604
45607
45606
45612
45622
45612
45619
45607
45605
45615
45589
45552
45534
45572
45582
45599
45619
45625
45630
45637
45631
45652
45646
45650
45647
45652
45651
45636
45654
45657
45647
45644
45647
45654
45657
45663
45652
45665
45671
45676
45687
45691
45687
45701
45698
45684
45695
45686
45690
45691
45684
45678
45687
45695
45695
45695
45695
45703
45711
45708
45711
45716
45728
45730
45725
45712
45717
45716
45716
45723
45703
45719
45673
45660
45692
45726
45722
45722
45732
45735
45746
45740
45742
45746
45748
45755
45749
45735
45743
45743
45732
45743
45732
45734
45730
45735
45743
45745
45759
45756
45759
45760
45759
45714
45716
45700
45711
45687
45703
45735
45741
45703
45683
45692
45719
45692
45727
45755
45757
45764
45767
45790
45773
45764
45774
45770
45764
45758
45756
45756
45758
45763
45761
45767
45765
45766
45759
45766
45749
45733
45748
45767
45772
45782
45787
45774
45766
45768
45774
45767
45760
45764
45768
45761
45767
45703
45703
45727
45749
45776
45780
45780
45786
45771
45781
45799
45767
45764
45770
45763
45772
45767
45759
45732
45724
45689
45712
45776
45770
45784
45773
45775
45788
45786
45783
45771
45708
45739
45754
45759
45746
45761
45749
45767
45740
45751
45736
45762
45767
45763
45717
45770
45772
45774
45768
45764
45766
45755
45750
45751
45753
45756
45746
45740
45743
45745
45740
45724
45752
45758
45757
45752
45766
45763
45777
45751
45744
45741
45729
45738
45735
45703
45671
45732
45735
45735
45729
45730
45738
45734
45748
45743
45735
45736
45745
45733
45743
45730
45724
45708
45716
45719
45711
45711
45717
45716
45717
45713
45717
45713
45703
45665
45687
45700
45676
45694
45677
45699
45660
45657
45685
45679
45686
45671
45677
45681
45677
45692
45684
45695
45694
45698
45692
45697
45678
45636
45631
45662
45668
45663
45663
45649
45646
45668
45661
45655
45658
45629
45659
45652
45648
45671
45671
45671
45661
45663
45659
45646
45644
45575
45604
45625
45612
45632
45639
45618
45634
45616
45622
45631
45644
45639
45636
45639
45626
45635
45620
45618
45612
45604
45600
45596
45543
45528
45535
45526
45530
45551
45546
45567
45575
45592
45575
45571
45548
45535
45535
45553
45540
45542
45527
45539
45543
45543
45553
45551
45550
45552
45549
45550
45571
45511
45543
45544
45551
45542
45541
45508
45532
45527
45523
45519
45523
45510
45482
45476
45491
45494
45503
45511
45519
45519
45524
45513
45519
45514
45511
45494
45493
45439
45464
45472
45474
45463
45462
45461
45466
45478
45468
45483
45487
45484
45477
45412
45467
45463
45454
45447
45453
45436
45439
45437
45422
45431
45423
45412
45369
45399
45427
45418
45423
45438
45447
45444
45422
45420
45418
45407
45404
45398
45403
45381
45383
45380
45319
45358
45377
45379
45399
45375
45374
45386
45385
45380
45319
45366
45348
45351
45349
45345
45335
45341
45333
45334
45333
45278
45315
45319
45326
45328
45329
45326
45324
45336
45328
45327
45314
45310
45311
45303
45306
45295
45295
45292
45237
45225
45246
45295
45289
45295
45296
45286
45298
45287
45281
45215
45217
45259
45242
45230
45231
45220
45207
45199
45180
45180
45180
45160
45148
45147
45145
45134
45140
45137
45138
45144
45148
45144
45148
45159
45173
45164
45158
45186
45164
45181
45201
45204
45191
45193
45229
45221
45228
45234
45229
45220
45215
45210
45207
45204
45202
45183
45191
45194
45183
45141
45119
45158
45183
45183
45189
45187
45180
45175
45178
45166
45167
45166
45173
45157
45152
45155
45149
45143
45135
45137
45147
45132
45143
45148
45140
45141
45142
45137
45063
45111
45119
45116
45116
45108
45102
45104
45099
45098
45082
45100
45088
45089
45095
45091
45091
45095
45087
45095
45087
45087
45063
45076
45076
45063
45062
45052
45060
45063
45055
45055
45047
45055
45052
45057
45057
45052
45054
45062
45044
45049
45044
45042
45041
45034
45033
45028
45020
45028
45012
45006
45020
45021
45015
45020
45012
45012
45013
45012
45021
45015
45012
45003
45001
44982
44935
44959
44978
44972
44967
44973
44983
44981
44982
44981
44975
44981
44986
44983
44975
44980
44972
44973
44967
44964
44953
44956
44952
44956
44962
44911
44950
44917
44949
44959
44893
44887
44898
44908
44897
44926
44932
44919
44916
44934
44927
44912
44913
44930
44922
44924
44921
44923
44928
44931
44925
44927
44924
44930
44884
44879
44906
44895
44884
44880
44890
44892
44887
44887
44876
44894
44885
44887
44900
44896
44900
44896
44896
44884
44899
44903
44887
44888
44885
44878
44871
44871
44868
44871
44870
44876
44871
44876
44876
44878
44879
44878
44873
44880
44879
44881
44871
44870
44868
44863
44862
44847
44850
44846
44847
44845
44846
44847
44838
44845
44849
44855
44845
44807
44805
44857
44849
44852
44846
44842
44831
44838
44839
44834
44839
44828
44834
44831
44839
44847
44845
44854
44839
44847
44847
44844
44839
44829
44831
44828
44814
44822
44823
44818
44807
44816
44807
44818
44820
44807
44794
44783
44804
44829
44774
44775
44821
44820
44791
44761
44759
44751
44807
44819
44807
44807
44807
44822
44758
44776
44807
44806
44815
44813
44828
44818
44823
44807
44818
44802
44804
44798
44804
44799
44798
44799
44804
44799
44806
44798
44807
44816
44827
44824
44818
44817
44823
44799
44805
44791
44804
44800
44798
44802
44786
44782
44795
44792
44804
44807
44799
44806
44807
44807
44807
44821
44835
44799
44791
44792
44799
44795
44798
44796
44799
44796
44793
44798
44807
44815
44807
44818
44821
44823
44815
44815
44807
44815
44807
44799
44750
44802
44797
44803
44807
44807
44801
44807
44807
44813
44823
44831
44823
44839
44831
44838
44820
44815
44813
44816
44807
44759
44757
44800
44807
44807
44823
44824
44828
44839
44831
44820
44836
44836
44839
44839
44833
44832
44825
44831
44835
44826
44820
44814
44823
44814
44820
44837
44842
44858
44863
44851
44840
44854
44849
44807
44807
44807
44835
44843
44836
44831
44847
44840
44847
44846
44852
44847
44858
44848
44863
44871
44871
44868
44867
44820
44831
44863
44844
44858
44855
44862
44855
44850
44862
44848
44855
44868
44862
44884
44874
44872
44829
44847
44891
44886
44881
44878
44879
44865
44868
44871
44883
44868
44879
44881
44883
44881
44885
44847
44863
44900
44900
44897
44896
44897
44900
44890
44911
44903
44900
44885
44901
44898
44893
44898
44896
44903
44902
44916
44916
44935
44919
44934
44924
44927
44935
44895
44903
44919
44916
44919
44936
44919
44936
44923
44932
44940
44948
44943
44902
44945
44945
44948
44940
44940
44935
44925
44918
44904
44892
44874
44868
44855
44860
44847
44853
44847
44855
44860
44865
44876
44889
44897
44910
44916
44925
44928
44940
44959
44967
44980
44982
44987
44935
44935
44941
44956
44992
45011
45010
45012
45018
45027
45025
45022
45022
45012
44992
44999
44980
44983
45013
45005
44990
45002
45004
45031
45039
45041
45062
45052
45058
45052
45059
45050
45061
45060
45055
45055
45051
44991
45046
45004
44991
44988
45000
45017
45049
45062
45072
45063
45063
45084
45087
45093
45075
45092
45081
45085
45094
45063
45004
45044
45079
45083
45081
45090
45103
45099
45108
45115
45115
45123
45113
45127
45119
45112
45111
45108
45109
45103
45115
45105
45116
45111
45107
45118
45126
45127
45140
45142
45138
45146
45148
45137
45148
45133
45135
45143
45128
45134
45128
45140
45151
45136
45142
45148
45159
45159
45162
45162
45168
45180
45172
45174
45175
45167
45164
45137
45113
45178
45180
45178
45172
45183
45189
45119
45146
45191
45162
45183
45204
45205
45212
45202
45215
45206
45204
45199
45204
45201
45204
45199
45211
45213
45223
45223
45225
45229
45237
45241
45228
45185
45236
45239
45246
45244
45229
45190
45212
45246
45247
45250
45253
45247
45240
45255
45269
45272
45279
45279
45287
45285
45293
45282
45300
45277
45285
45286
45284
45284
45282
45287
45287
45301
45286
45300
45300
45308
45310
45319
45319
45319
45317
45318
45327
45319
45334
45319
45319
45326
45319
45328
45332
45335
45329
45300
45343
45347
45345
45351
45361
45364
45378
45370
45368
45364
45364
45349
45366
45364
45366
45365
45362
45380
45380
45379
45383
45393
45402
45404
45351
45355
45360
45362
45389
45380
45399
45401
45420
45406
45408
45414
45407
45402
45343
45375
45381
45380
45413
45415
45399
45404
45388
45386
45415
45431
45428
45442
45453
45447
45460
45444
45447
45455
45399
45439
45462
45454
45471
45476
45485
45501
45499
45499
45503
45495
45487
45492
45428
45490
45483
45479
45487
45503
45503
45508
45511
45513
45498
45493
45524
45526
45536
45527
45538
45533
45537
45537
45534
45472
45495
45532
45537
45543
45552
45563
45562
45566
45575
45574
45575
45559
45575
45575
45575
45575
45575
45575
45575
45588
45575
45564
45575
45584
45590
45594
45607
45626
45615
45621
45626
45639
45601
45591
45628
45636
45631
45639
45622
45630
45639
45635
45639
45647
45650
45647
45658
45662
45681
45671
45630
45680
45684
45694
45694
45695
45684
45692
45684
45688
45695
45693
45688
45698
45698
45703
45710
45653
45667
45679
45709
45735
45743
45736
45749
45743
45735
45743
45732
45733
45746
45749
45748
45751
45748
45759
45775
45775
45787
45788
45798
45798
45799
45804
45812
45807
45800
45742
45758
45788
45779
45805
45815
45814
45819
45820
45828
45823
45838
45851
45844
45853
45857
45864
45863
45868
45868
45878
45863
45871
45860
45863
45876
45881
45865
45862
45847
45856
45876
45923
45916
45926
45924
45924
45941
45873
45903
45909
45901
45927
45924
45919
45894
45889
45927
45959
45963
45969
45982
45991
45991
45998
45996
45942
45975
45990
46004
46004
45998
46006
45988
46010
46009
46027
46036
46031
46028
46047
46060
46063
46060
46071
46070
46082
46084
46072
46086
46079
46085
46085
46087
46087
46087
46106
46109
46110
46108
46068
46119
46132
46148
46151
46149
46150
46156
46159
46159
46155
46169
46165
46172
46180
46180
46149
46172
46196
46204
46215
46214
46234
46226
46237
46247
46263
46257
46209
46254
46254
46261
46273
46263
46273
46276
46278
46286
46287
46282
46286
46299
46287
46270
46287
46284
46278
46269
46265
46260
46271
46271
46284
46284
46287
46306
46301
46318
46342
46348
46366
46384
46409
46428
46432
46442
46455
46455
46443
46402
46401
46439
46440
46463
46430
46420
46417
46492
46422
46453
46444
46457
46471
46495
46495
46511
46543
46556
46559
46559
46565
46566
46567
46561
46575
46581
46590
46596
46623
46619
46615
46636
46645
46651
46660
46663
46668
46679
46679
46676
46687
46685
46684
46695
46692
46692
46704
46723
46724
46660
46684
46679
46701
46709
46751
46751
46775
46779
46785
46790
46782
46807
46808
46812
46816
46822
46841
46831
46841
46811
46801
46823
46864
46887
46897
46904
46911
46914
46924
46928
46924
46934
46927
46940
46948
46953
46952
46972
46976
46991
46999
47004
47007
47023
47030
47035
47038
47048
47052
47020
47047
46999
47015
47038
47078
47078
47091
47092
47103
47103
47124
47133
47149
47154
47162
47175
47182
47180
47190
47198
47205
47204
47210
47215
47218
47226
47239
47237
47252
47260
47269
47277
47293
47294
47325
47330
47331
47340
47336
47335
47348
47346
47355
47359
47360
47366
47378
47357
47334
47361
47404
47424
47427
47450
47452
47462
47464
47470
47477
47484
47495
47490
47495
47503
47517
47517
47525
47507
47495
47499
47524
47543
47557
47586
47600
47598
47590
47620
47591
47607
47585
47583
47654
47661
47623
47615
47646
47693
47701
47704
47719
47735
47745
47751
47766
47773
47786
47788
47797
47799
47796
47772
47807
47816
47833
47835
47846
47815
47863
47871
47878
47902
47909
47918
47942
47946
47959
47963
47959
47971
47972
47988
47986
47920
47943
47972
48007
48018
48029
48047
48058
48071
48053
48027
48095
48107
48127
48135
48135
48092
48135
48149
48146
48156
48172
48180
48116
48184
48204
48227
48229
48245
48252
48263
48279
48238
48252
48276
48295
48311
48316
48327
48341
48332
48340
48355
48363
48372
48388
48327
48342
48390
48423
48439
48450
48460
48471
48478
48481
48487
48495
48502
48500
48517
48511
48476
48533
48543
48564
48567
48578
48598
48543
48619
48620
48628
48647
48647
48668
48658
48680
48671
48680
48692
48703
48639
48673
48723
48738
48751
48765
48768
48790
48807
48807
48820
48827
48844
48850
48855
48863
48848
48865
48836
48837
48847
48876
48903
48900
48894
48933
48951
48977
48983
49002
48999
49020
49023
49024
49026
49037
49047
49055
49052
49063
49013
49052
49087
49103
49127
49132
49147
49150
49175
49177
49191
49155
49199
49220
49220
49231
49228
49246
49242
49255
49199
49245
49263
49287
49301
49326
49329
49340
49357
49365
49377
49320
49351
49372
49335
49412
49415
49425
49436
49447
49451
49464
49412
49415
49450
49452
49455
49470
49482
49519
49554
49559
49582
49580
49598
49598
49615
49607
49623
49634
49639
49653
49660
49671
49681
49693
49716
49719
49739
49734
49727
49727
49764
49783
49782
49799
49792
49812
49815
49828
49833
49851
49854
49883
49876
49889
49903
49921
49926
49879
49927
49966
49959
49981
49983
49980
49998
49988
50020
49949
49980
50014
50047
50044
50060
50075
50095
50099
50111
50134
50149
50152
50156
50103
50138
50175
50180
50183
50183
50206
50207
50219
50216
50239
50245
50261
50292
50286
50295
50311
50311
50317
50283
50356
50346
50360
50367
50374
50311
50345
50375
50406
50415
50423
50439
50453
50463
50487
50495
50514
50517
50520
50535
50530
50479
50490
50524
50535
50564
50575
50590
50586
50599
50622
50639
50647
50656
50663
50681
50655
50695
50695
50719
50712
50733
50732
50727
50743
50732
50740
50756
50756
50759
50772
50775
50797
50799
50815
50839
50850
50860
50876
50900
50895
50918
50918
50933
50875
50892
50911
50965
50951
50951
50972
51003
51009
51034
51060
51060
51079
51092
51101
51100
51111
51119
51116
51125
51134
51151
51156
51159
51151
51175
51166
51197
51207
51223
51239
51247
51260
51269
51274
51246
51259
51284
51259
51280
51308
51325
51333
51335
51327
51327
51330
51326
51316
51342
51421
51432
51447
51450
51463
51479
51484
51495
51497
51500
51503
51512
51522
51526
51532
51553
51557
51572
51508
51543
51572
51615
51631
51644
51651
51662
51663
51670
51673
51684
51687
51695
51700
51708
51719
51729
51748
51756
51771
51782
51796
51811
51821
51829
51838
51847
51847
51856
51860
51868
51885
51884
51873
51900
51900
51915
51924
51936
51943
51966
51972
51995
52001
52010
52014
52033
52033
52047
52044
52059
52052
52066
52070
52079
52092
52098
52108
52119
52135
52143
52162
52170
52186
52180
52207
52212
52220
52220
52228
52231
52190
52181
52231
52252
52276
52279
52289
52298
52311
52335
52340
52358
52359
52374
52387
52397
52391
52405
52413
52412
52415
52431
52422
52366
52405
52457
52469
52484
52508
52508
52516
52535
52535
52558
52572
52575
52579
52577
52583
52597
52599
52604
52615
52615
52634
52639
52647
52640
52684
52687
52700
52703
52727
52735
52743
52759
52760
52743
52695
52711
52743
52778
52786
52785
52804
52815
52831
52834
52845
52863
52885
52891
52900
52908
52927
52926
52935
52919
52944
52940
52949
52964
52966
52975
52980
52991
52999
53020
53027
53048
53036
52998
52999
53028
53038
53063
53063
53062
53056
53086
53064
53123
53120
53151
53159
53175
53175
53183
53207
53210
53231
53252
53255
53255
53277
53287
53288
53287
53305
53296
53311
53316
53318
53334
53324
53343
53370
53366
53380
53388
53409
53421
53424
53447
53461
53455
53460
53471
53477
53476
53460
53478
53500
53479
53511
53532
53535
53532
53566
53569
53580
53576
53607
53621
53623
53631
53639
53647
53644
53654
53660
53655
53668
53671
53674
53684
53710
53716
53716
53745
53748
53756
53767
53784
53793
53788
53803
53796
53815
53815
53816
53827
53839
53840
53846
53856
53865
53886
53889
53895
53924
53933
53938
53953
53959
53970
53910
53934
53924
53911
53908
53933
53960
53994
53982
53986
54007
54023
54061
54068
54070
54095
54119
54125
54127
54141
54142
54148
54144
54160
54126
54135
54151
54175
54191
54192
54211
54212
54221
54237
54244
54263
54266
54279
54278
54297
54311
54306
54314
54326
54329
54335
54342
54343
54351
54359
54373
54389
54391
54406
54416
54426
54439
54452
54467
54471
54474
54477
54486
54493
54498
54495
54510
54505
54508
54535
54535
54548
54479
54577
54577
54596
54603
54613
54628
54631
54568
54575
54615
54607
54639
54645
54631
54653
54679
54672
54703
54710
54719
54731
54737
54756
54761
54772
54779
54791
54791
54791
54791
54791
54812
54810
54820
54818
54820
54838
54852
54858
54879
54887
54888
54903
54916
54918
54924
54943
54947
54951
54901
54887
54927
54901
54950
54952
54983
54999
55005
54996
54988
54954
54979
55007
55040
55060
55086
55080
55092
55095
55108
55102
55101
55063
55047
55133
55132
55128
55151
55148
55100
55172
55191
55193
55223
55222
55236
55239
55236
55172
55186
55217
55232
55257
55263
55277
55278
55287
55294
55303
55303
55279
55335
55351
55364
55375
55372
55380
55394
55381
55374
55368
55383
55388
55391
55403
55414
55408
55391
55413
55447
55469
55484
55498
55510
55523
55529
55540
55548
55552
55553
55559
55554
55559
55504
55527
55559
55591
55594
55604
55583
55605
55631
55651
55655
55676
55680
55686
55687
55620
55687
55692
55700
55685
55708
55710
55716
55717
55733
55748
55740
55764
55727
55702
55757
55791
55804
55815
55812
55834
55815
55828
55836
55847
55832
55839
55853
55869
55861
55861
55889
55887
55914
55911
55932
55940
55943
55953
55975
55954
55958
55964
55975
55975
55972
55975
55982
55991
55996
56007
56023
56020
56039
56052
56065
56071
56080
56080
56100
56100
56092
56095
56101
56109
56110
56126
56131
56133
56134
56155
56156
56164
56175
56191
56191
56196
56215
56151
56156
56190
56206
56231
56239
56244
56244
56236
56255
56260
56236
56266
56267
56303
56300
56308
56327
56327
56340
56351
56283
56308
56350
56366
56362
56364
56354
56362
56383
56386
56389
56399
56413
56352
56368
56420
56446
56469
56468
56468
56471
56486
56487
56491
56422
56471
56499
56496
56508
56511
56519
56526
56529
56540
56549
56567
56496
56519
56567
56599
56606
56607
56612
56615
56623
56612
56625
56623
56628
56631
56636
56639
56655
56671
56676
56692
56694
56709
56711
56708
56724
56735
56725
56720
56727
56724
56732
56743
56743
56759
56759
56726
56782
56779
56791
56814
56823
56831
56831
56839
56856
56839
56839
56839
56839
56839
56862
56865
56863
56788
56836
56868
56888
56911
56916
56929
56931
56951
56956
56948
56967
56967
56967
56946
56955
56903
56951
56988
56981
56996
56967
56996
57005
57022
57036
57044
57047
57063
57068
57075
57093
57035
57029
57076
57087
57082
57087
57095
57095
57095
57108
57071
57095
57095
57140
57159
57171
57189
57183
57191
57196
57199
57207
57191
57199
57191
57144
57128
57220
57188
57152
57155
57161
57159
57191
57185
57260
57287
57305
57294
57311
57302
57304
57303
57308
57308
57320
57324
57333
57327
57349
57351
57351
57351
57374
57383
57403
57404
57422
57423
57383
57351
57351
57351
57407
57425
57436
57438
57444
57447
57452
57460
57470
57479
57497
57503
57514
57527
57524
57524
57534
57547
57551
57557
57546
57547
57551
57557
57559
57562
57575
57579
57591
57605
57607
57607
57639
57628
57636
57645
57654
57661
57648
57666
57660
57671
57660
57579
57604
57631
57620
57607
57695
57716
57716
57671
57672
57670
57681
57676
57735
57756
57752
57766
57687
57705
57696
57759
57775
57764
57781
57732
57732
57720
57751
57767
57789
57837
57853
57863
57863
57863
57848
57863
57863
57850
57863
57863
57817
57823
57859
57854
57852
57839
57858
57895
57954
57943
57952
57956
57959
57967
57949
57956
57965
57965
57973
57966
57959
57911
57975
57991
57991
58004
58023
58026
58028
58041
58052
57966
57967
57967
57988
58067
58060
58054
58055
58062
58070
58076
58087
58084
58084
58092
58111
58119
58119
58094
58128
58143
58156
58141
58164
58128
58119
58148
58148
58126
58156
58159
58172
58166
58175
58196
58190
58196
58182
58222
58220
58223
58236
58222
58242
58238
58237
58236
58246
58236
58237
58244
58238
58247
58210
58199
58279
58284
58295
58310
58319
58324
58315
58332
58326
58330
58308
58318
58324
58294
58319
58327
58338
58340
58345
58355
58372
58375
58388
58400
58397
58408
58412
58409
58412
58375
58399
58371
58338
58391
58417
58366
58413
58431
58439
58446
58446
58439
58391
58448
58471
58472
58494
58486
58503
58484
58487
58480
58499
58495
58500
58502
58503
58526
58532
58532
58551
58567
58568
58588
58598
58602
58612
58620
58612
58612
58620
58605
58601
58622
58615
58612
58620
58631
58631
58636
58644
58655
58656
58684
58671
58687
58665
58630
58629
58623
58631
58668
58687
58692
58691
58703
58703
58709
58719
58724
58740
58749
58709
58747
58759
58767
58767
58775
58756
58711
58686
58720
58759
58759
58782
58775
58775
58788
58796
58791
58820
58834
58834
58847
58814
58780
58759
58854
58858
58863
58862
58855
58854
58854
58836
58847
58868
58875
58887
58863
58902
58911
58927
58935
58940
58951
58940
58948
58943
58942
58945
58945
58942
58952
58951
58959
58964
58886
58887
58902
58926
58919
58939
58949
58936
58959
58967
59007
59015
59031
59031
59034
59039
59005
59015
58983
59071
59055
59076
59076
59085
59095
59095
59102
59135
59088
59047
59055
59079
59104
59109
59116
59124
59127
59127
59135
59132
59139
59103
59127
59183
59190
59199
59183
59142
59220
59228
59238
59242
59228
59239
59223
59230
59242
59239
59244
59247
59263
59252
59263
59252
59287
59271
59310
59319
59323
59326
59328
59333
59334
59325
59321
59334
59336
59340
59340
59335
59344
59365
59361
59325
59313
59321
59319
59364
59348
59391
59420
59428
59428
59433
59436
59427
59396
59374
59343
59370
59386
59380
59399
59392
59422
59486
59500
59495
59516
59524
59510
59492
59524
59516
59522
59527
59527
59527
59527
59511
59463
59476
59559
59564
59580
59595
59527
59607
59616
59614
59618
59619
59631
59615
59623
59612
59562
59612
59631
59623
59598
59596
59655
59676
59679
59703
59716
59713
59716
59724
59719
59684
59719
59716
59734
59738
59719
59727
59694
59719
59751
59756
59759
59767
59783
59748
59738
59759
59766
59799
59821
59823
59820
59831
59823
59828
59815
59812
59828
59846
59844
59840
59861
59878
59876
