EDA
24214
24222
24206
24212
24198
24207
24205
24204
24196
24189
24202
24197
24207
24196
24218
24203
24220
24201
24195
24208
24199
24199
24199
24197
24193
24190
24194
24190
24196
24191
24203
24191
24188
24197
24188
24199
24191
24193
24182
24192
24183
24189
24182
24186
24175
24180
24175
24183
24175
24188
24183
24172
24188
24177
24183
24182
24191
24183
24175
24187
24168
24181
24167
24170
24167
24170
24169
24164
24166
24156
24166
24165
24166
24172
24180
24171
24167
24172
24175
24178
24165
24164
24169
24167
24172
24162
24153
24163
24166
24159
24161
24159
24161
24168
24159
24167
24153
24164
24148
24157
24144
24129
24151
24137
24174
24131
24116
24125
24112
24135
24119
24141
24116
24135
24117
24136
24123
24143
24123
24128
24119
24128
24124
24100
24114
24103
24111
24102
24111
24115
24112
24108
24114
24114
24105
24106
24106
24115
24109
24113
24101
24108
24098
24106
24096
24103
24097
24100
24102
24100
24106
24102
24104
24101
24111
24114
24109
24103
24106
24102
24100
24101
24098
24091
24090
24098
24094
24095
24091
24094
24103
24097
24102
24100
24106
24108
24107
24106
24100
24103
24100
24100
24108
24092
24092
24095
24087
24089
24081
24097
24090
24094
24094
24099
24098
24101
24102
24102
24100
24100
24095
24092
24093
24087
24091
24084
24087
24087
24093
24085
24089
24088
24092
24084
24095
24092
24097
24093
24097
24086
24085
24083
24083
24087
24076
24071
24081
24078
24074
24076
24074
24087
24079
24087
24086
24081
24089
24076
24085
24081
24080
24079
24071
24071
24068
24071
24066
24068
24067
24071
24067
24071
24067
24079
24078
24068
24076
24069
24083
24071
24066
24068
24065
24069
24066
24066
24063
24055
24067
24070
24061
24064
24064
24059
24070
24067
24060
24070
24058
24063
24055
24061
24053
24059
24056
24068
24054
24049
24054
24056
24054
24063
24062
24066
24064
24069
24067
24063
24071
24025
24054
24051
24052
24047
24047
24047
24047
24049
24048
24045
24048
24049
24061
24053
24055
24057
24060
24051
24055
24058
24045
24047
24036
24050
24046
24035
24044
24038
24038
24043
24042
24041
24050
24045
24041
24051
24046
24055
24050
24052
24041
24038
24037
24039
24039
24034
24031
24038
24033
24045
24035
24030
24038
24041
24047
24047
24039
24047
24028
24039
24034
24024
24033
24035
24039
24027
24034
24027
24032
24028
24034
24033
24036
24036
24034
24039
24035
24045
24037
24027
24030
24024
24028
24021
24028
24023
24027
24016
24028
24029
24037
24025
24028
24029
24022
24033
24028
24028
24029
24030
24028
24025
24019
24022
24017
24023
24012
24020
24021
23989
24020
24013
24023
24020
24022
24024
24020
24020
24016
24025
24019
24007
24016
24005
24013
24004
24014
24012
24008
24008
24006
24009
24014
24019
24009
24015
24009
24020
24010
24014
24010
24007
24007
23996
24002
24003
23980
24006
23999
24006
24003
24011
24011
24005
24001
24006
24015
24012
23999
24005
24006
23997
24005
23988
23998
23991
24001
23995
24000
23996
23989
23999
23999
24007
24006
24002
24007
24005
24006
23983
24002
23996
23999
23994
23994
23993
23989
23985
23989
23988
23995
23985
23991
23984
23996
23996
23996
23994
23998
23991
23990
23987
23995
23991
23992
23984
23989
23983
23981
23990
23982
23996
23996
23988
23995
23991
23991
23988
23999
23994
23985
23983
23976
23991
23983
23970
23988
23978
23991
23986
23974
23988
23986
23991
23994
23986
23994
23981
23987
23987
23987
23988
23988
23982
23975
23983
23972
23980
23974
23989
23979
23981
23986
23986
23989
23988
23992
23984
23993
23983
23985
23982
23985
23982
23967
23974
23973
23973
23983
23974
23980
23975
23992
23987
23992
23983
23985
23982
23981
23975
23983
23978
23974
23971
23967
23974
23972
23964
23975
23968
23983
23975
23972
23981
23981
23973
23978
23973
23978
23972
23976
23969
23973
23965
23971
23965
23972
23975
23964
23969
23968
23975
23967
23975
23973
23975
23974
23982
23980
23984
23973
23982
23975
23977
23970
23958
23967
23964
23967
23967
23961
23972
23971
23979
23971
23981
23972
23977
23971
23974
23961
23968
23969
23974
23962
23974
23972
23978
23972
23979
23970
23967
23972
23969
23975
23975
23983
23968
23977
23965
23970
23967
23968
23959
23975
23969
23973
23969
23959
23969
23973
23979
23975
23968
23980
23979
23972
23979
23975
23975
23966
23974
23969
23974
23967
23973
23970
23975
23969
23973
23972
23977
23975
23959
23974
23965
24011
23975
23958
23950
23968
23948
23971
23959
23943
23959
23943
23969
23972
23947
23975
23967
23953
23951
23950
23957
23959
23954
23957
23953
23983
23964
23967
23966
23964
23964
23959
23963
23951
23966
23962
23957
23964
23960
23973
23967
23972
23971
23975
23974
23975
23967
23962
23970
23966
23969
23967
23964
23974
23964
23972
23974
23973
23975
23980
23978
23977
23978
23980
23977
23961
23972
23975
23972
23970
23976
23969
23972
23975
23974
23978
23976
23981
23984
23972
23985
23977
23988
23980
23989
23983
23979
23983
23978
23971
23977
23977
23983
23974
23981
23985
23982
23988
23983
23988
23996
23991
23989
23989
23991
23985
23985
23985
23980
23983
23983
23981
23988
23985
23978
23984
23983
24003
23991
23996
23999
23992
23992
23991
23997
23993
23982
23999
23994
23986
23990
23989
23999
23988
23982
23998
23993
24007
24003
23998
24004
23998
24005
23999
23995
24002
23996
24003
23997
23998
23986
23996
24002
24004
23992
23999
24007
24000
24006
24008
24017
24010
24010
24007
24009
24007
24010
24014
23994
24001
24011
24013
24001
24011
24007
24012
24020
24013
24017
24033
24023
24026
24027
24029
24023
24034
24015
24013
24017
24009
24019
24014
24023
24011
24020
24017
24026
24023
24030
24036
24026
24033
24027
24034
24026
24031
24023
24017
24029
24017
24029
24028
24039
24024
24022
24037
24028
24039
24032
24034
24038
24038
24047
24036
24039
24043
24036
24027
24040
24031
24041
24041
24033
24041
24031
24047
24042
24046
24046
24039
24053
24050
24062
24052
24043
24047
24036
24057
24039
24055
24052
24055
24052
24043
24053
24046
24056
24050
24063
24065
24051
24060
24058
24071
24063
24059
24053
24064
24055
24066
24068
24071
24070
24079
24067
24062
24071
24060
24076
24071
24067
24079
24068
24083
24071
24089
24066
24066
24071
24068
24079
24062
24071
24068
24085
24076
24086
24092
24075
24091
24086
24090
24078
24083
24076
24087
24074
24091
24071
24087
24071
24087
24077
24095
24097
24071
24092
24079
24095
24089
24095
24089
24095
24093
24100
24092
24095
24087
24097
24092
24101
24094
24095
24097
24086
24111
24093
24111
24107
24126
24111
24095
24109
24101
24109
24110
24099
24106
24105
24095
24106
24103
24129
24102
24102
24116
24105
24123
24120
24102
24119
24109
24123
24117
24109
24119
24110
24127
24115
24111
24105
24121
24129
24111
24122
24122
24134
24129
24124
24138
24130
24118
24133
24126
24135
24127
24126
24119
24136
24128
24124
24139
24129
24127
24140
24141
24133
24140
24135
24132
24148
24139
24148
24140
24135
24142
24136
24166
24143
24135
24150
24143
24154
24143
24134
24153
24145
24155
24148
24161
24155
24165
24156
24164
24161
24151
24150
24148
24151
24145
24161
24155
24162
24153
24160
24157
24166
24169
24156
24167
24159
24170
24167
24174
24175
24162
24172
24161
24171
24172
24161
24174
24165
24175
24172
24178
24174
24166
24175
24171
24181
24177
24170
24187
24175
24181
24182
24167
24177
24167
24179
24170
24182
24183
24190
24183
24202
24183
24182
24189
24182
24192
24187
24211
24183
24186
24196
24183
24198
24186
24181
24193
24185
24199
24199
24196
24194
24207
24202
24191
24197
24189
24204
24186
24207
24196
24212
24201
24198
24199
24194
24199
24199
24207
24203
24187
24213
24207
24211
24214
24222
24212
24220
24210
24218
24216
24230
24215
24222
24221
24218
24209
24216
24214
24204
24216
24212
24230
24215
24225
24217
24212
24223
24219
24244
24221
24216
24223
24210
24223
24213
24231
24214
24235
24238
24219
24227
24229
24255
24231
24223
24238
24230
24239
24231
24235
24234
24237
24231
24236
24229
24240
24238
24244
24247
24245
24241
24231
24242
24231
24250
24229
24253
24255
24229
24239
24219
24244
24226
24249
24234
24271
24233
24225
24246
24242
24308
24242
24229
24249
24229
24257
24228
24262
24231
24252
24233
24252
24231
24248
24244
24249
24237
24251
24244
24264
24247
24237
24263
24260
24254
24260
24252
24247
24255
24243
24255
24242
24261
24245
24261
24256
24250
24260
24251
24263
24256
24262
24256
24262
24259
24271
24260
24270
24258
24269
24261
24275
24263
24268
24267
24261
24269
24260
24276
24267
24260
24273
24265
24283
24272
24263
24273
24268
24273
24267
24274
24270
24291
24274
24271
24280
24279
24295
24277
24273
24289
24279
24289
24277
24292
24288
24294
24285
24290
24295
24311
24286
24282
24289
24287
24292
24289
24298
24292
24300
24295
24281
24295
24292
24299
24287
24300
24294
24295
24287
24303
24287
24300
24292
24300
24291
24297
24295
24304
24298
24311
24292
24310
24295
24311
24307
24326
24308
24333
24305
24302
24309
24294
24311
24306
24311
24303
24319
24305
24311
24308
24313
24303
24316
24314
24316
24310
24319
24306
24320
24311
24313
24311
24313
24306
24320
24314
24325
24310
24327
24317
24325
24340
24339
24322
24331
24319
24327
24321
24333
24320
24333
24317
24335
24319
24340
24330
24337
24335
24350
24340
24343
24335
24329
24337
24336
24345
24337
24324
24337
24327
24350
24345
24334
24343
24331
24345
24348
24337
24351
24337
24356
24347
24343
24356
24345
24364
24350
24343
24349
24341
24358
24345
24357
24354
24338
24351
24343
24360
24351
24345
24357
24354
24365
24359
24351
24360
24354
24361
24355
24362
24351
24364
24357
24386
24364
24356
24368
24359
24374
24361
24357
24373
24361
24386
24365
24357
24366
24362
24381
24378
24389
24377
24385
24367
24363
24368
24365
24375
24371
24382
24375
24372
24387
24377
24388
24380
24372
24382
24372
24390
24375
24364
24379
24373
24392
24380
24366
24389
24387
24372
24384
24382
24389
24388
24371
24384
24374
24388
24389
24370
24384
24375
24377
24388
24383
24388
24385
24398
24396
24395
24390
24391
24388
24398
24386
24390
24383
24391
24387
24396
24391
24394
24380
24393
24382
24393
24385
24396
24387
24403
24393
24397
24387
24396
24376
24394
24385
24396
24390
24413
24389
24381
24391
24381
24388
24384
24400
24401
24397
24385
24398
24391
24404
24404
24391
24392
24383
24394
24386
24394
24388
24397
24394
24381
24398
24394
24387
24402
24384
24403
24391
24404
24390
24398
24400
24411
24396
24389
24395
24388
24399
24391
24396
24391
24403
24393
24405
24391
24406
24406
24394
24403
24395
24405
24405
24408
24404
24396
24401
24398
24396
24399
24398
24399
24412
24396
24397
24405
24401
24415
24407
24401
24407
24399
24408
24392
24414
24397
24414
24413
24421
24405
24395
24415
24398
24409
24413
24415
24407
24399
24407
24400
24418
24402
24414
24418
24402
24407
24404
24413
24402
24415
24414
24403
24408
24399
24413
24408
24419
24404
24413
24413
24423
24415
24422
24419
24428
24412
24422
24407
24398
24415
24401
24429
24407
24398
24418
24411
24399
24415
24405
24404
24415
24406
24417
24414
24400
24418
24408
24417
24408
24415
24421
24405
24414
24406
24423
24410
24430
24412
24407
24420
24416
24426
24415
24405
24421
24413
24404
24412
24419
24415
24420
24404
24423
24411
24416
24407
24420
24419
24418
24420
24408
24417
24409
24419
24411
24422
24407
24420
24410
24404
24414
24402
24412
24401
24418
24402
24421
24420
24407
24415
24406
24416
24408
24422
24415
24404
24422
24407
24423
24412
24409
24418
24400
24419
24407
24422
24413
24407
24414
24413
24422
24414
24418
24412
24422
24405
24416
24414
24428
24414
24436
24412
24407
24420
24412
24423
24423
24423
24424
24425
24418
24435
24423
24423
24423
24414
24426
24420
24427
24423
24408
24423
24410
24426
24411
24428
24425
24444
24420
24405
24423
24402
24426
24411
24483
24412
24401
24423
24404
24425
24415
24406
24412
24401
24430
24407
24441
24415
24392
24421
24426
24404
24419
24404
24422
24419
24436
24412
24400
24414
24405
24414
24401
24420
24409
24420
24415
24412
24420
24405
24423
24404
24414
24412
24424
24423
24411
24423
24415
24420
24414
24422
24413
24410
24422
24413
24423
24421
24427
24416
24426
24420
24426
24414
24422
24414
24422
24412
24423
24412
24424
24416
24429
24434
24423
24422
24419
24426
24422
24425
24428
24437
24426
24417
24426
24422
24427
24427
24416
24424
24422
24420
24431
24422
24435
24428
24421
24429
24432
24422
24432
24429
24444
24431
24420
24434
24417
24427
24422
24433
24424
24420
24430
24435
24419
24431
24424
24439
24428
24426
24430
24439
24423
24431
24423
24434
24420
24437
24430
24431
24437
24423
24429
24422
24432
24439
24422
24432
24423
24442
24431
24423
24436
24424
24439
24432
24423
24433
24420
24433
24427
24420
24423
24420
24431
24428
24423
24432
24425
24437
24429
24423
24430
24417
24435
24430
24424
24435
24431
24425
24429
24418
24436
24427
24436
24428
24434
24424
24423
24428
24427
24431
24425
24431
24426
24440
24436
24435
24430
24434
24426
24441
24429
24421
24431
24433
24418
24433
24437
24423
24427
24425
24439
24431
24425
24436
24429
24420
24430
24422
24435
24431
24423
24433
24423
24436
24431
24438
24434
24430
24439
24430
24442
24425
24438
24433
24436
24434
24423
24425
24428
24439
24426
24434
24444
24430
24428
24425
24453
24439
24432
24447
24436
24428
24438
24436
24445
24438
24422
24436
24433
24436
24434
24441
24438
24423
24435
24423
24432
24438
24428
24433
24425
24435
24421
24433
24429
24418
24428
24438
24427
24432
24422
24436
24437
24439
24435
24420
24426
24425
24436
24429
24437
24426
24449
24429
24425
24432
24428
24420
24432
24423
24429
24425
24423
24431
24431
24418
24424
24427
24429
24433
24425
24429
24423
24431
24428
24422
24423
24418
24421
24419
24428
24428
24423
24424
24423
24428
24423
24421
24421
24435
24428
24422
24423
24422
24426
24419
24418
24417
24428
24412
24424
24412
24424
24414
24422
24420
24425
24423
24425
24415
24423
24421
24423
24421
24413
24422
24416
24420
24415
24420
24416
24416
24415
24420
24407
24426
24422
24424
24420
24433
24416
24418
24427
24416
24434
24421
24412
24425
24423
24413
24422
24412
24418
24414
24423
24416
24429
24418
24419
24422
24415
24416
24417
24423
24410
24420
24407
24415
24417
24422
24415
24418
24417
24421
24414
24412
24427
24426
24415
24421
24420
24423
24419
24418
24423
24420
24414
24425
24418
24412
24429
24418
24422
24410
24421
24423
24418
24421
24431
24425
24420
24418
24426
24426
24413
24425
24425
24420
24415
24421
24416
24420
24423
24420
24419
24421
24421
24422
24422
24417
24426
24420
24418
24416
24417
24416
24427
24418
24416
24417
24423
24423
24420
24419
24419
24422
24427
24416
24422
24420
24423
24419
24416
24423
24423
24417
24419
24422
24414
24420
24420
24424
24413
24424
24417
24422
24418
24427
24423
24429
24424
24436
24419
24418
24424
24423
24433
24423
24423
24423
24421
24423
24420
24429
24426
24428
24428
24439
24425
24420
24420
24418
24429
24420
24425
24423
24423
24421
24420
24421
24420
24422
24420
24429
24419
24430
24422
24423
24422
24421
24424
24423
24420
24415
24423
24418
24423
24414
24423
24410
24425
24421
24417
24415
24416
24417
24420
24424
24420
24423
24422
24418
24416
24422
24415
24423
24420
24415
24422
24420
24417
24419
24424
24414
24421
24425
24419
24420
24421
24421
24421
24415
24418
24421
24419
24423
24418
24412
24423
24414
24421
24420
24414
24423
24418
24422
24422
24420
24422
24423
24422
24421
24417
24421
24414
24416
24412
24418
24415
24422
24412
24415
24421
24418
24428
24412
24412
24423
24420
24422
24415
24426
24423
24421
24423
24422
24421
24416
24420
24423
24422
24426
24426
24426
24423
24423
24428
24435
24420
24431
24420
24428
24418
24430
24423
24414
24420
24405
24418
24412
24436
24410
24400
24409
24398
24420
24413
24425
24416
24455
24408
24388
24400
24393
24396
24390
24402
24383
24414
24388
24406
24388
24402
24393
24421
24398
24384
24402
24398
24388
24401
24397
24404
24397
24391
24392
24391
24401
24390
24399
24394
24396
24397
24392
24405
24398
24407
24406
24409
24399
24406
24405
24407
24404
24406
24404
24404
24406
24400
24405
24408
24407
24406
24406
24401
24412
24408
24412
24409
24408
24410
24414
24412
24400
24413
24407
24411
24410
24409
24408
24409
24411
24407
24408
24410
24414
24415
24415
24412
24412
24413
24410
24409
24410
24409
24412
24407
24411
24410
24407
24416
24415
24413
24418
24413
24415
24415
24413
24412
24415
24418
24415
24389
24410
24413
24414
24415
24412
24410
24414
24415
24408
24407
24417
24416
24420
24420
24416
24411
24420
24418
24415
24416
24415
24418
24415
24417
24414
24412
24412
24413
24415
24412
24413
24397
24415
24419
24422
24420
24416
24419
24420
24417
24419
24406
24414
24413
24415
24419
24395
24416
24414
24413
24419
24391
24413
24415
24414
24423
24420
24419
24420
24418
24418
24416
24421
24420
24415
24420
24412
24410
24419
24421
24423
24421
24418
24418
24417
24421
24419
24414
24418
24416
24415
24416
24421
24412
24421
24419
24412
24417
24416
24418
24421
24415
24421
24423
24416
24415
24425
24416
24420
24410
24423
24416
24411
24413
24415
24414
24421
24415
24423
24407
24423
24413
24421
24423
24407
24421
24423
24420
24418
24417
24420
24417
24422
24415
24418
24422
24420
24416
24419
24406
24421
24420
24420
24421
24419
24424
24426
24420
24423
24386
24418
24411
24414
24415
24416
24411
24422
24415
24421
24419
24420
24418
24406
24419
24418
24422
24420
24428
24419
24419
24420
24413
24418
24414
24423
24421
24414
24416
24418
24419
24420
24417
24419
24415
24421
24422
24421
24419
24409
24418
24413
24417
24415
24413
24411
24418
24412
24420
24419
24413
24414
24413
24412
24415
24419
24413
24408
24417
24412
24407
24414
24410
24404
24413
24410
24402
24414
24406
24405
24411
24404
24404
24408
24412
24423
24409
24404
24409
24404
24409
24407
24414
24409
24402
24406
24402
24406
24405
24412
24404
24413
24405
24406
24405
24415
24407
24409
24403
24401
24406
24402
24407
24405
24405
24402
24399
24402
24393
24405
24395
24404
24394
24407
24398
24407
24393
24407
24403
24408
24396
24393
24400
24399
24407
24395
24396
24405
24392
24395
24399
24392
24401
24394
24403
24406
24405
24398
24399
24390
24398
24390
24408
24398
24388
24399
24390
24403
24398
24389
24396
24394
24394
24388
24398
24399
24397
24398
24390
24402
24390
24395
24397
24386
24395
24392
24396
24388
24389
24394
24380
24394
24390
24390
24406
24404
24396
24399
24405
24398
24407
24392
24389
24389
24382
24385
24398
24401
24383
24384
24378
24392
24395
24402
24390
24394
24394
24382
24392
24389
24391
24391
24382
24390
24391
24383
24388
24382
24375
24388
24382
24378
24392
24390
24381
24395
24394
24389
24390
24381
24389
24388
24380
24378
24378
24384
24374
24390
24389
24398
24387
24375
24386
24380
24384
24379
24381
24380
24370
24380
24375
24382
24378
24382
24378
24374
24381
24367
24377
24375
24384
24379
24364
24377
24380
24377
24380
24377
24385
24383
24370
24380
24377
24372
24375
24372
24381
24375
24370
24381
24374
24374
24385
24375
24369
24377
24381
24370
24378
24375
24377
24372
24362
24376
24375
24375
24375
24364
24379
24368
24378
24364
24382
24372
24363
24370
24364
24374
24371
24358
24366
24359
24370
24368
24355
24364
24369
24374
24364
24359
24361
24358
24364
24359
24366
24363
24359
24366
24356
24365
24357
24360
24360
24348
24359
24357
24352
24355
24359
24356
24364
24353
24365
24363
24354
24358
24354
24361
24364
24348
24359
24348
24357
24348
24360
24353
24348
24358
24352
24359
24356
24347
24359
24349
24355
24348
24357
24351
24357
24352
24344
24352
24344
24348
24348
24350
24344
24353
24353
24353
24342
24356
24351
24354
24351
24357
24351
24353
24348
24356
24352
24337
24350
24337
24350
24344
24336
24342
24340
24347
24343
24348
24344
24352
24344
24350
24347
24340
24349
24340
24351
24345
24349
24346
24338
24343
24340
24349
24343
24348
24339
24333
24340
24334
24348
24336
24327
24331
24316
24328
24318
24330
24313
24334
24307
24335
24318
24297
24317
24303
24323
24297
24327
24297
24330
24303
24330
24308
24293
24310
24295
24322
24303
24293
24305
24303
24322
24304
24295
24298
24303
24300
24303
24300
24314
24303
24311
24300
24305
24304
24303
24298
24305
24301
24309
24297
24308
24303
24307
24307
24309
24308
24301
24311
24314
24308
24313
24310
24316
24308
24304
24314
24301
24316
24308
24307
24310
24306
24302
24313
24309
24307
24311
24308
24312
24309
24305
24309
24306
24311
24308
24319
24307
24300
24305
24303
24308
24306
24308
24308
24301
24306
24311
24309
24309
24303
24308
24305
24309
24303
24304
24301
24298
24311
24303
24302
24299
24298
24302
24303
24303
24308
24303
24302
24301
24297
24308
24300
24301
24292
24298
24293
24292
24294
24297
24301
24303
24292
24289
24301
24295
24308
24298
24292
24298
24302
24289
24295
24292
24300
24289
24295
24292
24297
24293
24295
24287
24292
24289
24295
24285
24293
24294
24298
24297
24295
24293
24298
24292
24287
24287
24292
24290
24293
24282
24278
24284
24285
24292
24289
24278
24288
24283
24299
24286
24284
24288
24284
24292
24287
24281
24290
24276
24282
24277
24287
24277
24285
24279
24282
24279
24287
24278
24287
24277
24284
24276
24287
24281
24279
24281
24274
24273
24277
24268
24277
24273
24278
24268
24275
24272
24280
24273
24270
24272
24273
24274
24270
24272
24278
24271
24264
24270
24268
24259
24274
24271
24257
24268
24257
24271
24265
24256
24266
24259
24265
24261
24264
24262
24256
24263
24253
24262
24261
24263
24258
24250
24254
24250
24255
24261
24261
24262
24250
24263
24260
24256
24261
24252
24257
24252
24253
24244
24255
24245
24255
24255
24257
24250
24246
24250
24245
24252
24249
24242
24250
24245
24241
24250
24236
24247
24241
24231
24239
24237
24234
24234
24234
24245
24238
24244
24238
24236
24239
24238
24241
24236
24230
24237
24225
24237
24242
24225
24231
24224
24232
24226
24223
24229
24223
24232
24226
24234
24229
24235
24231
24223
24227
24220
24220
24220
24228
24220
24221
24213
24218
24214
24215
24212
24216
24215
24223
24219
24221
24211
24218
24211
24223
24209
24215
24207
24208
24209
24211
24206
24218
24219
24206
24204
24199
24206
24201
24209
24204
24215
24211
24206
24204
24200
24202
24194
24206
24204
24210
24199
24194
24200
24197
24203
24204
24196
24202
24198
24196
24200
24198
24199
24199
24198
24196
24190
24196
24192
24203
24197
24191
24198
24194
24191
24201
24194
24204
24194
24189
24192
24188
24191
24192
24202
24192
24182
24192
24191
24193
24188
24199
24185
24199
24190
24185
24195
24187
24195
24184
24192
24197
24181
24184
24188
24194
24180
24188
24175
24189
24180
24185
24190
24191
24186
24188
24182
24179
24187
24175
24183
24168
24180
24175
24187
24173
24175
24178
24188
24173
24165
24180
24180
24169
24175
24175
24185
24172
24170
24175
24168
24174
24175
24164
24167
24168
24164
24172
24174
24164
24174
24169
24164
24164
24159
24179
24173
24159
24164
24164
24167
24158
24168
24159
24165
24155
24167
24151
24157
24151
24165
24155
24164
24160
24171
24164
24160
24154
24161
24162
24165
24159
24150
24159
24161
24156
24146
24153
24144
24144
24142
24151
24138
24148
24142
24151
24148
24147
24143
24149
24136
24146
24140
24143
24138
24138
24135
24145
24142
24142
24138
24154
24136
24148
24141
24135
24142
24132
24139
24137
24144
24135
24138
24131
24137
24126
24143
24141
24140
24137
24127
24134
24130
24129
24124
24131
24127
24126
24118
24130
24122
24130
24124
24134
24124
24132
24124
24118
24119
24111
24116
24108
24113
24109
24119
24113
24119
24108
24123
24121
24123
24111
24103
24111
24100
24110
24113
24102
24106
24095
24102
24095
24102
24094
24105
24094
24103
24097
24101
24103
24105
24101
24109
24100
24100
24092
24100
24088
24100
24093
24093
24084
24092
24089
24101
24092
24100
24083
24067
24082
24094
24087
24063
24084
24079
24079
24077
24084
24071
24082
24071
24079
24084
24069
24074
24068
24071
24060
24071
24068
24071
24060
24071
24062
24071
24063
24071
24060
24068
24058
24064
24063
24063
24052
24057
24065
24052
24058
24042
24054
24048
24059
24050
24052
24049
24055
24048
24052
24047
24060
24055
24054
24052
24050
24044
24053
24045
24049
24049
24063
24048
24038
24042
24028
24047
24036
24049
24042
24016
24035
24017
24040
24039
24067
24036
24049
24043
24005
24032
24013
24005
24042
24021
24012
24008
24020
24011
24005
24013
24004
24014
23998
24008
24004
24005
24026
24008
24003
24004
24003
24007
23995
24001
23991
24006
23998
24003
24004
23991
24003
23997
24007
23996
23991
23999
23997
24006
23999
23986
23998
23993
24001
23995
23973
23994
23985
23999
23991
23981
23994
23993
23993
23990
23988
23993
23989
23991
23985
23990
23983
23990
23983
23978
23983
23975
23987
23974
23987
23977
23983
23980
23981
23980
23972
23983
23971
23976
23970
23988
23976
23969
23979
23971
23979
23973
23964
23966
23969
23974
23973
23972
23974
23975
23972
23936
23962
23964
23975
23964
23970
23969
23959
23967
23956
23964
23958
23964
23965
23953
23957
23951
23952
23952
23956
23950
23954
23966
23949
23954
23947
23956
23946
23950
23942
23945
23940
23948
23941
23949
23938
23949
23934
23943
23948
23937
23948
23938
23941
23932
23946
23938
23944
23937
23943
23935
23947
23927
23933
23930
23933
23929
23932
23932
23935
23922
23937
23926
23939
23930
23935
23926
23934
23921
23931
23923
23930
23921
23925
23918
23927
23924
23935
23919
23919
23919
23913
23919
23932
23920
23908
23918
23910
23914
23910
23921
23914
23902
23911
23903
23918
23916
23917
23918
23916
23908
23902
23911
23901
23908
23901
23910
23903
23911
23913
23921
23901
23895
23906
23894
23907
23906
23893
23896
23890
23903
23889
23900
23904
23891
23888
23888
23900
23895
23893
23892
23895
23887
23897
23889
23896
23884
23873
23884
23876
23881
23877
23887
23876
23887
23874
23887
23877
23882
23874
23885
23886
23878
23872
23878
23870
23878
23869
23879
23871
23872
23865
23875
23871
23869
23863
23870
23865
23866
23860
23868
23862
23868
23860
23868
23855
23861
23858
23863
23853
23864
23855
23855
23855
23857
23847
23860
23852
23861
23852
23846
23850
23842
23850
23845
23854
23844
23852
23846
23839
23844
23837
23847
23842
23844
23846
23836
23838
23831
23838
23831
23841
23830
23834
23826
23829
23850
23831
23834
23828
23837
23823
23828
23820
23825
23845
23831
23826
23827
23826
23815
23823
23815
23822
23814
23815
23812
23814
23810
23815
23805
23815
23812
23816
23815
23809
23810
23828
23809
23798
23809
23799
23812
23800
23807
23798
23807
23796
23803
23794
23804
23801
23797
23802
23784
23796
23791
23796
23786
23795
23788
23798
23789
23795
23794
23783
23783
23778
23795
23784
23795
23783
23774
23780
23775
23787
23772
23780
23778
23797
23780
23766
23778
23767
23777
23772
23775
23770
23778
23766
23778
23764
23773
23765
23770
23761
23767
23759
23768
23758
23767
23760
23767
23750
23761
23772
23758
23765
23751
23772
23763
23751
23755
23751
23758
23746
23761
23749
23757
23745
23755
23743
23751
23737
23749
23737
23748
23747
23751
23746
23753
23741
23756
23747
23750
23733
23754
23740
23744
23731
23740
23726
23740
23727
23735
23725
23737
23727
23734
23733
23726
23728
23724
23732
23722
23732
23727
23745
23728
23718
23730
23714
23724
23716
23725
23728
23723
23724
23716
23724
23714
23726
23714
23719
23712
23719
23705
23716
23709
23713
23718
23709
23706
23711
23700
23703
23703
23717
23706
23710
23699
23710
23701
23711
23695
23703
23698
23711
23693
23711
23706
23711
23703
23703
23700
23712
23692
23687
23692
23681
23692
23687
23695
23681
23690
23679
23694
23684
23682
23687
23676
23687
23687
23695
23681
23671
23685
23684
23677
23684
23671
23677
23671
23676
23668
23673
23661
23671
23667
23671
23658
23672
23661
23671
23660
23673
23665
23673
23660
23654
23662
23648
23661
23655
23659
23657
23662
23655
23644
23661
23646
23654
23647
23654
23659
23645
23649
23636
23647
23644
23655
23644
23652
23647
23637
23645
23636
23647
23649
23632
23641
23632
23639
23628
23641
23631
23638
23631
23644
23635
23633
23623
23643
23634
23629
23637
23626
23620
23634
23623
23630
23623
23622
23630
23620
23636
23618
23615
23621
23609
23623
23617
23623
23615
23628
23626
23625
23617
23607
23613
23607
23612
23607
23606
23605
23620
23602
23612
23611
23602
23613
23599
23609
23602
23613
23608
23597
23612
23599
23614
23600
23612
23604
23591
23596
23584
23599
23628
23590
23572
23589
23573
23592
23575
23602
23591
23605
23581
23562
23575
23556
23581
23554
23585
23559
23588
23574
23591
23575
23549
23567
23550
23567
23551
23559
23548
23566
23549
23558
23545
23559
23551
23555
23550
23554
23547
23551
23549
23556
23548
23559
23556
23559
23551
23556
23551
23557
23551
23551
23540
23553
23536
23544
23536
23546
23541
23548
23539
23534
23544
23534
23540
23534
23539
23531
23546
23533
23544
23529
23543
23537
23532
23528
23526
23535
23524
23533
23526
23537
23524
23531
23527
23533
23534
23526
23525
23524
23531
23518
23535
23521
23532
23520
23532
23526
23516
23518
23516
23527
23515
23524
23524
23515
23514
23515
23517
23523
23532
23515
23507
23518
23507
23516
23516
23505
23512
23498
23511
23506
23511
23512
23520
23511
23508
23502
23505
23505
23511
23494
23507
23503
23511
23503
23500
23497
23498
23492
23503
23500
23508
23499
23508
23500
23494
23493
23499
23486
23493
23482
23490
23478
23491
23481
23487
23475
23486
23501
23493
23490
23483
23484
23483
23489
23479
23488
23483
23478
23482
23464
23479
23473
23476
23468
23487
23476
23463
23478
23465
23477
23472
23478
23476
23465
23466
23463
23463
23462
23468
23453
23467
23454
23476
23463
23455
23463
23457
23468
23459
23470
23462
23450
23459
23455
23463
23456
23445
23455
23458
23474
23452
23442
23457
23455
23441
23452
23441
23445
23441
23452
23441
23452
23439
23438
23455
23445
23436
23458
23454
23431
23445
23428
23446
23437
23444
23441
23431
23438
23430
23441
23428
23436
23431
23438
23421
23435
23428
23433
23423
23436
23429
23436
23431
23440
23431
23413
23431
23420
23430
23417
23425
23422
23430
23426
23446
23425
23414
23425
23415
23425
23420
23412
23419
23405
23417
23417
23420
23417
23401
23412
23405
23415
23404
23413
23410
23426
23412
23411
23410
23417
23405
23407
23406
23395
23397
23389
23402
23392
23398
23381
23399
23390
23406
23398
23389
23396
23388
23403
23394
23397
23391
23382
23389
23379
23399
23383
23388
23382
23369
23390
23373
23391
23375
23388
23377
23385
23382
23393
23380
23359
23372
23366
23377
23365
23376
23370
23377
23368
23386
23367
23361
23370
23361
23371
23358
23371
23360
23369
23356
23365
23355
23366
23357
23367
23364
23367
23357
23367
23357
23343
23354
23349
23351
23352
23346
23348
23342
23356
23345
23356
23348
23335
23350
23343
23350
23351
23363
23343
23335
23340
23334
23339
23330
23342
23329
23342
23330
23341
23332
23354
23335
23322
23338
23343
23329
23337
23330
23327
23328
23322
23340
23335
23319
23324
23322
23331
23319
23338
23321
23311
23324
23311
23322
23316
23322
23314
23327
23327
23304
23315
23306
23316
23317
23302
23318
23305
23316
23315
23299
23312
23300
23319
23306
23292
23315
23303
23295
23305
23298
23308
23298
23314
23298
23301
23295
23300
23289
23303
23289
23299
23289
23301
23289
23298
23279
23302
23287
23296
23287
23294
23300
23279
23287
23277
23290
23276
23285
23280
23295
23285
23295
23291
23300
23290
23287
23285
23289
23279
23275
23278
23268
23271
23269
23279
23271
23277
23274
23276
23276
23294
23276
23264
23278
23271
23276
23270
23254
23274
23271
23260
23254
23268
23260
23283
23268
23263
23247
23259
23255
23266
23251
23263
23249
23266
23260
23264
23260
23270
23256
23271
23248
23245
23250
23246
23261
23251
23241
23255
23244
23248
23253
23269
23247
23237
23247
23236
23255
23247
23231
23244
23233
23246
23236
23234
23244
23229
23249
23234
23244
23239
23227
23243
23243
23237
23233
23235
23237
23221
23236
23220
23234
23225
23233
23226
23212
23224
23218
23226
23210
23224
23210
23219
23211
23228
23213
23229
23221
23210
23213
23210
23211
23206
23210
23207
23212
23200
23221
23205
23198
23225
23211
23205
23196
23198
23197
23209
23196
23205
23188
23201
23192
23198
23182
23215
23199
23193
23200
23211
23205
23202
23194
23202
23193
23202
23192
23198
23197
23212
23189
23182
23191
23189
23177
23183
23179
23188
23175
23188
23173
23191
23175
23169
23181
23178
23168
23178
23167
23177
23183
23151
23174
23166
23174
23181
23173
23175
23162
23198
23181
23166
23173
23164
23167
23153
23166
23154
23170
23158
23175
23170
23180
23164
23156
23165
23155
23167
23157
23165
23166
23154
23162
23156
23167
23158
23164
23161
23164
23149
23159
23140
23151
23143
23149
23199
23156
23204
23143
23131
23146
23118
23135
23122
23133
23116
23141
23116
23145
23119
23153
23136
23156
23130
23107
23139
23114
23140
23132
23150
23132
23163
23121
23110
23122
23111
23119
23108
23118
23104
23116
23107
23117
23106
23114
23109
23110
23108
23121
23109
23118
23106
23115
23108
23118
23108
23108
23118
23105
23105
23095
23113
23102
23108
23099
23108
23100
23103
23099
23102
23098
23108
23099
23101
23088
23105
23111
23108
23118
23100
23103
23098
23104
23092
23100
23094
23109
23094
23101
23093
23103
23089
23103
23098
23102
23091
23103
23091
23103
23096
23106
23095
23106
23100
23098
23086
23095
23081
23092
23087
23093
23077
23086
23075
23092
23081
23092
23082
23076
23081
23075
23084
23073
23083
23071
23087
23076
23085
23075
23080
23069
23079
23069
23078
23065
23080
23070
23081
23068
23076
23079
23082
23066
23063
23066
23061
23073
23055
23069
23056
23070
23063
23073
23060
23055
23062
23055
23065
23053
23061
23052
23060
23047
23065
23055
23063
23060
23060
23046
23050
23047
23047
23046
23053
23042
23042
23036
23046
23073
23046
23034
23044
23042
23047
23039
23052
23044
23047
23044
23047
23044
23036
23039
23031
23034
23032
23038
23023
23037
23029
23041
23030
23041
23029
23038
23042
23047
23034
23052
23036
23055
23035
23039
23028
23023
23031
23012
23031
23015
23029
23023
23033
23020
23024
23015
23031
23015
23023
23009
23022
23033
23017
23023
23019
23024
23022
23041
23022
23024
23019
23019
23008
23015
23005
23015
23027
23006
23012
23000
23012
22996
23012
23015
23003
23015
22997
23012
22996
23011
22990
23007
22996
23007
22996
23007
22996
23007
22992
23006
22996
23002
22995
23004
22986
22996
22989
22998
22989
22993
23007
22996
23001
22988
22996
22980
22993
22983
22996
22983
22996
22990
22999
22981
22983
22974
22979
22972
22977
22987
22983
22984
22981
22981
22965
22981
22968
22975
22962
22969
22980
22978
22972
22974
22956
22964
22951
22966
22956
22964
22955
22950
22961
22947
22957
22949
22957
22949
22959
22949
22954
22948
22956
22945
22952
22963
22949
22954
22940
22953
22945
22956
22943
22949
22935
22946
22938
22950
22951
22938
22945
22933
22945
22934
22943
22938
22943
22931
22943
22927
22943
22929
22945
22928
22955
22932
22921
22941
22924
22942
22927
22953
22925
22919
22926
22948
22925
22941
22929
22949
22928
22943
22918
22910
22922
22906
22921
22911
22925
22918
22919
22911
22923
22919
22930
22912
22923
22911
22919
22907
22916
22899
22910
22898
22908
22900
22908
22899
22907
22895
22913
22897
22902
22895
22906
22890
22895
22891
22899
22886
22888
22880
22905
22886
22893
22884
22889
22897
22887
22899
22887
22894
22881
22891
22873
22882
22879
22886
22903
22889
22898
22887
22898
22876
22891
22871
22886
22877
22885
22875
22887
22876
22885
22870
22879
22865
22865
22874
22882
22878
22875
22895
22874
22863
22874
22861
22873
22864
22895
22868
22855
22868
22861
22869
22864
22881
22861
22854
22858
22855
22862
22853
22862
22850
22863
22855
22858
22859
22865
22855
22865
22850
22837
22853
22844
22855
22852
22877
22849
22831
22852
22834
22843
22833
22844
22831
22847
22829
22840
22830
22844
22847
22829
22838
22825
22839
22831
22842
22841
22853
22829
22822
22830
22821
22834
22825
22844
22840
22854
22824
22820
22824
22816
22827
22814
22831
22815
22831
22820
22830
22816
22831
22814
22833
22813
22825
22812
22831
22822
22822
22805
22822
22805
22826
22812
22803
22814
22805
22814
22798
22814
22799
22816
22802
22817
22805
22808
22797
22807
22791
22809
22790
22805
22791
22804
22791
22805
22791
22801
22810
22799
22787
22799
22788
22797
22781
22796
22781
22796
22785
22794
22782
22797
22783
22789
22779
22796
22788
22788
22778
22796
22773
22788
22775
22783
22775
22780
22772
22782
22780
22782
22780
22785
22772
22780
22771
22763
22768
22765
22775
22762
22774
22764
22779
22774
22787
22766
22753
22761
22752
22772
22767
22748
22758
22751
22764
22748
22764
22749
22764
22748
22756
22761
22759
22760
22748
22758
22748
22766
22754
22748
22753
22739
22746
22743
22749
22734
22757
22758
22746
22757
22759
22758
22737
22745
22732
22750
22737
22747
22732
22742
22753
22734
22751
22732
22741
22727
22738
22728
22741
22731
22746
22727
22741
22726
22738
22745
22727
22738
22724
22732
22752
22736
22750
22735
22748
22737
22722
22727
22724
22734
22721
22727
22716
22732
22718
22727
22718
22736
22729
22734
22732
22713
22721
22702
22719
22708
22711
22700
22715
22693
22711
22691
22710
22732
22705
22746
22727
22762
22714
22729
22712
22730
22700
22687
22703
22683
22695
22680
22693
22680
22694
22678
22692
22682
22690
22677
22694
22679
22689
22677
22699
22686
22677
22694
22677
22695
22679
22693
22692
22673
22684
22676
22689
22672
22686
22676
22686
22679
22678
22673
22682
22677
22683
22675
22703
22680
22670
22680
22674
22684
22670
22680
22677
22686
22678
22670
22681
22673
22677
22670
22683
22669
22665
22675
22667
22675
22665
22684
22669
22664
22676
22669
22676
22677
22689
22673
22668
22671
22661
22676
22670
22687
22671
22662
22667
22663
22673
22671
22663
22667
22656
22663
22655
22664
22656
22660
22660
22660
22660
22663
22653
22662
22659
22664
22654
22662
22656
22663
22650
22665
22652
22660
22647
22663
22655
22662
22650
22665
22652
22664
22651
22662
22649
22663
22648
22662
22647
22661
22649
22658
22644
22657
22647
22647
22636
22652
22642
22652
22638
22645
22639
22650
22655
22643
22649
22633
22646
22634
22647
22638
22645
22634
22646
22644
22645
22647
22644
22634
22642
22637
22639
22632
22641
22628
22633
22629
22644
22628
22644
22647
22651
22645
22663
22642
22647
22626
22641
22631
22637
22632
22641
22625
22633
22626
22636
22623
22641
22626
22636
22634
22642
22623
22639
22629
22636
22628
22639
22628
22633
22622
22628
22623
22631
22622
22636
22620
22629
22620
22633
22621
22630
22630
22630
22624
22629
22617
22631
22621
22637
22619
22627
22620
22631
22617
22630
22615
22630
22623
22631
22621
22628
22621
22631
22616
22631
22611
22626
22610
22622
22607
22623
22606
22626
22607
22626
22608
22625
22606
22622
22602
22620
22612
22620
22604
22614
22603
22617
22605
22619
22598
22613
22610
22616
22605
22621
22609
22592
22615
22601
22612
22611
22598
22605
22594
22610
22598
22610
22593
22601
22598
22609
22592
22605
22597
22609
22602
22591
22595
22587
22595
22592
22593
22584
22596
22602
22586
22598
22586
22594
22583
22591
22587
22594
22577
22599
22597
22594
22592
22581
22595
22578
22590
22578
22585
22577
22593
22573
22583
22580
22591
22574
22595
22573
22595
22583
22590
22574
22586
22572
22590
22568
22587
22572
22580
22566
22578
22567
22572
22585
22565
22581
22564
22572
22563
22583
22567
22577
22566
22578
22575
22598
22572
22576
22566
22576
22566
22577
22560
22569
22554
22569
22559
22577
22566
22590
22561
22553
22564
22547
22567
22556
22551
22559
22548
22567
22554
22570
22556
22540
22561
22555
22544
22565
22555
22541
22558
22546
22558
22551
22542
22554
22554
22541
22556
22545
22556
22559
22535
22550
22541
22556
22552
22535
22550
22540
22561
22546
22535
22560
22548
22535
22549
22540
22535
22553
22544
22534
22545
22534
22548
22554
22502
22535
22532
22534
22527
22540
22529
22543
22530
22546
22535
22542
22525
22541
22526
22544
22529
22518
22528
22524
22542
22540
22517
22535
22521
22535
22521
22532
22530
22535
22532
22535
22534
22544
22532
22535
22518
22535
22522
22531
22517
22534
22516
22535
22516
22535
22522
22534
22533
22519
22519
22510
22518
22508
22524
22513
22517
22512
22519
22508
22519
22523
22507
22513
22501
22516
22511
22522
22508
22517
22521
22495
22506
22506
22513
22501
22522
22506
22524
22510
22518
22502
22516
22500
22521
22503
22516
22494
22513
22498
22507
22501
22503
22492
22507
22494
22512
22492
22499
22493
22499
22492
22501
22487
22509
22492
22508
22503
22488
22502
22488
22502
22494
22511
22499
22485
22494
22488
22504
22502
22484
22498
22488
22498
22494
22514
22495
22480
22499
22480
22497
22484
22495
22478
22488
22501
22495
22476
22490
22476
22495
22482
22496
22486
22477
22489
22476
22494
22480
22478
22487
22484
22468
22482
22470
22488
22477
22503
22485
22468
22488
22484
22462
22476
22476
22468
22476
22461
22479
22462
22479
22468
22468
22483
22471
22486
22477
22484
22471
22481
22472
22460
22467
22453
22470
22462
22474
22461
22476
22458
22472
22460
22474
22457
22465
22450
22469
22467
22471
22460
22446
22466
22447
22466
22455
22469
22462
22480
22454
22443
22463
22456
22450
22444
22462
22447
22460
22451
22460
22463
22471
22458
22461
22450
22437
22448
22438
22445
22443
22447
22437
22452
22436
22448
22438
22460
22441
22453
22444
22436
22452
22440
22459
22444
22432
22448
22433
22450
22450
22436
22448
22453
22463
22439
22430
22447
22433
22450
22429
22448
22436
22452
22442
22438
22450
22432
22454
22444
22461
22433
22415
22441
22418
22477
22431
22407
22436
22443
22406
22407
22439
22420
22444
22438
22406
22431
22408
22434
22410
22439
22418
22475
22429
22412
22412
22401
22407
22437
22424
22426
22421
22416
22415
22414
22413
22416
22405
22399
22404
22406
22436
22410
22402
22410
22404
22410
22399
22420
22406
22428
22415
22431
22412
22399
22408
22404
22412
22404
22413
22403
22412
22399
22410
22398
22415
22404
22401
22410
22396
22408
22402
22409
22393
22412
22401
22412
22415
22396
22410
22396
22414
22406
22426
22407
22392
22404
22399
22401
22396
22406
22393
22407
22399
22406
22391
22399
22392
22410
22404
22416
22408
22430
22407
22390
22402
22429
22408
22411
22407
22409
22398
22404
22390
22402
22391
22407
22388
22410
22402
22405
22394
22391
22423
22397
22394
22404
22404
22430
22402
22383
22398
22388
22404
22396
22422
22391
22376
22400
22383
22399
22386
22404
22389
22403
22389
22399
22385
22402
22388
22399
22382
22399
22389
22397
22393
22403
22395
22381
22383
22378
22389
22410
22383
22376
22385
22378
22391
22380
22388
22375
22386
22375
22389
22373
22388
22378
22385
22380
22385
22400
22386
22399
22388
22396
22388
22390
22387
22399
22384
22396
22380
22399
22383
22378
22382
22378
22399
22378
22398
22385
22375
22391
22381
22393
22393
22411
22388
22377
22383
22370
22389
22375
22392
22389
22375
22383
22374
22386
22374
22394
22397
22380
22383
22378
22394
22388
22403
22385
22401
22389
22406
22388
22375
22386
22375
22385
22375
22386
22375
22396
22398
22380
22386
22374
22392
22377
22395
22399
22368
22388
22375
22394
22388
22378
22388
22373
22398
22396
22364
22384
22374
22388
22381
22396
22391
22420
22382
22356
22382
22374
22389
22378
22394
22383
22390
22391
22375
22383
22373
22388
22380
22397
22383
22374
22388
22370
22391
22380
22397
22377
22392
22381
22372
22377
22374
22393
22386
22370
22380
22369
22388
22381
22372
22396
22383
22375
22377
22374
22389
22386
22374
22383
22370
22386
22374
22399
22375
22372
22383
22368
22377
22373
22389
22377
22396
22379
22372
22389
22377
22391
22388
22372
22386
22369
22391
22382
22406
22382
22371
22381
22374
22381
22390
22371
22381
22373
22389
22384
22375
22381
22374
22381
22385
22368
22380
22365
22388
22388
22364
22376
22369
22375
22365
22378
22371
22379
22388
22378
22388
22375
22383
22368
22387
22365
22382
22368
22382
22369
22378
22361
22378
22373
22380
22368
22382
22371
22383
22368
22380
22368
22381
22369
22382
22368
22376
22374
22378
22367
22381
22369
22383
22375
22382
22374
22376
22369
22385
22374
22396
22382
22396
22382
22376
22388
22374
22384
22371
22390
22381
22407
22383
22375
22384
22375
22389
22381
22396
22388
22377
22389
22377
22391
22380
22388
22383
22407
22383
22372
22388
22383
22372
22372
22380
22390
22397
22383
22375
22387
22374
22384
22372
22383
22372
22393
22376
22393
22385
22369
22380
22375
22385
22375
22388
22374
22392
22394
22378
22389
22380
22390
22380
22390
22383
22396
22385
22403
22397
22380
22399
22383
22401
22399
22414
22407
22410
22389
22381
22399
22383
22401
22383
22394
22388
22399
22383
22401
22399
22424
22393
22388
22398
22388
22407
22399
22385
22397
22391
22406
22396
22407
22393
22406
22404
22394
22394
22389
22400
22384
22401
22389
22398
22388
22397
22393
22407
22396
22411
22404
22412
22412
22399
22403
22398
22415
22404
22428
22405
22396
22406
22397
22419
22406
22401
22415
22406
22414
22406
22403
22412
22401
22422
22406
22420
22405
22421
22404
22421
22401
22415
22409
22414
22404
22420
22413
22425
22415
22429
22423
22420
22411
22428
22412
22430
22416
22427
22415
22430
22422
22428
22416
22430
22412
22431
22417
22428
22417
22429
22414
22429
22417
22430
22418
22428
22418
22433
22423
22437
22430
22418
22434
22420
22440
22431
22442
22438
22436
22436
22454
22430
22418
22440
22431
22448
22436
22428
22437
22428
22431
22427
22429
22429
22431
22423
22436
22424
22436
22431
22446
22425
22440
22433
22447
22430
22445
22457
22448
22461
22449
22455
22438
22439
22447
22437
22454
22439
22450
22436
22451
22447
22446
22438
22456
22447
22455
22438
22453
22444
22452
22446
22463
22457
22447
22459
22439
22459
22449
22458
22448
22451
22485
22463
22470
22460
22467
22453
22465
22452
22462
22463
22482
22461
22470
22453
22471
22452
22471
22460
22469
22468
22477
22466
22448
22470
22461
22470
22463
22473
22476
22479
22466
22474
22468
22463
22471
22460
22471
22466
22486
22466
22485
22476
22493
22475
22471
22479
22470
22484
22473
22491
22487
22490
22482
22490
22488
22495
22497
22494
22489
22486
22485
22476
22494
22475
22486
22479
22487
22474
22488
22466
22487
22469
22490
22470
22496
22484
22557
22483
22468
22492
22469
22496
22468
22497
22474
22503
22492
22504
22498
22506
22485
22503
22487
22502
22500
22478
22494
22482
22492
22482
22500
22480
22490
22484
22495
22493
22498
22489
22499
22490
22502
22487
22505
22497
22510
22507
22499
22502
22501
22510
22502
22516
22502
22510
22513
22509
22516
22507
22512
22509
22526
22516
22533
22520
22516
22532
22519
22517
22529
22522
22529
22527
22532
22534
22540
22534
22522
22530
22526
22535
22526
22538
22525
22535
22532
22545
22548
22556
22538
22535
22549
22538
22533
22549
22549
22535
22545
22540
22553
22547
22542
22550
22539
22556
22550
22559
22551
22563
22554
22580
22558
22550
22562
22563
22560
22558
22574
22559
22566
22564
22551
22561
22554
22567
22562
22574
22572
22558
22564
22559
22568
22564
22570
22571
22581
22575
22583
22580
22600
22581
22568
22575
22567
22580
22564
22580
22570
22589
22574
22584
22573
22588
22576
22590
22579
22575
22583
22575
22591
22577
22593
22580
22591
22581
22599
22579
22596
22583
22601
22598
22624
22601
22586
22610
22594
22609
22598
22627
22594
22594
22601
22593
22601
22599
22616
22600
22620
22615
22627
22627
22628
22627
22626
22613
22607
22616
22607
22623
22608
22606
22615
22604
22626
22613
22631
22617
22634
22621
22636
22626
22636
22639
22644
22632
22618
22627
22618
22633
22621
22637
22636
22621
22634
22626
22661
22639
22634
22647
22638
22659
22642
22652
22647
22637
22645
22637
22657
22642
22632
22649
22645
22660
22657
22646
22653
22647
22663
22660
22654
22663
22661
22665
22656
22650
22660
22647
22675
22671
22650
22663
22649
22670
22661
22676
22674
22661
22679
22665
22690
22670
22688
22679
22662
22682
22673
22682
22684
22662
22679
22669
22687
22692
22670
22686
22673
22692
22688
22673
22690
22679
22694
22682
22701
22684
22676
22681
22677
22689
22676
22692
22686
22694
22689
22697
22687
22701
22692
22709
22699
22693
22705
22693
22700
22698
22709
22707
22687
22696
22692
22705
22691
22705
22697
22694
22702
22700
22717
22705
22720
22711
22695
22713
22698
22717
22700
22716
22708
22699
22717
22712
22702
22714
22704
22724
22727
22705
22720
22714
22727
22720
22734
22719
22727
22714
22726
22714
22722
22715
22716
22716
22726
22730
22731
22742
22735
22739
22734
22744
22743
22745
22735
22741
22734
22748
22744
22746
22737
22753
22732
22727
22726
22753
22742
22749
22742
22748
22745
22750
22738
22749
22740
22752
22735
22748
22737
22748
22748
22757
22743
22734
22746
22735
22748
22740
22758
22747
22765
22762
22764
22767
22766
22756
22765
22753
22748
22755
22746
22755
22744
22758
22751
22761
22753
22760
22757
22772
22763
22783
22770
22757
22765
22759
22769
22758
22769
22756
22766
22758
22768
22759
22768
22765
22772
22759
22774
22765
22777
22774
22785
22773
22788
22781
22793
22780
22767
22781
22766
22783
22769
22785
22775
22783
22778
22790
22782
22792
22799
22803
22785
22775
22784
22781
22789
22785
22806
22787
22776
22788
22778
22791
22781
22797
22782
22796
22791
22801
22807
22782
22800
22792
22798
22791
22799
22783
22801
22798
22800
22809
22791
22794
22786
22804
22799
22793
22811
22805
22795
22806
22804
22812
22799
22813
22799
22811
22801
22813
22799
22812
22797
22811
22803
22809
22831
22819
22822
22823
22838
22820
22807
22820
22814
22823
22812
22831
22820
22825
22815
22810
22823
22812
22817
22806
22821
22810
22825
22820
22828
22821
22829
22823
22827
22796
22822
22822
22834
22813
22831
22857
22828
22821
22830
22857
22835
22838
22831
22841
22831
22847
22840
22848
22831
22843
22831
22839
22829
22839
22825
22841
22824
22842
22827
22849
22841
22834
22840
22835
22847
22841
22851
22839
22854
22841
22853
22836
22855
22837
22849
22839
22852
22843
22854
22848
22845
22860
22854
22846
22860
22849
22863
22848
22862
22852
22862
22855
22868
22853
22870
22863
22869
22857
22866
22868
22854
22863
22858
22868
22859
22870
22863
22876
22866
22871
22865
22876
22857
22869
22854
22876
22858
22868
22856
22870
22863
22872
22866
22882
22873
22884
22883
22887
22885
22887
22872
22886
22869
22867
22874
22863
22873
22865
22879
22863
22878
22861
22884
22915
22880
22876
22893
22879
22890
22889
22873
22878
22873
22887
22871
22890
22879
22887
22874
22900
22894
22895
22901
22915
22892
22886
22894
22883
22892
22882
22901
22880
22889
22880
22887
22908
22892
22899
22885
22899
22892
22901
22887
22909
22900
22908
22903
22919
22911
22909
22893
22904
22893
22907
22894
22906
22894
22914
22897
22887
22900
22894
22902
22898
22911
22897
22919
22909
22918
22915
22925
22908
22900
22915
22906
22919
22913
22904
22914
22906
22916
22908
22927
22920
22912
22928
22916
22935
22918
22933
22924
22943
22930
22968
22908
22891
22902
22884
22909
22884
22919
22902
22957
22907
22890
22918
22895
22926
22897
22884
22917
22911
22886
22900
22882
22913
22892
22883
22913
22912
22889
22907
22895
22936
22911
22903
22916
22910
22923
22905
22896
22910
22914
22912
22908
22913
22900
22922
22900
22910
22909
22921
22936
22919
22917
22927
22924
22925
22934
22918
22946
22929
22928
22922
22924
22915
22921
22911
22920
22911
22927
22914
22926
22922
22943
22933
22944
22947
22923
22932
22924
22927
22922
22935
22928
22927
22925
22919
22928
22922
22935
22929
22941
22932
22945
22945
22934
22940
22933
22941
22929
22941
22933
22943
22942
22939
22956
22939
22934
22943
22935
22944
22938
22951
22941
22964
22949
22975
22956
22943
22957
22958
22943
22951
22940
22953
22946
22959
22958
22945
22951
22948
22964
22956
22949
22959
22958
22961
22944
22970
22953
22957
22946
22959
22949
22955
22942
22957
22948
22965
22950
22969
22956
22972
22961
22969
22967
22973
22956
22952
22956
22954
22958
22959
22960
22953
22968
22956
22967
22967
22956
22971
22960
22975
22963
22977
22958
22972
22961
22973
22973
22968
22959
22967
22957
22966
22957
22976
22965
22962
22973
22965
22983
22975
22968
22982
22972
22985
22974
22982
22972
22981
22981
22967
22974
22964
22967
22996
22969
22968
22981
22971
22982
22975
22982
22974
22989
22987
22976
22982
22987
22975
22982
22975
22982
22972
22988
22986
22991
22975
22985
22979
22989
22981
22996
22983
22991
22978
22988
22994
22990
22992
22977
22990
22986
22997
22980
22986
22983
22983
22979
22991
22979
22994
22980
22993
22983
22994
22988
23001
22986
22979
22988
22981
22987
22980
22996
22987
22982
22991
22981
22997
22993
22999
23000
22981
22994
22987
22999
22983
22995
22985
22992
22991
22978
22986
22975
22988
22980
22992
22997
23008
22994
22986
22994
22983
22995
22981
22995
22983
22996
22986
22993
22988
23005
22980
22982
22995
22980
22989
22983
22996
22987
22997
22988
23004
23001
22981
22991
22980
22990
22986
22991
22982
22989
22982
22985
22975
22994
22994
22994
23011
22991
22985
22992
22986
22991
22990
22996
22981
22996
22984
23005
22984
22982
22991
22976
22991
22991
22989
22998
22983
22997
22995
22991
22996
22983
22995
22988
22992
22986
22981
22991
22987
22996
22993
23005
22986
22980
22988
22988
22990
22996
22982
22990
22985
22994
22983
22993
22980
22993
22983
22990
22978
22982
22980
22986
22982
22988
22995
23001
22993
22983
22994
22987
22997
22991
22997
22998
22996
23003
22999
22990
22988
22985
22987
22981
22986
22991
22988
23004
22995
22996
22987
22970
22996
22987
22995
22982
22988
22983
22994
22980
22986
22976
22989
22980
22986
22980
22988
22988
22994
22989
22985
22992
22986
22993
22991
23004
22981
22983
22994
22980
23002
22988
22983
22997
22985
22978
22991
22993
22986
22994
22985
22997
22981
22991
23007
22994
22997
22991
22987
22987
22989
22990
22991
22982
22979
22995
22982
22993
22997
22997
22991
22998
22992
22988
23001
22990
22996
22990
22988
22980
22977
22988
22978
22988
22983
22988
22991
22984
22985
22981
22998
22985
22994
22991
22991
22983
22984
22980
22985
22988
22981
22984
22975
22985
22972
22985
22982
22978
22983
22983
22980
22995
22988
22982
22985
22979
22980
22975
22982
22980
22981
22985
22980
22977
22990
22979
22972
22981
22981
22984
22981
22983
22983
22977
22984
22977
22980
22972
22978
22972
22978
22980
22990
22979
22969
22980
22970
22976
22980
22983
22982
22978
22983
22976
22982
22973
22976
22976
22983
22980
22959
22973
22965
22968
22988
22974
22961
22973
22961
22974
22970
22975
22971
22980
22975
22975
22965
22974
22965
22972
22957
22961
22959
22966
22958
22964
22959
22967
22964
22969
22980
22962
22974
22964
22974
22964
22965
22958
22964
22951
22961
22956
22956
22951
22961
22946
22960
22965
22958
22959
22967
22962
22962
22958
22964
22956
22965
22951
22959
22954
22962
22956
22964
22954
22977
22951
22946
22949
22948
22956
22950
22966
22966
22951
22957
22949
22958
22950
22949
22949
22951
22940
22948
22938
22949
22943
22951
22954
22946
22948
22944
22950
22950
22955
22950
22954
22942
22955
22948
22962
22948
22940
22948
22945
22938
22947
22940
22950
22945
22954
22948
22949
22952
22943
22954
22950
22943
22962
22946
22940
22948
22943
22948
22942
22956
22943
22937
22943
22935
22951
22945
22945
22950
22943
22951
22951
22935
22947
22939
22941
22935
22951
22940
22932
22943
22943
22949
22943
22942
22946
22948
22950
22951
22954
22951
22954
22949
22969
22935
22970
22940
22942
22919
22935
22910
22932
22915
22933
22917
22929
22919
22939
22919
22938
22922
22933
22911
22935
22909
22926
22911
22929
22906
22925
22915
22924
22916
22928
22919
22923
22913
22926
22919
22925
22916
22924
22910
22920
22914
22918
22909
22920
22911
22916
22908
22919
22916
22921
22919
22919
22936
22922
22932
22922
22935
22919
22919
22920
22914
22911
22918
22914
22917
22917
22908
22917
22913
22926
22921
22890
22918
22919
22921
22916
22927
22916
22911
22922
22917
22922
22919
22926
22915
22918
22910
22908
22918
22916
22917
22919
22925
22914
22922
22923
22913
22918
22910
22915
22908
22918
22909
22912
22910
22919
22911
22908
22910
22907
22913
22908
22914
22913
22925
22916
22919
22915
22906
22909
22902
22914
22903
22909
22899
22905
22903
22910
22904
22915
22900
22913
22910
22913
22910
22916
22908
22910
22908
22918
22903
22899
22905
22895
22901
22890
22904
22899
22908
22898
22901
22903
22916
22911
22909
22908
22903
22909
22901
22906
22905
22889
22900
22892
22892
22906
22901
22908
22903
22900
22895
22900
22897
22903
22898
22903
22897
22898
22895
22898
22887
22900
22888
22895
22887
22900
22887
22893
22892
22902
22894
22897
22895
22905
22892
22902
22891
22901
22894
22903
22900
22906
22886
22879
22887
22882
22893
22887
22895
22887
22897
22887
22895
22889
22897
22889
22897
22887
22892
22876
22889
22872
22886
22877
22887
22880
22893
22878
22878
22885
22879
22893
22887
22892
22898
22892
22884
22879
22886
22877
22885
22871
22886
22879
22885
22878
22885
22884
22886
22886
22903
22884
22903
22891
22895
22887
22875
22873
22871
22876
22893
22875
22879
22871
22884
22870
22880
22875
22883
22878
22887
22881
22880
22871
22878
22879
22880
22871
22877
22879
22887
22879
22879
22875
22866
22868
22862
22871
22860
22874
22860
22874
22868
22874
22874
22862
22874
22862
22873
22854
22871
22863
22883
22874
22860
22868
22862
22859
22876
22862
22871
22863
22863
22867
22862
22874
22862
22856
22868
22861
22866
22850
22869
22866
22868
22864
22879
22862
22852
22863
22856
22862
22852
22862
22848
22863
22852
22863
22855
22860
22849
22859
22849
22852
22852
22858
22858
22847
22858
22850
22855
22848
22862
22850
22860
22850
22863
22852
22844
22854
22843
22857
22863
22850
22855
22844
22856
22850
22853
22845
22852
22847
22854
22852
22858
22855
22847
22850
22836
22854
22845
22860
22844
22852
22842
22855
22840
22847
22852
22852
22855
22852
22862
22857
22867
22855
22855
22836
22849
22839
22849
22837
22847
22834
22844
22838
22847
22839
22844
22839
22847
22838
22847
22836
22849
22842
22836
22843
22836
22841
22836
22841
22858
22851
22846
22845
22847
22845
22849
22841
22840
22837
22846
22834
22852
22843
22857
22839
22828
22832
22820
22842
22833
22841
22844
22831
22836
22825
22837
22826
22843
22825
22836
22830
22834
22825
22837
22829
22839
22828
22835
22824
22843
22833
22840
22843
22855
22832
22829
22837
22821
22831
22849
22829
22822
22835
22825
22834
22827
22834
22820
22833
22817
22828
22816
22831
22820
22833
22820
22823
22821
22828
22813
22823
22850
22821
22832
22835
22833
22824
22817
22823
22823
22813
22815
22818
22813
22821
22810
22821
22828
22814
22826
22817
22815
22812
22827
22818
22823
22831
22828
22822
22823
22812
22817
22813
22820
22812
22824
22825
22815
22822
22807
22818
22808
22821
22816
22823
22825
22818
22823
22820
22810
22817
22820
22807
22819
22806
22815
22799
22815
22806
22812
22807
22829
22819
22821
22817
22815
22814
22815
22807
22815
22801
22812
22804
22813
22810
22814
22813
22818
22801
22797
22809
22798
22803
22799
22796
22791
22801
22784
22801
22788
22802
22791
22807
22791
22806
22790
22800
22790
22804
22796
22799
22791
22796
22790
22796
22791
22799
22823
22794
22816
22791
22818
22795
22802
22791
22803
22784
22795
22786
22796
22785
22785
22782
22789
22782
22787
22775
22801
22788
22778
22788
22775
22791
22780
22792
22777
22787
22777
22790
22776
22785
22814
22788
22791
22778
22789
22781
22790
22780
22791
22775
22791
22787
22775
22795
22785
22777
22791
22777
22788
22780
22784
22788
22791
22783
22777
22785
22779
22788
22775
22791
22784
22772
22783
22775
22783
22782
22801
22775
22766
22776
22767
22780
22776
22760
22786
22764
22752
22784
22759
22790
22766
22754
22782
22756
22786
22780
22793
22777
22788
22778
22802
22762
22754
22759
22755
22763
22751
22760
22748
22769
22767
22752
22780
22763
22765
22753
22756
22751
22763
22759
22761
22766
22756
22759
22752
22759
22759
22749
22759
22752
22764
22757
22749
22759
22748
22758
22748
22757
22778
22764
22751
22758
22757
22751
22759
22746
22759
22755
22766
22755
22744
22753
22752
22765
22757
22748
22756
22751
22754
22743
22759
22750
22757
22750
22750
22754
22747
22755
22750
22739
22753
22741
22766
22744
22734
22751
22740
22751
22741
22757
22749
22740
22753
22743
22759
22749
22735
22748
22742
22756
22745
22735
22746
22733
22751
22752
22751
22754
22765
22748
22746
22751
22747
22750
22751
22759
22738
22735
22748
22743
22748
22751
22757
22753
22758
22738
22733
22742
22736
22742
22734
22743
22737
22748
22740
22767
22743
22732
22741
22736
22740
22729
22740
22732
22746
22735
22750
22740
22758
22737
22739
22741
22731
22748
22735
22728
22741
22725
22742
22732
22748
22741
22726
22731
22722
22741
22732
22751
22735
22733
22739
22729
22741
22731
22744
22735
22749
22733
22726
22735
22729
22736
22725
22741
22739
22724
22725
22724
22740
22731
22745
22736
22746
22732
22726
22733
22720
22736
22735
22725
22732
22722
22736
22725
22737
22740
22750
22735
22740
22735
22740
22736
22724
22731
22727
22737
22723
22735
22723
22727
22731
22735
22726
22721
22728
22715
22729
22716
22733
22725
22723
22734
22737
22720
22728
22716
22727
22726
22732
22726
22733
22727
22714
22731
22726
22750
22727
22724
22732
22725
22737
22725
22720
22729
22729
22713
22732
22725
22719
22727
22716
22732
22719
22716
22726
22724
22698
22727
22717
22733
22726
22722
22729
22716
22726
22719
22713
22725
22719
22727
22725
22711
22721
22711
22721
22715
22727
22728
22729
22726
22712
22722
22727
22708
22729
22718
22726
22723
22710
22723
22715
22733
22721
22710
22718
22714
22708
22718
22711
22720
22711
22705
22716
22700
22718
22705
22712
22713
22718
22713
22700
22712
22704
22700
22703
22718
22699
22714
22709
22720
22711
22701
22709
22702
22716
22714
22714
22708
22714
22709
22714
22712
22719
22708
22713
22711
22724
22716
22699
22702
22702
22705
22697
22705
22696
22708
22698
22694
22702
22698
22705
22697
22707
22701
22714
22700
22692
22705
22688
22703
22692
22705
22694
22700
22692
22708
22693
22697
22686
22703
22687
22702
22689
22703
22688
22699
22689
22695
22690
22694
22685
22696
22689
22700
22693
22700
22691
22698
22686
22699
22688
22700
22690
22696
22692
22684
22699
22687
22695
22686
22702
22701
22681
22687
22681
22698
22688
22694
22694
22682
22691
22680
22694
22678
22708
22688
22676
22695
22681
22694
22685
22679
22688
22683
22692
22681
22673
22689
22678
22688
22684
22704
22687
22673
22686
22673
22686
22676
22682
22676
22685
22673
22687
22677
22693
22677
22674
22676
22671
22679
22670
22677
22668
22688
22679
22683
22671
22686
22676
22684
22680
22695
22676
22669
22677
22666
22681
22665
22681
22668
22677
22663
22677
22662
22678
22671
22680
22661
22677
22663
22677
22668
22677
22663
22679
22664
22677
22668
22675
22665
22684
22663
22683
22673
22654
22671
22663
22671
22678
22671
22662
22671
22683
22679
22678
22666
22668
22655
22662
22656
22665
22681
22660
22686
22671
22672
22662
22668
22655
22668
22660
22664
22652
22665
22655
22663
22662
22665
22655
22664
22654
22663
22655
22663
22652
22662
22653
22664
22647
22665
22647
22666
22651
22662
22647
22662
22654
22665
22644
22662
22648
22665
22655
22670
22660
22671
22657
22648
22650
22642
22655
22647
22652
22639
22655
22668
22652
22660
22653
22668
22659
22654
22645
22652
22641
22654
22674
22655
22657
22655
22652
22636
22647
22638
22644
22636
22651
22652
22635
22640
22631
22645
22631
22638
22632
22644
22641
22644
22639
22652
22642
22650
22647
22657
22638
22661
22644
22661
22639
22621
22633
22646
22639
22650
22646
22655
22636
22642
22636
22648
22636
22647
22629
22646
22626
22647
22639
22638
22660
22637
22656
22644
22653
22647
22650
22638
22652
22644
22688
22628
22613
22628
22611
22629
22604
22631
22611
22631
22614
22624
22605
22626
22607
22623
22606
22623
22612
22630
22628
22605
22624
22604
22626
22609
22626
22606
22618
22604
22615
22601
22623
22631
22615
22601
22627
22632
22620
22617
22621
22626
22625
22623
22616
22617
22608
22613
22605
22615
22604
22608
22599
22614
22602
22614
22602
22604
22606
22615
22614
22604
22613
22606
22611
22609
22608
22598
22607
22594
22610
22599
22611
22599
22607
22593
22609
22601
22613
22604
22608
22613
22613
22605
22613
22606
22623
22604
22598
22607
22599
22600
22600
22601
22591
22600
22599
22608
22615
22599
22609
22602
22597
22608
22603
22598
22600
22595
22599
22591
22603
22591
22602
22590
22599
22590
22596
22607
22594
22602
22589
22594
22588
22594
22588
22599
22597
22584
22593
22583
22594
22578
22595
22583
22591
22580
22593
22588
22590
22581
22598
22576
22595
22587
22591
22586
22591
22579
22595
22578
22587
22582
22590
22583
22593
22588
22592
22584
22592
22578
22595
22584
22590
22580
22588
22583
22584
22580
22600
22580
22582
22580
22574
22587
22574
22583
22581
22588
22584
22562
22578
22572
22580
22575
22586
22583
22570
22581
22580
22569
22585
22581
22570
22584
22578
22583
22582
22591
22578
22594
22574
22583
22579
22580
22569
22580
22558
22577
22567
22580
22568
22563
22566
22565
22567
22559
22567
22564
22571
22562
22566
22561
22567
22565
22571
22559
22572
22560
22569
22560
22571
22555
22571
22557
22573
22562
22574
22567
22556
22566
22560
22580
22563
22558
22565
22554
22567
22557
22570
22550
22564
22553
22575
22561
22546
22567
22564
22589
22562
22553
22564
22565
22550
22561
22550
22562
22554
22565
22556
22562
22551
22548
22555
22546
22558
22547
22564
22558
22572
22556
22544
22550
22550
22553
22545
22556
22535
22555
22554
22544
22555
22535
22557
22540
22550
22548
22556
22555
22540
22550
22535
22548
22539
22545
22535
22547
22535
22542
22530
22540
22528
22542
22542
22524
22534
22517
22536
22527
22542
22529
22535
22524
22535
22527
22532
22525
22534
22535
22531
22532
22525
22535
22529
22541
22532
22518
22526
22516
22531
22518
22530
22518
22532
22517
22526
22513
22533
22519
22527
22517
22532
22525
22516
22518
22519
22533
22519
22513
22533
22519
22511
22527
22510
22521
22527
22511
22518
22505
22519
22511
22517
22502
22522
22511
22508
22520
22516
22530
22511
22503
22511
22506
22513
22505
22514
22507
22513
22503
22517
22510
22514
22509
22500
22505
22492
22500
22497
22503
22493
22506
22498
22505
22497
22508
22498
22485
22503
22500
22513
22492
22484
22494
22489
22501
22484
22502
22485
22500
22493
22495
22487
22494
22497
22481
22490
22485
22490
22481
22492
22483
22497
22504
22500
22502
22498
22502
22481
22499
22487
22496
22481
22495
22480
22498
22492
22479
22488
22472
22484
22479
22486
22473
22472
22485
22472
22493
22488
22503
22481
22472
22485
22468
22479
22471
22481
22474
22484
22476
22468
22477
22470
22474
22465
22484
22466
22476
22466
22473
22463
22479
22468
22474
22460
22476
22471
22442
22473
22467
22456
22465
22450
22469
22455
22468
22459
22465
22454
22470
22461
22471
22469
22457
22470
22453
22471
22475
22468
22482
22465
22455
22464
22447
22457
22457
22456
22455
22465
22449
22462
22452
22457
22452
22461
22444
22459
22446
22463
22452
22461
22460
22479
22449
22441
22455
22441
22458
22447
22465
22451
22442
22461
22463
22439
22450
22453
22439
22459
22443
22459
22448
22442
22446
22437
22455
22436
22452
22437
22452
22437
22452
22436
22446
22434
22442
22435
22444
22452
22434
22448
22424
22437
22439
22461
22431
22434
22441
22428
22439
22439
22445
22423
22442
22435
22445
22423
22423
22431
22436
22417
22430
22439
22418
22431
22434
22421
22439
22436
22413
22425
22438
22420
22426
22437
22415
22426
22439
22418
22425
22438
22420
22431
22420
22417
22428
22420
22428
22418
22433
22434
22421
22429
22418
22429
22430
22412
22422
22436
22415
22422
22409
22417
22423
22406
22415
22444
22403
22426
22399
22413
22399
22412
22391
22414
22394
22424
22404
22426
22421
22438
22398
22455
22423
22452
22412
22388
22398
22468
22399
22414
22386
22399
22379
22396
22388
22404
22408
22407
22383
22395
22388
22394
22383
22389
22390
22391
22388
22393
22383
22391
22387
22397
22386
22404
22402
22392
22404
22390
22398
22388
22398
22386
22399
22385
22397
22387
22393
22386
22401
22385
22399
22389
22391
22377
22393
22385
22397
22383
22387
22402
22396
22395
22383
22394
22385
22394
22383
22398
22388
22407
22388
22378
22389
22379
22388
22379
22386
22379
22388
22378
22390
22379
22388
22377
22386
22390
22392
22396
22385
22384
22388
22383
22391
22376
22381
22374
22384
22375
22388
22373
22383
22373
22383
22377
22383
22395
22386
22401
22391
22406
22388
22404
22385
22391
22383
22385
22375
22389
22369
22378
22373
22377
22387
22379
22389
22372
22383
22365
22380
22372
22383
22370
22380
22369
22381
22362
22376
22366
22375
22370
22377
22367
22375
22368
22374
22370
22381
22372
22380
22374
22382
22379
22367
22372
22364
22372
22359
22372
22362
22369
22356
22360
22359
22367
22356
22375
22358
22375
22366
22374
22375
22348
22371
22393
22363
22362
22369
22357
22365
22361
22375
22370
22388
22372
22375
22374
22374
22364
22355
22367
22353
22369
22351
22371
22356
22364
22362
22350
22356
22347
22360
22353
22357
22356
22367
22365
22355
22364
22356
22366
22369
22348
22364
22353
22366
22353
22345
22362
22346
22366
22349
22366
22363
22369
22357
22342
22364
22351
22364
22353
22348
22356
22341
22356
22348
22367
22357
22372
22355
22346
22358
22345
22356
22347
22364
22353
22369
22350
22340
22356
22341
22357
22348
22343
22359
22351
22359
22347
22338
22359
22346
22361
22350
22337
22348
22337
22353
22359
22338
22347
22343
22356
22343
22341
22356
22350
22340
22343
22335
22340
22343
22335
22344
22332
22357
22340
22362
22340
22332
22343
22332
22346
22345
22331
22343
22340
22329
22343
22343
22321
22343
22335
22327
22340
22327
22340
22328
22337
22324
22342
22331
22347
22333
22324
22336
22321
22341
22326
22318
22334
22323
22317
22325
22321
22318
22331
22317
22333
22329
22317
22320
22314
22323
22316
22320
22312
22319
22312
22322
22311
22327
22320
22335
22327
22333
22314
22308
22321
22308
22319
22302
22315
22309
22314
22308
22321
22301
22316
22305
22319
22299
22312
22303
22312
22308
22319
22308
22321
22308
22313
22295
22306
22297
22313
22300
22311
22296
22308
22295
22305
22298
22306
22295
22310
22289
22307
22294
22308
22292
22298
22288
22308
22289
22306
22290
22298
22287
22294
22287
22301
22283
22295
22313
22292
22309
22288
22300
22287
22295
22307
22295
22302
22290
22296
22288
22301
22279
22287
22305
22281
22294
22279
22297
22284
22290
22284
22292
22278
22292
22279
22289
22313
22292
22306
22286
22294
22276
22283
22274
22292
22297
22282
22290
22286
22267
22279
22274
22289
22287
22276
22291
22270
22282
22271
22276
22303
22282
22287
22276
22283
22269
22281
22264
22276
22260
22271
22282
22279
22277
22265
22271
22261
22281
22282
22263
22277
22260
22268
22260
22272
22281
22267
22277
22261
22278
22255
22273
22256
22279
22255
22274
22258
22268
22277
22255
22266
22257
22264
22245
22266
22252
22263
22242
22270
22255
22268
22253
22266
22266
22246
22267
22257
22254
22264
22263
22283
22261
22287
22257
22240
22253
22242
22252
22239
22260
22251
22259
22251
22262
22258
22265
22249
22263
22243
22255
22245
22272
22252
22255
22241
22234
22246
22234
22247
22224
22247
22230
22247
22231
22249
22239
22256
22234
22226
22240
22227
22253
22236
22223
22242
22224
22241
22234
22242
22228
22247
22238
22215
22234
22226
22243
22228
22236
22223
22234
22230
22234
22226
22237
22229
22247
22228
22236
22214
22227
22218
22231
22217
22237
22216
22212
22220
22210
22221
22230
22217
22223
22204
22223
22207
22214
22203
22220
22202
22214
22204
22213
22223
22207
22218
22203
22218
22222
22205
22213
22223
22207
22215
22198
22215
22200
22213
22198
22214
22198
22212
22194
22204
22188
22204
22186
22206
22181
22204
22180
22203
22173
22203
22172
22231
22191
22258
22165
22170
22174
22190
22179
22188
22194
22184
22180
22173
22168
22163
22164
22196
22191
22162
22183
22156
22179
22159
22177
22182
22161
22180
22159
22174
22156
22173
22157
22173
22181
22162
22175
22161
22172
22176
22160
22167
22164
22166
22158
22177
22175
22160
22172
22160
22166
22175
22163
22177
22154
22164
22153
22165
22161
22159
22157
22167
22175
22160
22169
22157
22167
22150
22168
22183
22167
22175
22158
22167
22151
22166
22156
22165
22171
22152
22164
22149
22157
22171
22157
22162
22145
22158
22148
22157
22148
22157
22168
22150
22157
22146
22155
22148
22154
22148
22157
22161
22149
22159
22145
22156
22140
22154
22143
22151
22142
22151
22139
22147
22141
22148
22167
22155
22159
22140
22150
22144
22155
22145
22167
22146
22138
22148
22136
22143
22138
22148
22125
22145
22162
22151
22171
22151
22151
22147
22154
22152
22168
22146
22156
22151
22151
22135
22151
22132
22141
22155
22143
22151
22141
22148
22137
22148
22137
22156
22135
22125
22140
22151
22129
22144
22127
22141
22127
22138
22126
22141
22127
22136
22124
22146
22129
22140
22138
22139
22139
22143
22129
22138
22140
22148
22141
22167
22134
22120
22134
22121
22128
22119
22140
22145
22141
22155
22132
22134
22123
22143
22128
22143
22123
22119
22135
22121
22138
22127
22116
22133
22128
22118
22131
22118
22135
22127
22119
22127
22118
22135
22116
22132
22132
22119
22130
22115
22133
22122
22154
22131
22151
22129
22131
22116
22130
22116
22127
22112
22127
22117
22127
22116
22125
22113
22119
22116
22127
22113
22125
22113
22130
22116
22127
22111
22128
22126
22111
22119
22103
22112
22109
22118
22111
22119
22114
22121
22109
22114
22111
22119
22109
22122
22107
22125
22119
22125
22119
22123
22110
22103
22121
22127
22119
22124
22111
22119
22115
22120
22111
22116
22105
22118
22103
22111
22103
22110
22107
22128
22108
22111
22099
22107
22098
22098
22092
22107
22102
22095
22108
22095
22107
22093
22103
22090
22097
22086
22100
22091
22097
22086
22095
22090
22093
22084
22094
22087
22099
22099
22087
22095
22087
22097
22086
22103
22094
22078
22092
22087
22095
22097
22082
22093
22081
22088
22081
22093
22079
22092
22091
22096
22093
22106
22096
22095
22072
22087
22075
22087
22066
22082
22067
22080
22074
22083
22076
22076
22080
22087
22086
22099
22079
22071
22076
22068
22079
22076
22099
22074
22064
22073
22067
22073
22068
22077
22063
22070
22063
22068
22059
22078
22084
22071
22086
22068
22059
22070
22058
22071
22065
22057
22074
22076
22055
22062
22050
22068
22057
22077
22060
22052
22071
22061
22055
22066
22052
22071
22052
22067
22055
22069
22052
22069
22052
22058
22047
22063
22052
22058
22052
22062
22052
22060
22056
22082
22063
22060
22048
22057
22047
22054
22044
22050
22038
22050
22038
22052
22044
22059
22053
22076
22042
22031
22047
22081
22046
22055
22045
22051
22039
22055
22036
22031
22047
22029
22047
22040
22030
22043
22033
22047
22034
22044
22037
22052
22036
22026
22045
22043
22038
22026
22023
22044
22043
22021
22034
22054
22044
22047
22029
22023
22037
22020
22037
22023
22047
22031
22058
22037
22021
22028
22015
22027
22063
22029
22042
22034
22041
22030
22038
22031
22043
22023
22018
22023
22015
22028
22018
22029
22014
22030
22015
22037
22013
22039
22021
22011
22030
22023
22041
22021
22009
22028
22015
22024
22015
22027
22019
22052
22017
22004
22018
22001
22022
22015
22002
22012
21998
22020
22004
22035
22013
22002
22017
22012
21998
22009
21991
22009
21996
22010
21990
22007
21995
22009
21996
22007
21998
22015
21996
22009
21989
22008
21993
22015
21998
22014
21994
22009
21993
22008
22003
22009
22007
22015
22001
22006
21991
22002
21988
22005
21989
21997
21987
21993
21988
21999
22009
21997
22007
21988
21999
21980
21991
21982
21990
21985
21993
22021
21997
22004
21998
21978
21991
21983
21995
21987
21989
21978
21995
21982
21992
21985
21994
21981
21998
21991
22005
21992
21980
21993
21983
21998
21978
21996
21984
22000
21998
21973
21990
21980
21994
21980
21997
21983
21999
21993
21965
21980
21959
21977
21962
21974
22012
21985
21997
21986
22009
21971
21954
21973
21954
21988
21967
22023
21966
21956
21966
21953
21966
21953
21969
21957
21964
21948
21967
21958
21972
21949
21967
21947
21962
21949
21963
21952
21962
21961
21967
21957
21963
21951
21962
21952
21972
21955
21966
21962
21964
21958
21965
21940
21964
21955
21964
21948
21963
21951
21968
21971
21969
21958
21961
21953
21966
21948
21963
21952
21960
21951
21957
21945
21958
21949
21959
21949
21959
21950
21959
21956
21964
21951
21958
21950
21959
21948
21956
21950
21958
21948
21957
21943
21956
21942
21954
21961
21951
21959
21945
21959
21962
21948
21961
21945
21957
21950
21956
21961
21956
21961
21945
21953
21945
21951
21962
21950
21959
21944
21956
21942
21955
21938
21951
21943
21951
21981
21948
21938
21948
21935
21945
21935
21941
21934
21946
21940
21945
21938
21946
21942
21941
21938
21951
21966
21943
21951
21944
21938
21943
21936
21950
21933
21945
21933
21943
21925
21943
21935
21946
21932
21946
21940
21959
21943
21930
21945
21932
21945
21935
21949
21935
21940
21926
21949
21932
21942
21933
21943
21932
21941
21929
21943
21929
21944
21927
21937
21927
21935
21928
21933
21927
21933
21926
21935
21949
21936
21945
21930
21942
21928
21946
21933
21943
21920
21943
21924
21937
21922
21940
21929
21920
21924
21926
21935
21934
21941
21935
21934
21935
21927
21933
21933
21939
21941
21942
21937
21924
21925
21941
21935
21956
21933
21923
21927
21922
21935
21925
21945
21927
21953
21941
21938
21940
21924
21926
21919
21924
21918
21928
21916
21927
21917
21933
21921
21932
21925
21944
21926
21918
21927
21919
21930
21921
21932
21924
21914
21929
21934
21916
21925
21933
21916
21920
21917
21925
21932
21913
21930
21916
21925
21910
21927
21935
21917
21930
21914
21918
21911
21919
21906
21916
21909
21916
21911
21919
21936
21921
21909
21926
21919
21911
21918
21909
21920
21925
21915
21921
21901
21911
21902
21909
21898
21918
21919
21910
21920
21901
21912
21903
21910
21906
21914
21902
21913
21902
21906
21900
21910
21900
21909
21935
21921
21917
21897
21912
21897
21905
21895
21909
21898
21909
21895
21914
21899
21913
21911
21895
21909
21924
21911
21895
21901
21889
21903
21893
21900
21888
21901
21892
21910
21889
21910
21895
21911
21897
21888
21898
21882
21895
21893
21906
21895
21908
21892
21902
21884
21898
21891
21904
21895
21908
21895
21879
21903
21889
21908
21887
21909
21898
21909
21903
21898
21892
21903
21885
21901
21887
21900
21892
21910
21895
21904
21895
21897
21887
21898
21882
21900
21884
21894
21876
21888
21882
21895
21900
21884
21900
21883
21891
21881
21886
21878
21887
21879
21893
21883
21897
21879
21894
21884
21897
21872
21887
21877
21892
21870
21887
21872
21892
21876
21889
21876
21891
21872
21887
21896
21877
21893
21877
21885
21897
21879
21890
21875
21882
21919
21892
21903
21882
21879
21890
21896
21883
21873
21884
21877
21887
21876
21886
21868
21879
21870
21880
21875
21888
21871
21884
21867
21884
21871
21878
21898
21887
21884
21876
21882
21865
21876
21863
21872
21862
21868
21865
21873
21861
21870
21906
21884
21887
21877
21886
21870
21886
21867
21882
21868
21882
21863
21880
21862
21879
21863
21876
21869
21871
21894
21869
21882
21866
21884
21868
21884
21868
21885
21870
21886
21871
21884
21883
21892
21883
21900
21884
21894
21879
21898
21871
21862
21870
21860
21871
21855
21866
21895
21862
21875
21852
21877
21855
21869
21860
21865
21861
21866
21862
21865
21861
21874
21861
21880
21878
21890
21863
21856
21873
21858
21875
21855
21879
21873
21882
21876
21889
21863
21860
21871
21857
21868
21858
21868
21861
21871
21868
21876
21868
21872
21856
21877
21863
21871
21857
21870
21857
21869
21863
21854
21855
21849
21863
21852
21867
21848
21868
21862
21884
21860
21855
21863
21855
21869
21863
21863
21869
21853
21863
21881
21869
21879
21868
21852
21860
21855
21869
21848
21871
21859
21871
21852
21866
21847
21863
21847
21858
21855
21860
21850
21857
21850
21869
21866
21863
21861
21852
21866
21860
21864
21853
21863
21863
21862
21855
21863
21881
21864
21868
21861
21866
21857
21868
21850
21863
21843
21863
21839
21863
21832
21854
21832
21854
21837
21854
21832
21855
21835
21855
21836
21855
21839
21850
21835
21852
21833
21848
21836
21857
21834
21844
21835
21849
21838
21857
21850
21836
21845
21836
21845
21835
21846
21835
21844
21841
21852
21838
21850
21849
21863
21840
21836
21842
21842
21850
21842
21855
21849
21843
21855
21837
21852
21847
21838
21851
21836
21852
21848
21857
21857
21856
21846
21843
21851
21839
21848
21847
21853
21846
21852
21837
21854
21839
21852
21839
21850
21842
21851
21842
21849
21838
21855
21836
21853
21833
21849
21835
21849
21837
21850
21834
21853
21839
21852
21854
21869
21848
21834
21847
21838
21840
21863
21848
21854
21844
21851
21843
21852
21839
21845
21868
21852
21855
21842
21852
21848
21860
21859
21843
21847
21837
21852
21847
21857
21855
21838
21857
21832
21849
21841
21844
21836
21849
21837
21843
21832
21841
21836
21850
21829
21838
21861
21838
21848
21836
21846
21852
21836
21844
21833
21850
21832
21847
21835
21845
21835
21845
21836
21854
21834
21851
21830
21842
21860
21847
21850
21844
21871
21840
21830
21839
21831
21844
21833
21844
21835
21850
21832
21846
21829
21849
21835
21857
21839
21874
21840
21834
21844
21833
21841
21855
21844
21849
21839
21855
21835
21844
21834
21841
21871
21847
21849
21845
21862
21840
21831
21840
21832
21844
21833
21839
21829
21848
21831
21849
21833
21847
21833
21844
21829
21844
21853
21833
21850
21831
21838
21852
21834
21844
21829
21855
21852
21833
21850
21853
21830
21847
21834
21841
21830
21843
21851
21835
21854
21837
21852
21831
21846
21828
21842
21852
21841
21854
21839
21849
21832
21841
21835
21849
21834
21846
21831
21838
21855
21833
21849
21831
21838
21832
21845
21831
21850
21855
21871
21845
21854
21839
21852
21842
21860
21844
21852
21840
21849
21846
21851
21841
21831
21843
21839
21831
21851
21841
21838
21832
21842
21842
21831
21845
21834
21852
21839
21854
21844
21862
21839
21825
21842
21830
21847
21837
21830
21839
21824
21845
21826
21846
21831
21840
21833
21847
21835
21847
21836
21820
21834
21816
21836
21831
21844
21842
21853
21838
21853
21843
21846
21834
21845
21842
21867
21828
21822
21831
21828
21839
21824
21842
21825
21836
21823
21831
21818
21828
21820
21828
21819
21829
21825
21839
21822
21835
21824
21833
21821
21829
21814
21834
21814
21834
21820
21838
21820
21833
21830
21821
21827
21814
21830
21819
21831
21813
21829
21813
21828
21815
21834
21818
21828
21813
21823
21859
21830
21838
21815
21830
21814
21824
21824
21824
21811
21817
21818
21825
21812
21824
21813
21822
21810
21824
21831
21827
21836
21824
21812
21830
21812
21833
21812
21825
21812
21826
21813
21830
21809
21818
21830
21810
21826
21806
21821
21825
21813
21819
21809
21825
21825
21810
21819
21837
21816
21823
21805
21810
21825
21812
21818
21810
21819
21827
21813
21823
21805
21828
21829
21806
21822
21804
21820
21812
21823
21828
21811
21831
21807
21825
21804
21813
21846
21805
21813
21825
21805
21815
21804
21814
21815
21799
21811
21814
21801
21810
21822
21793
21807
21812
21796
21808
21816
21802
21801
21814
21797
21805
21820
21801
21808
21800
21812
21820
21802
21812
21796
21815
21817
21798
21809
21801
21816
21821
21803
21812
21801
21809
21799
21818
21820
21799
21810
21799
21811
21813
21799
21806
21820
21798
21804
21833
21800
21808
21791
21809
21815
21799
21810
21792
21799
21824
21798
21811
21791
21807
21808
21795
21804
21831
21795
21801
21794
21797
21805
21815
21794
21799
21814
21795
21797
21813
21790
21800
21813
21790
21800
21810
21791
21799
21829
21798
21810
21791
21795
21796
21808
21809
21790
21799
21822
21789
21806
21820
21796
21801
21792
21799
21800
21782
21798
21804
21785
21794
21788
21802
21796
21778
21793
21826
21788
21790
21775
21788
21823
21799
21797
21781
21790
21813
21781
21790
21785
21792
21799
21780
21791
21802
21787
21794
21786
21799
21801
21780
21798
21801
21783
21796
21788
21793
21808
21782
21790
21802
21801
21781
21801
21782
21796
21782
21791
21795
21779
21795
21776
21788
21802
21778
21791
21819
21778
21791
21803
21777
21785
21808
21780
21789
21800
21781
21790
21779
21786
21795
21780
21798
21799
21780
21796
21796
21778
21796
21796
21780
21793
21796
21815
21789
21798
21798
21787
21801
21800
21790
21800
21802
21783
21803
21801
21778
21786
21781
21787
21804
21778
21791
21766
21796
21799
21764
21775
21789
21806
21759
21778
21796
21762
21794
21791
21760
21790
21788
21758
21770
21785
21756
21775
21759
21771
21788
21756
21777
21780
21757
21772
21782
21758
21774
21759
21766
21783
21764
21772
21756
21772
21777
21762
21767
21779
21791
21766
21775
21787
21767
21774
21767
21773
21781
21767
21775
21788
21770
21772
21767
21783
21784
21776
21779
21772
21777
21801
21779
21776
21767
21785
21774
21786
21764
21788
21788
21774
21782
21771
21780
21795
21770
21777
21794
21776
21780
21784
21767
21786
21787
21775
21781
21781
21769
21777
21783
21766
21777
21780
21767
21772
21783
21772
21777
21775
21786
21785
21773
21783
21789
21767
21779
21788
21772
21780
21766
21780
21786
21767
21783
21769
21775
21775
21787
21788
21773
21785
21768
21777
21790
21775
21780
21759
21777
21784
21765
21775
21789
21762
21775
21788
21766
21781
21787
21769
21780
21791
21770
21780
21767
21779
21793
21767
21780
21792
21770
21780
21801
21770
21780
21766
21774
21786
21762
21781
21794
21767
21778
21766
21777
21781
21767
21783
21777
21772
21775
21779
21771
21783
21766
21778
21768
21782
21783
21769
21780
21784
21767
21780
21782
21767
21782
21783
21769
21772
21788
21769
21778
21765
21769
21780
21767
21780
21775
21789
21781
21765
21790
21788
21796
21776
21786
21767
21776
21791
21770
21782
21765
21783
21782
21774
21778
21771
21769
21785
21765
21773
21795
21767
21783
21767
21785
21781
21767
21777
21788
21766
21789
21767
21781
21791
21767
21772
21791
21770
21782
21786
21772
21782
21790
21772
21775
21786
21770
21779
21783
21764
21785
21791
21766
21782
21783
21770
21780
21786
21768
21781
21793
21769
21786
21771
21784
21790
21771
21786
21775
21783
21788
21764
21784
21783
21773
21778
21786
21772
21777
21806
21774
21778
21789
21767
21777
21807
21772
21766
21775
21764
21776
21763
21777
21764
21779
21763
21784
21785
21775
21783
21766
21783
21765
21779
21764
21780
21763
21783
21786
21760
21779
21765
21780
21767
21774
21770
21778
21765
21786
21783
21766
21780
21767
21778
21757
21773
21765
21764
21761
21768
21760
21772
21753
21765
21759
21768
21758
21771
21757
21767
21785
21767
21777
21766
21778
21756
21773
21760
21772
21763
21780
21766
21756
21770
21761
21767
21760
21767
21763
21765
21761
21770
21761
21767
21758
21767
21760
21767
21759
21774
21761
21771
21765
21770
21766
21782
21762
21757
21770
21772
21758
21772
21752
21767
21754
21765
21751
21760
21752
21759
21780
21759
21770
21753
21767
21753
21761
21773
21766
21779
21758
21769
21756
21767
21756
21760
21775
21756
21771
21751
21765
21753
21763
21756
21771
21772
21758
21773
21759
21775
21755
21767
21756
21764
21755
21759
21751
21764
21772
21751
21766
21749
21765
21755
21762
21779
21756
21767
21755
21767
21748
21764
21775
21751
21767
21751
21762
21767
21758
21766
21746
21759
21751
21758
21765
21751
21767
21753
21761
21754
21767
21767
21751
21759
21764
21751
21757
21766
21751
21756
21748
21759
21753
21773
21771
21757
21764
21749
21764
21751
21759
21750
21761
21769
21755
21766
21751
21765
21767
21767
21759
21783
21754
21747
21753
21745
21759
21749
21758
21747
21763
21764
21756
21760
21751
21764
21749
21758
21746
21761
21744
21755
21740
21751
21788
21760
21764
21763
21767
21748
21763
21745
21754
21740
21751
21743
21749
21762
21748
21756
21743
21758
21736
21759
21741
21756
21745
21765
21755
21742
21756
21743
21756
21740
21759
21751
21771
21751
21741
21748
21739
21753
21741
21760
21740
21758
21748
21743
21755
21741
21758
21735
21753
21745
21759
21751
21767
21740
21735
21750
21743
21761
21754
21740
21752
21746
21751
21745
21751
21739
21745
21739
21759
21738
21750
21735
21754
21736
21751
21740
21745
21733
21746
21735
21745
21730
21759
21757
21741
21752
21732
21748
21737
21751
21755
21734
21751
21725
21750
21732
21738
21731
21748
21750
21752
21761
21757
21750
21735
21746
21728
21746
21735
21742
21733
21752
21750
21737
21754
21732
21749
21738
21750
21729
21752
21734
21749
21730
21744
21757
21743
21749
21728
21735
21775
21741
21750
21727
21733
21753
21735
21737
21727
21736
21745
21724
21740
21725
21740
21748
21732
21749
21728
21742
21728
21737
21727
21734
21733
21748
21756
21735
21747
21729
21739
21731
21743
21732
21742
21751
21734
21740
21733
21744
21767
21743
21748
21724
21736
21748
21719
21735
21712
21733
21708
21731
21710
21727
21711
21725
21705
21725
21757
21725
21708
21724
21705
21719
21703
21723
21701
21735
21703
21727
21704
21731
21702
21727
21706
21733
21707
21729
21702
21723
21706
21719
21702
21721
21727
21708
21721
21703
21720
21709
21727
21729
21708
21718
21712
21720
21753
21718
21726
21703
21719
21706
21715
21720
21706
21720
21714
21726
21710
21727
21719
21757
21714
21726
21703
21716
21703
21724
21728
21704
21721
21716
21724
21702
21715
21703
21714
21704
21718
21704
21722
21724
21707
21720
21703
21718
21702
21714
21737
21706
21717
21718
21721
21714
21698
21706
21702
21709
21699
21708
21700
21713
21702
21712
21701
21710
21706
21710
21732
21706
21715
21701
21708
21702
21710
21724
21713
21713
21714
21740
21710
21702
21716
21700
21719
21696
21713
21698
21706
21703
21705
21698
21711
21716
21690
21705
21693
21703
21737
21701
21707
21695
21703
21695
21703
21700
21703
21692
21703
21690
21698
21737
21701
21730
21712
21712
21708
21713
21705
21713
21704
21712
21705
21707
21697
21710
21698
21701
21684
21704
21739
21697
21711
21687
21710
21685
21703
21686
21693
21711
21695
21708
21690
21703
21687
21701
21685
21695
21732
21702
21711
21702
21707
21695
21707
21702
21706
21693
21709
21699
21707
21693
21699
21686
21710
21707
21694
21700
21687
21697
21705
21687
21698
21686
21704
21708
21686
21697
21688
21703
21704
21690
21694
21711
21692
21707
21689
21706
21687
21702
21700
21705
21684
21709
21689
21704
21698
21662
21693
21713
21703
21702
21688
21706
21685
21695
21716
21695
21706
21688
21700
21690
21683
21699
21694
21684
21699
21678
21693
21684
21694
21684
21695
21714
21695
21683
21694
21679
21695
21684
21694
21679
21687
21715
21688
21699
21684
21703
21690
21682
21695
21686
21703
21681
21698
21687
21692
21676
21693
21698
21682
21692
21676
21684
21679
21688
21703
21694
21703
21689
21690
21686
21690
21677
21698
21701
21681
21700
21683
21699
21680
21692
21680
21692
21703
21692
21700
21679
21692
21681
21689
21708
21693
21697
21683
21686
21678
21689
21679
21689
21701
21674
21687
21673
21690
21692
21679
21685
21700
21676
21690
21676
21697
21691
21677
21684
21689
21721
21681
21689
21681
21679
21711
21690
21692
21679
21695
21675
21691
21675
21689
21679
21674
21673
21672
21686
21703
21682
21687
21669
21686
21668
21683
21670
21679
21671
21677
21670
21679
21665
21686
21672
21684
21666
21680
21670
21684
21668
21682
21671
21683
21669
21690
21692
21683
21693
21672
21687
21670
21695
21678
21674
21689
21685
21675
21695
21688
21674
21685
21672
21689
21678
21672
21682
21676
21693
21675
21670
21685
21673
21684
21673
21689
21670
21684
21670
21686
21673
21690
21670
21681
21674
21685
21676
21680
21687
21674
21692
21691
21679
21687
21676
21690
21681
21692
21699
21679
21694
21682
21697
21677
21693
21675
21688
21681
21687
21669
21686
21681
21684
21676
21693
21698
21677
21692
21676
21701
21707
21694
21700
21694
21697
21691
21700
21684
21694
21683
21698
21679
21688
21681
21687
21679
21689
21677
21700
21697
21684
21695
21678
21699
21703
21681
21695
21681
21689
21679
21694
21699
21677
21700
21697
21679
21692
21699
21684
21698
21684
21692
21681
21688
21719
21690
21695
21680
21690
21702
21695
21707
21684
21700
21679
21704
21689
21697
21684
21695
21702
21684
21700
21690
21705
21704
21689
21697
21684
21707
21705
21692
21707
21690
21700
21728
21695
21709
21691
21703
21694
21700
21711
21691
21704
21689
21703
21690
21711
21687
21704
21691
21702
21695
21707
21695
21706
21701
21717
21696
21711
21698
21716
21701
21707
21726
21702
21717
21692
21710
21698
21705
21696
21717
21725
21704
21723
21703
21710
21703
21718
21701
21713
21702
21715
21705
21710
21701
21705
21703
21700
21703
21714
21699
21716
21706
21709
21701
21718
21703
21717
21703
21715
21701
21714
21705
21715
21719
21708
21720
21713
21718
21705
21723
21710
21718
21711
21721
21710
21733
21732
21711
21725
21708
21720
21751
21719
21735
21713
21724
21702
21730
21734
21717
21725
21738
21721
21734
21709
21724
21735
21713
21732
21723
21735
21735
21721
21732
21717
21726
21738
21720
21741
21739
21727
21737
21722
21733
21748
21738
21745
21724
21736
21754
21733
21745
21731
21738
21752
21737
21748
21737
21740
21735
21742
21758
21739
21750
21741
21753
21758
21739
21750
21759
21740
21751
21737
21758
21735
21752
21734
21763
21765
21748
21765
21737
21756
21724
21743
21765
21732
21748
21731
21752
21764
21729
21753
21728
21759
21767
21735
21754
21842
21737
21761
21739
21753
21799
21757
21760
21732
21750
21742
21765
21763
21742
21752
21745
21763
21767
21748
21763
21781
21750
21760
21749
21762
21796
21767
21771
21759
21777
21763
21754
21775
21751
21766
21800
21775
21780
21773
21755
21773
21764
21775
21764
21777
21764
21774
21767
21775
21765
21783
21764
21778
21765
21778
21767
21777
21767
21783
21766
21790
21775
21793
21776
21788
21776
21786
21778
21791
21799
21790
21799
21792
21795
21796
21780
21794
21799
21782
21795
21790
21802
21779
21799
21783
21797
21785
21795
21807
21788
21805
21788
21805
21784
21803
21791
21805
21786
21798
21794
21798
21797
21799
21786
21813
21815
21819
21831
21804
21811
21799
21819
21798
21813
21799
21812
21801
21809
21801
21812
21823
21806
21822
21803
21816
21802
21817
21810
21828
21814
21827
21812
21821
21810
21821
21804
21820
21807
21815
21807
21812
21828
21815
21825
21810
21818
21854
21816
21830
21810
21828
21812
21824
21831
21813
21821
21817
21833
21837
21819
21839
21821
21830
21819
21837
21839
21836
21835
21826
21834
21818
21829
21862
21830
21837
21839
21847
21831
21843
21836
21841
21824
21842
21828
21842
21829
21843
21830
21847
21857
21839
21847
21831
21847
21833
21844
21831
21847
21835
21844
21837
21848
21839
21852
21882
21849
21858
21839
21850
21860
21842
21855
21844
21862
21863
21845
21862
21861
21845
21854
21847
21856
21864
21852
21863
21854
21866
21855
21861
21850
21860
21850
21862
21851
21871
21878
21862
21873
21860
21873
21858
21868
21898
21874
21879
21874
21907
21873
21880
21873
21881
21878
21882
21878
21881
21875
21881
21870
21886
21869
21882
21869
21887
21873
21885
21874
21890
21871
21890
21871
21882
21895
21885
21893
21879
21892
21884
21895
21880
21895
21881
21893
21881
21889
21884
21894
21891
21890
21878
21895
21878
21887
21879
21896
21900
21883
21897
21892
21892
21895
21887
21897
21886
21902
21890
21898
21903
21895
21898
21888
21896
21887
21903
21907
21892
21897
21887
21899
21900
21895
21901
21893
21900
21911
21895
21903
21891
21902
21897
21901
21921
21910
21910
21898
21903
21895
21906
21894
21911
21895
21905
21914
21903
21911
21900
21905
21914
21903
21913
21903
21911
21902
21909
21903
21908
21907
21911
21906
21909
21903
21916
21928
21911
21923
21908
21917
21902
21913
21907
21919
21907
21917
21910
21917
21906
21916
21909
21919
21930
21922
21929
21919
21929
21914
21927
21913
21921
21931
21919
21927
21916
21920
21913
21923
21911
21916
21913
21919
21919
21922
21915
21919
21914
21923
21916
21923
21921
21926
21914
21927
21922
21930
21919
21925
21917
21926
21924
21925
21931
21924
21927
21925
21927
21939
21929
21937
21927
21938
21924
21932
21925
21929
21924
21935
21926
21927
21922
21927
21926
21935
21943
21940
21942
21933
21944
21933
21940
21926
21943
21929
21938
21951
21933
21934
21927
21933
21925
21933
21949
21934
21941
21932
21941
21930
21941
21932
21943
21947
21933
21946
21927
21941
21924
21943
21930
21935
21929
21935
21925
21938
21932
21935
21962
21943
21951
21938
21941
21946
21935
21949
21935
21940
21935
21945
21937
21943
21951
21941
21946
21936
21947
21948
21945
21950
21940
21951
21940
21951
21939
21948
21937
21948
21938
21944
21967
21957
21958
21953
21956
21945
21949
21949
21952
21948
21956
21945
21956
21948
21958
21943
21958
21943
21957
21945
21952
21941
21953
21945
21956
21964
21950
21943
21957
21946
21959
21951
21959
21959
21962
21956
21961
21949
21958
21947
21962
21948
21957
21953
21958
21956
21949
21961
21947
21959
21953
21957
21971
21951
21961
21955
21962
21953
21958
21966
21963
21962
21956
21965
21951
21960
21950
21957
21966
21948
21963
21953
21957
21951
21960
21956
21961
21972
21959
21966
21956
21962
21982
21964
21974
21964
21972
21952
21966
21956
21965
21972
21955
21960
21969
21954
21959
21967
21955
21958
21967
21953
21958
21965
21953
21964
21969
21965
21969
21954
21968
21972
21965
21969
21959
21970
21956
21969
21965
21966
21972
21961
21969
21964
21974
21981
21969
21977
21965
21982
21985
21970
21978
21963
21974
21957
21980
21980
21958
21973
21953
21969
21953
21976
21987
21961
21975
21948
21971
21989
21951
21975
21954
21954
21977
21950
21970
21978
21951
21959
21987
21949
21966
21976
21957
21967
21974
21959
21970
21968
21961
21975
21959
21972
21970
21958
21970
21956
21967
21978
21958
21965
21956
21975
21972
21958
21975
21972
21966
21972
21969
21967
21978
21967
21974
21964
21972
21981
21979
21978
21969
21971
21965
21975
21982
21970
21970
21970
21981
21960
21970
21980
21969
21973
21964
21975
21965
21981
21983
21967
21983
21979
21968
21967
21974
21983
21971
21982
21967
21980
21980
21972
21974
21981
21975
21975
21967
21969
21979
21973
21977
21993
21972
21984
21972
21987
21987
21967
21977
21973
21981
21988
21976
21978
21987
21993
21972
21984
21971
21980
21967
21974
21973
21977
21989
21968
21985
21974
21981
21974
21981
21972
21978
21990
21982
21998
21976
21981
21974
21983
21968
21978
21971
21982
21972
21982
22003
21988
21986
21972
21989
21990
21974
21991
21972
21987
21973
21983
21980
21985
21971
21981
21972
21983
21999
21985
21994
21975
21985
21977
21987
21981
21996
21992
21975
21987
22013
21989
21991
21980
21993
21975
21994
21990
21975
21983
21978
21991
21973
21996
22023
21988
21977
21989
21978
21991
21978
21991
21971
21988
21972
21989
21971
21991
21976
21988
21976
21986
22002
21993
22002
21980
21999
21983
21994
21978
21988
21982
21994
21983
21999
21988
21980
21982
22000
21988
21983
21994
21989
21991
22010
21999
21995
21985
22005
21995
21998
22005
21999
21995
21994
21999
21989
21987
21985
21985
22038
22007
22004
21999
21994
22005
21989
22007
21990
22008
22011
21987
21997
21989
21997
22023
22006
22039
22004
22015
22007
21996
22006
21991
22007
21990
22006
21993
22012
22004
22019
22004
22020
22006
22013
21997
22010
21991
22010
21996
22007
21999
22014
22023
22015
22029
22017
22023
22012
22017
22004
22017
22000
22014
21998
22013
22000
22008
21996
22011
22003
22016
22027
22021
22023
21999
22017
22003
22019
22002
22016
22001
22021
22012
22021
22005
22022
22011
21999
22001
22023
22015
22005
22023
22009
22023
22009
22020
22007
22041
22007
22006
22012
22005
22009
22004
22010
22004
22012
22031
22023
22023
22021
22023
22009
22022
22012
22023
22013
22023
22017
22023
22014
22023
22006
22018
22002
22022
22024
22012
22023
22010
22020
22011
22021
22015
22012
22011
22023
22042
22019
22057
22022
22012
22023
22012
22031
22028
22010
22023
22010
22031
22015
22031
22012
22030
22020
22033
22017
22023
22021
22035
22023
22010
22022
22015
22023
22009
22029
22014
22036
22033
22053
22023
22047
22023
22052
22023
22052
22023
22021
22023
22010
22036
22019
22035
22023
22036
22019
22039
22023
22015
22032
22020
22039
22036
22021
22036
22019
22037
22021
22033
22023
22035
22022
22038
22028
22036
22043
22048
22033
22032
22039
22028
22031
22028
22036
22030
22038
22030
22042
22052
22044
22049
22044
22046
22030
22045
22031
22046
22028
22046
22043
22044
22038
22050
22050
22049
22037
22046
22038
22045
22036
22038
22032
22051
22034
22052
22036
22046
22038
22043
22037
22051
22039
22049
22040
22043
22039
22050
22056
22053
22055
22052
22061
22053
22058
22053
22053
22049
22041
22052
22061
22052
22059
22047
22055
22044
22052
22059
22052
22060
22049
22061
22058
22044
22061
22048
22057
22061
22052
22055
22053
22055
22059
22047
22057
22051
22061
22049
22055
22053
22055
22051
22063
22062
22053
22071
22055
22065
22059
22069
22055
22070
22055
22063
22071
22066
22068
22055
22066
22053
22062
22054
22067
22085
22068
22066
22063
22067
22054
22070
22058
22071
22063
22068
22062
22069
22060
22065
22060
22070
22061
22075
22085
22076
22079
22069
22077
22062
22069
22064
22075
22066
22078
22067
22077
22060
22077
22062
22074
22061
22082
22068
22076
22075
22079
22068
22076
22079
22100
22075
22067
22074
22067
22080
22070
22081
22064
22076
22071
22084
22070
22077
22067
22079
22068
22077
22071
22077
22071
22077
22094
22087
22087
22087
22084
22079
22074
22075
22091
22079
22078
22084
22076
22078
22077
22091
22081
22094
22086
22095
22082
22100
22087
22101
22090
22098
22082
22091
22075
22096
22076
22092
22072
22098
22084
22064
22088
22093
22070
22084
22066
22084
22157
22098
22112
22092
22111
22094
22106
22068
22095
22067
22085
22063
22087
22066
22090
22072
22084
22074
22086
22077
22090
22079
22092
22078
22084
22076
22085
22076
22086
22076
22086
22079
22092
22079
22091
22081
22090
22081
22091
22084
22093
22085
22095
22081
22093
22085
22094
22085
22093
22087
22097
22086
22095
22087
22098
22093
22106
22094
22103
22097
22110
22102
22102
22088
22104
22086
22098
22087
22100
22098
22102
22098
22085
22098
22093
22103
22089
22107
22086
22101
22099
22107
22093
22109
22090
22106
22097
22107
22094
22108
22089
22101
22094
22113
22111
22127
22109
22097
22109
22096
22112
22099
22110
22094
22110
22096
22109
22100
22114
22103
22111
22099
22111
22108
22113
22105
22099
22118
22108
22124
22108
22098
22111
22102
22114
22101
22115
22118
22103
22108
22107
22110
22103
22119
22108
22104
22111
22106
22123
22127
22107
22115
22107
22123
22110
22122
22119
22135
22119
22108
22123
22110
22125
22117
22127
22119
22110
22122
22113
22121
22108
22127
22119
22135
22116
22145
22112
22108
22121
22113
22117
22112
22124
22116
22135
22124
22114
22124
22115
22149
22119
22110
22124
22115
22129
22118
22130
22119
22140
22127
22118
22127
22120
22123
22124
22129
22119
22135
22116
22132
22117
22139
22123
22139
22126
22141
22131
22143
22132
22118
22127
22118
22127
22117
22122
22119
22128
22123
22136
22124
22138
22125
22140
22122
22143
22130
22148
22130
22118
22127
22125
22130
22127
22141
22135
22133
22130
22138
22129
22140
22127
22142
22129
22140
22127
22143
22133
22148
22132
22147
22137
22149
22137
22130
22141
22129
22148
22146
22130
22143
22131
22147
22132
22151
22150
22164
22141
22132
22143
22134
22145
22146
22173
22137
22157
22157
22157
22145
22150
22148
22159
22150
22155
22144
22153
22145
22151
22136
22149
22132
22143
22132
22141
22135
22138
22132
22148
22135
22146
22135
22151
22138
22146
22134
22143
22132
22149
22129
22148
22132
22149
22140
22171
22143
22133
22147
22132
22150
22144
22153
22149
22135
22149
22156
22149
22154
22142
22139
22149
22135
22148
22137
22150
22148
22173
22144
22133
22147
22138
22145
22139
22146
22132
22151
22135
22148
22132
22144
22135
22141
22135
22144
22132
22143
22132
22141
22165
22150
22148
22139
22150
22136
22155
22137
22146
22130
22141
22133
22141
22132
22142
22130
22143
22134
22140
22132
22139
22156
22151
22156
22143
22135
22148
22133
22145
22132
22142
22133
22147
22133
22145
22133
22147
22132
22145
22133
22141
22134
22140
22139
22146
22137
22142
22132
22141
22138
22146
22130
22142
22134
22142
22126
22143
22127
22141
22134
22142
22133
22155
22148
22171
22140
22127
22148
22132
22145
22133
22149
22137
22168
22137
22129
22143
22130
22140
22130
22145
22132
22144
22133
22144
22129
22145
22132
22141
22131
22143
22132
22148
22132
22150
22145
22153
22147
22159
22136
22133
22146
22135
22143
22133
22148
22133
22143
22128
22142
22125
22141
22132
22144
22129
22138
22128
22140
22131
22143
22132
22139
22133
22145
22131
22145
22125
22151
22129
22151
22135
22161
22149
22130
22143
22128
22150
22142
22165
22151
22135
22156
22150
22135
22151
22135
22151
22150
22157
22147
22131
22144
22134
22150
22131
22142
22126
22145
22131
22147
22129
22143
22135
22155
22129
22157
22139
22127
22150
22128
22153
22143
22128
22139
22127
22143
22129
22145
22138
22132
22143
22145
22128
22149
22138
22159
22149
22182
22136
22124
22138
22151
22146
22127
22135
22127
22133
22127
22135
22123
22140
22127
22156
22135
22124
22143
22130
22143
22135
22151
22145
22169
22145
22103
22132
22119
22136
22124
22134
22173
22132
22125
22138
22124
22134
22122
22135
22148
22141
22148
22129
22148
22140
22121
22135
22122
22141
22124
22146
22121
22139
22122
22141
22129
22149
22143
22124
22133
22123
22139
22119
22135
22116
22140
22119
22135
22124
22136
22123
22139
22125
22145
22127
22143
22131
22145
22145
22159
22146
22142
22143
22147
22143
22145
22142
22141
22149
22172
22148
22125
22134
22125
22135
22123
22147
22155
22129
22113
22130
22112
22126
22101
22125
22105
22131
22109
22131
22106
22128
22107
22127
22105
22141
22117
22155
22121
22106
22124
22104
22126
22103
22129
22107
22126
22113
22132
22114
22130
22108
22127
22116
22131
22113
22130
22112
22132
22127
22133
22121
22124
22114
22129
22119
22106
22114
22107
22122
22109
22121
22109
22130
22115
22127
22116
22131
22117
22132
22129
22108
22131
22121
22135
22121
22130
22127
22129
22119
22133
22117
22110
22126
22115
22131
22130
22132
22131
22147
22122
22110
22116
22111
22121
22115
22122
22113
22122
22111
22124
22115
22124
22116
22111
22117
22110
22122
22110
22124
22116
22118
22113
22119
22109
22118
22109
22122
22114
22108
22118
22107
22118
22125
22108
22119
22108
22123
22122
22130
22119
22115
22117
22110
22116
22107
22121
22108
22126
22113
22130
22124
22130
22121
22130
22123
22085
22120
22107
22116
22111
22121
22111
22120
22108
22117
22140
22112
22119
22105
22119
22105
22116
22110
22119
22111
22116
22111
22123
22108
22117
22108
22113
22101
22111
22105
22111
22102
22108
22100
22110
22107
22116
22132
22114
22106
22116
22108
22111
22103
22113
22107
22116
22116
22100
22114
22095
22115
22116
22100
22111
22098
22107
22101
22115
22103
22115
22107
22115
22105
22118
22103
22115
22109
22097
22103
22099
22108
22094
22109
22100
22113
22112
22117
22109
22109
22115
22099
22111
22092
22111
22095
22111
22107
22127
22101
22091
22107
22092
22107
22100
22111
22101
22108
22090
22111
22090
22108
22101
22107
22089
22101
22087
22104
22115
22099
22087
22098
22089
22096
22085
22099
22094
22103
22097
22108
22111
22119
22095
22122
22103
22116
22095
22087
22095
22087
22095
22089
22095
22087
22096
22079
22095
22087
22095
22088
22098
22093
22100
22099
22118
22091
22086
22094
22081
22086
22077
22090
22078
22088
22080
22087
22085
22085
22107
22092
22079
22094
22090
22077
22092
22078
22091
22084
22095
22085
22074
22085
22079
22095
22085
22079
22081
22076
22085
22074
22086
22083
22090
22076
22074
22081
22068
22087
22075
22079
22082
22058
22073
22063
22072
22060
22077
22070
22079
22068
22075
22063
22074
22060
22071
22056
22075
22061
22069
22063
22078
22059
22071
22058
22068
22060
22071
22076
22062
22079
22075
22055
22068
22055
22059
22054
22067
22052
22068
22055
22075
22067
22075
22063
22092
22058
22058
22060
22051
22066
22054
22068
22054
22065
22054
22068
22067
22047
22057
22046
22062
22049
22058
22044
22056
22034
22068
22070
22056
22067
22052
22069
22049
22060
22045
22060
22047
22054
22086
22067
22065
22055
22064
22049
22061
22049
22060
22044
22054
22040
22053
22046
22063
22055
22042
22055
22043
22055
22047
22055
22043
22052
22043
22055
22041
22053
22039
22047
22082
22052
22061
22059
22054
22047
22055
22046
22058
22033
22049
22030
22053
22031
22049
22033
22051
22035
22031
22047
22044
22033
22060
22042
22032
22045
22035
22045
22035
22041
22023
22042
22023
22049
22035
22041
22031
22046
22030
22047
22039
22045
22043
22041
22037
22028
22038
22023
22037
22023
22034
22022
22036
22019
22038
22023
22031
22020
22034
22040
22021
22037
22023
22036
22018
22029
22020
22031
22021
22029
22023
22030
22018
22036
22016
22030
22015
22024
22017
22031
22015
22023
22050
22026
22039
22018
22032
22027
21991
22023
22012
22023
22009
22026
22009
22023
22014
22023
22010
22015
22014
22023
22012
22023
22054
22031
22042
22029
22013
22013
22044
22014
22023
22012
22023
21997
22023
22008
22021
22019
22002
22013
22047
22017
22006
22015
22002
22012
21998
22014
22001
22017
22003
22018
22007
22009
22017
22030
22007
21998
22007
21999
22001
22021
21998
22012
21995
22008
21996
22004
21991
21999
21995
22003
21967
22003
22007
21993
22007
21993
22002
21995
21998
21992
22001
22023
21993
21991
21998
21991
21999
21988
21998
21991
21993
21991
22004
21987
22006
21997
22018
21995
21986
21993
21990
21997
21988
22007
21996
21978
21997
21988
21981
21996
21985
21991
21978
21996
21991
21980
21989
21983
21982
21991
21982
21998
21986
21981
21991
21981
21992
21983
21989
21980
21989
21991
21979
21990
21979
21990
21991
21974
21983
21969
21991
21990
21959
21985
21960
21999
21965
21951
21965
21948
21977
21983
21942
21957
21945
21957
21942
21969
21945
21975
21973
21945
21953
21940
21959
21942
21961
21939
21965
21951
21964
21958
21986
21955
21941
21952
21943
21953
21943
21956
21949
21956
21949
21954
21943
21949
21957
21956
21947
21945
21951
21941
21949
21943
21953
21948
21953
21945
21959
21947
21959
21950
21959
21951
21943
21949
21938
21952
21951
21952
21952
21962
21947
21942
21954
21944
21953
21946
21946
21959
21955
21958
21952
21958
21943
21940
21948
21932
21946
21959
21950
21955
21951
21954
21950
21941
21942
21937
21945
21938
21947
21942
21943
21931
21942
21937
21941
21933
21943
21935
21942
21934
21942
21927
21937
21928
21945
21930
21947
21935
21941
21942
21947
21936
21942
21943
21936
21935
21924
21932
21926
21940
21927
21933
21925
21934
21927
21942
21937
21939
21940
21951
21927
21929
21933
21924
21934
21924
21934
21926
21927
21923
21929
21921
21928
21921
21935
21923
21931
21925
21935
21923
21929
21919
21933
21919
21933
21927
21934
21923
21930
21925
21913
21925
21920
21932
21919
21932
21932
21921
21927
21918
21924
21912
21925
21913
21919
21913
21925
21909
21926
21919
21926
21923
21906
21924
21914
21924
21926
21928
21930
21916
21921
21917
21921
21906
21925
21911
21927
21914
21903
21918
21911
21921
21914
21902
21921
21907
21922
21909
21931
21911
21900
21911
21906
21911
21901
21914
21906
21916
21916
21901
21914
21902
21925
21906
21914
21908
21915
21911
21903
21911
21892
21914
21903
21911
21895
21911
21900
21918
21912
21894
21903
21895
21908
21892
21911
21901
21895
21905
21895
21901
21893
21908
21894
21912
21894
21908
21888
21908
21901
21886
21903
21884
21908
21903
21912
21908
21887
21900
21889
21906
21883
21898
21884
21900
21882
21897
21879
21903
21891
21916
21892
21883
21895
21887
21895
21884
21894
21886
21903
21882
21895
21883
21892
21879
21892
21870
21888
21873
21885
21873
21886
21871
21887
21875
21885
21875
21885
21871
21891
21874
21886
21884
21893
21886
21906
21874
21886
21869
21879
21861
21874
21856
21876
21861
21874
21865
21882
21866
21880
21863
21877
21856
21877
21854
21871
21855
21873
21862
21884
21868
21855
21869
21853
21869
21863
21871
21856
21871
21856
21873
21864
21852
21861
21849
21865
21852
21889
21860
21847
21860
21853
21868
21865
21890
21855
21848
21860
21852
21863
21852
21860
21849
21863
21844
21852
21841
21854
21841
21859
21840
21854
21847
21871
21855
21842
21858
21841
21859
21844
21863
21855
21842
21853
21836
21855
21860
21863
21844
21857
21849
21863
21849
21863
21850
21852
21857
21832
21846
21835
21846
21828
21849
21850
21829
21843
21831
21845
21834
21824
21839
21826
21842
21836
21844
21828
21823
21842
21830
21849
21847
21871
21836
21818
21839
21822
21838
21831
21847
21840
21820
21837
21821
21838
21831
21820
21842
21827
21845
21835
21839
21833
21862
21820
21819
21823
21812
21830
21813
21837
21831
21822
21838
21823
21832
21820
21831
21821
21834
21821
21831
21822
21815
21822
21810
21828
21813
21828
21810
21823
21807
21830
21819
21825
21831
21815
21823
21813
21826
21811
21820
21807
21823
21806
21821
21804
21823
21804
21818
21807
21820
21804
21830
21816
21846
21816
21807
21820
21799
21823
21812
21826
21816
21797
21815
21797
21822
21818
21797
21813
21801
21820
21818
21802
21813
21799
21815
21804
21844
21812
21793
21812
21800
21817
21810
21820
21813
21793
21804
21796
21804
21795
21813
21835
21805
21796
21801
21788
21807
21792
21805
21799
21814
21807
21812
21794
21804
21788
21797
21789
21801
21826
21806
21813
21802
21815
21801
21808
21807
21839
21799
21785
21804
21791
21805
21799
21805
21799
21804
21797
21801
21787
21802
21787
21795
21779
21789
21782
21790
21822
21796
21804
21784
21796
21781
21790
21779
21791
21779
21790
21801
21782
21799
21781
21796
21797
21784
21794
21782
21791
21780
21784
21799
21780
21794
21808
21783
21790
21776
21783
21791
21786
21796
21783
21794
21812
21790
21795
21780
21791
21797
21774
21787
21765
21777
21798
21766
21781
21752
21770
21792
21760
21781
21750
21775
21751
21775
21790
21754
21788
21757
21787
21750
21781
21756
21775
21738
21762
21732
21748
21788
21751
21763
21738
21758
21743
21761
21753
21762
21751
21732
21754
21744
21756
21741
21758
21756
21758
21749
21734
21748
21741
21748
21743
21753
21743
21758
21749
21761
21755
21763
21751
21773
21750
21745
21742
21755
21741
21754
21748
21759
21744
21759
21756
21746
21758
21758
21738
21756
21751
21760
21758
21743
21756
21756
21742
21765
21757
21778
21748
21750
21752
21743
21762
21761
21742
21758
21745
21755
21746
21763
21740
21759
21738
21750
21735
21751
21742
21748
21740
21750
21741
21745
21739
21750
21742
21751
21740
21754
21743
21754
21734
21751
21735
21748
21735
21748
21739
21751
21744
21761
21740
21728
21743
21727
21748
21740
21754
21745
21765
21746
21767
21735
21727
21737
21720
21743
21728
21739
21727
21737
21727
21745
21729
21741
21729
21735
21727
21746
21734
21724
21737
21722
21742
21723
21745
21727
21735
21728
21745
21734
21716
21734
21724
21735
21724
21736
21723
21732
21721
21734
21721
21746
21736
21723
21733
21748
21733
21736
21724
21739
21725
21735
21722
21737
21719
21731
21714
21726
21719
21735
21735
21717
21729
21719
21726
21712
21724
21726
21716
21731
21711
21728
21711
21728
21741
21735
21751
21732
21738
21730
21717
21721
21714
21719
21708
21718
21707
21727
21712
21740
21721
21703
21719
21711
21716
21707
21719
21706
21719
21707
21720
21709
21726
21711
21727
21726
21684
21716
21749
21719
21721
21724
21724
21706
21722
21706
21724
21729
21715
21726
21707
21722
21706
21716
21705
21716
21740
21719
21726
21710
21722
21705
21719
21707
21725
21718
21696
21705
21735
21706
21702
21708
21700
21707
21695
21702
21692
21707
21698
21707
21695
21707
21700
21710
21695
21714
21701
21709
21707
21734
21704
21690
21700
21695
21707
21703
21710
21710
21726
21702
21690
21702
21705
21705
21701
21703
21685
21695
21686
21702
21687
21703
21687
21701
21703
21685
21695
21687
21703
21688
21685
21697
21703
21685
21708
21703
21689
21681
21694
21683
21696
21685
21692
21685
21692
21681
21695
21679
21689
21679
21687
21676
21687
21682
21687
21698
21681
21696
21687
21696
21690
21679
21684
21678
21687
21674
21689
21671
21688
21670
21682
21671
21684
21693
21675
21694
21675
21688
21679
21685
21675
21682
21686
21667
21676
21690
21671
21680
21669
21682
21670
21674
21669
21677
21667
21673
21662
21673
21664
21671
21662
21674
21661
21679
21669
21656
21665
21664
21670
21662
21666
21689
21670
21675
21661
21669
21679
21665
21668
21691
21669
21673
21661
21664
21671
21659
21673
21662
21674
21679
21661
21667
21667
21671
21667
21681
21671
21660
21670
21660
21668
21661
21669
21659
21664
21650
21666
21654
21671
21668
21686
21663
21678
21663
21652
21661
21650
21657
21650
21663
21649
21663
21654
21661
21651
21658
21645
21661
21647
21660
21663
21647
21655
21644
21655
21647
21659
21650
21653
21641
21654
21642
21652
21640
21656
21647
21655
21643
21654
21645
21659
21646
21676
21660
21663
21650
21655
21642
21655
21638
21654
21641
21650
21639
21647
21666
21648
21650
21639
21649
21637
21653
21655
21652
21654
21664
21643
21670
21641
21639
21649
21637
21647
21645
21630
21646
21629
21641
21633
21639
21630
21639
21628
21639
21630
21646
21635
21649
21633
21644
21631
21639
21628
21644
21631
21637
21628
21650
21634
21623
21635
21623
21631
21623
21636
21624
21638
21624
21638
21625
21639
21623
21637
21639
21659
21628
21612
21628
21617
21635
21619
21637
21626
21613
21633
21620
21639
21628
21617
21629
21615
21627
21612
21627
21613
21623
21611
21626
21610
21621
21613
21612
21620
21613
21629
21621
21642
21626
21630
21622
21629
21614
21642
21608
21607
21618
21613
21628
21618
21609
21620
21615
21625
21619
21630
21617
21613
21620
21611
21627
21622
21607
21626
21614
21623
21617
21604
21621
21600
21628
21622
21596
21614
21598
21620
21599
21616
21599
21633
21620
21645
21613
21594
21628
21616
21591
21609
21588
21625
21619
21656
21607
21591
21607
21591
21610
21594
21609
21599
21619
21603
21591
21615
21607
21614
21593
21610
21604
21606
21599
21609
21604
21610
21611
21609
21597
21605
21601
21604
21589
21602
21589
21598
21604
21585
21597
21582
21601
21586
21602
21582
21597
21569
21605
21606
21591
21601
21591
21603
21595
21604
21591
21602
21589
21604
21588
21601
21585
21597
21580
21593
21582
21588
21577
21593
21626
21598
21602
21591
21602
21586
21595
21577
21594
21578
21590
21573
21590
21578
21591
21578
21594
21577
21594
21583
21601
21596
21620
21603
21620
21589
21580
21597
21582
21597
21590
21593
21574
21591
21573
21591
21575
21592
21581
21593
21591
21606
21590
21578
21593
21576
21585
21579
21594
21575
21594
21573
21599
21583
21596
21586
21599
21580
21570
21589
21590
21573
21589
21574
21581
21575
21583
21569
21580
21561
21588
21599
21593
21590
21572
21589
21578
21592
21575
21591
21578
21590
21579
21568
21583
21565
21584
21568
21590
21572
21564
21583
21587
21581
21593
21573
21560
21581
21584
21572
21581
21566
21583
21570
21583
21570
21591
21569
21582
21581
21585
21577
21606
21579
21566
21587
21577
21562
21581
21567
21592
21573
21565
21576
21565
21580
21566
21577
21565
21576
21564
21574
21560
21573
21560
21569
21606
21581
21581
21559
21572
21588
21571
21581
21563
21574
21561
21578
21562
21573
21557
21571
21557
21567
21557
21571
21582
21572
21577
21557
21572
21556
21571
21557
21575
21575
21593
21563
21553
21563
21552
21566
21591
21575
21579
21567
21543
21572
21553
21561
21556
21566
21551
21569
21553
21570
21559
21572
21557
21571
21550
21566
21550
21565
21551
21567
21551
21568
21557
21573
21557
21570
21554
21575
21558
21572
21563
21575
21559
21543
21557
21549
21563
21545
21558
21545
21568
21572
21554
21568
21548
21559
21575
21556
21565
21541
21558
21566
21547
21557
21540
21541
21567
21543
21554
21536
21550
21532
21548
21542
21546
21537
21561
21557
21551
21564
21548
21553
21540
21551
21537
21547
21538
21542
21537
21546
21538
21548
21537
21554
21561
21542
21553
21552
21566
21557
21567
21541
21532
21551
21534
21552
21542
21529
21542
21531
21546
21535
21546
21535
21547
21527
21543
21529
21550
21533
21546
21549
21541
21531
21541
21523
21538
21526
21535
21530
21539
21570
21536
21548
21545
21549
21543
21550
21534
21542
21523
21532
21524
21534
21520
21539
21523
21532
21524
21533
21547
21528
21538
21516
21532
21519
21527
21553
21533
21543
21523
21534
21516
21529
21518
21525
21511
21527
21511
21527
21511
21525
21511
21526
21511
21527
21517
21526
21511
21521
21538
21526
21530
21511
21522
21503
21525
21508
21524
21511
21521
21511
21519
21508
21520
21504
21528
21507
21525
21511
21527
21517
21528
21523
21548
21514
21551
21522
21530
21525
21500
21522
21521
21502
21515
21503
21518
21500
21519
21507
21519
21500
21518
21511
21543
21508
21495
21516
21511
21535
21503
21495
21507
21491
21519
21508
21492
21510
21511
21494
21503
21510
21517
21489
21489
21503
21506
21542
21487
21492
21506
21496
21493
21489
21488
21492
21500
21487
21501
21521
21503
21478
21493
21481
21492
21476
21495
21478
21493
21477
21499
21484
21493
21478
21492
21478
21489
21473
21490
21481
21487
21479
21497
21498
21487
21493
21481
21493
21479
21492
21476
21495
21470
21491
21524
21486
21507
21491
21495
21478
21490
21467
21482
21472
21479
21474
21475
21469
21478
21469
21485
21468
21485
21468
21480
21466
21478
21465
21479
21465
21473
21465
21472
21466
21477
21485
21480
21483
21464
21478
21461
21476
21469
21479
21468
21485
21474
21484
21476
21486
21474
21481
21459
21472
21461
21470
21455
21476
21478
21458
21474
21455
21469
21480
21460
21476
21460
21476
21476
21455
21468
21452
21468
21452
21472
21474
21442
21458
21437
21461
21438
21462
21441
21475
21444
21477
21447
21472
21454
21484
21478
21479
21452
21475
21444
21469
21437
21458
21436
21455
21446
21467
21497
21455
21470
21463
21471
21449
21462
21452
21464
21459
21470
21455
21438
21449
21444
21450
21439
21453
21444
21452
21476
21463
21463
21448
21458
21447
21454
21454
21455
21454
21454
21449
21463
21447
21467
21449
21452
21439
21452
21437
21448
21441
21454
21438
21449
21455
21446
21453
21440
21448
21439
21447
21430
21444
21435
21446
21441
21450
21447
21447
21438
21447
21441
21444
21442
21447
21439
21451
21431
21446
21431
21444
21428
21431
21427
21438
21427
21437
21425
21436
21448
21431
21442
21434
21439
21426
21443
21439
21460
21432
21444
21438
21453
21445
21447
21444
21428
21437
21426
21438
21431
21441
21436
21445
21430
21436
21427
21434
21426
21437
21425
21432
21420
21437
21423
21432
21422
21436
21425
21436
21431
21446
21443
21452
21434
21443
21439
21449
21433
21435
21439
21453
21429
21397
21434
21421
21433
21423
21433
21424
21439
21423
21430
21421
21435
21418
21431
21426
21439
21437
21419
21434
21420
21436
21425
21436
21422
21430
21429
21448
21433
21418
21438
21452
21436
21417
21428
21418
21428
21418
21431
21422
21443
21427
21418
21428
21419
21431
21422
21429
21415
21432
21420
21439
21419
21441
21432
21417
21425
21414
21424
21415
21428
21422
21433
21436
21415
21431
21414
21438
21429
21445
21433
21427
21436
21425
21465
21435
21422
21438
21436
21423
21431
21414
21437
21428
21439
21426
21438
21434
21444
21431
21442
21428
21436
21430
21443
21435
21420
21434
21429
21423
21431
21418
21434
21422
21431
21436
21453
21429
21421
21438
21429
21444
21433
21425
21427
21422
21426
21420
21431
21415
21434
21423
21430
21420
21431
21420
21436
21418
21433
21429
21443
21428
21436
21431
21435
21434
21445
21429
21439
21442
21418
21430
21417
21429
21421
21439
21428
21444
21434
21443
21426
21443
21423
21442
21422
21439
21420
21436
21421
21434
21418
21434
21421
21432
21420
21434
21423
21433
21421
21434
21421
21445
21420
21435
21419
21433
21418
21427
21419
21423
21421
21438
21417
21434
21422
21433
21421
21439
21431
21422
21433
21423
21431
21418
21430
21420
21439
21436
21426
21439
21423
21435
21420
21432
21415
21430
21452
21437
21453
21439
21462
21429
21417
21425
21420
21436
21442
21431
21447
21428
21419
21436
21423
21441
21431
21436
21437
21441
21431
21423
21435
21432
21439
21423
21439
21426
21444
21429
21422
21438
21427
21441
21419
21431
21423
21432
21418
21429
21428
21436
21420
21434
21420
21438
21428
21437
21423
21437
21423
21437
21422
21432
21425
21438
21425
21436
21425
21434
21425
21443
21431
21445
21427
21444
21426
21445
21428
21439
21430
21445
21452
21436
21447
21437
21454
21434
21448
21439
21448
21434
21454
21435
21446
21434
21446
21436
21449
21432
21446
21466
21451
21460
21451
21439
21447
21437
21452
21439
21450
21443
21467
21460
21469
21457
21469
21449
21436
21447
21439
21453
21439
21455
21442
21453
21437
21450
21437
21451
21447
21459
21444
21451
21446
21452
21443
21455
21447
21455
21445
21456
21445
21474
21460
21445
21466
21462
21451
21457
21449
21461
21450
21471
21457
21450
21454
21446
21455
21447
21452
21442
21460
21445
21455
21449
21462
21451
21462
21455
21466
21455
21470
21458
21474
21464
21499
21471
21455
21463
21492
21459
21452
21461
21454
21470
21454
21472
21456
21476
21463
21484
21470
21457
21473
21471
21496
21478
21458
21479
21468
21478
21463
21478
21465
21479
21477
21510
21470
21463
21472
21473
21470
21481
21478
21468
21482
21474
21502
21477
21462
21473
21465
21478
21467
21479
21469
21495
21493
21479
21491
21476
21490
21470
21504
21486
21473
21492
21487
21477
21492
21495
21511
21485
21484
21487
21477
21487
21478
