EDA
28995
28997
28964
28986
28990
28991
28989
28994
28989
28993
28994
28998
28984
28991
28985
28990
28990
28995
28989
28993
28995
28996
28997
28991
28996
28999
28991
28991
28998
28997
28993
28995
28993
28995
28998
28991
28999
28996
29001
28999
28993
28999
28992
28995
28999
28996
28996
28999
28992
28999
28999
28999
28998
28994
28996
28997
28999
29010
29000
28997
29007
28991
29001
28998
29004
29007
29003
29007
29000
28996
29006
29005
29006
29004
29003
29004
29007
29002
29007
29007
29008
29010
29004
29004
29010
29002
29009
29004
29015
29005
29012
29015
28991
29003
29004
29013
29013
29014
29007
29015
29009
29007
29005
29012
29013
29010
29005
29009
29011
29015
29007
29011
29004
29007
29012
29007
29010
29008
29007
29009
29013
29008
29004
29009
29013
29012
29012
28999
28993
28997
29004
29011
29004
29009
29012
29013
29015
29014
29005
29007
29003
29010
29008
29004
28999
29004
29004
29005
29002
28998
29005
29002
28998
29002
28997
29002
28997
29001
28997
28999
28996
28995
28992
28993
28992
28997
28988
28989
28990
28988
28994
28991
28986
28997
28987
28984
28986
28985
28986
28978
28981
28981
28975
28974
28980
28973
28977
28975
28973
28981
28969
28976
28968
28974
28973
28968
28975
28974
28967
28974
28967
28967
28967
28964
28964
28970
28967
28967
28967
28965
28961
28962
28961
28966
28959
28958
28963
28966
28959
28954
28964
28961
28959
28959
28954
28951
28962
28954
28959
28948
28950
28959
28955
28954
28956
28951
28953
28953
28950
28951
28944
28951
28951
28956
28945
28949
28942
28948
28949
28948
28943
28948
28949
28945
28941
28947
28943
28951
28951
28948
28946
28943
28941
28940
28948
28944
28948
28947
28940
28943
28948
28957
28942
28943
28946
28943
28947
28947
28945
28954
28951
28943
28945
28951
28959
28947
28950
28948
28948
28951
28949
28948
28944
28948
28945
28955
28947
28948
28951
28949
28951
28948
28948
28950
28940
28946
28950
28949
28946
28949
28942
28951
28943
28954
28948
28948
28949
28951
28956
28953
28955
28946
28948
28950
28947
28951
28955
28949
28950
28951
28950
28951
28948
28952
28945
28958
28953
28951
28946
28957
28958
28965
28951
28950
28949
28957
28953
28954
28957
28956
28956
28956
28948
28964
28961
28957
28959
28958
28963
28962
28956
28962
28960
28962
28962
28965
28957
28962
28959
28959
28959
28969
28965
28961
28967
28967
28957
28965
28952
28959
28964
28962
28964
28970
28965
28966
28963
28961
28964
28960
28967
28960
28967
28963
28970
28964
28964
28963
28966
28964
28967
28964
28966
28958
28961
28963
28964
28964
28964
28961
28964
28964
28958
28964
28966
28961
28959
28964
28961
28957
28959
28961
28955
28957
28956
28959
28957
28956
28957
28953
28957
28957
28959
28959
28956
28954
28953
28956
28959
28952
28954
28954
28959
28951
28952
28951
28959
28956
28948
28959
28954
28955
28958
28951
28954
28950
28954
28958
28959
28953
28935
28955
28948
28952
28957
28948
28951
28947
28951
28949
28954
28943
28957
28948
28951
28955
28951
28944
28948
28947
28945
28948
28950
28943
28933
28946
28946
28946
28943
28948
28947
28941
28937
28941
28949
28946
28948
28940
28944
28949
28957
28956
28954
28951
28954
28959
28961
28969
28964
28971
28970
28984
28990
28976
28988
29019
28996
29007
28989
28998
28996
29004
29000
28998
28999
29000
28999
29004
28993
28985
28989
28989
28980
28983
28987
28975
28981
28970
28968
28973
28970
28972
28962
28966
28959
28964
28964
28969
28966
28967
28953
28964
28958
28959
28964
28959
28962
28958
28958
28966
28951
28960
28961
28959
28958
28950
28960
28959
28959
28957
28952
28964
28957
28954
28956
28959
28956
28951
28951
28955
28956
28962
28956
28939
28948
28956
28943
28955
28948
28949
28949
28954
28942
28954
28956
28950
28949
28956
28952
28959
28951
28949
28947
28951
28951
28945
28951
28951
28953
28959
28949
28946
28949
28944
28949
28948
28944
28947
28949
28956
28948
28949
28953
28951
28945
28945
28945
28952
28955
28951
28942
28941
28943
28949
28939
28943
28949
28944
28941
28953
28948
28945
28952
28935
28945
28948
28942
28949
28948
28938
28942
28941
28951
28945
28943
28929
28945
28948
28950
28947
28941
28948
28948
28938
28945
28943
28947
28944
28947
28949
28948
28949
28951
28948
28951
28951
28943
28952
28948
28948
28949
28950
28951
28936
28949
28951
28947
28949
28948
28950
28946
28945
28956
28953
28958
28948
28951
28954
28941
28956
28956
28948
28957
28955
28957
28950
28951
28954
28950
28948
28959
28964
28957
28947
28952
28948
28959
28948
28952
28959
28953
28959
28958
28954
28960
28955
28956
28961
28959
28956
28961
28964
28961
28956
28953
28958
28961
28954
28960
28964
28959
28959
28955
28965
28954
28959
28967
28958
28959
28959
28960
28964
28956
28967
28961
28967
28962
28964
28967
28956
28964
28964
28965
28962
28961
28966
28965
28964
28963
28966
28960
28957
28961
28959
28967
28959
28967
28959
28949
28963
28967
28961
28961
28957
28955
28958
28961
28958
28957
28956
28962
28954
28956
28957
28956
28957
28951
28956
28955
28924
28953
28959
28958
28954
28958
28951
28956
28959
28957
28959
28955
28953
28944
28949
28951
28943
28947
28942
28940
28945
28943
28955
28948
28944
28951
28949
28951
28955
28946
28948
28946
28950
28942
28940
28947
28943
28932
28940
28941
28942
28944
28948
28946
28946
28940
28951
28942
28951
28945
28941
28947
28930
28940
28935
28935
28934
28929
28926
28940
28940
28935
28942
28935
28942
28935
28943
28935
28946
28937
28943
28935
28929
28929
28935
28929
28932
28929
28927
28927
28932
28932
28935
28935
28940
28942
28941
28940
28935
28934
28935
28935
28935
28932
28931
28919
28924
28925
28934
28926
28930
28927
28932
28935
28942
28934
28932
28935
28941
28938
28940
28930
28931
28929
28924
28927
28927
28925
28924
28929
28927
28926
28933
28933
28926
28934
28935
28935
28931
28933
28932
28927
28927
28926
28925
28926
28927
28927
28927
28929
28927
28932
28921
28924
28935
28932
28935
28935
28935
28935
28935
28933
28932
28930
28924
28925
28927
28934
28925
28929
28932
28933
28932
28938
28935
28942
28940
28938
28940
28935
28935
28932
28934
28935
28927
28935
28927
28925
28932
28934
28935
28932
28935
28932
28942
28943
28912
28947
28943
28941
28942
28935
28935
28935
28929
28933
28927
28929
28933
28935
28932
28940
28932
28943
28935
28943
28945
28938
28942
28940
28935
28935
28935
28934
28935
28925
28931
28933
28935
28927
28931
28935
28935
28941
28935
28930
28943
28941
28933
28935
28932
28932
28935
28935
28922
28928
28926
28919
28924
28926
28924
28924
28931
28926
28932
28935
28933
28927
28935
28933
28929
28927
28926
28926
28922
28918
28919
28921
28916
28922
28925
28919
28923
28933
28927
28924
28929
28921
28927
28931
28932
28927
28918
28916
28919
28922
28916
28918
28914
28916
28923
28924
28918
28929
28925
28926
28924
28921
28924
28926
28912
28925
28918
28922
28918
28917
28919
28909
28917
28916
28919
28919
28919
28927
28924
28927
28911
28926
28921
28927
28923
28916
28917
28919
28917
28917
28922
28926
28922
28925
28934
28935
28945
28951
28946
28953
28966
28956
28967
28953
28973
28980
28960
28974
28985
28967
28971
28980
28976
28976
28982
28979
28972
28975
28977
28975
28970
28973
28979
28968
28965
28964
28959
28953
28948
28949
28948
28941
28941
28947
28948
28955
28953
28942
28951
28951
28949
28949
28949
28951
28954
28949
28940
28940
28934
28932
28932
28935
28943
28934
28938
28949
28948
28948
28947
28942
28956
28940
28946
28935
28940
28942
28934
28940
28940
28932
28929
28934
28935
28927
28930
28935
28930
28940
28948
28943
28942
28948
28948
28946
28935
28943
28934
28935
28929
28929
28929
28933
28928
28935
28935
28928
28928
28932
28929
28935
28944
28933
28943
28937
28941
28935
28934
28927
28929
28927
28928
28931
28935
28935
28931
28933
28933
28947
28944
28935
28938
28935
28938
28932
28943
28935
28931
28931
28921
28933
28929
28926
28921
28929
28935
28935
28935
28935
28932
28945
28940
28935
28941
28936
28935
28935
28929
28927
28932
28924
28927
28924
28930
28935
28927
28935
28934
28934
28943
28946
28928
28935
28935
28943
28935
28935
28934
28932
28932
28930
28931
28927
28934
28929
28934
28941
28943
28943
28942
28948
28943
28943
28949
28909
28943
28938
28936
28935
28935
28935
28940
28925
28943
28937
28941
28943
28949
28951
28949
28951
28953
28951
28949
28940
28940
28948
28939
28945
28935
28939
28939
28938
28936
28943
28934
28944
28951
28951
28951
28952
28956
28959
28953
28959
28951
28955
28942
28948
28949
28946
28948
28945
28950
28941
28948
28955
28949
28956
28961
28964
28965
28933
28953
28957
28957
28952
28940
28948
28947
28946
28947
28949
28946
28950
28964
28965
28956
28957
28956
28949
28958
28956
28955
28967
28959
28954
28951
28948
28948
28943
28942
28942
28945
28949
28935
28949
28951
28950
28951
28955
28950
28951
28953
28951
28941
28949
28947
28934
28944
28935
28934
28934
28936
28935
28943
28945
28945
28938
28947
28948
28947
28945
28939
28940
28941
28943
28932
28929
28935
28924
28934
28931
28935
28932
28935
28924
28935
28934
28933
28947
28935
28940
28935
28935
28932
28935
28930
28930
28932
28923
28926
28923
28925
28925
28932
28929
28935
28933
28934
28933
28935
28935
28934
28933
28928
28926
28921
28927
28926
28924
28925
28929
28919
28922
28924
28934
28932
28921
28927
28935
28933
28930
28927
28929
28924
28927
28927
28924
28916
28917
28917
28923
28918
28925
28921
28925
28926
28927
28928
28928
28926
28928
28923
28921
28916
28920
28925
28919
28901
28916
28916
28916
28910
28918
28919
28924
28919
28926
28922
28930
28927
28924
28917
28924
28916
28916
28916
28918
28908
28908
28916
28913
28915
28925
28913
28925
28917
28924
28920
28921
28923
28925
28923
28921
28919
28919
28926
28924
28919
28911
28914
28917
28915
28919
28920
28917
28923
28916
28925
28925
28929
28922
28927
28917
28927
28924
28919
28918
28917
28911
28912
28918
28922
28921
28924
28920
28921
28924
28922
28921
28923
28927
28919
28919
28923
28926
28924
28918
28919
28916
28918
28917
28919
28913
28923
28919
28921
28922
28925
28930
28934
28930
28922
28922
28924
28925
28921
28911
28924
28924
28919
28921
28919
28919
28922
28919
28927
28924
28930
28926
28926
28927
28923
28924
28926
28923
28917
28913
28919
28916
28909
28914
28913
28919
28909
28911
28924
28913
28924
28919
28916
28923
28917
28918
28916
28911
28918
28918
28913
28908
28905
28909
28913
28914
28911
28910
28913
28919
28925
28911
28922
28921
28919
28919
28911
28911
28912
28908
28900
28906
28908
28911
28902
28911
28910
28910
28908
28914
28915
28913
28919
28911
28911
28919
28909
28907
28908
28909
28901
28903
28900
28904
28903
28906
28903
28916
28914
28908
28913
28907
28913
28910
28911
28904
28903
28910
28896
28902
28903
28895
28900
28900
28892
28899
28901
28902
28910
28903
28919
28907
28907
28918
28905
28911
28913
28911
28909
28911
28918
28908
28913
28926
28919
28935
28937
28931
28949
28959
28942
28959
28967
28959
28962
28959
28962
28956
28961
28962
28963
28953
28954
28950
28951
28949
28956
28948
28948
28948
28943
28943
28935
28945
28932
28928
28933
28927
28919
28915
28922
28916
28918
28922
28913
28918
28917
28901
28923
28916
28919
28919
28922
28929
28919
28913
28919
28921
28916
28907
28911
28906
28903
28911
28908
28908
28905
28911
28916
28919
28911
28917
28915
28916
28912
28916
28903
28903
28902
28903
28901
28903
28898
28903
28904
28905
28911
28905
28908
28912
28909
28911
28916
28903
28903
28905
28908
28901
28900
28902
28893
28896
28895
28899
28892
28894
28899
28903
28906
28911
28903
28902
28908
28906
28906
28905
28903
28897
28900
28898
28892
28889
28902
28898
28897
28900
28895
28909
28905
28903
28909
28900
28905
28906
28907
28903
28899
28894
28901
28893
28895
28895
28890
28894
28890
28890
28897
28900
28899
28903
28903
28907
28910
28894
28901
28903
28897
28895
28889
28891
28895
28897
28885
28876
28893
28895
28901
28896
28891
28908
28896
28906
28903
28903
28892
28903
28901
28894
28903
28897
28894
28895
28878
28895
28895
28884
28885
28894
28897
28906
28901
28910
28910
28911
28906
28900
28899
28903
28897
28893
28886
28894
28888
28892
28891
28897
28905
28904
28904
28903
28902
28911
28909
28908
28908
28905
28903
28899
28900
28902
28889
28897
28892
28905
28894
28903
28903
28906
28911
28905
28915
28908
28903
28908
28903
28906
28909
28892
28903
28900
28899
28900
28902
28900
28899
28903
28900
28913
28909
28908
28905
28911
28909
28911
28911
28902
28902
28901
28895
28896
28900
28899
28900
28903
28897
28903
28905
28897
28905
28902
28902
28915
28909
28910
28911
28901
28900
28900
28892
28898
28903
28885
28896
28893
28897
28894
28902
28903
28894
28898
28899
28901
28894
28894
28897
28893
28898
28890
28884
28887
28885
28885
28884
28884
28889
28887
28890
28892
28895
28895
28892
28894
28894
28887
28893
28885
28882
28884
28884
28876
28881
28871
28871
28871
28879
28884
28878
28887
28879
28876
28883
28884
28880
28883
28886
28872
28869
28874
28873
28871
28864
28869
28871
28868
28870
28868
28870
28871
28870
28873
28879
28878
28870
28876
28872
28876
28871
28868
28869
28863
28868
28871
28867
28866
28870
28871
28860
28870
28866
28867
28871
28867
28869
28871
28868
28868
28868
28863
28861
28860
28863
28859
28852
28852
28863
28861
28861
28866
28867
28868
28865
28866
28871
28867
28865
28863
28858
28863
28860
28854
28853
28858
28852
28853
28860
28854
28865
28863
28867
28865
28868
28863
28866
28861
28863
28859
28852
28853
28853
28852
28850
28855
28852
28867
28855
28847
28854
28854
28860
28865
28858
28860
28859
28860
28856
28850
28855
28859
28851
28851
28843
28844
28847
28845
28853
28851
28855
28851
28854
28860
28861
28860
28857
28852
28855
28847
28855
28848
28852
28846
28847
28847
28841
28847
28846
28847
28855
28855
28855
28837
28852
28860
28851
28854
28858
28853
28853
28847
28853
28844
28844
28844
28840
28852
28846
28846
28860
28859
28852
28855
28858
28857
28859
28856
28853
28857
28825
28855
28841
28855
28842
28843
28844
28846
28847
28849
28852
28852
28855
28855
28855
28855
28854
28848
28852
28847
28847
28844
28843
28847
28840
28839
28828
28838
28837
28839
28844
28845
28847
28845
28839
28842
28838
28847
28850
28842
28838
28837
28839
28833
28835
28827
28833
28829
28833
28839
28839
28839
28839
28837
28842
28838
28837
28838
28836
28834
28835
28838
28826
28823
28820
28823
28827
28828
28827
28826
28829
28837
28828
28836
28832
28831
28836
28828
28828
28827
28830
28828
28829
28825
28825
28811
28824
28820
28828
28822
28825
28828
28833
28822
28830
28825
28827
28826
28825
28831
28823
28823
28821
28807
28815
28818
28812
28817
28817
28817
28822
28817
28815
28823
28820
28827
28820
28824
28829
28831
28829
28830
28828
28831
28820
28821
28837
28842
28837
28855
28840
28843
28854
28871
28877
28873
28871
28871
28881
28878
28864
28874
28869
28870
28870
28867
28868
28858
28855
28863
28852
28863
28860
28852
28852
28850
28850
28846
28851
28844
28842
28833
28830
28828
28822
28825
28826
28825
28828
28831
28826
28826
28829
28831
28836
28829
28839
28828
28828
28830
28827
28820
28827
28820
28817
28818
28818
28821
28823
28815
28824
28820
28831
28826
28830
28831
28823
28830
28820
28820
28817
28825
28812
28814
28820
28809
28815
28819
28819
28821
28818
28823
28823
28822
28823
28825
28825
28820
28826
28820
28823
28821
28813
28819
28806
28813
28807
28819
28808
28815
28815
28814
28817
28825
28815
28818
28811
28824
28817
28813
28800
28813
28807
28802
28813
28807
28805
28806
28813
28807
28806
28810
28807
28812
28825
28819
28817
28821
28814
28811
28813
28807
28807
28804
28805
28804
28809
28804
28809
28799
28812
28815
28819
28817
28812
28815
28815
28818
28813
28811
28807
28803
28807
28803
28807
28804
28807
28804
28803
28810
28811
28813
28818
28807
28807
28820
28815
28815
28806
28815
28814
28811
28807
28801
28807
28807
28807
28812
28805
28807
28812
28807
28812
28815
28816
28815
28814
28813
28817
28809
28809
28817
28806
28807
28806
28807
28806
28807
28805
28813
28818
28814
28823
28823
28810
28821
28820
28823
28804
28820
28813
28814
28809
28807
28806
28804
28810
28812
28807
28816
28814
28823
28820
28819
28825
28818
28821
28821
28817
28823
28818
28820
28815
28812
28815
28813
28815
28813
28815
28819
28814
28820
28822
28828
28818
28823
28831
28823
28821
28828
28820
28815
28821
28817
28810
28807
28813
28815
28820
28823
28820
28823
28821
28826
28822
28821
28827
28825
28821
28815
28821
28819
28807
28807
28808
28810
28804
28804
28807
28814
28815
28810
28812
28821
28813
28816
28815
28805
28815
28811
28806
28799
28802
28798
28801
28798
28796
28805
28806
28805
28801
28804
28804
28807
28804
28807
28804
28807
28807
28804
28797
28796
28796
28797
28793
28797
28788
28790
28789
28796
28793
28796
28796
28783
28799
28796
28799
28799
28795
28801
28794
28792
28781
28785
28783
28774
28783
28783
28788
28785
28793
28793
28794
28791
28795
28782
28795
28788
28788
28791
28781
28780
28778
28777
28775
28783
28775
28775
28781
28783
28782
28782
28782
28791
28788
28783
28780
28785
28781
28780
28782
28780
28780
28769
28775
28770
28772
28780
28762
28781
28781
28782
28789
28783
28777
28783
28780
28783
28783
28777
28783
28769
28775
28774
28775
28775
28775
28774
28775
28772
28783
28782
28773
28775
28773
28775
28774
28779
28781
28781
28775
28769
28774
28775
28769
28765
28770
28774
28767
28773
28774
28768
28770
28775
28775
28780
28772
28773
28774
28774
28768
28772
28769
28764
28768
28759
28761
28766
28767
28768
28767
28775
28775
28771
28772
28767
28775
28772
28775
28775
28771
28763
28767
28771
28767
28764
28761
28764
28764
28767
28774
28770
28770
28780
28779
28775
28774
28773
28773
28775
28775
28767
28770
28767
28773
28767
28764
28772
28775
28769
28766
28776
28773
28772
28775
28775
28780
28775
28775
28775
28765
28768
28765
28767
28767
28767
28767
28769
28773
28768
28777
28774
28776
28774
28775
28780
28770
28775
28771
28771
28767
28764
28762
28766
28767
28765
28755
28767
28769
28767
28767
28775
28748
28769
28769
28770
28772
28765
28773
28766
28764
28764
28765
28762
28759
28757
28765
28763
28766
28763
28766
28763
28765
28770
28766
28764
28765
28767
28760
28759
28761
28754
28757
28745
28752
28748
28755
28756
28746
28756
28755
28759
28759
28757
28761
28762
28760
28755
28751
28760
28757
28751
28756
28748
28755
28751
28751
28751
28755
28749
28761
28757
28756
28759
28761
28757
28758
28755
28760
28750
28748
28740
28749
28745
28746
28741
28748
28748
28750
28744
28753
28759
28747
28759
28756
28764
28758
28761
28759
28758
28759
28754
28753
28767
28756
28762
28764
28780
28782
28775
28788
28806
28790
28804
28812
28796
28804
28791
28807
28793
28815
28812
28804
28798
28803
28805
28805
28804
28793
28798
28795
28797
28799
28791
28791
28791
28793
28785
28783
28776
28775
28772
28772
28764
28765
28773
28771
28771
28770
28775
28774
28766
28767
28773
28764
28774
28765
28768
28772
28766
28767
28759
28765
28765
28764
28762
28763
28759
28768
28764
28764
28772
28767
28757
28765
28771
28769
28767
28764
28764
28767
28759
28762
28759
28759
28758
28756
28756
28763
28767
28766
28764
28766
28773
28749
28770
28764
28761
28764
28766
28757
28759
28753
28759
28759
28755
28756
28754
28754
28764
28757
28760
28767
28771
28766
28771
28767
28764
28761
28767
28761
28753
28757
28756
28758
28755
28754
28759
28759
28764
28763
28756
28764
28773
28772
28770
28767
28765
28770
28762
28754
28764
28761
28753
28756
28755
28756
28758
28764
28765
28767
28759
28762
28770
28770
28769
28761
28773
28767
28764
28761
28757
28758
28759
28757
28753
28759
28762
28764
28760
28768
28767
28775
28769
28774
28772
28773
28772
28775
28768
28768
28764
28764
28765
28765
28764
28769
28765
28766
28768
28768
28773
28775
28767
28777
28786
28779
28773
28772
28770
28770
28769
28772
28770
28767
28764
28767
28771
28772
28780
28778
28782
28764
28783
28782
28784
28781
28781
28783
28783
28783
28770
28775
28775
28778
28782
28750
28783
28780
28785
28791
28783
28791
28788
28791
28793
28788
28786
28788
28790
28786
28776
28789
28781
28783
28780
28781
28786
28783
28781
28791
28785
28790
28796
28797
28791
28791
28791
28797
28786
28793
28791
28785
28790
28790
28786
28791
28791
28797
28796
28797
28796
28801
28795
28804
28804
28804
28799
28799
28792
28799
28788
28791
28794
28788
28790
28789
28788
28791
28798
28784
28792
28796
28791
28799
28796
28789
28788
28788
28766
28783
28783
28787
28787
28779
28778
28780
28777
28785
28781
28785
28788
28793
28791
28786
28785
28791
28792
28786
28779
28783
28779
28780
28772
28774
28779
28779
28774
28780
28784
28780
28781
28785
28782
28781
28775
28791
28783
28778
28783
28779
28774
28773
28772
28772
28772
28772
28775
28775
28781
28779
28778
28774
28783
28773
28785
28780
28777
28779
28775
28779
28772
28771
28773
28775
28775
28775
28774
28772
28779
28775
28772
28780
28788
28774
28775
28779
28779
28781
28775
28773
28775
28781
28768
28770
28772
28772
28774
28779
28780
28775
28782
28780
28782
28780
28780
28781
28783
28774
28775
28778
28775
28775
28772
28773
28768
28766
28777
28773
28780
28778
28775
28783
28777
28777
28776
28777
28775
28777
28772
28770
28772
28767
28767
28766
28775
28774
28775
28772
28778
28773
28774
28782
28782
28779
28777
28787
28780
28777
28775
28749
28768
28773
28775
28772
28773
28779
28774
28774
28767
28781
28776
28773
28775
28775
28773
28775
28780
28772
28773
28762
28776
28775
28783
28775
28772
28775
28779
28781
28775
28783
28775
28781
28777
28776
28750
28777
28773
28780
28778
28778
28781
28783
28780
28782
28781
28777
28779
28782
28780
28785
28781
28781
28788
28785
28781
28783
28783
28781
28786
28785
28782
28781
28786
28785
28788
28783
28781
28789
28793
28790
28788
28784
28783
28780
28782
28791
28796
28795
28790
28788
28791
28788
28789
28791
28791
28790
28788
28783
28792
28797
28790
28797
28794
28781
28797
28785
28784
28791
28790
28791
28785
28788
28791
28788
28791
28791
28794
28783
28785
28790
28786
28788
28791
28789
28791
28790
28787
28791
28788
28786
28788
28783
28781
28790
28782
28785
28788
28783
28779
28789
28787
28788
28785
28778
28782
28787
28782
28789
28790
28778
28780
28783
28783
28778
28778
28783
28788
28783
28787
28788
28780
28778
28783
28780
28780
28783
28783
28781
28785
28788
28782
28788
28786
28785
28778
28780
28775
28779
28783
28776
28782
28779
28781
28780
28788
28783
28783
28782
28785
28783
28781
28787
28785
28782
28788
28782
28780
28790
28783
28789
28777
28780
28782
28789
28783
28788
28775
28781
28780
28783
28788
28787
28785
28785
28793
28788
28795
28794
28798
28804
28807
28800
28809
28807
28820
28811
28826
28812
28831
28820
28831
28852
28836
28847
28836
28837
28836
28841
28828
28830
28830
28828
28823
28825
28818
28821
28822
28815
28823
28813
28804
28807
28807
28814
28804
28807
28807
28805
28805
28804
28802
28798
28801
28801
28799
28805
28799
28806
28802
28807
28796
28803
28804
28803
28800
28807
28807
28807
28804
28806
28801
28791
28800
28796
28798
28801
28801
28798
28799
28804
28801
28796
28796
28803
28798
28796
28791
28794
28793
28799
28799
28801
28796
28801
28804
28798
28799
28791
28802
28796
28793
28796
28796
28797
28793
28795
28796
28791
28793
28799
28803
28803
28801
28806
28799
28807
28801
28806
28800
28799
28802
28799
28796
28794
28791
28797
28796
28794
28793
28796
28813
28805
28807
28807
28801
28798
28804
28798
28797
28797
28793
28788
28794
28788
28793
28790
28793
28794
28794
28804
28804
28807
28805
28807
28810
28807
28807
28814
28807
28799
28801
28794
28795
28798
28796
28799
28801
28802
28804
28805
28807
28813
28807
28813
28809
28811
28807
28804
28801
28812
28806
28804
28796
28797
28805
28801
28801
28807
28806
28804
28815
28815
28820
28810
28811
28812
28815
28812
28804
28805
28807
28806
28804
28807
28806
28807
28812
28812
28809
28817
28821
28816
28816
28817
28806
28813
28818
28815
28815
28815
28821
28810
28809
28811
28807
28808
28812
28815
28822
28821
28820
28815
28823
28820
28823
28821
28822
28821
28815
28816
28815
28814
28808
28819
28818
28817
28823
28812
28828
28818
28826
28823
28831
28833
28828
28823
28829
28823
28830
28822
28823
28820
28816
28815
28820
28817
28817
28827
28831
28822
28829
28829
28830
28833
28828
28831
28814
28822
28818
28822
28820
28819
28804
28828
28815
28817
28820
28822
28823
28823
28829
28820
28821
28823
28822
28814
28823
28819
28812
28811
28812
28809
28807
28804
28806
28807
28806
28812
28811
28813
28820
28808
28812
28820
28807
28809
28811
28806
28801
28813
28806
28796
28804
28799
28802
28801
28801
28807
28805
28804
28805
28806
28805
28799
28804
28802
28807
28801
28801
28799
28798
28795
28797
28798
28792
28798
28800
28800
28798
28799
28799
28799
28804
28801
28805
28805
28795
28796
28801
28790
28790
28789
28783
28788
28788
28791
28791
28796
28799
28791
28796
28799
28797
28796
28799
28794
28788
28794
28793
28782
28788
28788
28787
28788
28783
28791
28788
28762
28796
28781
28794
28797
28788
28792
28796
28799
28789
28791
28786
28785
28783
28778
28777
28780
28787
28783
28782
28791
28788
28789
28795
28791
28791
28788
28791
28795
28789
28780
28783
28785
28783
28775
28778
28781
28786
28780
28781
28779
28780
28788
28790
28789
28787
28787
28785
28794
28785
28786
28783
28783
28777
28773
28772
28775
28782
28785
28782
28781
28783
28780
28778
28791
28789
28781
28785
28783
28780
28783
28774
28774
28773
28780
28776
28773
28772
28775
28780
28775
28783
28783
28780
28788
28779
28783
28783
28780
28775
28780
28777
28770
28775
28772
28758
28775
28769
28774
28779
28781
28782
28783
28783
28783
28779
28783
28785
28783
28770
28782
28775
28772
28775
28775
28769
28773
28778
28773
28775
28782
28784
28780
28783
28791
28783
28783
28786
28789
28785
28783
28782
28778
28778
28775
28777
28775
28780
28788
28785
28778
28784
28783
28783
28782
28783
28783
28782
28783
28781
28782
28791
28783
28776
28772
28774
28777
28783
28783
28780
28780
28783
28788
28787
28783
28781
28791
28788
28785
28779
28781
28774
28775
28774
28773
28770
28776
28780
28775
28775
28770
28773
28772
28773
28775
28775
28775
28775
28775
28775
28772
28772
28767
28767
28765
28767
28772
28765
28775
28765
28766
28774
28773
28775
28773
28774
28768
28775
28769
28770
28766
28767
28759
28759
28756
28765
28756
28756
28762
28759
28753
28766
28770
28766
28772
28767
28770
28771
28764
28766
28759
28765
28763
28750
28756
28759
28756
28751
28755
28762
28761
28755
28764
28765
28762
28761
28762
28764
28759
28767
28762
28756
28757
28749
28759
28754
28754
28755
28750
28759
28758
28772
28764
28756
28764
28767
28767
28766
28767
28769
28767
28760
28767
28756
28781
28777
28768
28781
28786
28780
28791
28788
28795
28807
28799
28812
28819
28802
28812
28817
28812
28804
28807
28805
28797
28799
28790
28791
28791
28791
28788
28786
28789
28789
28786
28783
28780
28777
28776
28779
28772
28773
28769
28765
28761
28759
28769
28767
28766
28764
28770
28767
28771
28768
28769
28775
28775
28773
28774
28767
28772
28762
28764
28766
28757
28756
28756
28767
28767
28762
28767
28769
28743
28763
28764
28761
28762
28764
28771
28764
28758
28759
28757
28752
28753
28750
28756
28756
28760
28762
28764
28766
28764
28763
28764
28761
28764
28760
28758
28761
28755
28755
28759
28750
28750
28750
28748
28755
28742
28754
28759
28756
28758
28768
28764
28756
28756
28756
28761
28753
28753
28753
28751
28747
28740
28749
28747
28748
28749
28751
28751
28753
28756
28759
28747
28755
28756
28757
28748
28756
28751
28748
28746
28744
28743
28747
28738
28748
28745
28756
28741
28748
28757
28752
28756
28752
28746
28756
28753
28744
28748
28746
28747
28741
28747
28742
28743
28743
28748
28754
28751
28736
28751
28762
28757
28757
28757
28759
28751
28751
28753
28744
28747
28745
28748
28743
28745
28744
28748
28750
28751
28750
28758
28751
28757
28754
28757
28756
28750
28748
28745
28749
28746
28749
28747
28748
28741
28742
28755
28752
28757
28756
28763
28758
28755
28756
28760
28758
28759
28759
28756
28750
28751
28751
28751
28750
28750
28753
28755
28757
28759
28740
28757
28756
28765
28759
28767
28760
28759
28759
28756
28756
28753
28751
28751
28754
28753
28748
28750
28756
28759
28756
28764
28759
28759
28762
28763
28756
28765
28751
28753
28754
28748
28748
28745
28742
28743
28748
28753
28751
28750
28757
28759
28757
28751
28756
28756
28755
28755
28745
28749
28746
28746
28740
28738
28742
28743
28745
28738
28743
28744
28742
28743
28745
28745
28751
28741
28738
28743
28740
28736
28733
28733
28733
28732
28729
28732
28732
28724
28731
28730
28734
28739
28735
28734
28739
28729
28724
28733
28726
28725
28722
28723
28717
28716
28718
28714
28724
28717
28725
28722
28720
28727
28722
28729
28721
28718
28725
28722
28723
28717
28714
28709
28711
28710
28709
28708
28711
28709
28713
28714
28714
28716
28712
28717
28711
28712
28712
28715
28711
28714
28707
28711
28699
28695
28700
28703
28702
28711
28705
28709
28703
28709
28708
28711
28711
28711
28711
28704
28705
28705
28701
28695
28698
28698
28692
28697
28700
28707
28703
28706
28711
28705
28711
28704
28700
28704
28709
28705
28698
28703
28695
28699
28695
28695
28692
28686
28696
28694
28692
28697
28696
28707
28706
28695
28708
28695
28703
28692
28700
28690
28676
28688
28688
28678
28689
28688
28685
28686
28695
28694
28694
28695
28698
28699
28703
28692
28690
28695
28694
28687
28684
28689
28679
28679
28679
28689
28685
28690
28689
28692
28692
28695
28693
28694
28693
28687
28692
28684
28679
28678
28691
28679
28677
28676
28678
28678
28679
28679
28679
28685
28678
28687
28690
28695
28679
28684
28679
28679
28679
28679
28679
28676
28678
28675
28671
28674
28679
28679
28679
28679
28674
28679
28679
28679
28679
28679
28679
28679
28677
28679
28662
28669
28676
28671
28677
28672
28673
28671
28679
28679
28679
28677
28679
28679
28679
28679
28679
28678
28679
28679
28671
28678
28676
28679
28674
28668
28672
28676
28673
28676
28679
28676
28679
28672
28679
28679
28679
28679
28679
28679
28679
28677
28672
28673
28671
28674
28679
28679
28679
28679
28674
28679
28679
28679
28685
28679
28679
28676
28679
28679
28676
28676
28671
28666
28668
28669
28678
28676
28679
28679
28679
28679
28679
28679
28679
28679
28679
28679
28671
28679
28669
28671
28673
28670
28665
28671
28665
28671
28671
28675
28679
28676
28679
28679
28675
28671
28673
28671
28673
28667
28668
28668
28661
28655
28660
28662
28661
28665
28660
28668
28671
28671
28670
28669
28666
28670
28666
28669
28670
28654
28660
28659
28653
28660
28660
28658
28655
28659
28663
28660
28663
28660
28660
28657
28663
28663
28663
28665
28662
28652
28655
28655
28655
28650
28653
28644
28650
28657
28655
28655
28653
28661
28655
28657
28655
28660
28654
28657
28653
28649
28644
28647
28640
28647
28647
28643
28647
28648
28652
28657
28657
28646
28652
28660
28655
28649
28646
28649
28654
28652
28645
28652
28645
28648
28644
28653
28653
28652
28665
28664
28673
28668
28679
28668
28692
28701
28697
28700
28689
28705
28709
28724
28686
28679
28692
28685
28696
28698
28694
28692
28699
28695
28692
28690
28690
28678
28673
28673
28679
28665
28663
28669
28663
28652
28655
28652
28660
28660
28659
28659
28661
28661
28660
28658
28668
28658
28663
28658
28661
28663
28653
28652
28646
28643
28650
28652
28648
28657
28655
28652
28663
28660
28656
28663
28648
28657
28661
28652
28648
28642
28646
28647
28644
28645
28644
28631
28642
28646
28652
28647
28647
28657
28651
28653
28655
28649
28650
28644
28644
28647
28641
28646
28636
28647
28640
28640
28642
28654
28643
28646
28655
28652
28649
28645
28637
28647
28647
28647
28642
28644
28646
28636
28636
28636
28629
28643
28639
28646
28638
28640
28647
28647
28646
28643
28647
28644
28647
28647
28639
28641
28641
28634
28637
28631
28629
28635
28630
28641
28636
28639
28644
28642
28642
28639
28642
28634
28642
28647
28645
28637
28636
28631
28628
28628
28630
28630
28633
28630
28639
28637
28640
28643
28633
28645
28647
28646
28641
28641
28636
28631
28633
28630
28636
28635
28633
28633
28636
28640
28636
28641
28637
28644
28647
28650
28643
28643
28642
28643
28633
28641
28637
28643
28630
28631
28636
28636
28637
28641
28638
28644
28638
28647
28644
28648
28639
28647
28645
28649
28647
28639
28641
28631
28638
28636
28638
28643
28636
28646
28645
28647
28648
28646
28652
28643
28655
28649
28648
28645
28647
28652
28641
28647
28639
28639
28638
28637
28641
28642
28644
28644
28646
28634
28631
28636
28644
28645
28645
28647
28647
28641
28647
28636
28645
28646
28644
28647
28645
28645
28647
28649
28647
28645
28639
28644
28644
28642
28646
28649
28639
28645
28639
28638
28639
28639
28644
28639
28641
28645
28637
28639
28637
28636
28637
28647
28637
28636
28639
28631
28632
28639
28633
28635
28631
28639
28636
28641
28628
28631
28627
28631
28622
28633
28599
28621
28621
28626
28621
28623
28618
28623
28619
28620
28621
28623
28620
28623
28616
28619
28612
28623
28625
28618
28616
28617
28618
28623
28620
28619
28623
28615
28616
28619
28615
28607
28613
28612
28609
28609
28611
28611
28612
28611
28611
28607
28608
28605
28615
28610
28609
28612
28604
28607
28607
28603
28611
28607
28608
28603
28602
28596
28599
28607
28602
28599
28598
28602
28605
28599
28599
28599
28599
28603
28597
28596
28603
28593
28605
28599
28597
28605
28605
28605
28599
28598
28601
28596
28599
28602
28602
28599
28599
28596
28591
28594
28591
28593
28591
28597
28594
28596
28597
28590
28591
28591
28591
28591
28589
28596
28591
28597
28594
28591
28588
28588
28588
28594
28589
28598
28590
28588
28587
28593
28582
28588
28591
28588
28594
28586
28583
28584
28596
28590
28588
28583
28580
28583
28564
28583
28583
28582
28589
28589
28583
28588
28581
28583
28583
28583
28587
28580
28582
28583
28583
28581
28582
28585
28582
28572
28576
28579
28577
28581
28581
28580
28583
28580
28583
28576
28580
28582
28576
28578
28577
28575
28577
28582
28583
28576
28575
28581
28583
28573
28580
28578
28583
28573
28583
28577
28572
28575
28577
28577
28578
28577
28578
28575
28573
28567
28572
28572
28573
28580
28581
28565
28562
28578
28577
28574
28564
28577
28570
28571
28564
28566
28575
28575
28575
28567
28569
28567
28568
28565
28570
28570
28568
28565
28572
28565
28571
28566
28561
28565
28565
28572
28567
28572
28567
28567
28572
28573
28567
28566
28572
28571
28567
28564
28568
28572
28567
28577
28572
28572
28567
28569
28568
28567
28568
28571
28571
28570
28571
28566
28570
28568
28572
28572
28573
28564
28574
28572
28571
28563
28575
28573
28575
28572
28571
28574
28575
28569
28577
28567
28566
28570
28564
28569
28574
28573
28567
28565
28567
28565
28566
28567
28565
28564
28573
28566
28564
28562
28564
28567
28566
28567
28564
28566
28564
28559
28565
28566
28571
28567
28566
28568
28567
28559
28561
28567
28563
28561
28564
28558
28557
28560
28556
28563
28553
28559
28557
28564
28564
28556
28556
28558
28556
28556
28551
28559
28529
28551
28559
28551
28551
28550
28557
28560
28545
28551
28548
28552
28548
28551
28551
28546
28551
28551
28550
28551
28549
28551
28544
28547
28548
28545
28551
28548
28543
28548
28543
28548
28551
28550
28550
28549
28547
28545
28548
28543
28546
28540
28547
28551
28538
28543
28546
28544
28545
28542
28541
28542
28543
28540
28545
28544
28538
28543
28545
28538
28536
28537
28548
28525
28540
28542
28547
28550
28544
28546
28545
28556
28556
28551
28560
28557
28563
28557
28572
28599
28581
28585
28564
28582
28623
28582
28598
28576
28584
28596
28584
28595
28590
28599
28589
28583
28583
28578
28583
28574
28577
28567
28569
28564
28564
28571
28563
28561
28557
28557
28553
28557
28555
28559
28559
28557
28554
28545
28555
28548
28553
28553
28551
28548
28548
28551
28556
28551
28551
28551
28545
28551
28551
28550
28549
28551
28542
28541
28538
28541
28545
28548
28546
28543
28546
28555
28548
28545
28551
28542
28540
28541
28543
28550
28540
28541
28540
28546
28551
28545
28545
28545
28542
28540
28545
28547
28543
28545
28547
28540
28540
28537
28547
28542
28527
28537
28535
28540
28543
28540
28540
28537
28541
28540
28537
28535
28542
28542
28535
28529
28535
28535
28536
28540
28540
28535
28535
28538
28542
28542
28539
28538
28543
28543
28532
28537
28536
28538
28532
28536
28541
28537
28530
28532
28539
28539
28533
28536
28532
28529
28535
28535
28532
28540
28539
28535
28535
28535
28539
28532
28540
28533
28535
28541
28535
28532
28535
28543
28537
28532
28536
28537
28547
28535
28534
28535
28526
28535
28539
28535
28537
28535
28541
28543
28532
28543
28539
28536
28534
28533
28534
28534
28534
28539
28535
28532
28533
28541
28533
28538
28542
28540
28540
28538
28540
28535
28542
28540
28529
28539
28543
28542
28532
28538
28539
28535
28542
28540
28540
28533
28538
28542
28543
28537
28551
28543
28549
28533
28539
28533
28535
28532
28543
28545
28535
28541
28533
28533
28536
28542
28540
28545
28537
28546
28541
28538
28534
28548
28542
28540
28546
28541
28546
28540
28535
28545
28544
28543
28548
28543
28542
28540
28549
28537
28542
28541
28532
28540
28543
28538
28538
28542
28540
28543
28534
28535
28533
28537
28535
28535
28538
28540
28540
28532
28533
28535
28533
28532
28533
28527
28533
28535
28533
28533
28532
28527
28524
28524
28523
28524
28531
28527
28522
28526
28524
28525
28519
28524
28524
28519
28516
28521
28514
28517
28518
28516
28516
28516
28516
28516
28523
28515
28515
28514
28508
28512
28514
28508
28510
28509
28511
28511
28511
28508
28508
28505
28510
28509
28506
28505
28505
28507
28501
28496
28507
28502
28499
28503
28507
28497
28501
28506
28505
28500
28483
28501
28506
28494
28500
28495
28500
28500
28497
28499
28497
28497
28498
28500
28500
28497
28499
28495
28495
28490
28495
28497
28497
28493
28490
28493
28492
28491
28494
28488
28495
28488
28494
28488
28490
28486
28484
28492
28492
28485
28489
28488
28489
28486
28487
28491
28492
28487
28491
28487
28483
28486
28485
28482
28484
28489
28489
28489
28493
28485
28487
28490
28487
28482
28484
28490
28477
28486
28482
28485
28482
28487
28490
28485
28484
28486
28481
28484
28476
28486
28481
28491
28479
28484
28487
28480
28486
28479
28486
28483
28479
28474
28478
28479
28481
28476
28474
28476
28476
28482
28475
28476
28479
28480
28475
28478
28476
28481
28476
28479
28478
28479
28479
28479
28474
28474
28476
28476
28476
28472
28474
28479
28472
28479
28479
28473
28479
28478
28476
28482
28476
28474
28478
28470
28470
28473
28476
28470
28476
28469
28470
28475
28472
28475
28477
28478
28474
28474
28474
28474
28479
28471
28471
28471
28468
28465
28466
28470
28467
28468
28468
28470
28473
28468
28470
28466
28468
28473
28469
28462
28465
28469
28470
28468
28466
28472
28469
28468
28469
28471
28469
28466
28463
28469
28470
28465
28462
28463
28469
28462
28462
28471
28466
28464
28463
28465
28465
28471
28471
28469
28466
28471
28469
28467
28462
28465
28468
28463
28467
28466
28466
28469
28464
28463
28468
28462
28462
28468
28461
28461
28471
28466
28470
28470
28468
28467
28466
28469
28466
28467
28469
28464
28471
28470
28468
28468
28462
28475
28463
28466
28468
28468
28462
28461
28468
28471
28468
28460
28465
28471
28462
28465
28462
28464
28468
28463
28460
28466
28462
28462
28458
28460
28463
28461
28461
28468
28462
28455
28461
28461
28467
28461
28455
28454
28454
28453
28459
28454
28461
28458
28454
28455
28452
28454
28457
28454
28447
28451
28453
28447
28452
28454
28454
28449
28447
28452
28447
28447
28448
28449
28447
28450
28453
28448
28455
28444
28447
28449
28447
28452
28446
28446
28441
28448
28449
28447
28450
28446
28444
28447
28445
28448
28447
28441
28450
28447
28446
28444
28445
28431
28442
28426
28447
28445
28440
28443
28440
28442
28438
28446
28444
28439
28436
28441
28438
28442
28436
28438
28447
28444
28439
28439
28434
28439
28443
28424
28441
28439
28440
28447
28444
28451
28445
28447
28452
28455
28445
28455
28469
28454
28466
28459
28465
28481
28468
28487
28469
28486
28473
28488
28480
28497
28497
28492
28495
28489
28492
28495
28487
28483
28482
28478
28481
28480
28470
28474
28470
28479
28466
28465
28461
28463
28461
28455
28453
28461
28455
28452
28458
28448
28447
28454
28452
28450
28446
28449
28446
28451
28453
28452
28451
28452
28451
28452
28447
28449
28439
28451
28447
28453
28453
28450
28455
28453
28448
28445
28444
28448
28449
28452
28444
28448
28448
28444
28447
28446
28442
28450
28449
28446
28447
28438
28436
28436
28438
28446
28444
28440
28422
28445
28450
28439
28447
28442
28438
28440
28436
28440
28441
28441
28441
28438
28442
28439
28424
28436
28439
28439
28439
28441
28438
28433
28441
28443
28442
28437
28437
28433
28443
28435
28426
28433
28436
28438
28443
28439
28437
28436
28446
28439
28439
28439
28436
28432
28435
28431
28435
28437
28435
28440
28436
28432
28440
28440
28432
28436
28432
28439
28439
28429
28435
28435
28431
28438
28438
28443
28439
28441
28432
28433
28434
28433
28436
28435
28434
28433
28437
28433
28432
28439
28436
28432
28433
28437
28436
28437
28438
28432
28415
28436
28434
28433
28435
28438
28432
28441
28443
28433
28436
28435
28434
28434
28428
28432
28434
28442
28435
28439
28436
28436
28438
28431
28433
28433
28436
28435
28432
28434
28436
28443
28437
28431
28439
28432
28436
28437
28436
28442
28439
28443
28439
28441
28415
28431
28438
28442
28437
28439
28442
28434
28444
28439
28436
28439
28444
28442
28442
28438
28444
28445
28444
28437
28444
28444
28441
28450
28440
28437
28441
28444
28444
28444
28439
28442
28447
28441
28442
28444
28436
28452
28443
28442
28437
28444
28442
28442
28441
28447
28435
28445
28438
28442
28439
28445
28443
28442
28438
28445
28436
28443
28433
28443
28435
28435
28438
28437
28437
28434
28436
28436
28432
28426
28433
28431
28432
28434
28439
28435
28434
28424
28422
28426
28428
28428
28430
28424
28430
28428
28420
28423
28423
28420
28420
28419
28423
28422
28417
28418
28417
28418
28423
28420
28415
28411
28422
28420
28412
28418
28415
28420
28413
28421
28414
28412
28415
28413
28413
28412
28408
28413
28412
28413
28408
28409
28409
28415
28412
28414
28410
28412
28407
28409
28410
28402
28410
28408
28408
28408
28403
28412
28404
28404
28407
28408
28404
28401
28402
28399
28405
28404
28404
28407
28407
28410
28398
28399
28404
28407
28398
28403
28405
28398
28396
28399
28402
28401
28404
28397
28401
28398
28404
28399
28401
28405
28392
28399
28399
28400
28388
28399
28397
28394
28396
28399
28399
28393
28395
28401
28396
28396
28399
28396
28395
28396
28394
28396
28391
28394
28396
28398
28398
28389
28389
28397
28391
28388
28388
28390
28395
28391
28395
28390
28397
28395
28391
28391
28399
28390
28391
28392
28387
28390
28391
28391
28388
28388
28389
28392
28388
28393
28391
28390
28388
28390
28388
28386
28381
28382
28384
28391
28388
28383
28385
28389
28384
28391
28391
28389
28380
28388
28381
28391
28386
28387
28388
28391
28386
28389
28383
28385
28383
28383
28386
28378
28383
28380
28383
28383
28376
28379
28386
28380
28382
28385
28377
28378
28382
28380
28378
28381
28374
28383
28375
28381
28381
28380
28385
28375
28379
28375
28377
28375
28378
28381
28375
28375
28381
28373
28373
28380
28377
28378
28374
28375
28380
28376
28383
28375
28379
28376
28374
28380
28376
28375
28380
28375
28376
28372
28373
28382
28383
28383
28375
28378
28383
28380
28380
28383
28372
28373
28378
28380
28386
28388
28377
28374
28373
28375
28382
28371
28383
28389
28380
28379
28380
28383
28385
28378
28380
28379
28386
28382
28380
28379
28378
28379
28382
28380
28387
28370
28378
28378
28374
28377
28381
28377
28376
28382
28375
28380
28381
28380
28377
28380
28379
28375
28375
28377
28374
28372
28373
28373
28372
28375
28371
28372
28378
28372
28374
28373
28372
28373
28367
28372
28364
28373
28371
28366
28371
28367
28370
28365
28360
28357
28362
28364
28368
28367
28362
28366
28348
28367
28357
28366
28367
28363
28367
28362
28359
28359
28361
28360
28366
28367
28363
28365
28359
28364
28361
28365
28363
28356
28359
28361
28362
28352
28359
28359
28359
28357
28358
28359
28359
28359
28359
28352
28359
28349
28353
28354
28359
28359
28356
28357
28354
28352
28355
28349
28356
28350
28350
28351
28353
28354
28354
28356
28354
28359
28345
28348
28347
28346
28351
28356
28353
28359
28359
28364
28359
28367
28363
28370
28378
28377
28381
28374
28399
28405
28385
28401
28386
28405
28394
28396
28393
28404
28411
28407
28404
28404
28404
28401
28396
28399
28391
28390
28387
28385
28385
28386
28382
28376
28383
28372
28372
28369
28370
28364
28371
28366
28366
28371
28366
28360
28365
28363
28361
28364
28358
28367
28357
28358
28356
28363
28363
28353
28359
28352
28359
28364
28356
28359
28358
28365
28356
28362
28360
28359
28355
28357
28363
28367
28356
28360
28354
28359
28359
28358
28354
28359
28366
28359
28352
28356
28358
28355
28359
28363
28358
28354
28358
28354
28358
28358
28355
28357
28356
28359
28358
28350
28359
28366
28359
28358
28359
28363
28358
28359
28359
28359
28356
28356
28358
28357
28353
28356
28359
28350
28356
28358
28354
28357
28355
28351
28355
28355
28354
28359
28359
28356
28355
28361
28359
28358
28351
28356
28359
28354
28357
28358
28359
28359
28355
28363
28361
28356
28342
28359
28358
28358
28359
28357
28359
28357
28359
28363
28358
28351
28362
28353
28354
28359
28359
28362
28365
28361
28363
28364
28365
28366
28366
28361
28364
28355
28358
28359
28359
28359
28352
28354
28359
28351
28356
28360
28359
28365
28364
28364
28356
28366
28367
28367
28365
28364
28357
28359
28363
28358
28358
28360
28359
28362
28357
28363
28367
28366
28367
28367
28375
28372
28375
28370
28371
28367
28375
28366
28367
28359
28365
28364
28360
28361
28369
28372
28376
28372
28375
28375
28378
28369
28372
28371
28375
28374
28375
28367
28370
28367
28371
28367
28368
28370
28372
28364
28374
28376
28374
28372
28373
28375
28378
28375
28372
28378
28374
28377
28368
28370
28372
28357
28369
28370
28367
28377
28373
28375
28380
28373
28388
28377
28375
28380
28376
28375
28372
28366
28369
28367
28372
28359
28364
28372
28366
28375
28375
28374
28372
28369
28364
28375
28374
28369
28370
28367
28371
28367
28334
28357
28357
28367
28363
28358
28364
28364
28359
28365
28365
28367
28370
28375
28363
28362
28365
28358
28367
28353
28357
28356
28356
28351
28358
28352
28353
28358
28359
28364
28346
28362
28359
28364
28359
28359
28353
28359
28355
28349
28356
28347
28355
28353
28348
28350
28351
28351
28358
28356
28360
28361
28350
28359
28359
28359
28356
28352
28354
28354
28343
28347
28343
28359
28351
28348
28354
28356
28353
28359
28359
28359
28354
28358
28359
28359
28362
28358
28356
28353
28351
28351
28348
28344
28351
28354
28361
28354
28355
28356
28353
28359
28365
28359
28358
28363
28354
28358
28354
28356
28354
28353
28346
28354
28358
28353
28358
28361
28358
28364
28358
28358
28362
28359
28359
28359
28365
28359
28359
28356
28359
28354
28324
28356
28352
28359
28359
28358
28359
28359
28361
28359
28367
28359
28361
28367
28363
28365
28359
28358
28357
28356
28357
28348
28356
28357
28359
28359
28358
28359
28363
28359
28364
28367
28358
28364
28371
28356
28360
28357
28364
28355
28356
28359
28355
28357
28358
28359
28358
28364
28369
28365
28366
28365
28362
28365
28364
28364
28359
28359
28359
28353
28352
28359
28359
28356
28357
28359
28361
28366
28365
28367
28362
28361
28367
28359
28362
28366
28359
28358
28354
28359
28355
28357
28356
28359
28359
28367
28369
28359
28369
28365
28366
28365
28366
28367
28371
28363
28367
28360
28367
28364
28358
28364
28359
28358
28363
28367
28359
28373
28369
28373
28369
28372
28375
28378
28375
28374
28370
28370
28364
28371
28367
28363
28367
28366
28372
28367
28369
28372
28380
28375
28379
28373
28370
28372
28375
28374
28372
28370
28372
28366
28367
28369
28368
28371
28370
28376
28369
28374
28377
28374
28375
28372
28375
28370
28372
28373
28375
28367
28360
28361
28365
28367
28363
28367
28367
28367
28369
28370
28369
28370
28370
28375
28372
28372
28369
28364
28364
28363
28360
28360
28363
28365
28367
28359
28364
28365
28366
28369
28370
28367
28360
28369
28375
28366
28367
28365
28367
28361
28366
28361
28363
28359
28353
28361
28366
28364
28369
28368
28371
28367
28369
28365
28355
28369
28362
28365
28358
28360
28360
28358
28356
28359
28357
28360
28364
28363
28365
28373
28365
28367
28369
28365
28362
28365
28365
28359
28367
28362
28359
28359
28359
28363
28352
28359
28361
28365
28367
28369
28371
28364
28372
28376
28375
28375
28375
28383
28391
28374
28388
28381
28392
28385
28392
28436
28417
28423
28409
28427
28415
28423
28416
28436
28427
28424
28431
28433
28421
28421
28415
28412
28412
28409
28415
28406
28406
28401
28397
28397
28398
28391
28391
28393
28393
28391
28391
28385
28390
28384
28389
28387
28387
28380
28384
28382
28382
28381
28381
28379
28383
28381
28377
28382
28383
28381
28382
28385
28382
28380
28383
28382
28372
28379
28383
28383
28388
28391
28389
28378
28382
28386
28387
28383
28388
28386
28382
28384
28388
28390
28385
28386
28383
28385
28382
28381
28383
28387
28382
28388
28388
28388
28390
28391
28382
28391
28385
28395
28386
28389
28391
28388
28391
28394
28391
28386
28388
28388
28390
28391
28393
28396
28389
28388
28391
28390
28396
28391
28391
28396
28394
28396
28393
28390
28397
28398
28395
28394
28391
28396
28397
28403
28399
28405
28396
28399
28395
28404
28407
28401
28403
28398
28399
28406
28407
28406
28407
28407
28408
28407
28400
28406
28405
28412
28409
28413
28408
28410
28412
28414
28406
28407
28410
28416
28414
28415
28412
28414
28415
28420
28414
28412
28418
28418
28412
28422
28423
28423
28423
28423
28431
28421
28423
28423
28423
28423
28423
28429
28430
28431
28423
28430
28428
28426
28427
28435
28436
28430
28431
28434
28436
28437
28431
28439
28436
28436
28439
28439
28439
28436
28439
28440
28443
28444
28442
28445
28444
28452
28446
28449
28449
28454
28455
28453
28451
28451
28455
28459
28458
28447
28454
28459
28455
28460
28455
28454
28454
28458
28461
28468
28457
28461
28468
28462
28463
28460
28460
28455
28468
28465
28468
28469
28466
28469
28469
28474
28469
28474
28471
28477
28469
28471
28471
28477
28472
28466
28470
28471
28471
28474
28471
28471
28470
28472
28477
28471
28472
28477
28470
28472
28475
28476
28471
28471
28476
28476
28471
28472
28473
28477
28471
28474
28473
28471
28472
28475
28473
28473
28476
28470
28468
28473
28471
28475
28472
28462
28468
28470
28468
28471
28469
28466
28474
28470
28470
28467
28470
28472
28469
28468
28468
28470
28471
28470
28462
28468
28471
28471
28471
28469
28475
28470
28471
28471
28468
28468
28469
28471
28467
28472
28471
28450
28470
28469
28474
28474
28471
28468
28466
28475
28475
28476
28465
28468
28463
28470
28471
28471
28477
28474
28475
28468
28475
28473
28475
28474
28478
28470
28471
28475
28478
28479
28479
28472
28476
28470
28479
28479
28476
28473
28477
28454
28476
28478
28474
28480
28487
28476
28484
28483
28487
28482
28487
28486
28484
28487
28486
28484
28478
28482
28486
28487
28487
28487
28491
28487
28487
28493
28493
28487
28487
28492
28494
28493
28487
28492
28492
28495
28492
28493
28493
28494
28492
28494
28495
28494
28498
28500
28497
28495
28487
28495
28495
28494
28495
28500
28503
28498
28497
28497
28506
28503
28505
28503
28506
28508
28509
28506
28509
28505
28502
28500
28508
28509
28511
28505
28513
28507
28511
28519
28517
28512
28508
28519
28515
28516
28511
28509
28519
28508
28517
28516
28518
28517
28518
28517
28519
28518
28519
28517
28522
28524
28524
28525
28524
28527
28527
28531
28527
28529
28528
28527
28531
28532
28525
28534
28535
28535
28533
28538
28538
28543
28543
28538
28537
28533
28548
28543
28540
28545
28547
28543
28551
28551
28548
28550
28557
28552
28557
28554
28551
28552
28554
28556
28559
28559
28559
28555
28556
28563
28559
28556
28561
28565
28571
28570
28565
28571
28567
28567
28569
28570
28579
28573
28569
28577
28575
28580
28568
28574
28573
28580
28579
28582
28581
28583
28581
28583
28582
28583
28583
28583
28577
28583
28585
28582
28583
28587
28586
28586
28583
28588
28588
28589
28587
28590
28591
28589
28580
28591
28598
28594
28591
28598
28596
28596
28590
28593
28593
28601
28592
28601
28599
28603
28605
28604
28603
28603
28600
28602
28612
28601
28606
28610
28610
28607
28612
28612
28613
28608
28608
28604
28617
28613
28615
28623
28617
28619
28623
28620
28622
28620
28627
28618
28622
28627
28622
28621
28621
28631
28626
28625
28631
28631
28628
28628
28633
28628
28628
28630
28637
28634
28643
28645
28638
28638
28640
28643
28639
28640
28644
28647
28644
28647
28652
28654
28663
28662
28667
28668
28671
28671
28686
28677
28699
28686
28714
28713
28721
28732
28716
28710
28722
28717
28726
28733
28727
28732
28736
28727
28735
28727
28731
28723
28721
28713
28710
28709
28708
28714
28714
28709
28709
28714
28719
28710
28711
28709
28711
28706
28716
28711
28711
28716
28708
28705
28690
28708
28714
28714
28716
28715
28711
28718
28718
28719
28714
28722
28727
28719
28727
28724
28730
28727
28729
28729
28724
28735
28735
28732
28735
28733
28741
28732
28733
28743
28746
28743
28743
28738
28746
28743
28746
28739
28747
28748
28744
28747
28755
28749
28754
28756
28754
28758
28756
28763
28759
28758
28766
28756
28766
28775
28755
28759
28767
28772
28773
28767
28766
28773
28772
28778
28780
28771
28777
28781
28783
28783
28780
28788
28786
28795
28791
28788
28791
28796
28796
28797
28802
28795
28794
28796
28804
28806
28807
28805
28807
28801
28806
28807
28815
28807
28818
28815
28820
28815
28807
28813
28812
28815
28818
28825
28828
28831
28829
28834
28826
28831
28831
28831
28836
28838
28844
28845
28842
28843
28849
28850
28844
28847
28850
28852
28855
28853
28858
28855
28866
28857
28866
28863
28868
28867
28871
28871
28871
28868
28871
28879
28879
28874
28877
28881
28882
28887
28893
28889
28886
28892
28886
28901
28893
28899
28901
28897
28897
28906
28905
28909
28913
28906
28917
28914
28914
28916
28919
28919
28927
28927
28927
28924
28932
28931
28935
28931
28932
28935
28935
28942
28946
28935
28948
28950
28955
28949
28955
28948
28951
28958
28959
28959
28964
28966
28961
28967
28967
28967
28964
28970
28972
28977
28975
28979
28983
28980
28984
28985
28982
28991
28996
28987
28988
28993
28996
28997
28996
28992
28999
28999
28999
29003
29005
29009
29005
29009
29007
29003
29007
29009
29011
29009
29011
29013
29010
29016
29013
29015
29016
29017
29015
29022
29020
29018
29020
29023
29027
29023
29024
29021
29031
29028
29027
29031
29029
29028
29031
29035
29037
29033
29041
29033
29038
29039
29035
29047
29046
29039
29041
29045
29044
29047
29046
29052
29041
29053
29047
29054
29052
29051
29055
29054
29061
29063
29061
29055
29063
29066
29063
29069
29066
29071
29066
29068
29068
29071
29068
29073
29073
29074
29076
29085
29079
29078
29079
29086
29079
29086
29090
29087
29089
29091
29092
29092
29095
29095
29093
29079
29098
29102
29103
29097
29100
29107
29103
29105
29106
29108
29110
29105
29109
29115
29095
29114
29127
29121
29117
29127
29124
29124
29127
29127
29121
29126
29127
29139
29131
29132
29135
29136
29141
29134
29135
29145
29137
29143
29149
29151
29155
29140
29150
29153
29146
29158
29156
29158
29161
29157
29159
29162
29167
29165
29167
29169
29165
29167
29167
29175
29172
29175
29178
29175
29181
29172
29183
29183
29187
29180
29183
29183
29189
29188
29189
29178
29188
29189
29190
29199
29207
29191
29206
29204
29207
29209
29210
29210
29207
29207
29210
29205
29204
29206
29209
29206
29209
29214
29212
29221
29223
29223
29228
29228
29231
29239
29231
29231
29231
29228
29236
29231
29230
29224
29227
29231
29239
29235
29234
29243
29246
29242
29252
29247
29252
29255
29255
29252
29253
29255
29253
29260
29253
29252
29255
29255
29260
29258
29263
29267
29268
29276
29277
29276
29279
29282
29278
29283
29279
29278
29282
29281
29285
29284
29286
29284
29286
29292
29287
29266
29286
29293
29295
29301
29303
29300
29304
29314
29306
29310
29307
29305
29306
29305
29309
29300
29307
29311
29311
29311
29314
29316
29319
29321
29319
29323
29319
29327
29323
29320
29322
29325
29324
29316
29323
29318
29319
29330
29326
29328
29337
29335
29341
29337
29338
29338
29342
29342
29341
29343
29338
29343
29332
29335
29342
29340
29339
29340
29341
29345
29347
29351
29350
29354
29350
29356
29348
29356
29354
29358
29352
29359
29348
29351
29350
29349
29353
29358
29350
29366
29365
29361
29369
29370
29364
29349
29375
29377
29369
29372
29369
29364
29374
29370
29367
29372
29373
29383
29383
29369
29383
29389
29379
29384
29390
29388
29390
29388
29391
29390
29393
29389
29391
29386
29390
29393
29374
29385
29391
29392
29406
29407
29404
29394
29406
29404
29414
29417
29415
29417
29423
29429
29423
29428
29419
29430
29428
29447
29455
29442
29462
29455
29474
29468
29473
29471
29482
29479
29476
29486
29487
29487
29487
29492
29479
29469
29482
29476
29477
29478
29478
29476
29471
29477
29473
29469
29474
29464
29474
29467
29465
29463
29462
29465
29462
29457
29463
29460
29470
29464
29462
29475
29471
29470
29471
29470
29476
29479
29478
29479
29478
29472
29474
29473
29471
29479
29469
29478
29478
29478
29479
29487
29487
29468
29480
29479
29493
29490
29492
29487
29489
29481
29483
29470
29479
29479
29485
29492
29489
29492
29491
29495
29509
29496
29502
29498
29506
29503
29496
29508
29502
29492
29497
29503
29500
29499
29498
29503
29505
29510
29503
29511
29514
29517
29516
29516
29519
29519
29519
29510
29519
29515
29513
29517
29511
29514
29511
29519
29516
29519
29526
29523
29520
29535
29529
29526
29526
29527
29527
29526
29532
29521
29527
29533
29522
29525
29530
29529
29532
29535
29535
29543
29542
29540
29542
29539
29541
29540
29546
29542
29537
29543
29543
29528
29540
29543
29543
29543
29548
29546
29549
29549
29557
29551
29555
29561
29554
29556
29558
29550
29556
29554
29556
29555
29556
29541
29553
29556
29559
29562
29562
29571
29566
29572
29574
29574
29575
29567
29567
29572
29572
29578
29569
29569
29566
29565
29566
29570
29580
29575
29584
29575
29586
29577
29578
29582
29588
29588
29588
29585
29582
29577
29579
29583
29580
29588
29588
29593
29587
29594
29591
29597
29605
29596
29607
29602
29600
29598
29605
29604
29601
29594
29594
29591
29594
29588
29598
29601
29598
29609
29607
29609
29611
29610
29612
29607
29609
29617
29613
29591
29605
29607
29604
29604
29614
29607
29609
29606
29609
29612
29619
29606
29620
29619
29615
29613
29614
29614
29613
29617
29617
29616
29614
29607
29607
29607
29607
29607
29615
29610
29609
29609
29618
29621
29612
29615
29611
29615
29608
29612
29607
29605
29607
29601
29606
29604
29604
29607
29605
29607
29607
29604
29605
29609
29607
29609
29607
29612
29604
29601
29601
29598
29605
29597
29596
29596
29602
29604
29607
29604
29606
29603
29607
29601
29607
29601
29601
29607
29606
29607
29596
29593
29594
29599
29588
29590
29597
29596
29590
29594
29597
29599
29601
29600
29599
29603
29599
29596
29599
29596
29593
29593
29594
29588
29595
29591
29594
29594
29591
29598
29599
29574
29594
29599
29602
29607
29603
29601
29604
29598
29588
29596
29597
29590
29587
29590
29590
29589
29591
29591
29596
29594
29594
29603
29597
29597
29599
29596
29595
29595
29589
29591
29591
29585
29586
29584
29595
29588
29591
29597
29589
29593
29593
29596
29602
29591
29594
29598
29591
29595
29585
29588
29591
29589
29591
29580
29591
29591
29588
29585
29598
29590
29599
29597
29597
29596
29596
29593
29596
29590
29588
29585
29575
29583
29582
29583
29586
29589
29591
29589
29591
29593
29593
29589
29589
29591
29588
29583
29591
29586
29586
29583
29588
29580
29585
29583
29581
29590
29580
29582
29588
29588
29591
29590
29589
29585
29588
29584
29583
29580
29578
29582
29575
29580
29579
29575
29575
29578
29583
29583
29577
29587
29584
29580
29593
29586
29588
29591
29576
29587
29583
29579
29581
29574
29575
29572
29575
29580
29579
29581
29586
29580
29585
29578
29588
29588
29586
29586
29588
29582
29581
29574
29579
29575
29574
29571
29582
29573
29585
29576
29584
29582
29589
29581
29582
29581
29587
29585
29585
29588
29575
29583
29583
29578
29583
29579
29583
29578
29580
29577
29589
29582
29591
29591
29585
29587
29590
29587
29584
29591
29591
29580
29574
29581
29578
29580
29586
29575
29575
29580
29580
29583
29583
29586
29580
29584
29578
29580
29583
29583
29582
29575
29579
29587
29579
29576
29575
29580
29575
29581
29582
29573
29575
29578
29575
29578
29579
29559
29574
29570
29569
29567
29573
29572
29574
29572
29568
29575
29575
29573
29572
29567
29566
29575
29567
29571
29572
29566
29567
29563
29570
29567
29561
29561
29564
29559
29562
29566
29558
29564
29562
29564
29564
29563
29559
29567
29570
29566
29561
29562
29563
29557
29556
29548
29548
29559
29555
29554
29551
29551
29558
29565
29556
29560
29564
29558
29556
29564
29555
29562
29548
29553
29548
29545
29551
29553
29540
29548
29552
29551
29551
29559
29554
29548
29559
29552
29562
29551
29555
29555
29553
29559
29559
29548
29554
29553
29567
29566
29567
29567
29570
29572
29587
29591
29578
29596
29605
29596
29606
29595
29605
29596
29600
29596
29604
29597
29602
29607
29606
29607
29583
29599
29592
29590
29594
29582
29582
29575
29575
29572
29570
29567
29559
29556
29551
29552
29561
29556
29556
29548
29555
29559
29556
29556
29554
29556
29552
29551
29550
29548
29544
29547
29546
29544
29542
29537
29543
29543
29549
29551
29551
29546
29544
29551
29543
29544
29543
29545
29543
29549
29539
29538
29536
29534
29530
29528
29540
29535
29535
29535
29530
29539
29536
29537
29538
29539
29538
29535
29535
29528
29531
29523
29525
29525
29526
29524
29519
29522
29527
29530
29533
29536
29535
29530
29535
29521
29536
29526
29523
29527
29527
29526
29522
29522
29524
29518
29519
29516
29522
29519
29521
29523
29524
29522
29523
29522
29517
29515
29518
29519
29513
29514
29511
29511
29508
29514
29508
29511
29515
29521
29515
29509
29516
29514
29516
29513
29517
29510
29521
29508
29511
29508
29505
29511
29505
29494
29506
29500
29501
29508
29511
29511
29509
29509
29508
29511
29509
29505
29505
29505
29500
29510
29503
29503
29501
29492
29498
29497
29502
29508
29511
29500
29495
29509
29500
29505
29511
29508
29510
29501
29493
29500
29500
29506
29491
29495
29499
29503
29504
29498
29505
29508
29503
29506
29499
29496
29502
29500
29504
29502
29497
29494
29497
29500
29495
29489
29501
29489
29493
29501
29501
29506
29510
29503
29502
29501
29502
29497
29508
29501
29503
29495
29503
29503
29489
29492
29500
29499
29492
29505
29501
29509
29506
29503
29505
29511
29508
29500
29503
29503
29496
29495
29495
29497
29495
29489
29499
29500
29497
29480
29494
29502
29497
29495
29497
29497
29497
29497
29493
29492
29484
29492
29483
29484
29486
29489
29481
29486
29488
29490
29493
29493
29493
29491
29492
29486
29483
29489
29479
29478
29470
29473
29471
29464
29475
29473
29470
29475
29479
29474
29471
29476
29479
29478
29471
29471
29471
29469
29470
29471
29466
29457
29460
29463
29455
29459
29457
29463
29461
29461
29460
29463
29467
29463
29460
29456
29460
29455
29449
29460
29447
29450
29447
29447
29444
29444
29444
29450
29447
29447
29454
29453
29455
29447
29455
29454
29449
29445
29447
29455
29444
29445
29446
29437
29446
29446
29441
29442
29443
29442
29447
29447
29452
29447
29447
29444
29446
29447
29439
29446
29441
29439
29445
29439
29436
29437
29441
29442
29446
29439
29443
29437
29444
29447
29444
29447
29444
29442
29442
29444
29437
29439
29439
29439
29438
29437
29439
29437
29439
29442
29434
29446
29443
29444
29447
29451
29443
29442
29447
29446
29439
29443
29437
29438
29429
29442
29441
29446
29438
29444
29447
29447
29447
29445
29444
29444
29447
29446
29430
29439
29443
29439
29440
29436
29439
29438
29439
29439
29439
29443
29446
29447
29447
29447
29447
29447
29455
29447
29442
29447
29442
29440
29444
29439
29439
29447
29437
29444
29447
29447
29447
29455
29455
29455
29453
29455
29447
29447
29452
29447
29447
29447
29447
29444
29439
29439
29441
29447
29447
29449
29447
29453
29453
29450
29452
29454
29453
29453
29453
29455
29447
29444
29445
29442
29447
29444
29447
29444
29453
29446
29447
29447
29445
29455
29448
29454
29454
29455
29447
29449
29447
29447
29447
29447
29442
29444
29447
29447
29447
29446
29455
29455
29452
29452
29463
29458
29459
29454
29452
29454
29451
29456
29447
29447
29453
29452
29443
29454
29447
29460
29456
29467
29455
29447
29460
29463
29460
29458
29461
29452
29446
29452
29452
29444
29461
29461
29461
29450
29460
29464
29461
29465
29463
29466
29463
29471
29457
29458
29462
29454
29454
29452
29458
29453
29467
29467
29460
29466
29465
29465
29470
29474
29472
29468
29468
29466
29468
29471
29464
29471
29463
29469
29455
29463
29459
29462
29469
29467
29463
29471
29470
29469
29465
29473
29470
29468
29471
29475
29458
29461
29463
29460
29456
29457
29458
29463
29457
29460
29462
29465
29461
29469
29463
29465
29458
29470
29468
29471
29467
29465
29467
29458
29465
29460
29460
29461
29461
29464
29463
29470
29467
29466
29475
29470
29468
29470
29468
29467
29468
29463
29471
29460
29458
29459
29460
29459
29463
29464
29467
29471
29476
29471
29468
29479
29476
29479
29473
29470
29476
29476
29471
29464
29474
29470
29467
29462
29473
29468
29471
29477
29471
29473
29479
29476
29470
29479
29476
29479
29476
29483
29474
29476
29476
29476
29477
29472
29479
29479
29477
29483
29491
29495
29490
29501
29498
29502
29493
29500
29508
29513
29505
29522
29507
29525
29516
29540
29527
29537
29534
29543
29543
29543
29545
29551
29543
29556
29543
29546
29539
29534
29529
29529
29524
29521
29516
29516
29515
29515
29515
29516
29512
29512
29514
29511
29511
29519
29518
29516
29508
29511
29504
29501
29508
29509
29505
29510
29506
29509
29511
29511
29515
29514
29517
29519
29522
29517
29517
29522
29509
29511
29509
29511
29508
29511
29510
29505
29511
29506
29518
29511
29517
29503
29519
29519
29514
29517
29517
29522
29519
29508
29513
29491
29511
29510
29509
29513
29489
29510
29518
29511
29522
29515
29509
29521
29512
29522
29517
29520
29508
29511
29511
29509
29515
29510
29510
29512
29514
29514
29527
29518
29518
29519
29518
29516
29524
29516
29514
29518
29516
29512
29519
29516
29511
29512
29503
29508
29521
29519
29520
29517
29524
29527
29530
29525
29535
29528
29531
29525
29520
29518
29523
29522
29521
29514
29521
29527
29521
29526
29528
29532
29526
29532
29539
29532
29531
29530
29532
29526
29538
29530
29529
29522
29522
29534
29531
29530
29531
29533
29532
29527
29529
29539
29537
29550
29543
29540
29546
29541
29533
29529
29529
29538
29529
29532
29540
29535
29542
29539
29549
29548
29559
29550
29551
29545
29548
29555
29555
29548
29551
29551
29551
29548
29547
29548
29548
29554
29543
29558
29559
29559
29570
29559
29559
29562
29573
29567
29573
29564
29566
29556
29556
29557
29558
29554
29559
29566
29562
29565
29572
29575
29567
29569
29575
29575
29578
29568
29569
29571
29569
29566
29575
29573
29574
29575
29573
29574
29575
29575
29575
29581
29573
29578
29576
29576
29583
29578
29569
29587
29585
29583
29580
29575
29574
29575
29574
29575
29578
29583
29582
29583
29581
29580
29587
29586
29587
29580
29583
29580
29575
29575
29581
29575
29575
29574
29575
29575
29581
29575
29582
29583
29587
29583
29587
29580
29575
29577
29579
29575
29575
29575
29575
29578
29569
29566
29565
29571
29567
29573
29578
29572
29575
29572
29567
29574
29570
29569
29571
29559
29570
29566
29567
29565
29564
29558
29562
29567
29565
29562
29566
29566
29567
29562
29567
29570
29570
29567
29573
29563
29562
29559
29559
29556
29556
29558
29554
29562
29551
29558
29565
29557
29566
29567
29565
29565
29562
29562
29563
29558
29559
29560
29561
29557
29564
29556
29532
29559
29559
29559
29552
29559
29559
29559
29561
29565
29562
29567
29557
29563
29556
29554
29564
29551
29551
29553
29551
29557
29553
29559
29559
29556
29563
29562
29563
29568
29561
29557
29567
29559
29557
29556
29558
29561
29558
29563
29559
29559
29558
29556
29551
29563
29562
29561
29560
29562
29567
29562
29559
29558
29556
29552
29551
29551
29551
29556
29551
29557
29555
29556
29566
29563
29560
29553
29557
29559
29562
29564
29560
29545
29551
29556
29551
29551
29556
29546
29551
29552
29559
29556
29562
29554
29551
29559
29561
29562
29551
29559
29559
29555
29553
29557
29550
29545
29551
29550
29550
29552
29561
29550
29559
29563
29559
29556
29562
29555
29555
29548
29554
29556
29550
29551
29551
29548
29553
29546
29540
29556
29551
29553
29547
29556
29561
29551
29551
29553
29558
29551
29555
29556
29554
29553
29552
29547
29548
29543
29545
29552
29548
29554
29549
29558
29555
29556
29553
29559
29555
29559
29551
29548
29551
29547
29540
29547
29541
29543
29540
29550
29549
29546
29549
29559
29548
29550
29551
29551
29551
29547
29546
29547
29546
29543
29541
29540
29543
29545
29549
29546
29539
29548
29547
29547
29551
29551
29555
29543
29551
29547
29549
29548
29546
29551
29549
29556
29548
29551
29546
29543
29557
29551
29549
29548
29551
29550
29550
29551
29550
29542
29548
29549
29542
29548
29549
29548
29547
29551
29556
29553
29549
29551
29555
29553
29545
29552
29555
29551
29552
29548
29554
29553
29551
29559
29550
29559
29556
29551
29550
29551
29527
29562
29556
29551
29550
29557
29556
29558
29556
29553
29553
29549
29553
29550
29548
29546
29551
29553
29551
29551
29555
29562
29552
29552
29555
29548
29556
29545
29551
29551
29551
29550
29551
29548
29542
29551
29553
29550
29549
29548
29549
29552
29551
29546
29551
29553
29548
29549
29554
29551
29547
29554
29547
29550
29545
29549
29544
29555
29545
29548
29548
29547
29551
29545
29542
29548
29551
29542
29542
29542
29552
29554
29550
29547
29543
29550
29548
29543
29549
29547
29551
29549
29550
29551
29549
29551
29550
29551
29548
29547
29534
29551
29550
29545
29549
29554
29548
29548
29548
29543
29549
29542
29540
29542
29551
29543
29550
29535
29556
29540
29545
29552
29547
29548
29550
29546
29548
29553
29548
29549
29554
29558
29565
29557
29565
29561
29559
29567
29563
29575
29574
29587
29577
29596
29593
29606
29591
29610
29607
29614
29609
29614
29615
29618
29622
29612
29622
29617
29622
29620
29607
29606
29604
29599
29594
29591
29598
29588
29593
29587
29588
29586
29583
29581
29583
29579
29585
29572
29578
29572
29581
29575
29577
29579
29575
29574
29583
29582
29580
29577
29577
29582
29579
29576
29580
29575
29577
29575
29583
29577
29578
29583
29591
29583
29579
29578
29578
29589
29575
29576
29583
29577
29589
29583
29583
29582
29587
29588
29576
29583
29583
29589
29578
29580
29582
29585
29591
29583
29591
29585
29591
29588
29589
29588
29589
29586
29586
29589
29583
29574
29586
29591
29588
29588
29585
29595
29590
29595
29599
29591
29596
29594
29593
29591
29594
29593
29598
29596
29599
29596
29607
29599
29596
29596
29602
29594
29594
29594
29598
29611
29599
29593
29604
29599
29605
29602
29604
29606
29604
29607
29614
29606
29612
29607
29610
29607
29615
29608
29607
29614
29615
29614
29610
29615
29620
29605
29613
29607
29617
29617
29613
29612
29617
29615
29617
29620
29618
29617
29623
29625
29622
29631
29631
29623
29628
29625
29630
29630
29627
29636
29634
29630
29636
29638
29641
29641
29640
29639
29641
29642
29647
29644
29647
29651
29639
29640
29641
29648
29647
29652
29651
29646
29653
29655
29648
29651
29652
29658
29647
29655
29666
29660
29666
29671
29670
29671
29676
29666
29668
29675
29671
29671
29674
29670
29677
29674
29675
29673
29679
29678
29686
29683
29686
29680
29691
29692
29691
29694
29698
29695
29703
29698
29695
29692
29703
29697
29703
29703
29703
29703
29702
29703
29715
29711
29711
29703
29703
29711
29715
29717
29721
29713
29723
29717
29721
29719
29719
29718
29716
29727
29727
29724
29731
29732
29724
29729
29721
29733
29732
29735
29726
29731
29727
29729
29727
29729
29739
29734
29733
29734
29732
29732
29735
29733
29737
29735
29741
29732
29732
29734
29740
29737
29735
29741
29740
29740
29738
29745
29743
29748
29743
29742
29743
29750
29755
29749
29753
29748
29749
29748
29745
29753
29748
29751
29750
29756
29750
29759
29756
29756
29759
29757
29763
29763
29757
29753
29759
29759
29766
29758
29766
29764
29767
29767
29767
29766
29773
29770
29767
29772
29771
29779
29783
29786
29778
29775
29777
29774
29780
29780
29783
29789
29783
29788
29791
29789
29789
29793
29791
29794
29790
29794
29797
29799
29796
29795
29798
29802
29803
29805
29804
29799
29803
29804
29807
29819
29807
29813
29807
29822
29814
29819
29822
29816
29817
29820
29822
29828
29822
29829
29820
29825
29831
29831
29831
29831
29839
29833
29837
29844
29839
29839
29836
29838
29843
29847
29837
29844
29851
29852
29855
29855
29861
29860
29857
29861
29857
29863
29854
29860
29863
29862
29868
29870
29868
29873
29876
29878
29876
29879
29870
29878
29871
29885
29882
29882
29887
29889
29893
29893
29895
29896
29902
29892
29893
29901
29901
29899
29901
29903
29901
29907
29906
29908
29905
29905
29911
29909
29911
29917
29913
29906
29923
29916
29921
29916
29914
29926
29913
29930
29929
29932
29937
29926
29932
29932
29937
29935
29934
29940
29937
29940
29946
29942
29950
29951
29948
29950
29954
29957
29959
29956
29951
29957
29959
29959
29958
29958
29959
29969
29967
29957
29972
29980
29977
29959
29970
29970
29975
29983
29975
29980
29985
29980
29983
29983
29987
29980
29989
29990
29999
29989
29995
29991
29993
29999
30002
30001
30006
30007
30006
30006
30002
30003
30005
30006
30010
30010
30013
30009
30015
30012
30015
30020
30021
30030
30027
30023
30030
30023
30026
30030
30028
30031
30028
30041
30033
30031
30044
30036
30041
30046
30047
30055
30047
30053
30054
30054
30059
30054
30051
30055
30048
30058
30062
30053
30062
30063
30069
30063
30065
30068
30079
30073
30071
30071
30077
30079
30077
30082
30087
30084
30083
30090
30087
30086
30087
30082
30087
30092
30087
30092
30097
30102
30103
30100
30100
30103
30108
30109
30110
30107
30113
30101
30109
30111
30109
30113
30116
30113
30116
30116
30125
30120
30100
30118
30116
30121
30123
30121
30125
30125
30119
30127
30125
30129
30131
30133
30129
30132
30131
30136
30135
30133
30134
30134
30134
30136
30139
30138
30138
30142
30136
30142
30139
30142
30147
30141
30146
30146
30149
30151
30148
30151
30156
30155
30151
30156
30154
30159
30159
30159
30159
30159
30157
30162
30159
30159
30172
30168
30170
30172
30174
30175
30179
30175
30172
30180
30166
30175
30182
30178
30183
30186
30182
30187
30180
30183
30186
30191
30183
30182
30191
30188
30191
30203
30193
30203
30196
30203
30202
30198
30201
30205
30198
30206
30204
30207
30209
30207
30204
30215
30213
30214
30215
30215
30215
30215
30219
30229
30230
30229
30234
30239
30239
30247
30246
30252
30246
30263
30268
30279
30276
30290
30287
30294
30286
30300
30301
30300
30308
30308
30309
30317
30305
30295
30310
30301
30303
30293
30300
30295
30298
30286
30293
30288
30294
30284
30287
30286
30287
30278
30292
30284
30287
30284
30284
30291
30279
30287
30272
30281
30287
30284
30292
30287
30284
30294
30299
30301
30293
30295
30292
30301
30297
30306
30301
30296
30298
30303
30305
30307
30319
30298
30308
30311
30317
30312
30316
30309
30311
30315
30316
30313
30317
30308
30316
30325
30316
30318
30310
30316
30326
30324
30324
30332
30330
30324
30332
30329
30334
30328
30327
30332
30326
30327
30332
30338
30340
30339
30339
30342
30343
30343
30339
30343
30348
30350
30340
30345
30348
30346
30348
30348
30356
30348
30356
30359
30358
30359
30353
30353
30364
30362
30363
30365
30359
30372
30369
30358
30366
30367
30373
30367
30369
30366
30369
30373
30373
30375
30372
30375
30376
30375
30377
30380
30382
30383
30383
30388
30382
30386
30391
30384
30387
30394
30390
30385
30388
30396
30385
30396
30399
30407
30397
30399
30404
30404
30396
30407
30403
30407
30406
30398
30404
30407
30401
30410
30411
30405
30411
30422
30414
30412
30420
30420
30425
30424
30404
30430
30430
30428
30426
30429
30429
30431
30431
30437
30423
30438
30439
30439
30438
30442
30441
30443
30443
30448
30452
30449
30442
30451
30446
30455
30455
30452
30457
30459
30452
30448
30452
30460
30460
30460
30461
30463
30460
30460
30470
30460
30468
30468
30471
30471
30477
30466
30471
30471
30483
30471
30483
30471
30470
30479
30476
30484
30485
30479
30484
30487
30489
30487
30493
30488
30484
30481
30476
30495
30493
30492
30485
30492
30495
30489
30487
30495
30493
30501
30494
30498
30498
30495
30496
30500
30495
30495
30487
30490
30500
30496
30495
30501
30499
30500
30499
30499
30494
30494
30492
30500
30499
30497
30495
30503
30496
30493
30498
30495
30495
30502
30484
30500
30494
30492
30494
30500
30485
30494
30492
30495
30491
30494
30500
30495
30492
30488
30491
30500
30492
30493
30487
30500
30496
30502
30495
30502
30494
30490
30487
30481
30503
30490
30492
30498
30490
30492
30492
30495
30492
30486
30488
30503
30497
30497
30502
30498
30495
30495
30498
30493
30492
30495
30494
30494
30493
30492
30500
30494
30497
30498
30502
30503
30495
30495
30500
30501
30495
30500
30500
30495
30500
30500
30505
30503
30502
30493
30503
30500
30503
30503
30503
30503
30507
30515
30506
30508
30508
30508
30508
30503
30505
30504
30511
30503
30505
30507
30508
30511
30503
30507
30505
30509
30500
30510
30507
30503
30513
30508
30509
30511
30509
30507
30487
30508
30507
30500
30513
30513
30519
30516
30510
30512
30511
30513
30507
30511
30511
30514
30511
30512
30519
30516
30512
30515
30511
30503
30517
30510
30522
30512
30516
30522
30523
30519
30519
30522
30524
30521
30523
30519
30518
30519
30519
30522
30519
30516
30524
30519
30520
30519
30527
30520
30527
30527
30524
30522
30521
30522
30524
30527
30524
30524
30526
30525
30523
30524
30519
30520
30529
30532
30527
30526
30516
30527
30533
30526
30527
30526
30520
30518
30526
30526
30527
30525
30527
30534
30527
30526
30533
30524
30522
30535
30531
30525
30531
30533
30525
30529
30524
30534
30528
30530
30520
30523
30527
30527
30527
30524
30522
30519
30530
30532
30524
30529
30522
30537
30527
30528
30533
30529
30527
30529
30529
30527
30532
30525
30527
30532
30529
30526
30524
30526
30525
30529
30531
30527
30531
30531
30535
30531
30524
30529
30522
30529
30521
30525
30527
30531
30528
30524
30533
30535
30524
30517
30530
30527
30528
30530
30526
30524
30535
30519
30529
30522
30527
30527
30524
30522
30527
30524
30528
30522
30529
30527
30531
30507
30517
30525
30526
30527
30517
30516
30527
30524
30519
30527
30524
30525
30527
30527
30521
30533
30532
30528
30525
30530
30532
30534
30526
30532
30525
30535
30527
30525
30525
30529
30533
30531
30532
30529
30533
30534
30540
30538
30532
30524
30537
30534
30536
30536
30540
30535
30534
30533
30529
30532
30535
30532
30537
30535
30532
30535
30532
30537
30538
30533
30537
30541
30534
30539
30535
30528
30532
30533
30528
30535
30513
30529
30524
30531
30543
30537
30538
30535
30549
30541
30541
30542
30530
30543
30536
30539
30533
30546
30536
30540
30541
30543
30534
30532
30542
30543
30535
30556
30548
30554
30548
30550
30548
30542
30548
30551
30553
30548
30549
30548
30556
30548
30551
30555
30559
30558
30556
30559
30567
30551
30560
30559
30556
30556
30562
30561
30559
30563
30540
30559
30559
30565
30564
30561
30564
30567
30568
30565
30558
30575
30570
30570
30568
30557
30569
30575
30567
30564
30567
30562
30568
30580
30579
30577
30577
30580
30580
30584
30591
30591
30594
30599
30604
30603
30598
30613
30607
30620
30615
30638
30636
30642
30639
30635
30645
30642
30644
30654
30660
30668
30663
30652
30647
30660
30647
30653
30652
30636
30644
30631
30639
30636
30636
30637
30620
30625
30634
30637
30635
30631
30631
30639
30631
30641
30636
30631
30631
30629
30619
30633
30630
30636
30637
30636
30645
30639
30638
30636
30636
30646
30647
30644
30647
30645
30644
30650
30645
30642
30645
30655
30650
30652
30637
30654
30652
30655
30658
30652
30661
30659
30661
30660
30660
30661
30662
30662
30663
30663
30661
30666
30663
30657
30676
30664
30675
30677
30668
30668
30655
30684
30669
30677
30674
30679
30679
30673
30676
30684
30679
30684
30689
30681
30682
30689
30684
30687
30688
30694
30695
30700
30685
30689
30693
30693
30701
30695
30707
30695
30703
30703
30703
30708
30695
30709
30709
30702
30719
30702
30713
30716
30716
30727
30707
30721
30717
30725
30724
30720
30727
30716
30724
30727
30719
30727
30727
30727
30727
30738
30741
30727
30735
30743
30739
30745
30743
30743
30740
30745
30753
30755
30751
30750
30755
30752
30759
30756
30758
30759
30766
30770
30767
30762
30770
30767
30771
30768
30772
30775
30772
30774
30779
30780
30783
30783
30782
30791
30787
30783
30791
30790
30794
30797
30796
30807
30791
30799
30807
30807
30803
30805
30806
30812
30811
30822
30818
30822
30822
30823
30823
30823
30829
30831
30835
30837
30826
30837
30836
30833
30848
30836
30851
30847
30855
30846
30852
30842
30855
30860
30855
30855
30874
30868
30869
30865
30870
30873
30869
30868
30873
30876
30881
30877
30883
30891
30884
30890
30892
30891
30893
30887
30893
30900
30897
30892
30892
30901
30889
30905
30903
30902
30900
30911
30908
30900
30910
30912
30924
30917
30919
30919
30917
30926
30916
30921
30919
30931
30923
30927
30915
30926
30927
30924
30933
30934
30933
30929
30935
30940
30940
30940
30938
30936
30938
30938
30938
30941
30951
30942
30945
30942
30950
30952
30948
30951
30951
30952
30951
30950
30964
30962
30957
30964
30956
30959
30965
30965
30963
30970
30967
30970
30959
30967
30975
30974
30974
30966
30980
30983
30983
30983
30983
30983
30988
30983
30983
30996
30991
30989
30989
30998
30997
31001
30998
31001
31007
31004
31009
31007
30997
31004
31010
31014
31012
31023
31021
31021
31022
31023
31027
31025
31023
31026
31026
31031
31033
31028
31034
31036
31037
31043
31036
31047
31046
31051
31050
31054
31054
31058
31052
31055
31055
31069
31055
31065
31068
31073
31068
31073
31076
31079
31072
31071
31084
31087
31083
31091
31090
31092
31092
31093
31103
31095
31101
31082
31108
31105
31109
31111
31108
31111
31119
31111
31113
31124
31121
31119
31111
31127
31126
31123
31133
31134
31135
31137
31141
31149
31143
31142
31148
31149
31153
31145
31163
31153
31155
31156
31159
31156
31162
31170
31170
31175
31175
31167
31173
31171
31177
31180
31185
31191
31185
31191
31187
31196
31194
31199
31197
31204
31207
31204
31207
31209
31219
31213
31207
31215
31212
31217
31231
31225
31230
31228
31226
31235
31232
31231
31231
31239
31231
31239
31233
31239
31239
31236
31239
31239
31249
31258
31253
31263
31256
31260
31261
31268
31262
31269
31266
31271
31276
31277
31270
31274
31285
31278
31287
31291
31288
31290
31294
31292
31300
31295
31302
31300
31303
31300
31307
31306
31304
31311
31309
31309
31316
31317
31316
31319
31331
31326
31318
31334
31333
31335
31324
31337
31334
31332
31337
31334
31341
31348
31344
31348
31350
31351
31354
31353
31346
31354
31345
31360
31367
31364
31367
31367
31365
31364
31367
31374
31367
31372
31370
31383
31380
31388
31387
31383
31383
31387
31385
31391
31392
31386
31397
31390
31396
31399
31398
31404
31407
31402
31403
31415
31406
31411
31410
31405
31423
31421
31420
31425
31420
31431
31420
31427
31429
31424
31430
31428
31434
31430
31430
31439
31449
31445
31444
31436
31443
31441
31452
31448
31447
31453
31456
31467
31462
31460
31459
31460
31463
31471
31468
31475
31467
31467
31468
31483
31471
31487
31469
31481
31463
31479
31479
31482
31470
31483
31493
31481
31494
31493
31495
31494
31500
31495
31495
31495
31503
31507
31500
31508
31509
31512
31497
31509
31514
31514
31516
31516
31518
31514
31519
31526
31524
31526
31528
31530
31527
31534
31535
31537
31526
31529
31535
31543
31539
31545
31542
31548
31533
31551
31556
31549
31559
31551
31553
31556
31559
31560
31558
31562
31567
31567
31578
31565
31567
31575
31552
31572
31566
31574
31565
31575
31579
31580
31588
31591
31597
31590
31605
31595
31602
31597
31604
31599
31604
31602
31604
31607
31613
31611
31615
31618
31623
31623
31625
31628
31628
31644
31633
31630
31647
31645
31663
31653
31677
31653
31676
31677
31685
31685
31692
31695
31706
31708
31700
31709
31704
31698
31700
31693
31697
31695
31696
31689
31687
31686
31693
31692
31687
31691
31686
31686
31689
31695
31689
31690
31689
31684
31685
31683
31692
31693
31697
31703
31703
31703
31700
31711
31710
31713
31710
31716
31703
31719
31719
31718
31714
31703
31716
31719
31719
31724
31723
31726
31728
31733
31726
31719
31732
31725
31741
31741
31733
31738
31735
31735
31741
31749
31748
31748
31742
31751
31748
31751
31751
31751
31751
31760
31764
31764
31762
31759
31767
31760
31775
31765
31770
31758
31774
31775
31781
31781
31775
31783
31783
31783
31782
31791
31791
31788
31796
31788
31786
31799
31789
31794
31800
31787
31801
31800
31803
31806
31812
31800
31810
31811
31813
31821
31813
31812
31818
31820
31817
31822
31827
31825
31828
31824
31825
31813
31835
31828
31839
31836
31841
31836
31842
31841
31847
31843
31847
31836
31837
31846
31844
31856
31844
31855
31852
31841
31858
31855
31863
31865
31860
31866
31871
31866
31875
31873
31876
31871
31879
31855
31855
31861
31879
31876
31876
31879
31878
31890
31884
31899
31888
31892
31889
31895
31890
31879
31893
31899
31911
31903
31892
31902
31911
31902
31908
31910
31918
31910
31909
31915
31922
31917
31919
31923
31927
31925
31933
31905
31921
31922
31929
31927
31929
31932
31937
31943
31932
31935
31943
31939
31942
31950
31953
31948
31958
31957
31951
31952
31947
31944
31952
31957
31948
31964
31957
31964
31958
31959
31967
31961
31966
31956
31973
31970
31966
31950
31979
31970
31975
31964
31958
31970
31968
31963
31983
31972
31983
31975
31980
31970
31980
31977
31981
31983
31986
31962
31981
31980
31978
31985
31974
31981
31978
31976
31986
31991
31978
31978
31984
31981
31988
31991
31991
31995
31991
31983
31983
31979
31986
31982
31981
31987
31980
31989
31984
31988
31986
31989
31994
31988
31993
31983
31983
31993
31983
31988
31991
31999
31995
31993
31992
31991
31988
31991
31994
31992
31988
31985
31991
31992
31999
31989
31986
31986
32007
31994
32007
31994
32000
32002
31996
32004
32004
32007
32002
31988
31999
32004
32001
32004
32003
32006
32007
32005
31999
32003
31988
32007
31993
32009
32007
31999
31996
32013
32007
32013
32021
32019
32021
32013
32023
32023
32023
32017
32025
32020
32026
32026
32024
32030
32021
32028
32025
32029
32035
32035
32039
32037
32039
32039
32039
32045
32031
32039
32038
32051
32039
32043
32043
32046
32049
32042
32049
32054
32053
32055
32055
32051
32058
32055
32062
32055
32065
32061
32060
32058
32066
32063
32071
32062
32060
32047
32062
32063
32065
32071
32071
32070
32068
32083
32063
32068
32070
32067
32076
32078
32079
32070
32082
32068
32081
32094
32095
32091
32101
32087
32088
32097
32101
32097
32100
32105
32103
32106
32108
32111
32112
32100
32114
32109
32121
32116
32129
32124
32132
32126
32129
32135
32135
32142
32134
32138
32135
32138
32148
32139
32151
32151
32150
32148
32145
32158
32159
32159
32161
32153
32154
32164
32159
32156
32161
32156
32159
32164
32169
32167
32173
32172
32164
32167
32175
32173
32175
32167
32164
32173
32171
32180
32175
32176
32181
32180
32181
32165
32177
32186
32195
32189
32188
32182
32192
32196
32199
32188
32196
32197
32195
32191
32196
32199
32199
32199
32198
32198
32196
32202
32206
32199
32198
32198
32206
32205
32203
32201
32207
32213
32206
32215
32209
32215
32211
32215
32214
32214
32215
32214
32216
32215
32223
32219
32219
32221
32219
32217
32223
32221
32223
32231
32223
32220
32223
32229
32223
32223
32231
32227
32236
32230
32206
32215
32231
32236
32230
32236
32233
32227
32233
32228
32241
32237
32247
32244
32234
32241
32242
32238
32234
32241
32245
32242
32244
32244
32237
32247
32245
32246
32247
32244
32239
32249
32252
32249
32239
32247
32252
32255
32258
32262
32253
32255
32263
32255
32262
32258
32258
32258
32260
32259
32263
32263
32262
32263
32263
32263
32263
32263
32271
32263
32263
32263
32263
32262
32263
32261
32250
32276
32269
32271
32271
32262
32263
32275
32253
32271
32263
32283
32274
32277
32283
32275
32263
32260
32281
32271
32282
32277
32278
32273
32284
32283
32281
32283
32287
32288
32287
32280
32286
32292
32286
32289
32292
32288
32286
32293
32292
32292
32285
32295
32289
32295
32303
32287
32295
32295
32294
32287
32284
32295
32297
32290
32296
32303
32295
32296
32310
32295
32311
32303
32318
32308
32320
32311
32316
32302
32318
32321
32316
32319
32319
32311
32293
32310
32308
32314
32324
32330
32331
32331
32340
32335
32334
32334
32343
32348
32350
32348
32358
32356
32365
32358
32374
32375
32381
32379
32389
32391
32403
32406
32410
32388
32399
32415
32401
32412
32397
32380
32378
32389
32391
32391
32391
32391
32389
32381
32383
32381
32389
32389
32387
32383
32390
32386
32397
32384
32396
32392
32394
32399
32376
32382
32404
32406
32406
32405
32406
32409
32412
32412
32412
32408
32423
32417
32421
32417
32421
32420
32426
32421
32422
32412
32413
32413
32423
32429
32423
32431
32419
32427
32423
32428
32431
32436
32441
32437
32445
32429
32436
32436
32436
32428
32431
32444
32430
32447
32423
32432
32436
32444
32450
32439
32444
32454
32439
32446
32452
32452
32447
32447
32442
32447
32447
32445
32447
32450
32459
32452
32449
32452
32455
32453
32455
32459
32461
32445
32461
32457
32439
32450
32438
32447
32462
32467
32460
32458
32461
32468
32445
32462
32460
32465
32460
32460
32468
32461
32463
32470
32467
32470
32464
32468
32463
32466
32475
32471
32471
32466
32465
32468
32471
32477
32467
32471
32476
32478
32471
32461
32479
32469
32476
32469
32477
32464
32474
32461
32475
32468
32478
32472
32478
32487
32485
32487
32489
32486
32486
32497
32486
32471
32482
32487
32465
32498
32474
32485
32493
32495
32494
32493
32495
32493
32508
32492
32487
32491
32503
32487
32501
32504
32506
32508
32508
32511
32505
32509
32506
32510
32519
32495
32495
32511
32519
32519
32516
32518
32521
32519
32505
32507
32510
32516
32516
32524
32519
32511
32527
32519
32535
32526
32529
32530
32535
32535
32543
32533
32538
32539
32539
32535
32535
32543
32537
32533
32539
32546
32543
32546
32540
32540
32551
32543
32548
32545
32549
32549
32551
32551
32551
32547
32543
32543
32547
32541
32547
32543
32550
32543
32543
32550
32550
32549
32540
32548
32549
32551
32543
32551
32540
32551
32545
32547
32547
32526
32539
32554
32545
32551
32542
32551
32541
32551
32545
32540
32547
32548
32549
32551
32547
32551
32542
32547
32543
32547
32548
32537
32548
32548
32538
32546
32548
32551
32548
32551
32537
32540
32543
32539
32549
32540
32543
32551
32548
32542
32541
32544
32545
32546
32545
32548
32543
32545
32543
32543
32533
32532
32546
32551
32537
32548
32540
32548
32542
32550
32534
32537
32538
32549
32540
32543
32535
32541
32542
32540
32543
32549
32548
32547
32548
32547
32541
32522
32541
32551
32543
32540
32532
32534
32538
32550
32542
32548
32543
32546
32544
32548
32535
32540
32540
32543
32547
32543
32550
32547
32546
32543
32551
32550
32557
32548
32545
32542
32543
32535
32540
32548
32549
32543
32551
32548
32542
32538
32555
32546
32551
32551
32551
32548
32553
32555
32551
32557
32551
32551
32554
32549
32557
32550
32551
32545
32551
32551
32550
32556
32553
32553
32553
32552
32551
32562
32555
32551
32543
32554
32550
32556
32564
32557
32560
32557
32555
32552
32551
32553
32543
32560
32559
32564
32556
32568
32557
32570
32560
32561
32560
32561
32564
32567
32567
32572
32566
32565
32566
32564
32570
32573
32571
32575
32564
32575
32564
32562
32572
32570
32569
32564
32567
32573
32568
32571
32571
32573
32566
32583
32573
32580
32583
32578
32576
32576
32580
32580
32579
32583
32578
32583
32583
32579
32583
32581
32581
32583
32578
32580
32582
32575
32579
32584
32586
32583
32588
32583
32594
32582
32580
32588
32589
32586
32598
32585
32575
32575
32582
32587
32595
32593
32588
32597
32580
32591
32591
32583
32594
32590
32597
32580
32593
32597
32589
32601
32597
32591
32588
32599
32598
32588
32602
32602
32607
32583
32599
32583
32597
32604
32588
32606
32598
32598
32603
32591
32599
32600
32599
32599
32588
32593
32597
32602
32596
32604
32604
32612
32603
32607
32602
32603
32604
32606
32610
32605
32596
32591
32607
32606
32599
32609
32606
32605
32608
32610
32615
32615
32612
32610
32615
32612
32612
32615
32595
32615
32607
32615
32609
32612
32612
32623
32615
32619
32607
32623
32612
32615
32613
32613
32613
32615
32612
32614
32614
32617
32599
32609
32611
32615
32612
32615
32623
32615
32610
32608
32615
32616
32615
32615
32615
32620
32621
32605
32607
32607
32618
32615
32615
32615
32619
32615
32608
32615
32615
32612
32607
32612
32615
32628
32623
32620
32617
32614
32602
32622
32621
32612
32617
32615
32607
32618
32616
32623
32625
32623
32621
32626
32617
32628
32615
32622
32628
32629
32631
32620
32631
32622
32622
32635
32631
32631
32635
32631
32621
32631
32623
32623
32636
32633
32643
32637
32620
32628
32639
32646
32632
32635
32641
32639
32647
32637
32644
32645
32647
32647
32650
32663
32659
32682
32669
32674
32679
32679
32681
32689
32700
32702
32701
32703
32702
32679
32687
32677
32692
32680
32683
32660
32671
32672
32666
32670
32662
32644
32663
32661
32660
32652
32654
32655
32660
32657
32655
32658
32636
32655
32660
32655
32669
32655
32660
32660
32663
32636
32651
32644
32660
32647
32653
32644
32655
32656
32654
32653
32647
32653
32654
32655
32660
32650
32647
32646
32654
32654
32649
32650
32655
32654
32651
32652
32647
32647
32655
32650
32660
32628
32649
32653
32652
32661
32657
32655
32656
32655
32655
32654
32655
32657
32636
32647
32653
32647
32660
32657
32657
32636
32655
32654
32648
32660
32652
32655
32655
32652
32655
32652
32660
32654
32657
32653
32659
32655
32657
32654
32647
32655
32655
32663
32651
32662
32647
32646
32634
32653
32649
32655
32660
32654
32638
32658
32662
32647
32660
32656
32648
32670
32661
32655
32661
32671
32660
32663
32664
32663
32660
32671
32668
32663
32662
32662
32639
32668
32669
32673
32670
32674
32671
32677
32671
32679
32679
32676
32668
32668
32676
32676
32676
32671
32671
32666
32676
32674
32679
32678
32678
32663
32675
32681
32672
32687
32685
32687
32667
32679
32682
32679
32678
32679
32687
32684
32677
32677
32677
32683
32682
32687
32671
32684
32690
32685
32690
32693
32687
32678
32684
32692
32683
32693
32685
32679
32687
32685
32690
32684
32698
32671
32688
32681
32683
32696
32694
32695
32695
32696
32695
32695
32684
32693
32676
32690
32671
32687
32686
32695
32690
32695
32687
32698
32697
32690
32687
32678
32683
32690
32692
32693
32689
32687
32687
32687
32682
32682
32687
32687
32686
32692
32690
32699
32687
32697
32687
32685
32687
32687
32684
32679
32673
32678
32669
32669
32673
32680
32679
32676
32675
32676
32664
32668
32663
32668
32663
32679
32673
32663
32675
32669
32670
32663
32666
32666
32659
32665
32668
32661
32677
32659
32663
32659
32670
32653
32647
32652
32645
32665
32641
32651
32658
32650
32653
32652
32663
32657
32652
32647
32663
32658
32652
32649
32655
32652
32655
32647
32654
32652
32647
32647
32655
32647
32647
32639
32642
32629
32639
32636
32647
32644
32643
32634
32652
32647
32647
32645
32647
32647
32647
32636
32641
32639
32641
32644
32641
32645
32620
32644
32638
32644
32641
32644
32639
32644
32643
32634
32630
32624
32629
32636
32645
32639
32643
32637
32647
32643
32643
32641
32647
32645
32644
32640
32639
32647
32641
32644
32639
32655
32645
32644
32644
32647
32646
32639
32631
32646
32638
32643
32647
32647
32636
32643
32640
32645
32647
32642
32639
32647
32638
32639
32641
32650
32641
32644
32647
32652
32651
32647
32645
32655
32646
32649
32644
32661
32646
32655
32652
32650
32653
32650
32653
32655
32647
32652
32652
32654
32656
32655
32649
32647
32661
32655
32663
32642
32656
32639
32649
32658
32655
32655
32661
32663
32647
32643
32653
32659
32655
32665
32658
32668
32660
32668
32646
32654
32667
32671
32671
32674
32660
32671
32668
32663
32667
32665
32663
32669
32664
32660
32667
32670
32660
32676
32671
32670
32677
32677
32669
32679
32671
32676
32676
32679
32674
32672
32676
32676
32670
32672
32666
32672
32676
32674
32676
32676
32679
32685
32678
32680
32686
32681
32685
32682
32693
32681
32687
32677
32677
32687
32679
32689
32685
32693
32685
32695
32689
32690
32687
32692
32689
32685
32695
32690
32699
32692
32695
32673
32689
32699
32694
32695
32701
32700
32686
32700
32700
32700
32706
32704
32707
32689
32702
32708
32701
32709
32706
32706
32711
32708
32711
32711
32694
32693
32708
32708
32711
32713
32706
32709
32711
32711
32716
32719
32713
32720
32715
32726
32723
32724
32715
32724
32725
32726
32710
32723
32716
32720
32707
32725
32724
32727
32734
32726
32727
32730
32733
32729
32735
32727
32735
32732
32734
32742
32738
32740
32735
32738
32743
32745
32743
32740
32741
32740
32746
32743
32743
32737
32745
32741
32743
32748
32743
32746
32746
32751
32755
32755
32759
32741
32754
32751
32748
32754
32753
32756
32740
32759
32743
32757
32755
32753
32759
32763
32767
32767
32772
32764
32769
32765
32775
32764
32775
32753
32769
32770
32775
32775
32770
32775
32775
32775
32775
32775
32787
32775
32790
32767
32775
32765
32775
32775
32788
32782
32775
32791
32780
32796
32796
32794
32796
32794
32796
32802
32796
32802
32803
32804
32801
32807
32807
32807
32805
32805
32810
32812
32811
32817
32813
32814
32820
32820
32826
32828
32829
32837
32838
32849
32837
32854
32855
32865
32860
32869
32868
32870
32881
32884
32895
32884
32885
32879
32884
32877
32871
32868
32876
32873
32864
32865
32869
32869
32856
32861
32854
32855
32858
32864
32854
32862
32858
32854
32858
32860
32871
32852
32868
32860
32862
32860
32871
32871
32863
32852
32863
32845
32870
32860
32874
32871
32871
32875
32875
32871
32871
32878
32882
32884
32876
32869
32879
32878
32882
32887
32871
32880
32876
32868
32878
32879
32881
32885
32891
32891
32873
32893
32887
32886
32892
32885
32891
32872
32892
32895
32887
32894
32887
32892
32892
32903
32895
32903
32901
32903
32901
32902
32900
32911
32906
32903
32895
32906
32905
32900
32905
32903
32911
32902
32910
32898
32906
32897
32913
32906
32916
32924
32912
32916
32918
32928
32911
32914
32927
32918
32919
32918
32933
32920
32918
32924
32930
32926
32929
32919
32929
32933
32935
32934
32930
32935
32938
32939
32935
32940
32937
32942
32933
32940
32940
32943
32941
32937
32951
32950
32945
32947
32944
32949
32946
32965
32951
32955
32946
32951
32949
32959
32951
32956
32963
32956
32959
32965
32963
32971
32966
32960
32977
32972
32964
32965
32964
32967
32966
32980
32972
32974
32972
32980
32980
32980
32975
32990
32987
32983
32980
32977
32993
32988
32993
32993
32982
32985
32988
32996
32992
32999
32971
32988
32997
33003
32999
32998
33002
33005
33005
33007
33010
33012
33015
33009
33022
33013
33018
33010
33012
33014
33013
33015
33017
33019
33018
33028
33025
33026
33031
33028
33031
33011
33023
33031
33029
33031
33031
33031
33031
33031
33028
33031
33031
33031
33031
33031
33028
33039
33039
33042
33038
33036
33036
33041
33041
33031
33031
33044
33031
33046
33039
33044
33038
33047
33043
33040
33048
33051
33031
33043
33045
33037
33045
33044
33047
33037
33042
33041
33031
33039
33044
33049
33046
33039
33034
33042
33039
33044
33050
33047
33041
33047
33040
33040
33044
33051
33047
33044
33031
33047
33044
33043
33042
33045
33046
33039
33036
33032
33050
33044
33039
33052
33044
33051
33050
33045
33047
33055
33031
33045
33045
33051
33052
33047
33046
33052
33047
33052
33055
33046
33051
33059
33061
33059
33038
33053
33054
33059
33060
33051
33063
33053
33060
33044
33057
33061
33057
33067
33061
33059
33063
33054
33068
33060
33050
33055
33067
33063
33063
33061
33065
33064
33060
33063
33068
33070
33066
33068
33071
33060
33052
33063
33068
33067
33065
33069
33068
33060
33067
33068
33076
33072
33076
33067
33070
33068
33073
33076
33078
33077
33082
33075
33078
33075
33076
33070
33078
33074
33075
33069
33069
33079
33076
33082
33079
33071
33083
33083
33081
33079
33090
33084
33085
33072
33077
33088
33083
33079
33081
33085
33086
33087
33080
33087
33087
33084
33082
33088
33083
33091
33084
33088
33087
33091
33091
33082
33083
33079
33078
33062
33071
33084
33081
33083
33087
33085
33087
33071
33084
33079
33079
33087
33086
33079
33087
33084
33085
33074
33081
33081
33084
33083
33086
33086
33077
33078
33087
33085
33086
33083
33092
33078
33091
33071
33078
33080
33078
33087
33082
33076
33072
33078
33083
33077
33087
33060
33079
33086
33083
33086
33086
33081
33076
33073
33077
33076
33076
33077
33071
33074
33076
33082
33070
33065
33068
33079
33076
33076
33075
33087
33079
33082
33063
33079
33079
33075
33076
33068
33076
33074
33075
33071
33074
33063
33071
33079
33057
33071
33075
33070
33071
33063
33063
33062
33061
33055
33061
33060
33063
33060
33065
33063
33069
33068
33070
33063
33063
33069
33063
33063
33061
33052
33049
33061
33063
33052
33066
33063
33063
33055
33062
33059
33055
33057
33063
33058
33063
33066
33057
33063
33059
33062
33060
33054
33053
33054
33057
33050
33060
33031
33057
33060
33044
33054
33047
33052
33044
33045
33047
33044
33047
33039
33049
33052
33053
33047
33051
33045
33047
33044
33040
33050
33042
33039
33031
33043
33045
33050
33046
33047
33044
33045
33052
33028
33046
33024
33044
33012
33031
33041
33050
33021
33038
33044
33039
33042
33031
33044
33049
33038
33044
33048
33047
33047
33052
33047
33052
33039
33047
33044
33044
33047
33029
33058
33044
33055
33047
33045
33054
33028
33058
33055
33058
33057
33055
33054
33031
33050
33052
33063
33055
33054
33053
33058
33055
33060
33062
33067
33063
33071
33062
33071
33065
33078
33077
33087
33087
33101
33095
33092
33111
33112
33116
33117
33116
33111
33106
33100
33110
33103
33104
33085
33099
33097
33092
33090
33087
33091
33084
33072
33079
33078
33095
33069
33073
33081
33076
33087
33081
33081
33084
33087
33087
33084
33087
33083
33091
33086
33084
33081
33095
33084
33095
33085
33087
33089
33085
33083
33077
33094
33083
33087
33071
33090
33084
33087
33095
33087
33090
33085
33095
33083
33085
33076
33086
33093
33088
33095
33093
33095
33070
33077
33097
33089
33091
33095
33094
33095
33079
33070
33093
33087
33094
33095
33094
33103
33099
33105
33101
33106
33100
33104
33100
33110
33079
33098
33099
33095
33105
33101
33107
33078
33094
33108
33101
33073
33104
33099
33094
33111
33087
33084
33117
33109
33114
33109
33115
33100
33105
33100
33111
33106
33110
33117
33113
33110
33118
33118
33113
33112
33105
33113
33089
33117
33103
33119
33097
33115
33098
33118
33114
33116
33124
33125
33130
33130
33130
33122
33139
33132
33134
33099
33127
33135
33135
33135
33109
33125
33138
33139
33137
33128
33148
33116
33137
33140
33144
33148
33149
33146
33143
33157
33127
33158
33146
33156
33148
33151
33149
33153
33143
33146
33157
33159
33158
33156
33164
33167
33167
33146
33159
33164
33165
33163
33168
33180
33165
33179
33157
33172
33164
33169
33182
33179
33186
33185
33183
33187
33191
33188
33185
33180
33182
33183
33189
33191
33187
33163
33184
33188
33188
33191
33189
33198
33197
33199
33199
33180
33186
33199
33195
33201
33202
33202
33198
33209
33207
33200
33204
33199
33211
33209
33204
33212
33205
33193
33213
33209
33212
33215
33213
33223
33215
33213
33214
33212
33191
33212
33212
33204
33215
33204
33207
33212
33220
33215
33218
33210
33217
33219
33223
33214
33220
33205
33217
33215
33222
33215
33215
33196
33217
33215
33214
33215
33214
33215
33189
33215
33207
33216
33223
33215
33223
33215
33204
33199
33212
33216
33215
33217
33222
33207
33199
33219
33220
33210
33220
33218
33228
33217
33221
33216
33223
33222
33194
33217
33192
33219
33217
33215
33221
33220
33223
33212
33223
33194
33223
33213
33223
33225
33226
33222
33210
33231
33206
33222
33220
33223
33228
33198
33217
33221
33222
33227
33223
33215
33231
33223
33228
33229
33216
33223
33229
33229
33225
33239
33228
33223
33211
33223
33221
33223
33226
33225
33237
33231
33239
33231
33231
33237
33238
33227
33236
33234
33237
33218
33228
33237
33238
33234
33236
33245
33245
33243
33239
33247
33249
33243
33241
33244
33244
33243
33245
33243
33246
33243
33247
33243
33254
33253
33251
33244
33245
33232
33252
33249
33250
33255
33249
33255
33252
33259
33255
33255
33263
33255
33261
33255
33253
33253
33254
33255
33261
33268
33238
33263
33255
33259
33268
33270
33261
33268
33283
33258
33269
33276
33265
33276
33267
33281
33268
33268
33268
33269
33278
33274
33279
33262
33279
33274
33273
33280
33274
33274
33284
33279
33281
33261
33269
33285
33286
33276
33277
33279
33287
33285
33287
33284
33287
33263
33278
33283
33281
33276
33287
33273
33284
33279
33283
33271
33279
33287
33286
33287
33287
33286
33287
33287
33287
33287
33283
33286
33286
33287
33287
33287
33285
33276
33275
33281
33281
33282
33280
33286
33285
33280
33284
33287
33287
33281
33287
33284
33287
33287
33287
33268
33284
33286
33282
33284
33278
33281
33276
33281
33279
33283
33283
33282
33287
33287
33286
33287
33276
33283
33274
33268
33274
33269
33284
33276
33279
33279
33281
33271
33282
33255
33271
33283
33282
33284
33279
33282
33255
33283
33279
33268
33276
33253
33268
33271
33278
33278
33283
33270
33270
33261
33263
33268
33271
33269
33269
33271
33276
33269
33268
33250
33269
33258
33263
33271
33263
33271
33263
33268
33263
33263
33268
33263
33261
33263
33265
33263
33260
33265
33259
33258
33258
33240
33253
33260
33265
33262
33261
33255
33263
33258
33265
33268
33271
33258
33265
33246
33260
33268
33263
33263
33262
33263
33256
33255
33263
33263
33270
33257
33263
33265
33260
33274
33263
33268
33267
33263
33264
33260
33268
33268
33274
33265
33273
33272
33274
33279
33277
33279
33278
33276
33280
33287
33287
33303
33294
33299
33309
33303
33313
33311
33319
33316
33319
33322
33334
33335
33337
33327
33331
33325
33327
33327
33298
33318
33312
33309
33305
33301
33310
33300
33302
33301
33287
33287
33295
33287
33286
33293
33303
33292
33298
33292
33304
33297
33301
33305
33303
33300
33310
33303
33309
33300
33306
33308
33302
33301
33303
33310
33311
33311
33308
33308
33308
33317
33316
33314
33308
33311
33316
33311
33319
33315
33317
33316
33316
33319
33319
33317
33323
33318
33321
33327
33321
33311
33316
33332
33329
33327
33325
33325
33326
33333
33329
33324
33329
33320
33334
33333
33326
33333
33330
33337
33341
33324
33326
33332
33338
33335
33343
33340
33341
33343
33342
33347
33348
33323
33343
33334
33346
33343
33351
33351
33349
33361
33354
33359
33352
33350
33335
33359
33340
33367
33350
33363
33334
33365
33343
33364
33366
33356
33361
33367
33351
33354
33373
33367
33374
33372
33352
33375
33368
33383
33375
33375
33380
33383
33375
33378
33378
33383
33380
33383
33381
33383
33378
33383
33383
33377
33388
33382
33387
33383
33391
33394
33396
33395
33391
33397
33391
33399
33396
33405
33409
33396
33407
33400
33402
33404
33401
33405
33389
33406
33397
33404
33415
33398
33412
33413
33407
33415
33420
33421
33399
33430
33429
33423
33423
33428
33421
33428
33431
33431
33426
33437
33431
33429
33431
33445
33439
33437
33435
33439
33436
33441
33433
33447
33443
33447
33439
33453
33447
33439
33421
33447
33447
33444
33454
33447
33440
33450
33451
33453
33444
33458
33446
33460
33440
33450
33450
33460
33459
33450
33449
33449
33458
33447
33451
33447
33444
33444
33439
33452
33455
33455
33455
33457
33463
33461
33447
33445
33452
33447
33455
33463
33454
33463
33455
33463
33448
33463
33435
33458
33456
33455
33452
33449
33455
33451
33449
33449
33457
33445
33453
33455
33462
33444
33453
33450
33446
33450
33446
33460
33446
33455
33452
33454
33428
33447
33438
33445
33431
33446
33429
33445
33438
33447
33454
33446
33447
33436
33453
33446
33445
33445
33444
33439
33439
33431
33444
33443
33435
33447
33447
33437
33435
33438
33438
33447
33439
33431
33431
33438
33433
33438
33437
33445
33436
33442
33445
33447
33431
33441
33439
33447
33420
33438
33439
33436
33421
33422
33445
33441
33444
33431
33420
33436
33436
33442
33428
33431
33433
33443
33442
33447
33446
33431
33447
33435
33437
33423
33438
33416
33423
33441
33439
33437
33442
33439
33437
33431
33447
33438
33447
33440
33435
33438
33444
33446
33438
33436
33445
33437
33444
33438
33447
33445
33439
33430
33445
33437
33437
33444
33445
33433
33438
33443
33439
33447
33421
33438
33423
33439
33431
33443
33438
33442
33440
33442
33439
33436
33445
33441
33436
33447
33421
33441
33447
33443
33447
33439
33447
33447
33451
33447
33447
33444
33425
33439
33421
33437
33423
33442
33446
33447
33452
33450
33450
33443
33447
33447
33453
33437
33445
33444
33442
33444
33438
33452
33441
33455
33445
33444
33447
33449
33447
33446
33452
33457
33448
33459
33429
33455
33449
33447
33457
33454
33457
33453
33455
33454
33452
33448
33447
33437
33445
33451
33453
33457
33446
33455
33450
33455
33454
33450
33453
33453
33455
33459
33455
33462
33429
33452
33452
33447
33455
33434
33451
33461
33447
33452
33434
33445
33450
33453
33447
33452
33454
33450
33450
33444
33448
33436
33443
33444
33447
33451
33446
33447
33444
33452
33449
33444
33447
33447
33445
33451
33453
33446
33444
33443
33441
33445
33443
33447
33447
33422
33436
33441
33444
33447
33444
33447
33441
33446
33427
33441
33447
33437
33445
33423
33436
33444
33444
33431
33428
33439
33435
33436
33444
33437
33445
33444
33439
33439
33436
33442
33439
33443
33447
33445
33438
33444
33427
33439
33438
33439
33445
33431
33446
33441
33439
33447
33440
33453
33444
33444
33412
33439
33438
33444
33444
33447
33438
33439
33447
33444
33447
33428
33442
33438
33441
33452
33442
33455
33460
33455
33452
33453
33445
33452
33463
33457
33471
33468
33473
33469
33476
33472
33484
33477
33492
33492
33498
33503
33511
33506
33508
33506
33501
33506
33494
33495
33498
33501
33492
33493
33485
33487
33486
33482
33484
33482
33479
33487
33466
33470
33471
33484
33476
33487
33461
33479
33485
33481
33490
33479
33470
33463
33495
33489
33494
33501
33478
33502
33496
33493
33502
33497
33503
33495
33500
33477
33492
33496
33501
33503
33489
33500
33504
33498
33500
33497
33500
33500
33511
33506
33506
33503
33511
33510
33500
33500
33503
33508
33515
33509
33511
33510
33509
33518
33498
33518
33508
33513
33511
33510
33514
33514
33508
33527
33515
33501
33511
33519
33522
33519
33511
33516
33517
33519
33512
33512
33511
33522
33519
33527
33516
33525
33516
33517
33492
33510
33492
33516
33514
33514
33524
33511
33521
33519
33519
33519
33510
33527
33523
33521
33525
33503
33524
33527
33521
33525
33501
33518
33499
33526
33523
33524
33525
33531
33516
33530
33521
33526
33527
33516
33519
33524
33531
33525
33531
33524
33531
33534
33533
33527
33532
33527
33535
33523
33535
33532
33522
33527
33532
33533
33527
33524
33502
33513
33527
33526
33532
33533
33530
33527
33527
33503
33538
33531
33540
33541
33527
33519
33535
33532
33538
33540
33526
33540
33540
33537
33535
33543
33527
33535
33535
33541
33540
33532
33538
33541
33532
33534
33516
33527
33543
33540
33539
33539
33540
33534
33543
33532
33539
33528
33535
33539
33541
33543
33542
33540
33542
33543
33540
33539
33535
33527
33538
33509
33543
33539
33543
33540
33535
33531
33524
33532
33543
33543
33538
33548
33539
33540
33532
33535
33535
33543
33535
33547
33541
33539
33527
33540
33532
33533
33534
33532
33535
33533
33534
33529
33540
33527
33534
33532
33532
33532
33537
33527
33527
33527
33508
33534
33524
33527
33522
33524
33516
33519
33520
33521
33519
33517
33526
33518
33517
33511
33511
33524
33518
33518
33517
33527
33508
33490
33522
33516
33511
33511
33519
33495
33511
33517
33516
33516
33511
33498
33519
33508
33511
33510
33499
33507
33511
33510
33509
33508
33507
33508
33494
33503
33498
33509
33511
33503
33502
33505
33501
33506
33503
33503
33495
33508
33503
33494
33494
33486
33507
33487
33502
33494
33507
33511
33500
33500
33502
33492
33495
33489
33494
33492
33478
33496
33496
33498
33495
33495
33495
33499
33487
33488
33498
33486
33492
33495
33489
33486
33473
33495
33486
33494
33492
33495
33493
33495
33486
33495
33494
33490
33486
33491
33485
33493
33492
33495
33469
33491
33477
33482
33469
33487
33478
33484
33471
33495
33493
33493
33492
33479
33495
33484
33502
33507
33498
33500
33495
33499
33501
33503
33499
33506
33498
33503
33507
33511
33489
33503
33492
33500
33507
33503
33511
33508
33511
33507
33511
33504
33515
33508
33508
33505
33504
33487
33514
33511
33502
33505
33519
33507
33493
33499
33495
33514
33518
33516
33516
33501
33513
33511
33502
33489
33514
33497
33495
33500
33516
33511
33518
33512
33513
33519
33508
33511
33511
33511
33513
33514
33515
33524
33510
33516
33514
33525
33519
33514
33519
33516
33510
33500
33516
33523
33515
33510
33496
33511
33518
33511
33512
33517
33511
33511
33513
33509
33518
33487
33511
33484
33506
33507
33508
33503
33509
33508
33510
33502
33510
33511
33495
33487
33504
33495
33500
33504
33500
33498
33494
33495
33502
33497
33501
33495
33501
33496
33508
33505
33500
33478
33501
33508
33499
33485
33499
33495
33492
33489
33487
33488
33490
33487
33489
33492
33489
33493
33495
33495
33484
33495
33498
33497
33482
33490
33486
33486
33491
33484
33484
33485
33478
33487
33479
33479
33489
33479
33479
33479
33484
33477
33484
33484
33481
33486
33470
33479
33487
33478
33480
33455
33471
33477
33490
33487
33486
33479
33495
33491
33483
33487
33485
33494
33481
33493
33495
33498
33502
33496
33502
33516
33517
33511
33519
33511
33524
33532
33528
33543
33519
33551
33543
33546
33540
33536
33535
33531
33532
33525
33522
33519
33511
33510
33511
33519
33509
33515
33513
33503
33481
33492
33507
33500
33497
33498
33499
33492
33500
33495
33487
33490
33490
33492
33490
33495
33489
33495
33495
33497
33487
33493
33492
33492
33496
33495
33495
33497
33492
33490
33485
33482
33489
33469
33485
33495
33487
33487
33487
33494
33487
33493
33490
33485
33484
33474
33471
33471
33485
33468
33487
33476
33488
33487
33495
33485
33487
33490
33487
33484
33484
33487
33485
33491
33482
33484
33482
33484
33482
33490
33462
33478
33462
33471
33482
33489
33482
33482
33501
33493
33491
33478
33489
33484
33487
33486
33495
33484
33491
33480
33484
33482
33486
33485
33460
33475
33486
33495
33487
33487
33491
33490
33486
33482
33476
33476
33486
33493
33488
33488
33492
33485
33480
33491
33487
33487
33492
33495
33493
33495
33484
33495
33484
33495
33492
33476
33480
33485
33491
33492
33484
33494
33487
33494
33473
33492
33487
33491
33492
33486
33488
33493
33498
33490
33501
33495
33472
33495
33492
33490
33490
33485
33499
33487
33495
33484
33492
33476
33477
33469
33483
33493
33479
33494
33491
33490
33484
33501
33472
33488
33476
33500
33495
33498
33492
33495
33486
33487
33493
33500
33493
33490
33500
33495
33476
33478
33495
33492
33495
33502
33494
33493
33475
33492
33495
33492
33495
33495
33494
33493
33492
33493
33492
33495
33478
33487
33491
33488
33487
33492
33495
33499
33498
33495
33494
33499
33492
33487
33469
33495
33493
33486
33494
33490
33484
33481
33492
33488
33487
33481
33477
33481
33494
33479
33458
33492
33486
33487
33482
33492
33483
33487
33470
33478
33479
33477
33476
33476
33474
33457
33479
33470
33473
33481
33470
33473
33455
33476
33473
33466
33477
33468
33477
33465
33476
33464
33457
33459
33465
33462
33452
33439
33468
33459
33458
33457
33460
33457
33463
33454
33452
33453
33455
33450
33460
33455
33460
33449
33452
33449
33455
33449
33448
33447
33450
33450
33431
33447
33434
33444
33438
33447
33447
33446
33445
33447
33444
33439
33437
33434
33444
33435
33439
33439
33436
33439
33434
33431
33439
33429
33436
33437
33426
33429
33434
33431
33436
33435
33431
33439
33425
33423
33439
33423
33415
33423
33423
33436
33430
33433
33428
33429
33429
33425
33428
33431
33431
33421
33431
33425
33422
33417
33415
33431
33420
33439
33431
33425
33431
33424
33431
33429
33422
33423
33423
33423
33417
33415
33415
33406
33431
33423
33431
33412
33420
33429
33427
33422
33425
33420
33422
33423
33423
33427
33418
33424
33415
33407
33423
33427
33420
33426
33423
33423
33410
33423
33415
33423
33430
33429
33419
33423
33429
33411
33427
33412
33415
33421
33428
33415
33417
33419
33420
33415
33411
33413
33415
33414
33423
33410
33423
33420
33422
33415
33431
33415
33420
33413
33418
33420
33417
33415
33415
33417
33415
33412
33422
33415
33407
33417
33421
33415
33414
33412
33425
33415
33413
33398
33410
33399
33407
33393
33415
33407
33415
33415
33410
33415
33414
33415
33409
33420
33415
33406
33413
33405
33415
33406
33404
33407
33415
33409
33414
33415
33415
33383
33396
33380
33399
33404
33412
33404
33415
33399
33406
33398
33411
33404
33401
33399
33397
33402
33404
33394
33407
33389
33403
33390
33404
33403
33399
33396
33405
33394
33403
33388
33397
33389
33389
33391
33398
33382
33374
33396
33388
33387
33377
33383
33383
33391
33386
33390
33398
33385
33381
33389
33388
33378
33375
33363
33383
33378
33382
33386
33383
33383
33387
33382
33383
33380
33383
33373
33383
33357
33380
33382
33380
33364
33381
33366
33391
33389
33391
33396
33391
33391
33404
33404
33403
33407
33409
33415
33413
33415
33415
33423
33420
33428
33423
33436
33438
33444
33447
33452
33455
33446
33453
33443
33445
33422
33429
33421
33423
33422
33420
33414
33399
33409
33412
33399
33402
33402
33396
33396
33388
33388
33396
33398
33383
33391
33387
33394
33394
33388
33389
33387
33385
33383
33386
33386
33389
33382
33388
33383
33365
33390
33388
33391
33383
33382
33380
33383
33381
33359
33362
33383
33382
33381
33383
33377
33370
33375
33383
33381
33375
33360
33364
33381
33387
33370
33382
33374
33375
33375
33367
33364
33354
33375
33367
33375
33375
33379
33375
33372
33369
33372
33371
33383
33366
33372
33375
33364
33361
33370
33366
33365
33366
33361
33367
33366
33372
33362
33353
33375
33361
33370
33370
33367
33365
33355
33371
33362
33367
33361
33364
33359
33346
33374
33355
33366
33358
33369
33357
33362
33357
33359
33364
33359
33364
33362
33348
33371
33359
33369
33359
33359
33362
33340
33365
33365
33372
33359
33359
33359
33365
33375
33360
33375
33366
33367
33365
33365
33360
33375
33359
33354
33356
33365
33371
33361
33364
33359
33364
33369
33371
33369
33365
33367
33375
33375
33369
33369
33364
33361
33359
33361
33355
33372
33372
33367
33369
33377
33372
33375
33370
33380
33372
33375
33372
33373
33367
33375
33373
33372
33370
33375
33371
33369
33373
33382
33375
33375
33371
33372
33355
33372
33383
33374
33366
33379
33377
33374
33369
33372
33379
33353
33383
33378
33372
33377
33380
33372
33378
33372
33380
33379
33379
33382
33383
33381
33383
33389
33384
33388
33383
33381
33380
33383
33386
33383
33381
33377
33376
33383
33380
33388
33380
33383
33381
33388
33384
33390
33381
33383
33383
33382
33380
33383
33375
33365
33375
33383
33385
33382
33382
33375
33385
33383
33380
33374
33355
33371
33364
33377
33360
33365
33375
33386
33375
33380
33367
33350
33378
33373
33374
33372
33359
33380
33372
33356
33374
33368
33367
33382
33375
33354
33366
33367
33383
33375
33372
33373
33375
33370
33370
33365
33366
33365
33368
33359
33372
33367
33367
33366
33367
33364
33367
33364
33351
33374
33364
33375
33365
33366
33373
33369
33373
33373
33362
33373
33365
33375
33365
33370
33359
33365
33361
33367
33366
33349
33343
33371
33359
33364
33366
33367
33366
33367
33374
33366
33373
33373
33359
33371
33375
33370
33369
33367
33359
33372
33372
33364
33371
33367
33356
33369
33355
33365
33363
33375
33351
33364
33359
33366
33362
33373
33372
33375
33375
33367
33371
33371
33374
33379
33375
33375
33379
33364
33373
33383
33375
33375
33373
33371
33371
33367
33380
33379
33377
33375
33367
33375
33383
33375
33383
33372
33372
33358
33373
33380
33373
33354
33383
33374
33383
33364
33364
33383
33382
33382
33383
33383
33383
33380
33380
33389
33383
33387
33383
33389
33385
33383
33382
33389
33387
33391
33390
33380
33366
33382
33382
33387
33391
33396
33372
33389
33371
33383
33395
33396
33394
33399
33397
33398
33398
33383
33391
33392
33399
33398
33386
33399
33402
33400
33399
33399
33401
33405
33404
33399
33404
33405
33397
33381
33391
33407
33398
33398
33396
33403
33399
33396
33396
33399
33407
33399
33405
33399
33399
33404
33404
33403
33404
33385
33397
33396
33403
33399
33397
33397
33393
33399
33397
33407
33407
33402
33403
33406
33399
33396
33397
33401
33402
33407
33403
33403
33407
33386
33398
33407
33399
33413
33391
33394
33389
33409
33397
33411
33410
33404
33412
33415
33399
33397
33383
33405
33404
33407
33412
33407
33412
33407
33414
33406
33413
33415
33408
33409
33415
33412
33415
33405
33404
33399
33407
33409
33409
33405
33414
33415
33415
33415
33415
33419
33415
33420
33414
33421
33415
33420
33422
33420
33423
33422
33420
33425
33428
33425
33429
33428
33439
33436
33437
33446
33439
33441
33447
33454
33453
33463
33467
33474
33479
33487
33479
33491
33487
33495
33495
33502
33491
33505
33478
33489
33487
33478
33471
33482
33477
33477
33467
33471
33478
33470
33457
33460
33466
33474
33461
33462
33460
33461
33447
33462
33461
33469
33461
33461
33464
33460
33467
33463
33463
33465
33461
33465
33445
33465
33461
33462
33461
33476
33468
33477
33462
33452
33447
33471
33468
33462
33471
33466
33473
33474
33467
33462
33468
33466
33471
33472
33476
33476
33473
33479
33476
33479
33471
33461
33478
33484
33471
33479
33479
33487
33479
33486
33482
33479
33487
33487
33465
33481
33487
33484
33476
33469
33499
33489
33486
33490
33495
33490
33500
33479
33495
33494
33495
33498
33494
33503
33498
33510
33500
33497
33505
33502
33507
33506
33511
33510
33509
33487
33504
33503
33492
33510
33519
33511
33516
33513
33519
33514
33520
33512
33513
33525
33514
33519
33508
33524
33511
33521
33519
33521
33508
33521
33508
33535
33533
33534
33538
33521
33535
33521
33532
33540
33551
33543
33548
33543
33543
33550
33527
33552
33551
33562
33553
33567
33556
33558
33562
33563
33566
33564
33567
33567
33571
33570
33550
33564
33575
33578
33582
33574
33572
33581
33578
33577
33584
33575
33585
33589
33585
33588
33582
33588
33588
33589
33595
33601
33581
33607
33577
33599
33607
33611
33609
33610
33610
33614
33615
33617
33618
33623
33614
33602
33623
33599
33609
33622
33633
33630
33620
33605
33630
33636
33636
33639
33642
33642
33623
33649
33645
33647
33652
33654
33644
33652
33639
33627
33653
33635
33663
33647
33654
33662
33669
33659
33662
33662
33657
33671
33661
33687
33670
33670
33671
33678
33671
33661
33667
33677
33679
33679
33685
33679
33685
33692
33685
33687
33682
33681
33693
33684
33671
33695
33685
33692
33692
33671
33697
33682
33687
33696
33701
33703
33700
33701
33699
33677
33702
33695
33700
33708
33708
33711
33703
33708
33709
33711
33716
33719
33716
33727
33713
33719
33709
33718
33719
33718
33711
33718
33700
33731
33729
33727
33732
33733
33730
33735
33730
33734
33729
33739
33732
33718
33729
33727
33738
33735
33719
33740
33724
33756
33750
33751
33743
33753
33751
33749
33751
33751
33756
33757
33759
33755
33756
33759
33759
33756
33751
33767
33764
33767
33772
33780
33775
33774
33749
33775
33761
33775
33763
33778
33780
33775
33788
33787
33788
33781
33790
33790
33785
33788
33795
33786
33798
33799
33805
33799
33799
33799
33812
33799
33799
33799
33799
33799
33815
33813
33812
33813
33823
33813
33811
33825
33828
33823
33830
33829
33836
33826
33828
33831
33837
33836
33841
33839
33844
33838
33830
33847
33838
33847
33851
33844
33840
33854
33863
33851
33847
33855
33863
33865
33865
33862
33868
33867
33869
33876
33871
33866
33879
33860
33872
33878
33876
33862
33874
33887
33891
33886
33901
33889
33894
33897
33897
33895
33900
33911
33900
33908
33880
33895
33903
33911
33913
33899
33911
33914
33919
33925
33890
33917
33926
33918
33927
33927
33932
33927
33932
33937
33946
33938
33934
33925
33947
33943
33947
33943
33951
33951
33957
33956
33956
33961
33960
33961
33952
33967
33967
33971
33964
33976
33969
33978
33969
33978
33975
33980
33972
33981
33968
33975
33984
33974
33987
33991
33990
33990
33987
33990
33989
33989
33996
34000
33997
34002
33999
34007
34002
34007
34006
34002
34007
34021
34010
34013
34013
34015
34015
34016
34002
34014
34024
34020
34025
34026
34031
34037
34028
34028
34035
34035
34031
34039
34039
34042
34031
34028
34044
34045
34052
34044
34050
34046
34053
34047
34051
34054
34055
34054
34055
34055
34055
34060
34061
34067
34055
34039
34075
34050
34068
34077
34079
34081
34074
34079
34087
34057
34097
34075
34087
34095
34067
34090
34100
34104
34097
34103
34101
34108
34109
34108
34110
34094
34113
34098
34123
34124
34129
34132
34132
34124
34124
34134
34137
34137
34151
34143
34153
34157
34164
34166
34175
34172
34188
34196
34204
34205
34204
34214
34171
34198
34196
34196
34199
34199
34205
34197
34183
34196
34185
34199
34191
34186
34190
