EDA
25972
25980
25975
25975
25974
25975
25983
25983
25981
25988
25991
25995
25996
25996
25999
25996
26007
25999
26005
26002
25997
25998
25997
26012
26004
26010
26012
26016
26017
26021
26021
26020
26022
26026
26028
26026
26028
26026
26024
26025
26028
26031
26032
26037
26044
26035
26039
26036
26042
26045
26046
26054
26052
26052
26052
26055
26054
26062
26059
26056
26060
26062
26066
26067
26071
26067
26065
26075
26074
26073
26081
26085
26087
26087
26084
26085
26091
26086
26090
26094
26088
26095
26098
26100
26098
26102
26109
26107
26105
26105
26108
26114
26110
26118
26116
26118
26119
26119
26118
26119
26119
26119
26119
26119
26132
26130
26132
26135
26140
26138
26142
26141
26140
26143
26145
26149
26145
26150
26144
26148
26151
26150
26148
26164
26162
26162
26166
26167
26172
26170
26166
26182
26179
26178
26175
26182
26182
26183
26181
26181
26190
26188
26182
26180
26181
26197
26204
26197
26198
26199
26201
26202
26209
26215
26209
26210
26210
26210
26211
26219
26218
26215
26220
26218
26229
26227
26234
26226
26228
26234
26236
26234
26239
26245
26244
26246
26247
26244
26253
26244
26247
26246
26255
26259
26255
26264
26257
26257
26258
26266
26268
26268
26276
26273
26268
26284
26277
26284
26280
26279
26279
26292
26292
26289
26292
26292
26292
26288
26289
26293
26301
26297
26311
26309
26311
26316
26311
26317
26318
26315
26315
26316
26315
26314
26314
26327
26334
26325
26328
26335
26327
26326
26340
26343
26343
26337
26341
26340
26342
26350
26351
26349
26351
26351
26350
26351
26351
26358
26367
26364
26365
26370
26366
26373
26374
26369
26375
26377
26375
26382
26383
26381
26385
26380
26384
26380
26390
26393
26391
26396
26399
26400
26396
26404
26404
26405
26412
26407
26412
26414
26417
26409
26418
26415
26421
26418
26426
26423
26427
26429
26434
26432
26431
26437
26438
26439
26438
26442
26449
26447
26445
26445
26444
26409
26452
26449
26460
26463
26458
26463
26464
26465
26465
26476
26474
26468
26476
26477
26473
26477
26483
26481
26482
26476
26485
26487
26495
26493
26494
26494
26495
26500
26503
26502
26506
26502
26505
26512
26509
26510
26514
26516
26517
26516
26514
26527
26526
26535
26533
26533
26529
26532
26537
26538
26542
26547
26544
26540
26549
26552
26547
26555
26553
26554
26551
26557
26562
26567
26568
26567
26570
26565
26580
26574
26574
26577
26582
26586
26583
26582
26588
26592
26590
26585
26588
26596
26599
26600
26604
26605
26607
26610
26609
26613
26614
26621
26621
26623
26620
26623
26627
26628
26631
26628
26630
26631
26640
26636
26644
26646
26646
26648
26647
26654
26649
26659
26655
26660
26663
26661
26656
26662
26665
26668
26675
26669
26670
26676
26679
26683
26680
26689
26686
26695
26690
26690
26694
26695
26689
26695
26700
26700
26706
26705
26700
26699
26712
26709
26716
26720
26717
26724
26722
26724
26730
26738
26735
26737
26735
26735
26735
26737
26735
26750
26740
26746
26750
26751
26748
26756
26756
26758
26765
26765
26767
26761
26767
26767
26768
26772
26772
26774
26782
26785
26783
26789
26786
26792
26790
26787
26784
26796
26799
26805
26802
26807
26805
26815
26809
26814
26813
26814
26818
26812
26822
26828
26821
26825
26825
26830
26833
26838
26829
26836
26841
26852
26845
26830
26845
26848
26844
26852
26854
26853
26852
26860
26858
26859
26871
26871
26868
26877
26879
26880
26879
26879
26882
26882
26879
26886
26887
26887
26892
26882
26889
26900
26899
26900
26903
26906
26913
26908
26915
26918
26918
26922
26916
26925
26920
26922
26905
26924
26937
26928
26930
26932
26940
26937
26936
26941
26944
26951
26951
26946
26953
26954
26958
26959
26959
26966
26964
26959
26967
26966
26975
26970
26974
26977
26980
26983
26979
26986
26991
26988
26988
26995
26998
26997
26991
26996
27007
27002
27004
27009
27009
27014
27012
27012
27020
27017
27021
27023
27026
27031
27028
27031
27031
27038
27036
27036
27036
27041
27037
27044
27045
27045
27052
27052
27051
27060
27060
27060
27060
27068
27064
27068
27071
27068
27070
27072
27076
27080
27079
27079
27083
27087
27083
27090
27092
27093
27095
27095
27097
27105
27103
27109
27106
27107
27105
27112
27106
27110
27116
27113
27116
27117
27119
27124
27128
27130
27132
27133
27132
27137
27143
27143
27143
27143
27143
27155
27151
27151
27153
27161
27153
27151
27164
27170
27165
27167
27175
27174
27173
27172
27183
27182
27184
27182
27182
27182
27184
27178
27193
27190
27194
27185
27190
27198
27200
27206
27207
27208
27208
27214
27219
27210
27213
27215
27218
27214
27222
27220
27223
27224
27228
27228
27231
27235
27237
27239
27242
27243
27247
27242
27243
27246
27247
27252
27255
27255
27252
27258
27255
27255
27260
27271
27261
27268
27268
27246
27275
27276
27281
27284
27291
27284
27285
27269
27286
27294
27287
27292
27293
27293
27299
27306
27302
27304
27293
27309
27313
27316
27323
27319
27321
27326
27323
27324
27327
27325
27332
27325
27329
27333
27333
27329
27338
27348
27346
27343
27346
27349
27342
27336
27367
27364
27354
27367
27345
27337
27420
27376
27373
27370
27361
27391
27381
27359
27362
27366
27437
27407
27396
27393
27404
27398
27388
27393
27391
27399
27399
27399
27400
27409
27415
27421
27405
27409
27412
27421
27426
27412
27428
27436
27417
27428
27428
27431
27433
27437
27430
27436
27430
27428
27431
27438
27438
27437
27440
27452
27447
27456
27457
27445
27445
27454
27460
27457
27454
27459
27463
27460
27460
27460
27464
27460
27464
27473
27474
27479
27484
27473
27472
27478
27482
27484
27485
27486
27492
27484
27492
27488
27486
27493
27492
27494
27495
27490
27495
27495
27495
27503
27512
27513
27516
27505
27519
27510
27510
27519
27519
27516
27518
27516
27527
27519
27524
27522
27522
27532
27533
27526
27532
27537
27541
27536
27533
27545
27547
27538
27542
27541
27544
27546
27532
27551
27553
27555
27549
27554
27556
27559
27566
27566
27560
27562
27567
27564
27565
27568
27567
27567
27579
27575
27583
27574
27576
27575
27579
27584
27584
27591
27585
27587
27591
27592
27591
27590
27601
27591
27591
27593
27592
27598
27604
27607
27607
27604
27614
27607
27613
27615
27610
27615
27614
27618
27614
27621
27622
27617
27623
27621
27605
27623
27620
27631
27628
27633
27641
27636
27638
27638
27638
27642
27634
27634
27635
27639
27639
27640
27642
27644
27651
27645
27655
27647
27647
27646
27655
27655
27657
27663
27665
27665
27663
27663
27655
27669
27671
27668
27678
27663
27668
27685
27676
27674
27679
27677
27678
27677
27683
27687
27686
27687
27687
27687
27684
27693
27695
27693
27686
27684
27700
27701
27694
27700
27696
27700
27694
27696
27703
27709
27711
27705
27711
27706
27699
27714
27708
27716
27714
27711
27712
27706
27709
27711
27717
27722
27723
27721
27720
27732
27722
27732
27727
27730
27732
27735
27729
27727
27735
27724
27725
27730
27732
27733
27731
27728
27741
27736
27740
27743
27743
27743
27743
27742
27745
27748
27742
27746
27742
27751
27740
27746
27753
27751
27751
27756
27754
27748
27760
27758
27764
27764
27763
27767
27762
27761
27754
27764
27764
27764
27765
27766
27766
27767
27767
27772
27772
27777
27779
27782
27778
27775
27782
27781
27783
27780
27781
27783
27776
27785
27782
27781
27783
27786
27789
27787
27783
27784
27788
27791
27796
27795
27793
27796
27794
27793
27790
27791
27788
27798
27796
27791
27799
27798
27793
27803
27804
27804
27804
27809
27805
27812
27803
27812
27807
27809
27812
27809
27813
27810
27813
27813
27812
27812
27818
27815
27815
27814
27819
27820
27823
27824
27822
27819
27821
27812
27814
27816
27817
27822
27821
27821
27817
27820
27789
27827
27833
27831
27830
27792
27834
27831
27826
27831
27831
27828
27829
27831
27834
27834
27836
27836
27831
27835
27836
27836
27838
27838
27842
27839
27835
27839
27840
27834
27843
27838
27839
27838
27841
27834
27839
27838
27836
27846
27841
27847
27841
27847
27845
27855
27847
27845
27844
27847
27848
27829
27847
27847
27844
27846
27847
27844
27846
27855
27852
27854
27849
27852
27855
27848
27857
27851
27850
27854
27849
27858
27850
27853
27857
27855
27847
27856
27854
27852
27854
27853
27861
27858
27860
27857
27854
27863
27854
27858
27860
27860
27855
27854
27857
27856
27860
27854
27863
27860
27858
27853
27864
27871
27867
27868
27858
27868
27863
27871
27863
27867
27863
27855
27863
27865
27865
27864
27867
27863
27866
27863
27868
27868
27876
27875
27872
27873
27871
27867
27874
27870
27871
27863
27871
27870
27869
27873
27871
27871
27867
27877
27876
27868
27872
27873
27874
27844
27876
27879
27877
27873
27871
27872
27867
27871
27868
27878
27873
27879
27876
27880
27873
27876
27874
27883
27879
27879
27877
27879
27878
27879
27876
27870
27866
27874
27874
27874
27879
27872
27871
27877
27877
27876
27879
27873
27883
27883
27878
27877
27877
27887
27877
27885
27875
27870
27879
27874
27874
27879
27885
27881
27879
27879
27879
27876
27885
27878
27887
27883
27844
27883
27884
27879
27879
27881
27881
27878
27880
27886
27876
27879
27881
27881
27888
27887
27886
27882
27876
27887
27881
27879
27878
27878
27882
27880
27880
27877
27881
27877
27876
27879
27883
27883
27884
27874
27889
27881
27881
27884
27883
27884
27876
27876
27874
27871
27884
27878
27885
27878
27879
27887
27880
27878
27880
27885
27885
27884
27881
27882
27881
27879
27879
27886
27882
27882
27884
27876
27883
27884
27887
27886
27877
27883
27891
27880
27884
27887
27884
27879
27887
27883
27883
27881
27873
27876
27879
27876
27887
27881
27877
27876
27878
27876
27881
27882
27888
27886
27879
27884
27876
27885
27879
27879
27879
27875
27868
27882
27877
27876
27882
27876
27876
27877
27879
27877
27876
27878
27878
27877
27877
27879
27876
27875
27871
27878
27879
27878
27877
27870
27876
27872
27876
27877
27876
27876
27879
27870
27876
27878
27879
27873
27874
27876
27876
27876
27871
27869
27882
27878
27869
27868
27876
27877
27877
27872
27877
27871
27868
27879
27872
27873
27868
27868
27871
27871
27870
27868
27866
27876
27872
27872
27867
27870
27878
27878
27873
27876
27866
27874
27869
27874
27868
27861
27868
27860
27866
27862
27860
27868
27866
27867
27870
27864
27870
27864
27869
27864
27867
27869
27869
27871
27872
27860
27863
27862
27869
27863
27868
27865
27861
27861
27866
27863
27863
27865
27862
27868
27870
27859
27849
27868
27860
27876
27841
27844
27876
27863
27857
27882
27846
27845
27842
27891
27875
27883
27858
27854
27919
27881
27872
27879
27863
27902
27877
27871
27862
27862
27865
27869
27873
27870
27862
27878
27876
27876
27881
27866
27869
27866
27868
27868
27870
27871
27860
27868
27870
27871
27863
27862
27869
27869
27864
27869
27873
27866
27869
27863
27871
27869
27868
27862
27864
27865
27866
27857
27860
27861
27852
27863
27860
27862
27866
27857
27866
27862
27868
27860
27864
27866
27860
27860
27863
27858
27865
27861
27861
27860
27858
27860
27858
27860
27864
27863
27866
27855
27863
27855
27860
27855
27864
27860
27853
27855
27863
27858
27856
27854
27857
27856
27854
27856
27864
27863
27867
27857
27859
27858
27855
27854
27859
27854
27859
27852
27855
27852
27852
27854
27853
27855
27861
27852
27856
27863
27857
27853
27859
27860
27852
27854
27853
27853
27852
27854
27849
27854
27852
27844
27853
27852
27852
27852
27851
27853
27848
27852
27851
27855
27850
27854
27850
27849
27852
27853
27846
27846
27848
27850
27855
27848
27845
27853
27850
27852
27844
27858
27850
27855
27852
27850
27851
27849
27846
27850
27847
27844
27855
27846
27844
27848
27847
27849
27857
27848
27850
27857
27846
27846
27854
27853
27848
27845
27847
27844
27852
27845
27844
27847
27847
27847
27840
27847
27847
27844
27850
27848
27850
27849
27850
27844
27847
27847
27848
27846
27844
27838
27838
27841
27836
27849
27846
27847
27842
27841
27845
27817
27847
27845
27846
27847
27844
27847
27841
27842
27835
27847
27843
27849
27845
27838
27839
27845
27836
27844
27845
27842
27839
27843
27838
27847
27839
27840
27839
27842
27839
27836
27833
27830
27841
27835
27843
27836
27831
27846
27839
27844
27842
27834
27834
27831
27835
27835
27833
27831
27842
27831
27831
27830
27831
27831
27832
27830
27838
27838
27831
27832
27834
27836
27829
27837
27829
27829
27833
27831
27833
27827
27825
27829
27826
27829
27830
27831
27833
27830
27831
27831
27828
27839
27833
27839
27825
27829
27828
27825
27821
27822
27828
27829
27829
27827
27824
27823
27830
27824
27834
27825
27834
27831
27818
27828
27827
27821
27823
27822
27818
27818
27823
27823
27814
27818
27821
27820
27825
27823
27824
27828
27821
27826
27821
27822
27825
27829
27816
27823
27823
27820
27817
27820
27813
27823
27820
27823
27816
27815
27823
27829
27825
27820
27818
27823
27820
27823
27802
27817
27814
27817
27821
27815
27815
27814
27807
27817
27818
27819
27818
27820
27813
27818
27815
27821
27798
27812
27814
27815
27810
27813
27815
27811
27813
27815
27812
27814
27820
27815
27813
27813
27818
27815
27821
27819
27815
27810
27812
27807
27807
27818
27813
27812
27810
27812
27815
27807
27815
27812
27812
27820
27814
27807
27812
27815
27804
27807
27807
27801
27805
27802
27806
27806
27807
27807
27803
27807
27809
27807
27807
27804
27807
27812
27812
27806
27811
27810
27807
27804
27807
27800
27809
27811
27811
27812
27810
27810
27812
27810
27812
27805
27809
27812
27807
27811
27806
27804
27804
27806
27804
27801
27804
27810
27799
27809
27806
27808
27806
27809
27801
27812
27807
27814
27806
27815
27808
27804
27806
27804
27807
27805
27802
27807
27805
27806
27809
27809
27805
27807
27811
27802
27804
27805
27808
27809
27804
27804
27807
27806
27802
27804
27806
27800
27796
27807
27804
27801
27806
27807
27806
27804
27807
27806
27807
27797
27802
27797
27802
27806
27804
27801
27799
27801
27798
27802
27805
27807
27806
27808
27809
27801
27809
27804
27807
27809
27806
27804
27805
27805
27798
27810
27805
27810
27808
27811
27809
27807
27806
27807
27812
27814
27813
27812
27809
27804
27805
27807
27806
27814
27800
27801
27804
27805
27804
27807
27806
27804
27809
27812
27815
27810
27808
27812
27812
27815
27812
27808
27810
27805
27813
27812
27809
27809
27806
27815
27808
27808
27810
27812
27813
27813
27814
27819
27812
27813
27810
27807
27813
27813
27813
27815
27812
27813
27813
27807
27819
27815
27812
27818
27808
27816
27813
27817
27818
27815
27819
27815
27813
27815
27812
27813
27820
27812
27815
27815
27815
27814
27821
27815
27815
27820
27816
27819
27820
27815
27819
27817
27815
27815
27812
27818
27812
27814
27812
27815
27816
27815
27818
27815
27816
27828
27814
27818
27816
27821
27817
27812
27820
27815
27822
27815
27814
27820
27814
27815
27814
27816
27822
27828
27820
27828
27826
27822
27823
27821
27822
27823
27818
27830
27821
27823
27821
27821
27822
27818
27820
27830
27828
27826
27832
27831
27828
27825
27828
27828
27825
27819
27825
27827
27822
27820
27823
27831
27823
27821
27825
27828
27825
27824
27827
27828
27827
27823
27831
27823
27828
27823
27821
27825
27828
27828
27831
27826
27823
27828
27835
27831
27831
27833
27837
27828
27836
27832
27838
27836
27835
27833
27832
27838
27833
27843
27836
27836
27836
27831
27846
27836
27844
27845
27844
27839
27844
27838
27842
27836
27845
27836
27836
27843
27842
27836
27839
27839
27832
27834
27835
27842
27840
27838
27842
27845
27842
27846
27838
27844
27838
27837
27838
27844
27839
27840
27842
27842
27847
27850
27848
27847
27845
27849
27852
27848
27847
27846
27846
27851
27845
27850
27849
27846
27846
27849
27845
27854
27854
27856
27852
27850
27852
27855
27854
27854
27860
27854
27855
27856
27852
27851
27865
27853
27856
27848
27845
27854
27848
27854
27857
27860
27857
27860
27860
27860
27863
27868
27864
27863
27862
27858
27856
27857
27864
27858
27857
27862
27861
27859
27859
27856
27860
27857
27857
27860
27855
27857
27859
27852
27857
27850
27845
27847
27844
27844
27844
27848
27841
27850
27847
27844
27844
27850
27846
27846
27836
27847
27838
27839
27844
27848
27853
27839
27842
27846
27846
27846
27842
27847
27851
27844
27851
27844
27861
27862
27862
27850
27875
27846
27851
27848
27900
27894
27888
27886
27880
27878
27902
27871
27868
27867
27931
27916
27903
27891
27884
27874
27872
27969
27911
27908
27898
27892
27902
27887
27884
27886
27884
27886
27878
27884
27879
27879
27884
27885
27880
27883
27881
27873
27870
27872
27870
27861
27856
27854
27854
27841
27842
27842
27832
27833
27839
27831
27833
27833
27836
27839
27832
27833
27828
27836
27835
27836
27844
27836
27844
27855
27855
27856
27868
27865
27876
27883
27886
27885
27887
27901
27900
27899
27896
27911
27911
27908
27918
27919
27916
27921
27936
27940
27940
27946
27946
27950
27953
27962
27964
27965
27975
27980
27990
27998
27975
27984
27985
27988
27999
27991
27996
27998
27996
28009
27972
27994
27996
28000
27985
28004
28004
27995
27996
27995
28006
28004
28013
28015
28014
28012
28030
28036
28038
28038
28039
28043
28045
28045
28046
28049
28053
28060
28057
28063
28064
28066
28071
28073
28081
28074
28081
28079
28089
28086
28076
28086
28086
28090
28091
28093
28098
28100
28102
28093
28106
28102
28106
28116
28084
28108
28104
28110
28114
28116
28122
28103
28117
28116
28120
28116
28120
28126
28125
28125
28124
28129
28133
28134
28134
28138
28148
28150
28153
28160
28166
28165
28160
28167
28167
28166
28164
28167
28161
28167
28167
28177
28167
28175
28167
28175
28185
28181
28188
28194
28187
28194
28191
28194
28190
28196
28180
28200
28199
28198
28204
28199
28202
28205
28214
28215
28218
28220
28223
28218
28223
28231
28236
28233
28231
28232
28226
28226
28223
28224
28236
28238
28235
28237
28241
28230
28234
28241
28247
28253
28239
28248
28244
28247
28250
28260
28261
28263
28263
28262
28260
28262
28261
28261
28263
28266
28265
28269
28268
28271
28279
28269
28271
28277
28282
28273
28280
28277
28276
28281
28287
28284
28278
28294
28284
28294
28290
28295
28295
28295
28298
28301
28305
28310
28302
28310
28305
28303
28304
28308
28313
28308
28311
28295
28300
28302
28305
28311
28308
28309
28310
28313
28319
28319
28319
28308
28319
28316
28316
28316
28322
28327
28329
28319
28319
28324
28316
28327
28332
28334
28335
28340
28337
28324
28333
28335
28343
28332
28335
28344
28344
28346
28338
28340
28340
28348
28338
28351
28352
28358
28333
28352
28354
28359
28357
28359
28362
28358
28359
28361
28361
28365
28365
28360
28359
28364
28379
28375
28370
28372
28376
28368
28366
28377
28372
28374
28372
28367
28378
28374
28373
28378
28372
28380
28382
28381
28373
28375
28376
28388
28380
28375
28383
28394
28384
28384
28388
28385
28383
28378
28380
28388
28371
28386
28383
28385
28383
28387
28393
28392
28391
28394
28396
28396
28394
28396
28393
28388
28390
28389
28383
28393
28390
28396
28389
28388
28399
28388
28390
28389
28390
28393
28396
28389
28396
28391
28392
28390
28393
28396
28392
28395
28399
28395
28393
28398
28391
28400
28409
28404
28405
28405
28404
28403
28406
28402
28402
28402
28405
28396
28402
28405
28407
28406
28408
28410
28404
28415
28411
28415
28422
28423
28415
28422
28420
28403
28415
28420
28427
28423
28420
28423
28420
28420
28414
28423
28430
28423
28428
28430
28433
28417
28435
28431
28431
28428
28433
28438
28436
28433
28437
28436
28434
28437
28436
28435
28435
28439
28442
28444
28440
28444
28443
28445
28447
28448
28449
28447
28449
28454
28450
28455
28454
28454
28452
28452
28455
28458
28454
28460
28452
28461
28464
28465
28470
28469
28467
28474
28465
28476
28468
28465
28468
28473
28473
28478
28480
28472
28483
28487
28479
28487
28482
28485
28487
28493
28487
28492
28485
28485
28489
28482
28487
28488
28492
28490
28497
28494
28489
28495
28492
28493
28497
28506
28501
28501
28508
28501
28501
28500
28494
28503
28508
28502
28505
28515
28511
28508
28509
28508
28510
28514
28514
28511
28519
28519
28521
28515
28516
28511
28518
28517
28514
28513
28520
28524
28519
28516
28525
28518
28527
28525
28529
28535
28530
28530
28542
28543
28540
28538
28538
28544
28546
28551
28556
28558
28554
28544
28553
28555
28559
28551
28552
28560
28564
28568
28569
28565
28567
28572
28567
28561
28555
28551
28552
28550
28549
28552
28551
28549
28548
28552
28550
28554
28557
28554
28548
28551
28551
28554
28551
28555
28550
28550
28552
28552
28549
28556
28560
28559
28558
28566
28554
28564
28560
28559
28556
28553
28553
28554
28557
28558
28554
28550
28556
28548
28552
28556
28551
28550
28557
28559
28553
28555
28562
28564
28558
28559
28567
28559
28566
28561
28559
28560
28564
28559
28567
28561
28566
28566
28570
28570
28566
28570
28566
28572
28573
28574
28570
28570
28568
28580
28573
28574
28576
28581
28578
28582
28576
28586
28580
28585
28580
28588
28589
28593
28584
28585
28585
28591
28596
28588
28587
28590
28598
28596
28599
28595
28598
28592
28603
28607
28605
28612
28614
28604
28606
28609
28607
28606
28610
28605
28609
28607
28614
28614
28614
28622
28618
28620
28620
28616
28612
28617
28628
28616
28631
28608
28602
28604
28661
28641
28626
28623
28634
28625
28610
28614
28714
28655
28638
28647
28635
28636
28640
28640
28660
28655
28653
28654
28654
28655
28646
28652
28653
28654
28647
28660
28669
28670
28658
28666
28657
28669
28654
28661
28668
28657
28665
28668
28671
28656
28661
28670
28661
28677
28674
28663
28656
28668
28670
28671
28663
28674
28677
28671
28678
28666
28671
28670
28676
28671
28673
28676
28678
28676
28676
28679
28679
28679
28679
28686
28690
28687
28684
28679
28679
28690
28679
28679
28679
28679
28679
28690
28679
28688
28686
28688
28687
28694
28693
28690
28689
28692
28698
28696
28698
28695
28698
28697
28698
28679
28690
28696
28700
28700
28687
28699
28693
28692
28702
28701
28703
28700
28705
28706
28687
28707
28706
28708
28713
28709
28704
28705
28700
28704
28710
28706
28713
28710
28719
28713
28710
28711
28708
28712
28712
28713
28710
28712
28711
28718
28710
28715
28723
28719
28721
28716
28716
28719
28727
28721
28729
28721
28725
28720
28724
28714
28725
28729
28724
28725
28720
28724
28725
28725
28731
28727
28730
28728
28724
28728
28732
28727
28733
28732
28738
28732
28735
28727
28729
28737
28730
28732
28733
28736
28734
28739
28737
28738
28740
28742
28737
28740
28743
28738
28741
28742
28741
28736
28743
28742
28738
28743
28740
28742
28749
28742
28735
28735
28719
28746
28740
28743
28740
28743
28741
28743
28741
28740
28748
28741
28735
28735
28740
28744
28740
28741
28741
28747
28739
28746
28746
28740
28741
28748
28740
28741
28726
28749
28745
28744
28742
28740
28746
28742
28751
28742
28749
28746
28754
28755
28754
28748
28736
28751
28751
28746
28751
28754
28753
28751
28746
28746
28751
28748
28752
28754
28751
28748
28757
28748
28757
28753
28751
28751
28753
28751
28748
28755
28741
28747
28748
28746
28749
28749
28746
28748
28751
28756
28752
28755
28751
28750
28748
28751
28748
28754
28754
28751
28752
28745
28749
28744
28744
28750
28751
28748
28728
28751
28748
28744
28754
28753
28748
28751
28748
28746
28743
28738
28744
28743
28743
28741
28742
28752
28741
28749
28747
28750
28746
28745
28745
28743
28742
28746
28742
28740
28740
28743
28738
28743
28740
28743
28740
28746
28743
28741
28745
28745
28740
28740
28737
28741
28735
28742
28741
28737
28739
28742
28738
28737
28736
28732
28732
28729
28734
28734
28738
28732
28734
28733
28733
28729
28728
28732
28728
28732
28734
28722
28730
28733
28724
28711
28726
28718
28727
28728
28730
28727
28726
28724
28726
28735
28735
28724
28725
28725
28732
28730
28729
28724
28722
28733
28727
28724
28733
28727
28725
28727
28735
28728
28725
28734
28729
28730
28730
28730
28727
28730
28733
28730
28725
28732
28730
28729
28729
28733
28730
28738
28728
28732
28739
28734
28728
28733
28737
28738
28732
28734
28728
28728
28730
28732
28711
28729
28735
28737
28726
28734
28734
28737
28732
28734
28735
28732
28732
28730
28728
28734
28726
28735
28732
28732
28735
28732
28743
28731
28738
28735
28739
28742
28740
28740
28745
28738
28736
28740
28737
28739
28742
28735
28741
28738
28742
28741
28742
28734
28745
28740
28736
28747
28745
28741
28743
28742
28737
28740
28740
28734
28743
28740
28740
28739
28742
28746
28750
28746
28740
28740
28749
28745
28748
28750
28750
28754
28747
28743
28747
28743
28746
28743
28743
28744
28749
28751
28751
28749
28742
28748
28752
28744
28752
28746
28748
28756
28751
28751
28751
28757
28750
28748
28757
28750
28754
28751
28751
28756
28757
28761
28757
28763
28752
28757
28759
28752
28757
28757
28759
28753
28754
28758
28759
28764
28759
28759
28761
28764
28767
28758
28762
28769
28765
28767
28762
28765
28768
28764
28769
28760
28764
28758
28767
28764
28772
28765
28769
28767
28764
28772
28768
28773
28772
28766
28764
28766
28770
28770
28772
28770
28774
28774
28775
28768
28772
28778
28775
28777
28776
28774
28777
28778
28775
28773
28788
28785
28780
28776
28782
28773
28785
28780
28772
28780
28772
28779
28783
28781
28788
28774
28778
28788
28778
28783
28791
28789
28789
28784
28791
28788
28789
28791
28787
28788
28801
28794
28796
28800
28790
28791
28804
28788
28798
28792
28796
28791
28802
28804
28796
28795
28798
28799
28798
28807
28807
28806
28804
28807
28797
28804
28808
28806
28803
28807
28800
28812
28815
28817
28814
28815
28815
28812
28810
28808
28812
28825
28816
28820
28818
28816
28823
28815
28820
28828
28825
28825
28828
28830
28818
28815
28826
28830
28822
28828
28831
28825
28821
28814
28847
28830
28828
28833
28826
28813
28812
28854
28836
28824
28836
28804
28792
28800
28862
28843
28830
28824
28841
28810
28807
28860
28834
28847
28821
28812
28858
28843
28834
28830
28824
28844
28840
28839
28838
28838
28836
28833
28833
28837
28839
28847
28840
28841
28847
28845
28839
28845
28841
28842
28845
28842
28838
28849
28847
28839
28843
28838
28849
28854
28859
28852
28854
28852
28849
28862
28860
28856
28866
28856
28853
28854
28863
28866
28864
28869
28859
28862
28871
28870
28868
28879
28872
28866
28867
28868
28876
28871
28876
28868
28876
28882
28869
28879
28877
28876
28878
28886
28884
28881
28887
28887
28884
28880
28887
28890
28892
28892
28894
28886
28888
28889
28897
28902
28896
28898
28902
28903
28909
28908
28912
28908
28906
28911
28915
28917
28913
28916
28892
28918
28916
28916
28919
28919
28911
28915
28924
28924
28924
28921
28919
28919
28929
28931
28926
28927
28918
28935
28935
28935
28933
28940
28935
28935
28933
28942
28948
28948
28947
28951
28943
28944
28953
28954
28959
28961
28960
28952
28951
28954
28956
28963
28959
28957
28959
28958
28966
28961
28967
28966
28968
28972
28969
28975
28972
28969
28972
28975
28975
28973
28975
28978
28973
28978
28980
28983
28983
28986
28980
28991
28994
28995
28989
28997
28998
28998
29005
28997
29002
28996
28999
29004
29005
29010
29004
29006
29015
29012
29013
29010
29015
29018
29026
29027
29024
29028
29026
29030
29031
29038
29036
29032
29042
29044
29045
29043
29047
29052
29052
29058
29060
29062
29062
29068
29064
29069
29064
29070
29072
29077
29068
29079
29071
29079
29078
29087
29087
29090
29090
29089
29094
29094
29095
29102
29105
29100
29108
29113
29114
29113
29116
29111
29119
29122
29129
29131
29135
29135
29137
29143
29138
29147
29147
29145
29156
29158
29156
29157
29159
29159
29167
29168
29173
29177
29172
29180
29182
29190
29185
29186
29185
29191
29191
29192
29199
29205
29205
29206
29220
29207
29204
29202
29217
29221
29218
29220
29220
29204
29226
29231
29228
29226
29233
29238
29244
29241
29234
29233
29244
29229
29249
29252
29241
29252
29255
29252
29242
29254
29262
29269
29269
29257
29270
29274
29279
29279
29247
29265
29272
29268
29276
29240
29272
29276
29279
29257
29283
29292
29295
29287
29287
29287
29298
29304
29292
29295
29301
29315
29311
29290
29295
29279
29316
29319
29300
29300
29310
29313
29316
29306
29305
29318
29312
29327
29315
29319
29295
29332
29341
29317
29319
29319
29340
29319
29328
29335
29312
29327
29327
29305
29306
29332
29335
29331
29340
29335
29309
29348
29353
29330
29332
29343
29306
29350
29361
29340
29345
29350
29319
29360
29374
29349
29351
29356
29328
29370
29372
29373
29353
29356
29364
29319
29370
29382
29380
29388
29327
29368
29367
29375
29340
29383
29401
29400
29380
29383
29393
29407
29406
29388
29396
29358
29413
29399
29391
29353
29406
29421
29399
29354
29422
29430
29415
29412
29425
29436
29446
29415
29416
29444
29420
29426
29381
29440
29416
29427
29388
29455
29436
29438
29441
29409
29460
29476
29446
29445
29455
29452
29454
29474
29442
29454
29460
29409
29481
29484
29461
29470
29415
29477
29495
29501
29508
29482
29484
29479
29488
29495
29500
29454
29503
29511
29492
29484
29504
29453
29503
29526
29525
29533
29483
29512
29516
29515
29518
29527
29458
29532
29549
29499
29526
29528
29472
29546
29554
29513
29529
29534
29542
29527
29564
29570
29550
29550
29543
29565
29503
29558
29569
29572
29583
29556
29562
29571
29515
29574
29596
29572
29580
29519
29593
29522
29588
29538
29610
29596
29596
29526
29612
29551
29589
29607
29606
29549
29620
29638
29608
29618
29620
29612
29642
29586
29630
29630
29566
29659
29622
29636
29572
29652
29671
29640
29653
29580
29670
29620
29660
29664
29585
29693
29692
29673
29674
29678
29681
29703
29679
29684
29690
29622
29682
29712
29719
29697
29702
29700
29715
29679
29734
29703
29720
29724
29728
29676
29736
29759
29732
29733
29739
29750
29740
29657
29703
29752
29768
29768
29772
29784
29715
29761
29760
29765
29773
29703
29788
29807
29785
29781
29783
29791
29732
29774
29817
29813
29778
29796
29799
29799
29721
29801
29835
29811
29813
29740
29834
29789
29817
29818
29830
29852
29826
29824
29758
29841
29818
29826
29835
29836
29814
29823
29798
29831
29818
29815
29820
29815
29825
29816
29831
29831
29831
29831
29833
29836
29844
29842
29847
29855
29852
29862
29872
29874
29868
29891
29892
29908
29897
29906
29912
29841
29926
29898
29920
29924
29900
29948
29933
29940
29895
29950
29932
29936
29916
29959
29932
29942
29937
29969
29935
29950
29950
29959
29966
29983
29982
29977
29966
29963
29889
29988
29973
29972
29943
30004
29985
29982
29909
29974
30006
30008
29988
29990
29930
29974
30009
29990
29996
29945
29991
30024
29967
30010
30021
29949
30034
29981
30022
30031
29973
30040
30046
29990
30028
30038
30008
30044
30054
30040
30036
30000
30057
30054
30058
30064
30070
30055
30062
30012
30077
30084
30066
30070
30041
30086
30090
30072
30077
30060
30096
30084
30087
30034
30102
30108
30091
30104
30054
30113
30116
30098
30109
30107
30071
30106
30120
30129
30089
30117
30112
30124
30124
30090
30145
30145
30120
30127
30133
30092
30150
30152
30138
30143
30143
30142
30151
30159
30140
30143
30140
30167
30172
30164
30167
30169
30178
30169
30165
30167
30182
30170
30178
30150
30183
30164
30180
30185
30192
30202
30189
30198
30197
30206
30196
30204
30188
30212
30184
30196
30211
30207
30213
30206
30204
30212
30215
30215
30207
30212
30215
30215
30222
30230
30222
30225
30228
30223
30236
30244
30228
30234
30229
30223
30239
30239
30250
30215
30238
30246
30241
30259
30252
30253
30247
30248
30268
30250
30263
30263
30263
30272
30252
30269
30262
30267
30271
30265
30276
30271
30276
30269
30277
30281
30279
30287
30282
30281
30278
30288
30287
30286
30290
30287
30283
30287
30285
30287
30287
30292
30298
30293
30301
30294
30306
30300
30301
30305
30298
30302
30305
30309
30308
30319
30319
30306
30311
30315
30319
30313
30322
30321
30318
30319
30326
30332
30333
30333
30329
30332
30329
30333
30340
30338
30342
30340
30338
30335
30338
30344
30342
30344
30348
30361
30354
30349
30352
30353
30356
30356
30366
30358
30358
30361
30360
30364
30359
30368
30364
30366
30362
30367
30373
30373
30375
30375
30372
30380
30380
30380
30382
30378
30380
30381
30389
30391
30387
30391
30391
30388
30394
30390
30406
30407
30402
30401
30399
30404
30407
30407
30412
30410
30411
30413
30412
30414
30420
30420
30418
30415
30422
30423
30426
30422
30426
30442
30439
30433
30436
30444
30432
30432
30440
30444
30454
30445
30450
30444
30460
30454
30453
30453
30470
30468
30469
30468
30466
30476
30476
30468
30485
30471
30476
30470
30482
30484
30484
30481
30488
30482
30479
30497
30495
30502
30488
30493
30496
30508
30499
30506
30508
30507
30498
30497
30512
30506
30502
30505
30502
30517
30508
30504
30501
30518
30521
30519
30516
30525
30526
30524
30520
30535
30531
30527
30535
30525
30525
30534
30533
30540
30533
30540
30550
30551
30544
30550
30549
30548
30544
30556
30559
30553
30554
30547
30548
30558
30562
30555
30558
30556
30559
30567
30567
30564
30560
30564
30575
30568
30577
30569
30581
30576
30583
30577
30570
30588
30582
30591
30584
30582
30589
30592
30593
30597
30589
30593
30600
30605
30599
30596
30599
30612
30615
30600
30604
30612
30607
30583
30612
30620
30617
30619
30624
30623
30631
30620
30622
30633
30636
30635
30629
30637
30628
30621
30632
30629
30636
30637
30623
30627
30631
30639
30647
30647
30633
30654
30644
30640
30654
30650
30645
30645
30646
30636
30654
30647
30655
30647
30652
30647
30646
30664
30661
30653
30660
30662
30648
30670
30668
30671
30658
30677
30671
30674
30668
30669
30670
30678
30679
30678
30663
30674
30684
30685
30687
30686
30682
30695
30693
30692
30698
30692
30695
30708
30699
30695
30697
30709
30705
30711
30697
30700
30719
30711
30716
30704
30713
30722
30720
30726
30716
30716
30713
30726
30727
30735
30722
30716
30726
30740
30740
30744
30743
30734
30737
30748
30740
30740
30743
30759
30759
30757
30756
30749
30751
30762
30751
30742
30776
30759
30762
30761
30755
30754
30782
30766
30770
30759
30765
30788
30778
30780
30780
30785
30771
30767
30764
30776
30791
30788
30783
30786
30794
30773
30776
30778
30796
30806
30805
30797
30794
30809
30784
30774
30840
30818
30809
30800
30792
30817
30781
30782
30843
30818
30815
30812
30792
30800
30804
30855
30841
30831
30844
30812
30823
30855
30842
30848
30829
30831
30861
30852
30850
30852
30846
30847
30861
30856
30863
30852
30848
30868
30863
30863
30863
30855
30854
30873
30867
30869
30866
30868
30882
30885
30876
30873
30873
30887
30884
30880
30886
30874
30869
30882
30892
30886
30883
30878
30895
30888
30899
30892
30884
30900
30901
30899
30907
30903
30916
30912
30918
30903
30899
30910
30904
30906
30902
30926
30922
30914
30906
30905
30918
30916
30919
30911
30927
30919
30913
30918
30929
30924
30928
30918
30919
30922
30928
30935
30920
30938
30932
30927
30927
30921
30933
30939
30932
30933
30926
30943
30947
30940
30942
30930
30930
30951
30943
30937
30939
30956
30951
30950
30950
30945
30944
30964
30958
30953
30949
30951
30948
30966
30958
30953
30983
30972
30965
30966
30964
30988
30975
30967
30973
30961
30972
30983
30982
30983
30980
30974
30989
30991
30976
30977
30974
30992
30990
30988
30980
31003
30996
30990
30996
30997
30987
30983
31010
31001
31013
30995
30991
31019
31006
31003
30996
30996
31013
31008
30999
31023
31016
31015
30999
31022
31021
31011
31010
31024
31029
31029
31004
31042
31021
31018
31018
31030
31014
31004
31044
31028
31031
31034
31032
31022
31020
31020
31055
31041
31032
31036
31032
31028
31050
31038
31034
31039
31031
31026
31030
31047
31042
31037
31038
31040
31036
31040
31052
31052
31056
31044
31052
31047
31045
31045
31061
31052
31055
31044
31043
31039
31040
31060
31054
31060
31055
31052
31052
31049
31063
31033
31060
31058
31050
31064
31060
31048
31047
31064
31061
31071
31050
31054
31070
31065
31065
31063
31050
31074
31065
31062
31065
31079
31070
31064
31071
31060
31069
31076
31069
31084
31071
31077
31079
31081
31078
31073
31078
31084
31079
31084
31079
31093
31088
31082
31087
31084
31085
31095
31096
31095
31094
31090
31094
31078
31098
31097
31102
31095
31097
31106
31100
31102
31098
31100
31103
31097
31108
31103
31109
31106
31108
31116
31111
31115
31119
31117
31122
31119
31119
31117
31119
31118
31116
31123
31117
31123
31123
31123
31118
31123
31132
31127
31132
31132
31132
31137
31132
31137
31134
31135
31134
31130
31134
31136
31133
31137
31132
31140
31129
31143
31140
31146
31143
31143
31140
31146
31150
31151
31156
31153
31153
31156
31149
31151
31156
31151
31158
31157
31156
31159
31152
31159
31159
31159
31162
31164
31161
31166
31156
31166
31172
31161
31168
31165
31171
31158
31162
31158
31168
31172
31167
31174
31174
31177
31174
31174
31172
31183
31178
31174
31181
31174
31176
31182
31183
31180
31180
31183
31177
31182
31178
31185
31188
31186
31186
31189
31193
31193
31192
31194
31201
31188
31196
31193
31198
31196
31196
31204
31198
31196
31203
31203
31197
31204
31203
31200
31204
31204
31201
31204
31196
31207
31198
31201
31199
31204
31208
31196
31204
31206
31209
31202
31214
31205
31210
31213
31214
31216
31218
31212
31221
31220
31212
31215
31220
31213
31212
31214
31212
31216
31215
31222
31224
31229
31223
31231
31230
31223
31228
31231
31223
31224
31224
31230
31225
31228
31236
31230
31228
31233
31236
31228
31237
31236
31231
31236
31239
31239
31236
31239
31239
31251
31239
31238
31239
31244
31246
31239
31252
31240
31259
31239
31262
31260
31258
31260
31260
31253
31260
31268
31263
31260
31258
31263
31263
31258
31265
31258
31264
31268
31260
31261
31270
31269
31270
31269
31268
31271
31276
31279
31278
31268
31279
31284
31274
31274
31278
31287
31283
31282
31280
31285
31284
31291
31292
31299
31293
31295
31294
31292
31292
31297
31300
31292
31292
31297
31290
31295
31301
31300
31300
31306
31296
31311
31315
31303
31316
31322
31312
31313
31315
31319
31319
31317
31314
31314
31324
31328
31324
31327
31322
31326
31327
31328
31328
31336
31330
31332
31332
31337
31338
31339
31332
31334
31341
31339
31332
31340
31334
31332
31338
31338
31340
31336
31332
31329
31326
31328
31327
31326
31322
31320
31332
31353
31342
31343
31361
31343
31334
31326
31370
31367
31363
31348
31346
31396
31379
31363
31363
31362
31374
31374
31370
31383
31385
31382
31369
31385
31392
31382
31387
31397
31396
31388
31394
31398
31383
31399
31398
31397
31403
31391
31407
31405
31402
31398
31388
31406
31402
31405
31400
31400
31408
31405
31408
31415
31415
31418
31414
31408
31412
31415
31423
31407
31410
31399
31415
31425
31425
31417
31422
31423
31420
31431
31427
31425
31428
31433
31436
31421
31429
31427
31425
31436
31430
31428
31425
31431
31428
31431
31431
31432
31436
31432
31439
31432
31447
31441
31433
31445
31447
31446
31446
31445
31446
31445
31452
31439
31446
31447
31449
31451
31445
31456
31452
31459
31460
31462
31457
31462
31459
31453
31460
31461
31468
31460
31462
31465
31466
31462
31463
31468
31470
31469
31468
31471
31470
31476
31477
31469
31483
31476
31484
31474
31481
31477
31477
31476
31479
31484
31487
31480
31487
31485
31485
31484
31495
31492
31495
31495
31488
31495
31492
31489
31495
31494
31495
31497
31495
31505
31503
31511
31513
31512
31513
31506
31508
31513
31512
31505
31511
31513
31525
31516
31516
31519
31527
31521
31525
31520
31519
31530
31525
31527
31532
31532
31531
31532
31535
31535
31533
31533
31540
31534
31539
31538
31544
31543
31541
31547
31543
31541
31551
31552
31554
31557
31558
31552
31548
31549
31559
31548
31559
31556
31553
31558
31564
31558
31571
31569
31568
31565
31571
31567
31567
31568
31556
31571
31580
31573
31568
31573
31580
31574
31572
31574
31576
31581
31575
31588
31587
31588
31585
31575
31591
31592
31591
31591
31591
31589
31597
31580
31591
31597
31597
31590
31601
31601
31589
31597
31598
31596
31598
31607
31602
31600
31604
31601
31608
31604
31613
31609
31615
31610
31608
31615
31616
31613
31615
31622
31612
31612
31615
31624
31626
31623
31623
31623
31623
31626
31634
31625
31626
31629
31630
31623
31631
31639
31642
31628
31638
31640
31644
31641
31650
31636
31647
31652
31652
31656
31653
31646
31649
31647
31648
31655
31655
31652
31653
31654
31650
31652
31652
31667
31667
31660
31660
31665
31665
31668
31653
31663
31663
31668
31657
31677
31671
31658
31668
31657
31671
31674
31668
31676
31685
31681
31685
31688
31682
31685
31684
31685
31699
31677
31687
31689
31689
31693
31692
31686
31693
31689
31695
31692
31700
31708
31698
31696
31700
31701
31706
31705
31703
31703
31689
31716
31717
31692
31707
31708
31700
31718
31721
31711
31716
31709
31724
31719
31726
31727
31724
31727
31721
31724
31715
31732
31723
31721
31730
31734
31724
31741
31745
31732
31740
31725
31748
31751
31741
31746
31751
31748
31751
31750
31745
31750
31751
31751
31743
31761
31772
31742
31751
31771
31751
31774
31764
31770
31748
31773
31764
31769
31772
31780
31772
31774
31779
31772
31781
31780
31783
31775
31788
31790
31792
31790
31792
31784
31788
31801
31791
31806
31796
31796
31796
31801
31806
31814
31815
31815
31815
31817
31820
31821
31818
31814
31804
31797
31804
31814
31828
31828
31815
31816
31806
31829
31834
31825
31824
31829
31830
31833
31844
31828
31832
31842
31820
31847
31852
31834
31845
31844
31846
31849
31848
31844
31829
31860
31850
31852
31857
31846
31862
31860
31833
31858
31860
31862
31859
31873
31864
31865
31874
31874
31879
31876
31879
31848
31892
31892
31879
31872
31885
31872
31886
31881
31884
31868
31903
31871
31895
31894
31900
31910
31889
31902
31898
31905
31908
31919
31900
31904
31889
31918
31924
31907
31919
31909
31927
31929
31918
31919
31924
31899
31935
31920
31919
31896
31926
31936
31929
31932
31907
31941
31946
31950
31948
31940
31942
31948
31903
31954
31959
31947
31948
31935
31956
31950
31956
31967
31952
31959
31969
31961
31966
31944
31980
31967
31972
31972
31941
31983
31990
31991
31974
31988
31951
31991
31996
31983
31993
31965
32004
32000
31988
31985
31990
31972
31991
31981
31983
31976
31979
31978
31967
31966
31976
31976
31975
31972
31968
31997
31988
31991
31996
31988
31998
32007
32006
32005
32007
32010
32014
32023
32023
32032
32042
32023
32058
32043
32063
32012
32076
32060
32070
32076
32068
32084
32071
32081
32088
32081
32097
32080
32082
32018
32092
32101
32081
32084
32040
32101
32095
32094
32064
32119
32110
32101
32100
32092
32084
32123
32104
32110
32106
32087
32124
32110
32119
32086
32135
32116
32121
32123
32130
32142
32128
32132
32072
32152
32135
32135
32073
32148
32146
32140
32143
32138
32167
32140
32151
32159
32135
32170
32157
32151
32164
32154
32171
32180
32159
32164
32173
32104
32174
32181
32167
32169
32172
32164
32184
32177
32185
32139
32199
32200
32182
32196
32165
32197
32191
32196
32131
32196
32209
32197
32197
32140
32209
32213
32203
32212
32188
32223
32213
32209
32223
32164
32223
32231
32199
32222
32221
32224
32199
32235
32233
32221
32235
32228
32245
32216
32237
32238
32239
32176
32231
32260
32239
32241
32243
32208
32259
32220
32252
32247
32263
32194
32220
32230
32276
32263
32276
32282
32263
32263
32263
32270
32207
32278
32289
32263
32271
32258
32284
32292
32276
32278
32280
32289
32223
32292
32294
32279
32288
32287
32298
32300
32289
32291
32296
32231
32307
32311
32292
32295
32301
32285
32263
32302
32316
32311
32305
32303
32316
32319
32290
32324
32323
32322
32319
32252
32322
32331
32314
32316
32327
32263
32326
32337
32303
32325
32318
32325
32334
32335
32282
32298
32340
32352
32335
32335
32318
32337
32351
32340
32342
32343
32347
32304
32357
32369
32352
32359
32330
32367
32368
32362
32359
32367
32322
32383
32385
32364
32361
32360
32372
32375
32357
32390
32385
32372
32375
32381
32364
32348
32392
32403
32389
32391
32388
32328
32378
32404
32402
32407
32407
32409
32396
32402
32404
32407
32404
32356
32366
32411
32422
32424
32415
32420
32358
32408
32430
32430
32431
32429
32431
32436
32442
32411
32426
32425
32439
32409
32435
32447
32452
32392
32441
32436
32441
32446
32440
32383
32399
32412
32453
32452
32436
32451
32455
32417
32455
32471
32469
32460
32462
32452
32474
32478
32467
32460
32470
32455
32479
32447
32471
32479
32428
32495
32484
32482
32483
32436
32494
32506
32495
32487
32492
32454
32499
32512
32492
32501
32462
32512
32492
32507
32509
32449
32509
32526
32516
32519
32518
32524
32480
32511
32542
32548
32538
32543
32543
32490
32524
32532
32529
32540
32535
32547
32490
32556
32548
32557
32532
32565
32574
32543
32558
32556
32561
32567
32519
32566
32572
32579
32563
32559
32561
32573
32583
32562
32556
32575
32590
32578
32583
32589
32582
32602
32594
32584
32590
32590
32594
32598
32598
32591
32570
32594
32614
32620
32620
32620
32615
32615
32617
32624
32565
32598
32621
32623
32638
32639
32637
32626
32625
32628
32638
32640
32644
32588
32587
32641
32655
32663
32655
32663
32669
32669
32671
32672
32671
32677
32661
32664
32667
32671
32673
32672
32684
32684
32686
32671
32683
32689
32642
32687
32706
32702
32695
32689
32692
32698
32700
32700
32647
32703
32721
32703
32709
32717
32670
32730
32729
32725
32711
32717
32724
32729
32735
32688
32733
32741
32747
32735
32731
32737
32741
32684
32751
32762
32756
32738
32748
32759
32705
32767
32772
32772
32732
32761
32756
32759
32773
32760
32735
32775
32784
32775
32783
32775
32791
32786
32786
32743
32804
32802
32806
32791
32793
32799
32748
32789
32801
32811
32794
32802
32804
32812
32778
32804
32827
32829
32820
32818
32823
32828
32799
32833
32832
32839
32832
32837
32798
32842
32852
32855
32839
32846
32844
32859
32817
32864
32825
32858
32863
32842
32867
32876
32871
32867
32871
32855
32876
32884
32875
32877
32871
32894
32894
32885
32891
32895
32895
32876
32903
32882
32897
32902
32852
32902
32922
32896
32906
32919
32883
32924
32935
32933
32903
32926
32927
32941
32935
32940
32948
32941
32930
32931
32933
32935
32940
32916
32931
32936
32941
32934
32924
32916
32918
32918
32919
32919
32915
32904
32916
32912
32911
32935
32929
32926
32933
32939
32926
32924
32944
32951
32948
32958
32948
32961
32967
32982
32988
32998
32991
33004
33005
33008
33020
32960
32971
32975
32981
32990
32997
33007
33018
33030
33042
33014
33028
33021
33031
33039
33020
33045
33042
33026
33031
33031
33042
32995
33039
33046
33052
33041
33044
33047
33039
33040
33006
33015
33027
33062
33054
33069
33071
33056
33061
33055
33059
33061
33060
33076
33078
33063
33069
33077
33041
33085
33086
33091
33078
33076
33077
33091
33080
33096
33064
33092
33093
33098
33099
33065
33107
33116
33114
33119
33108
33108
33114
33091
33108
33125
33132
33116
33117
33117
33102
33127
33130
33133
33124
33124
33126
33132
33097
33134
33143
33143
33140
33146
33142
33148
33136
33132
33149
33135
33144
33159
33159
33156
33167
33154
33156
33167
33164
33167
33169
33143
33181
33181
33188
33173
33176
33179
33158
33186
33188
33161
33181
33195
33198
33188
33198
33167
33197
33193
33207
33173
33194
33213
33217
33210
33212
33204
33223
33227
33216
33221
33197
33223
33232
33220
33221
33211
33244
33240
33225
33243
33248
33244
33240
33252
33214
33260
33255
33263
33252
33258
33255
33238
33263
33265
33268
33260
33262
33263
33255
33284
33271
33279
33283
33278
33258
33287
33300
33281
33285
33287
33256
33287
33306
33287
33287
33274
33300
33303
33301
33300
33287
33313
33322
33313
33311
33319
33315
33325
33327
33324
33320
33324
33322
33314
33338
33340
33314
33329
33336
33343
33319
33349
33345
33349
33346
33340
33354
33351
33359
33351
33358
33365
33351
33358
33361
33348
33375
33372
33364
33373
33375
33359
33375
33377
33372
33375
33382
33380
33372
33389
33388
33380
33381
33391
33376
33396
33401
33378
33399
33398
33397
33381
33404
33415
33413
33421
33417
33410
33412
33413
33407
33409
33415
33399
33415
33423
33429
33434
33439
33415
33428
33428
33436
33439
33426
33447
33447
33447
33441
33449
33437
33453
33453
33449
33441
33446
33447
33453
33461
33426
33463
33470
33474
33460
33454
33467
33450
33470
33476
33480
33474
33476
33478
33479
33444
33484
33486
33487
33476
33479
33491
33492
33460
33489
33497
33485
33492
33502
33497
33503
33510
33497
33502
33495
33502
33511
33502
33518
33507
33506
33523
33509
33518
33524
33516
33524
33489
33523
33526
33517
33521
33524
33502
33534
33529
33524
33535
33530
33536
33511
33535
33540
33535
33543
33543
33537
33543
33551
33532
33549
33553
33540
33555
33551
33532
33565
33568
33560
33556
33536
33566
33573
33582
33568
33566
33579
33580
33583
33572
33581
33575
33586
33572
33578
33585
33570
33595
33596
33580
33593
33594
33572
33599
33599
33587
33596
33604
33601
33612
33608
33603
33607
33606
33596
33611
33622
33592
33607
33620
33620
33615
33616
33596
33631
33618
33623
33629
33622
33606
33632
33639
33623
33636
33636
33641
33628
33635
33623
33641
33631
33645
33653
33646
33662
33644
33644
33665
33656
33650
33641
33659
33666
33654
33660
33658
33665
33666
33667
33673
33677
33663
33671
33675
33671
33685
33686
33685
33676
33679
33679
33692
33676
33684
33660
33682
33687
33685
33690
33684
33691
33693
33694
33687
33702
33695
33696
33699
33697
33703
33703
33706
33711
33700
33707
33703
33710
33716
33703
33708
33716
33694
33724
33724
33708
33722
33718
33719
33720
33706
33725
33727
33719
33724
33733
33702
33737
33737
33734
33735
33717
33737
33749
33732
33743
33746
33738
33742
33753
33746
33740
33748
33745
33753
33745
33756
33759
33762
33757
33759
33766
33764
33763
33768
33748
33772
33785
33770
33768
33772
33780
33777
33765
33778
33777
33780
33780
33784
33777
33783
33785
33771
33796
33790
33791
33794
33798
33795
33797
33784
33796
33799
33799
33792
33799
33799
33812
33798
33807
33786
33820
33814
33809
33815
33808
33826
33796
33822
33828
33814
33820
33822
33831
33829
33834
33829
33832
33839
33844
33831
33838
33835
33849
33831
33838
33828
33841
33839
33830
33828
33831
33821
33823
33814
33823
33820
33823
33826
33804
33828
33830
33823
33846
33812
33881
33836
33839
33823
33828
33853
33847
33841
33844
33844
33853
33852
33863
33871
33872
33872
33885
33886
33890
33901
33901
33903
33892
33900
33892
33903
33907
33895
33908
33868
33911
33916
33906
33908
33915
33912
33903
33910
33908
33917
33912
33906
33923
33919
33919
33914
33911
33890
33916
33920
33916
33916
33918
33926
33928
33916
33922
33924
33900
33935
33932
33940
33926
33925
33932
33907
33922
33926
33933
33932
33940
33938
33932
33942
33938
33926
33949
33951
33942
33951
33948
33949
33951
33958
33952
33952
33949
33956
33924
33953
33959
33967
33954
33963
33956
33968
33965
33964
33961
33944
33975
33979
33972
33973
33958
33981
33984
33965
33968
33983
33978
33988
33991
33982
33982
33985
33990
33987
33992
33994
33995
33996
33993
33996
33994
34004
33991
33991
33996
33998
34007
33990
34004
33980
34010
34004
34004
34004
34014
34013
34018
34004
34016
34013
34012
34025
34015
34015
34015
34017
34018
34013
34020
34023
34018
34031
34018
34022
34023
34014
34031
34036
34020
34020
34027
34016
34035
34032
34027
34033
34039
34028
34031
34029
34036
34038
34045
34037
34039
34042
34042
34041
34047
34047
34055
34046
34046
34054
34041
34051
34049
34047
34044
34047
34046
34050
34050
34055
34051
34052
34054
34052
34053
34063
34055
34055
34060
34055
34055
34055
34055
34048
34055
34065
34069
34066
34044
34065
34065
34073
34055
34071
34074
34069
34071
34066
34060
34071
34076
34073
34063
34081
34077
34071
34076
34079
34082
34084
34079
34079
34060
34085
34084
34080
34091
34092
34087
34095
34086
34087
34080
34084
34080
34084
34090
34090
34086
34088
34082
34094
34101
34090
34095
34092
34095
34095
34102
34093
34101
34094
34097
34106
34100
34092
34100
34104
34108
34097
34104
34102
34111
34110
34103
34104
34108
34094
34111
34110
34101
34104
34113
34111
34114
34111
34108
34105
34114
34125
34116
34118
34121
34124
34119
34120
34127
34122
34126
34131
34125
34122
34124
34109
34126
34132
34122
34123
34131
34120
34130
34127
34132
34120
34124
34134
34116
34130
34133
34129
34134
34133
34126
34133
34119
34135
34130
34121
34136
34141
34137
34132
34118
34140
34140
34135
34130
34123
34141
34143
34140
34138
34143
34122
34140
34143
34147
34148
34148
34152
34156
34149
34142
34145
34148
34151
34137
34140
34139
34143
34150
34142
34145
34146
34148
34151
34148
34140
34149
34150
34149
34156
34154
34150
34148
34157
34147
34149
34143
34156
34159
34154
34150
34153
34159
34150
34157
34137
34148
34156
34151
34157
34151
34151
34157
34157
34156
34155
34158
34150
34153
34142
34154
34156
34156
34151
34158
34159
34150
34154
34151
34159
34154
34154
34153
34154
34158
34157
34156
34151
34155
34164
34151
34162
34161
34162
34167
34150
34167
34161
34166
34155
34167
34163
34165
34171
34154
34170
34169
34152
34166
34167
34159
34169
34180
34169
34170
34166
34156
34177
34166
34173
34178
34172
34182
34175
34170
34172
34176
34170
34180
34168
34180
34181
34178
34158
34172
34173
34168
34178
34176
34181
34172
34180
34169
34180
34177
34177
34177
34172
34182
34174
34175
34176
34180
34181
34177
34170
34176
34177
34183
34176
34183
34182
34180
34182
34183
34181
34175
34180
34174
34183
34188
34189
34183
34188
34180
34183
34190
34188
34188
34184
34181
34191
34190
34183
34191
34191
34186
34188
34188
34197
34203
34190
34192
34183
34191
34199
34203
34195
34189
34193
34199
34199
34191
34192
34189
34195
34176
34199
34197
34199
34188
34193
34198
34196
34201
34196
34203
34206
34203
34192
34199
34199
34197
34194
34205
34197
34199
34207
34199
34210
34197
34191
34207
34193
34212
34209
34208
34209
34199
34206
34215
34209
34212
34213
34209
34210
34207
34207
34209
34206
34209
34199
34213
34212
34208
34214
34216
34213
34220
34220
34222
34220
34223
34230
34235
34225
34233
34229
34226
34230
34223
34231
34221
34223
34222
34225
34220
34215
34212
34212
34218
34216
34216
34200
34223
34214
34216
34229
34200
34236
34212
34232
34204
34207
34279
34225
34231
34244
34214
34215
34215
34223
34237
34239
34239
34242
34242
34247
34247
34247
34256
34254
34253
34264
34269
34263
34256
34266
34270
34270
34276
34261
34264
34271
34240
34270
34269
34262
34263
34258
34239
34261
34244
34256
34269
34260
34261
34260
34263
34263
34255
34274
34268
34263
34269
34260
34265
34248
34262
34272
34270
34270
34271
34268
34277
34268
34277
34270
34279
34276
34279
34279
34271
34277
34263
34274
34278
34268
34279
34269
34271
34278
34280
34276
34279
34276
34257
34278
34264
34276
34276
34276
34278
34284
34269
34274
34281
34275
34277
34279
34280
34268
34279
34279
34278
34285
34287
34272
34279
34285
34282
34274
34265
34279
34284
34287
34279
34294
34293
34280
34287
34281
34284
34280
34294
34299
34291
34294
34284
34292
34295
34298
34297
34292
34295
34297
34288
34295
34299
34292
34298
34284
34297
34303
34302
34292
34303
34303
34308
34308
34286
34301
34303
34300
34300
34302
34303
34298
34300
34308
34305
34293
34301
34307
34311
34302
34307
34303
34308
34308
34306
34311
34310
34311
34311
34302
34311
34308
34311
34308
34311
34311
34305
34311
34311
34311
34311
34307
34316
34329
34310
34311
34311
34326
34303
34311
34311
34311
34304
34316
34307
34311
34319
34322
34309
34311
34311
34311
34311
34327
34309
34318
34311
34319
34311
34316
34327
34320
34311
34320
34318
34319
34306
34316
34324
34327
34327
34319
34316
34330
34321
34327
34335
34329
34324
34324
34333
34330
34310
34324
34322
34326
34311
34324
34343
34338
34332
34327
34333
34328
34334
34334
34335
34319
34334
34335
34321
34342
34330
34325
34332
34335
34338
34327
34327
34333
34336
34342
34338
34335
34345
34340
34344
34341
34343
34341
34345
34340
34336
34345
34349
34343
34343
34349
34346
34345
34342
34343
34349
34341
34340
34348
34344
34343
34343
34343
34348
34339
34343
34342
34349
34343
34351
34348
34356
34363
34348
34354
34357
34353
34345
34349
34351
34343
34353
34359
34347
34353
34356
34356
34359
34351
34356
34358
34356
34363
34365
34364
34359
34351
34366
34364
34366
34358
34348
34346
34351
34354
34356
34351
34348
34357
34353
34367
34356
34355
34361
34356
34364
34362
34359
34356
34363
34342
34370
34364
34361
34366
34348
34356
34363
34360
34356
34356
34357
34360
34367
34362
34365
34359
34360
34364
34365
34372
34368
34357
34356
34364
34365
34369
34364
34363
34364
34375
34362
34367
34370
34366
34373
34362
34362
34359
34361
34349
34367
34369
34356
34363
34368
34349
34370
34375
34364
34367
34374
34372
34367
34372
34374
34375
34368
34377
34376
34367
34366
34354
34374
34377
34371
34371
34369
34356
34383
34368
34366
34357
34375
34375
34373
34360
34372
34365
34357
34368
34372
34367
34374
34367
34367
34372
34370
34378
34372
34364
34374
34371
34358
34372
34371
34373
34372
34375
34375
34357
34372
34367
34365
34357
34374
34375
34375
34372
34372
34359
34381
34380
34375
34374
34373
34378
34383
34367
34375
34378
34374
34364
34378
34381
34375
34382
34368
34375
34372
34373
34366
34372
34378
34383
34387
34380
34381
34379
34372
34370
34375
34380
34381
34364
34375
34374
34381
34383
34388
34381
34381
34370
34366
34380
34384
34380
34375
34368
34380
34388
34380
34359
34383
34375
34383
34380
34383
34389
34381
34378
34380
34389
34384
34369
34377
34386
34388
34373
34383
34382
34378
34375
34381
34383
34385
34375
34382
34378
34374
34364
34381
34384
34383
34385
34383
34380
34387
34388
34388
34374
34382
34360
34381
34387
34370
34376
34385
34380
34381
34373
34384
34391
34388
34384
34386
34391
34395
34376
34385
34393
34374
34387
34385
34380
34388
34374
34384
34382
34383
34386
34396
34390
34391
34389
34392
34388
34391
34389
34390
34368
34386
34392
34374
34382
34385
34389
34382
34381
34396
34377
34390
34378
34391
34370
34391
34399
34385
34386
34390
34370
34397
34389
34388
34389
34395
34371
34389
34389
34396
34397
34388
34387
34387
34397
34372
34393
34397
34388
34388
34392
34393
34374
34394
34403
34404
34389
34396
34394
34374
34396
34400
34397
34397
34405
34388
34389
34394
34382
34376
34372
34375
34376
34368
34358
34371
34356
34351
34380
34362
34353
34372
34344
34348
34369
34372
34367
34374
34356
34352
34383
34377
34360
34362
34372
34380
34379
34380
34391
34392
34396
34403
34404
34392
34411
34412
34423
34415
34404
34408
34398
34415
34410
34406
34407
34406
34407
34414
34416
34409
34407
34404
34375
34400
34414
34414
34407
34401
34369
34404
34406
34412
34398
34403
34402
34366
34398
34410
34396
34401
34401
34376
34399
34406
34408
34404
34404
34404
34403
34413
34406
34397
34405
34370
34407
34406
34402
34404
34400
34402
34406
34407
34404
34394
34403
34375
34401
34401
34401
34396
34388
34396
34399
34386
34393
34395
34403
34393
34374
34391
34396
34401
34407
34401
34399
34388
34395
34380
34388
34399
34384
34389
34393
34387
34397
34399
34389
34394
34396
34398
34407
34394
34397
34382
34401
34402
34406
34392
34394
34391
34388
34407
34398
34394
34396
34388
34389
34399
34398
34399
34391
34388
34412
34399
34398
34379
34407
34404
34394
34398
34397
34380
34396
34388
34401
34391
34393
34388
34383
34375
34394
34393
34389
34396
34391
34389
34385
34398
34404
34396
34396
34398
34379
34396
34378
34395
34391
34391
34394
34389
34399
34401
34391
34391
34379
34394
34388
34395
34382
34391
34374
34396
34405
34391
34394
34395
34405
34391
34391
34382
34398
34389
34399
34396
34398
34403
34402
34376
34399
34385
34399
34391
34398
34403
34388
34399
34391
34399
34387
34396
34394
34398
34389
34403
34404
34396
34381
34394
34394
34403
34380
34402
34404
34390
34394
34380
34376
34390
34396
34398
34404
34396
34396
34397
34399
34398
34401
34407
34396
34399
34399
34385
34398
34400
34396
34399
34400
34390
34391
34406
34406
34401
34396
34399
34401
34399
34404
34406
34407
34404
34404
34398
34405
34407
34396
34388
34399
34388
34407
34404
34391
34406
34411
34407
34406
34412
34415
34410
34405
34391
34407
34415
34391
34414
34407
34399
34401
34421
34404
34410
34405
34415
34422
34409
34412
34418
34406
34418
34423
34415
34420
34413
34415
34420
34398
34408
34420
34407
34420
34416
34414
34420
34419
34420
34403
34414
34414
34418
34415
34398
34423
34420
34407
34415
34420
34390
34420
34420
34412
34416
34422
34423
34420
34418
34423
34420
34415
34420
34422
34415
34417
34413
34415
34404
34426
34418
34423
34420
34419
34415
34426
34428
34420
34418
34421
34415
34415
34422
34397
34415
34410
34423
34409
34407
34414
34407
34417
34407
34414
34410
34414
34422
34415
34412
34417
34412
34394
34423
34424
34422
34414
34415
34421
34420
34416
34406
34419
34419
34403
34414
34412
34407
34408
34417
34389
34410
34420
34420
34419
34406
34396
34414
34412
34386
34414
34412
34414
34404
34407
34415
34413
34407
34407
34416
34415
34412
34415
34413
34413
34414
34403
34415
34407
34414
34411
34399
34415
34420
34406
34404
34404
34413
34396
34415
34415
34407
34407
34382
34404
34409
34404
34404
34398
34407
34409
34401
34404
34399
34408
34399
34407
34398
34411
34407
34402
34407
34393
34412
34412
34399
34407
34390
34408
34395
34400
34409
34401
34396
34392
34388
34404
34404
34367
34398
34397
34402
34380
34404
34378
34396
34393
34399
34378
34398
34407
34396
34389
34398
34367
34407
34388
34393
34392
34395
34398
34398
34389
34396
34390
34398
34402
34388
34385
34390
34370
34399
34397
34386
34386
34391
34372
34395
34399
34397
34404
34399
34400
34391
34397
34375
34393
34388
34381
34387
34364
34391
34391
34375
34386
34388
34390
34388
34389
34393
34383
34387
34383
34388
34392
34388
34395
34377
34388
34384
34367
34382
34359
34381
34388
34376
34368
34382
34372
34391
34384
34378
34376
34383
34359
34383
34381
34375
34374
34359
34378
34375
34370
34375
34372
34372
34378
34377
34368
34379
34348
34379
34388
34376
34377
34375
34383
34370
34375
34375
34376
34360
34375
34380
34375
34379
34375
34372
34375
34376
34378
34383
34372
34375
34375
34370
34373
34375
34381
34367
34375
34351
34374
34382
34374
34368
34372
34373
34365
34370
34371
34380
34375
34368
34373
34365
34373
34367
34365
34364
34370
34360
34361
34364
34343
34367
34371
34363
34356
34344
34367
34361
34361
34367
34359
34357
34362
34367
34346
34364
34361
34369
34357
34341
34365
34367
34372
34365
34356
34367
34375
34364
34371
34371
34367
34366
34354
34356
34356
34357
34351
34356
34347
34343
34343
34328
34332
34332
34319
34311
34324
34323
34334
34310
34338
34327
34326
34301
34307
34332
34324
34311
34322
34311
34332
34328
34325
34329
34328
34333
34332
34335
34351
34341
34353
34346
34364
34364
34361
34361
34335
34372
34357
34359
34345
34358
34353
34351
34316
34366
34347
34351
34311
34359
34361
34357
34349
34350
34357
34341
34347
34317
34348
34334
34340
34316
34348
34346
34342
34311
34344
34348
34340
34342
34311
34342
34329
34327
34340
34338
34340
34342
34340
34327
34337
34311
34327
34329
34321
34338
34341
34326
34332
34311
34342
34325
34327
34330
34332
34322
34323
34303
34340
34326
34316
34289
34327
34327
34329
34320
34322
34322
34295
34327
34332
34321
34321
34318
34321
34318
34298
34311
34324
34326
34298
34311
34311
34311
34311
34319
34311
34316
34311
34311
34311
34311
34311
34311
34311
34300
34310
34311
34303
34310
34298
34311
34303
34308
34282
34310
34311
34301
34308
34279
34309
34306
34311
34300
34296
34269
34299
34284
34289
34295
34293
34309
34295
34301
34302
34284
34298
34305
34295
34293
34295
34293
34305
34284
34286
34295
34292
34291
34292
34296
34288
34289
34287
34278
34292
34282
34287
34289
34299
34292
34292
34286
34286
34295
34285
34292
34280
34289
34281
34281
34284
34279
34276
34281
34287
34285
34281
34287
34276
34284
34269
34290
34277
34286
34255
34282
34279
34279
34286
34284
34282
34278
34260
34287
34268
34277
34259
34282
34276
34250
34280
34264
34261
34280
34268
34252
34272
34268
34277
34271
34256
34274
34278
34279
34270
34271
34263
34268
34260
34264
34257
34265
34266
34253
34256
34254
34274
34259
34255
34263
34238
34260
34270
34264
34255
34268
34249
34268
34271
34266
34267
34271
34263
34258
34234
34262
34263
34255
34252
34252
34228
34255
34266
34248
34256
34247
34259
34263
34258
34254
34255
34250
34256
34263
34245
34246
34251
34256
34243
34247
34248
34246
34245
34243
34250
34252
34245
34250
34250
34246
34252
34247
34237
34236
34242
34215
34236
34224
34238
34227
34249
34238
34232
34246
34220
34242
34218
34240
34247
34238
34245
34224
34240
34240
34237
34226
34238
34238
34234
34236
34210
34239
34240
34223
34231
34232
34197
34238
34242
34223
34228
34231
34229
34226
34231
34232
34204
34234
34228
34222
34215
34232
34228
34228
34227
34228
34221
34234
34224
34236
34223
34229
34227
34236
34219
34231
34218
34215
34226
34220
34215
34201
34223
34220
34217
34217
34189
34220
34225
34215
34217
34215
34220
34185
34215
34218
34215
34194
34207
34211
34191
34219
34196
34205
34204
34215
34204
34210
34209
34183
34204
34207
34212
34210
34205
34206
34201
34210
34196
34196
34204
34202
34183
34196
34177
34213
34195
34199
34201
34204
34194
34207
34190
34205
34199
34191
34188
34199
34196
34195
34198
34196
34205
34186
34192
34172
34197
34196
34189
34188
34190
34193
34194
34175
34188
34196
34164
34197
34183
34184
34197
34182
34183
34165
34195
34184
34186
34181
34191
34182
34181
34164
34186
34180
34183
34175
34180
34169
34169
34172
34175
34181
34176
34175
34172
34152
34181
34181
34175
34180
34178
34180
34180
34175
34168
34152
34173
34174
34170
34172
34151
34173
34168
34167
34167
34163
34172
34172
34164
34156
34170
34174
34167
34164
34161
34167
34169
34159
34159
34133
34170
34156
34157
34164
34167
34175
34162
34167
34159
34167
34156
34154
34162
34161
34164
34163
34153
34158
34156
34141
34157
34144
34160
34156
34152
34142
34157
34143
34159
34143
34158
34132
34153
34151
34162
34148
34132
34149
34145
34149
34137
34153
34159
34129
34147
34125
34150
34137
34149
34124
34149
34146
34140
34116
34146
34135
34137
34146
34122
34132
34143
34134
34140
34110
34145
34132
34132
34140
34133
34140
34140
34134
34138
34143
34129
34138
34119
34134
34120
34124
34128
34128
34132
34137
34127
34124
34126
34136
34139
34124
34125
34127
34119
34132
34127
34124
34117
34117
34125
34118
34126
34106
34127
34129
34135
34125
34119
34104
34124
34120
34122
34119
34117
34095
34118
34118
34116
34110
34086
34119
34126
34114
34117
34122
34118
34113
34117
34108
34118
34111
34086
34110
34116
34102
34113
34115
34105
34116
34108
34116
34106
34116
34108
34113
34112
34092
34117
34108
34106
34103
34114
34110
34075
34111
34107
34110
34088
34108
34110
34103
34108
34110
34111
34116
34115
34102
34108
34104
34112
34101
34108
34108
34091
34092
34100
34079
34080
34076
34081
34069
34068
34068
34073
34058
34066
34050
34070
34055
34048
34044
34068
34076
34046
34066
34063
34055
34047
34071
34063
34063
34063
34071
34078
34074
34083
34087
34093
34088
34101
34095
34094
34084
34103
34105
34095
34103
34103
34115
34095
34100
34092
34104
34088
34055
34103
34090
34088
34065
34096
34085
34084
34084
34102
34081
34085
34066
34086
34078
34041
34088
34083
34082
34080
34084
34072
34043
34087
34077
34076
34074
34077
34073
34073
34084
34064
34068
34046
34076
34077
34074
34066
34061
34077
34063
34069
34062
34080
34062
34064
34047
34071
34046
34057
34028
34062
34066
34049
34050
34028
34062
34045
34052
34062
34061
34056
34053
34055
34022
34052
34055
34050
34044
34023
34051
34038
34047
34035
34048
34043
34042
34044
34037
34039
34047
34047
34041
34032
34014
34040
34050
34040
34039
34037
34044
34046
34055
34038
34028
34036
34030
34036
34031
34041
34047
34031
34031
34037
34034
34028
34029
34033
34037
34010
34022
34023
34004
34023
34028
34018
34012
34002
34027
34018
34022
34020
34015
34022
34015
34029
34011
34021
34018
34000
34023
34012
33991
34019
34007
34015
34000
34017
34012
34015
33996
34013
34015
34011
34008
33997
34020
34007
34017
33994
34012
34005
34003
34014
34002
34007
34005
34006
34007
34007
33993
34010
33998
34002
34005
34005
33999
33993
34001
33998
33991
33974
34004
33988
33990
33970
33997
33993
33996
33989
33992
33995
33990
33991
33964
33998
33988
33994
33981
33990
33996
33982
33990
33959
33986
33974
33984
33972
33989
33985
33982
33980
33988
33980
33983
33978
33971
33984
33981
33979
33970
33981
33991
33967
33962
33978
33985
33977
33977
33976
33977
33978
33973
33970
33978
33975
33972
33972
33978
33979
33969
33976
33979
33960
33962
33948
33970
33956
33971
33944
33975
33966
33966
33950
33977
33964
33963
33942
33966
33959
33961
33964
33966
33973
33958
33958
33940
33958
33968
33950
33951
33934
33964
33961
33954
33956
33928
33960
33958
33954
33959
33940
33959
33964
33956
33924
33965
33950
33959
33959
33950
33940
33959
33951
33949
33946
33954
33944
33949
33948
33941
33946
33941
33937
33940
33945
33936
33945
33926
33940
33940
33941
33927
33932
33942
33935
33942
33949
33927
33932
33926
33903
33933
33933
33924
33924
33927
33932
33925
33941
33928
33924
33911
33926
33932
33929
33908
33928
33924
33927
33901
33925
33926
33914
33917
33927
33924
33911
33912
33922
33912
33918
33889
33926
33922
33910
33908
33902
33914
33903
33908
33911
33911
33903
33903
33886
33900
33902
33895
33895
33895
33903
33894
33900
33879
33897
33888
33901
33903
33892
33898
33900
33895
33890
33884
33886
33884
33876
33892
33879
33884
33882
33890
33892
33892
33884
33882
33876
33886
33857
33871
33874
33881
33892
33872
33877
33884
33854
33876
33887
33876
33878
33876
33856
33877
33876
33879
33864
33871
33864
33876
33863
33865
33839
33850
33840
33847
33862
33864
33863
33863
33862
33863
33870
33857
33860
33861
33836
33858
33860
33858
33860
33852
33855
33860
33830
33853
33856
33862
33850
33845
33849
33837
33859
33839
33846
33842
33844
33852
33844
33839
33847
33844
33843
33822
33837
33838
33842
33821
33848
33839
33828
33831
33836
33836
33847
33831
33830
33834
33836
33830
33823
33823
33830
33828
33825
33820
33822
33830
33828
33820
33823
33814
33826
33825
33827
33825
33825
33829
33805
33815
33820
33815
33820
33822
33808
33812
33812
33817
33819
33799
33799
33815
33818
33822
33820
33822
33826
33821
33818
33821
33813
33811
33814
33799
33810
33799
33799
33798
33810
33812
33813
33799
33799
33807
33780
33807
33806
33809
33797
33799
33795
33799
33778
33794
33799
33799
33787
33783
33791
33798
33779
33798
33799
33783
33791
33783
33783
33781
33788
33780
33788
33769
33782
33774
33764
33783
33786
33764
33764
33780
33777
33751
33774
33772
33769
33780
33788
33775
33768
33757
33769
33774
33767
33770
33769
33764
33768
33775
33772
33767
33764
33772
33763
33764
33772
33761
33758
33759
33748
33749
33764
33757
33753
33751
33761
33756
33756
33753
33756
33756
33757
33749
33749
33753
33759
33748
33751
33748
33751
33742
33750
33739
33749
33743
33732
33749
33759
33740
33746
33736
33748
33735
33743
33738
33747
33739
33739
33743
33742
33731
33725
33708
33734
33740
33734
33727
33727
33724
33719
33724
33731
33719
33727
33727
33713
33725
33724
33719
33719
33721
33716
33724
33714
33711
33719
33706
33719
33718
33714
33722
33716
33716
33727
33724
33717
33709
33708
33721
33716
33716
33710
33718
33708
33717
33706
33699
33718
33722
33704
33709
33689
33716
33716
33701
33706
33685
33700
33708
33695
33687
33690
33688
33680
33677
33670
33668
33661
33662
33659
33669
33652
33699
33671
33660
33658
33657
33680
33669
33668
33683
33671
33657
33659
33662
33664
33674
33670
33676
33672
33684
33687
33688
33676
33692
33692
33703
33676
33692
33705
33685
33693
33684
33696
33684
33685
33685
33695
33684
33682
33681
33691
33683
33685
33676
33684
33672
33658
33676
33674
33674
33662
33670
33658
33660
33634
33671
33657
33661
33636
33665
33678
33660
33660
33626
33664
33657
33658
33652
33662
33644
33651
33655
33652
33661
33650
33649
33654
33656
33640
33649
33649
33645
33638
33649
33647
33634
33636
33643
33644
33638
33600
33641
33626
33628
33630
33638
33620
33599
33633
33620
33626
33621
33631
33630
33628
33629
33634
33623
33596
33622
33602
33615
33584
33617
33610
33606
33596
33615
33607
33608
33604
33620
33610
33604
33607
33608
33604
33602
33606
33604
33590
33604
33607
33592
33612
33604
33598
33595
33607
33593
33598
33599
33604
33602
33594
33600
33591
33605
33606
33594
33590
33572
33593
33596
33584
33588
33589
33590
33583
33582
33572
33588
33557
33580
33580
33560
33590
33589
33575
33576
33583
33586
33575
33578
33551
33580
33575
33577
33559
33567
33585
33570
33572
33575
33551
33572
33578
33583
33570
33568
33572
33564
33572
33583
33578
33559
33572
33572
33572
33564
33575
33570
33561
33562
33565
33543
33572
33564
33552
33566
33530
33554
33551
33558
33551
33558
33560
33556
33546
33551
33543
33559
33536
33556
33538
33565
33562
33551
33547
33550
33548
33543
33557
33558
33536
33536
33543
33543
33543
33542
33552
33530
33535
33530
33543
33543
33543
33540
33532
33534
33526
33540
33532
33532
33512
33542
33540
33524
33529
33535
33533
33543
33535
33535
33536
33540
33529
33539
33518
33536
33538
33533
33529
33519
33520
33520
33532
33521
33532
33526
33522
33521
33514
33527
33525
33517
33519
33516
33518
33532
33535
33518
33519
33527
33511
33525
33519
33533
33518
33508
33519
33520
33520
33514
33513
33516
33525
33492
33519
33518
33500
33514
33521
33495
33518
33511
33519
33508
33493
33521
33527
33511
33505
33504
33519
33508
33508
33487
33508
33515
33502
33506
33511
33506
33488
33502
33506
33511
33508
33497
33501
33479
33506
33505
33493
33493
33492
33497
33505
33489
33504
33508
33488
33494
33484
33507
33511
33495
33498
33491
33501
33500
33495
33506
33478
33491
33497
33507
33496
33492
33484
33502
33503
33482
33486
33462
33496
33497
33494
33485
33479
33483
33478
33493
33487
33498
33474
33480
33486
33459
33493
33492
33479
33477
33468
33492
33455
33478
33480
33490
33490
33476
33482
33459
33488
33473
33479
33465
33484
33484
33471
33475
33482
33478
33470
33482
33484
33485
33468
33471
33476
33452
33479
33482
33479
33467
33471
33466
33454
33470
33471
33483
33457
33460
33460
33470
33447
33470
33472
33452
33463
33465
33476
33464
33470
33466
33462
33465
33474
33459
33457
33447
33472
33471
33460
33456
33465
33445
33463
33474
33460
33460
33469
33471
33471
33466
33474
33456
33461
33436
33471
33466
33465
33452
33460
33432
33465
33471
33437
33458
33452
33462
33428
33460
33465
33440
33453
33445
33458
33460
33425
33452
33449
33444
33439
33447
33438
33422
33415
33453
33460
33446
33442
33444
33448
33439
33440
33419
33454
33422
33431
33447
33446
33417
33445
33417
33445
33453
33441
33436
33439
33407
33447
33452
33448
33439
33436
33412
33445
33439
33445
33439
33442
33439
33435
33438
33431
33432
33420
33439
33436
33428
33425
33415
33432
33433
33417
33435
33425
33437
33436
33429
33423
33425
33430
33409
33415
33418
33430
33428
33390
33415
33422
33424
33428
33405
33418
33415
33423
33407
33412
33392
33418
33423
33409
33404
33403
33427
33411
33414
33409
33421
33406
33415
33415
33412
33413
33409
33399
33410
33403
33409
33402
33404
33406
33403
33400
33402
33382
33404
33407
33396
33405
33399
33403
33402
33399
33379
33407
33402
33392
33396
33372
33402
33388
33394
33380
33397
33377
33391
33383
33399
33368
33397
33381
33384
33384
33366
33391
33388
33375
33376
33382
33353
33386
33375
33379
33373
33376
33382
33367
33374
33379
33364
33383
33390
33367
33364
33373
33344
33372
33372
33349
33367
33362
33361
33369
33367
33375
33372
33374
33367
33356
33364
33340
33373
33372
33351
33357
33367
33354
33354
33355
33359
33346
33358
33351
33348
33348
33356
33343
33340
33329
33350
33347
33345
33348
33349
33335
33336
33338
33344
33332
33338
33326
33343
33335
33335
33311
33342
33309
33324
33320
33342
33341
33321
33333
33330
33338
33327
33327
33294
33333
33316
33317
33318
33327
33321
33311
33316
33311
33332
33316
33319
33319
33322
33317
33316
33315
33325
33317
33311
33300
33311
33301
33301
33297
33287
33287
33290
33284
33281
33274
33294
33287
33287
33280
33276
33287
33261
33257
33287
33273
33292
33262
33276
33287
33277
33278
33263
33295
33286
33285
33282
33280
33280
33287
33272
33294
33276
33292
33295
33303
33285
33255
33297
33250
33287
33260
33298
33287
33252
33295
33278
33277
33283
33286
33292
33277
33239
33284
33276
33274
33283
33245
33258
33272
33236
33274
33254
33259
33269
33274
33270
33258
33264
33261
33268
33252
33255
33242
33257
33258
33243
33247
33255
33263
33257
33247
33244
33261
33253
33255
33223
33255
33247
33253
33252
33254
33236
33240
33204
33250
33246
33239
33204
33246
33229
33230
33222
33238
33236
33208
33228
33231
33233
33220
33223
33218
33220
33224
33226
33227
33206
33214
33220
33216
33231
33213
33220
33191
33222
33214
33215
33220
33189
33182
33211
33218
33214
33208
33204
33220
33204
33211
33196
33213
33229
33196
33214
33210
33214
33201
33206
33207
33213
33199
33203
33181
33209
33172
33188
33196
33191
33208
33164
33191
33201
33167
33192
33207
33186
33191
33172
33204
33191
33189
33188
33192
33184
33189
33184
33196
33176
33178
33159
33180
33159
33181
33161
33189
33184
33179
33186
33162
33191
33174
33180
33164
33178
33165
33168
33151
33180
33172
33164
33168
33168
33167
33159
33144
33175
33153
33166
33153
33175
33159
33165
33159
33167
33157
33157
33156
33163
33124
33154
33135
33161
33164
33154
33154
33140
33159
33163
33143
33149
33151
33159
33157
33143
33146
33144
33153
33152
33151
33137
33136
33144
33126
33142
33148
33140
33143
33130
33139
33120
33135
33138
33136
33140
33132
33132
33137
33143
33126
33129
33135
33132
33127
33130
33135
33116
33124
33116
33132
33132
33128
33132
33136
33130
33126
33121
33115
33127
33125
33116
33113
33122
33123
33127
33117
33124
33118
33132
33126
33092
33110
33114
33110
33092
33119
33112
33115
33109
33116
33119
33102
33110
33111
33117
33098
33096
33093
33100
33106
33103
33108
33110
33103
33108
33099
33109
33075
33111
33109
33095
33098
33094
33095
33108
33092
33094
33062
33108
33089
33094
33100
33070
33099
33100
33086
33095
33069
33092
33092
33088
33089
33087
33092
33096
33077
33084
33077
33085
33092
33061
33076
33074
33079
33092
33078
33061
33088
33071
33073
33086
33087
33069
33077
33076
33083
33067
33071
33072
33074
33078
33067
33063
33065
33062
33067
33063
33064
33067
33058
33055
33036
33060
33064
33069
33060
33056
33057
33042
33062
33071
33051
33052
33031
33056
33023
33052
33060
33062
33063
33050
33054
33051
33038
33058
33057
33045
33040
33055
33046
33059
33046
33046
33017
33060
33017
33044
33045
33048
33054
33036
33044
33020
33050
33052
33038
33040
33021
33045
33034
33031
33024
33041
33044
33041
33028
33035
33012
33045
33046
33028
33039
33036
33040
33040
33027
33031
33007
33044
33026
33030
33031
33026
33029
33031
33015
33023
33031
33031
33028
32996
33031
33031
33022
33030
33030
33033
33005
33020
32996
33028
33031
33022
33023
32990
33024
33020
33013
32992
33031
33013
33022
33031
33007
33018
33023
33031
33016
32993
33031
33020
33013
33025
33010
33014
33013
33012
33027
33015
33020
33013
33020
33023
33004
33006
32988
33023
33004
33007
32993
33020
32991
33007
32983
33015
33002
33006
33006
33020
33004
33004
33016
32998
33006
32981
33007
33012
32998
32998
33005
32972
33004
33012
32996
32999
32964
33005
33007
32993
32993
32982
33004
33012
32990
32994
32982
33007
33007
32997
32988
32978
32996
33007
32988
32998
32996
33007
32985
32990
32988
33000
32989
32991
32974
32996
32995
32996
32964
33004
32987
32993
32982
32989
33007
32991
32988
32991
32990
32981
32990
32989
32997
32965
32980
32948
32983
32954
32982
32975
32988
32968
32981
32959
32990
32981
32982
32972
32987
32990
32987
32972
32978
32984
32991
32978
32980
32980
32984
32985
32975
32977
32980
32976
32991
32988
32972
32981
32974
32978
32983
32973
32972
32946
32986
32947
32967
32977
32977
32980
32981
32979
32970
32975
32973
32967
32975
32975
32972
32961
32967
32942
32973
32956
32972
32967
32975
32941
32971
32973
32972
32973
32959
32966
32967
32959
32973
32960
32970
32930
32970
32982
32960
32965
32949
32976
32938
32966
32939
32975
32938
32966
32967
32962
32970
32962
32964
32959
32978
32959
32967
32967
32971
32961
32962
32952
32977
32965
32965
32937
32972
32970
32958
32959
32948
32971
32934
32950
32955
32943
32961
32964
32946
32950
32959
32956
32964
32930
32948
32956
32933
32966
32960
32944
32949
32938
32957
32947
32957
32932
32954
32959
32951
32946
32931
32961
32959
32943
32951
32933
32964
32951
32957
32934
32967
32967
32946
32916
32951
32962
32929
32940
32950
32949
32956
32949
32942
32929
32952
32943
32947
32940
32934
32932
32922
32923
32921
32911
32942
32922
32925
32913
32906
32935
32926
32929
32917
32945
32940
32933
32916
32942
32935
32934
32925
32935
32938
32948
32940
32953
32954
32935
32952
32954
32964
32916
32925
32970
32951
32957
32966
32954
32953
32962
32952
32958
32943
32962
32944
32946
32943
32959
32943
32938
32954
32954
32953
32943
32948
32910
32959
32933
32938
32948
32943
32956
32937
32943
32938
32953
32936
32941
32940
32942
32949
32932
32943
32917
32948
32936
32933
32910
32943
32951
32933
32938
32921
32950
32945
32935
32937
32914
32938
32948
32932
32933
32940
32947
32934
32942
32926
32936
32928
32935
32948
32908
32934
32930
32900
32939
32943
32925
32932
32932
32941
32924
32936
32935
32947
32948
32929
32927
32932
32902
32949
32902
32927
32930
32903
32932
32942
32924
32932
32932
32909
32932
32900
32927
32932
32935
32939
32926
32927
32933
32933
32916
32922
32933
32903
32937
32915
32929
32927
32926
32937
32940
32935
32932
32905
32934
32935
32935
32919
32924
32924
32925
32924
32938
32901
32928
32924
32911
32935
32926
32927
32903
32938
32935
32932
32934
32921
32932
32935
32926
32925
32929
32902
32934
32935
32923
32927
32930
32910
32943
32934
32930
32927
32935
32917
32935
32930
32939
32920
32929
32929
32914
32930
32933
32927
32932
32933
32940
32926
32926
32910
32936
32927
32927
32932
32935
32934
32939
32940
32940
32930
32932
32935
32918
32920
32937
32934
32917
32932
32934
32930
32933
32908
32937
32942
32938
32933
32927
32925
32938
32924
32931
32922
32933
32938
32922
32935
32916
32943
32935
32932
32927
32916
32943
32942
32929
32934
32941
32935
32921
32932
32929
32932
32919
32928
32931
32919
32932
32943
32932
32928
32932
32920
32942
32934
32929
32935
32921
32945
32938
32926
32938
32938
32953
32934
32941
32930
32940
32931
32939
32944
32941
32949
32934
32945
32943
32951
32932
32946
32933
32954
32925
32937
32935
32948
32948
32954
32945
32941
32927
32946
32948
32942
32945
32932
32958
32933
32947
32945
32936
32945
32958
32936
32944
32944
32954
32937
32943
32946
32927
32956
32940
32950
32916
32959
32962
32950
32945
32952
32948
32945
32945
32949
32959
32945
32954
32951
32965
32948
32953
32924
32959
32964
32948
32941
32966
32943
32956
32956
32967
32950
32951
32948
32957
32966
32949
32951
32914
32959
32943
32954
32956
32966
32934
32952
32959
32936
32964
32946
32953
32962
32962
32967
32957
32964
32950
32972
32938
32956
32959
32952
32966
32971
32945
32959
32963
32967
32972
32970
32953
32964
32967
32964
32974
32957
32964
32964
32958
32961
32969
32958
32954
32967
32944
32967
32972
32959
32953
32967
32964
32958
32958
32976
32971
32977
32953
32964
32967
32969
32967
32967
32965
32963
32959
32964
32967
32972
32962
32965
32945
32968
32967
32966
32967
32967
32940
32975
32974
32963
32970
32975
32973
32973
32964
32964
32954
32979
32974
32967
32968
32972
32969
32979
32967
32964
32965
32951
32971
32977
32963
32966
32974
32967
32981
32983
32966
32969
32946
32981
32974
32962
32965
32963
32958
32974
32976
32960
32972
32972
32975
32978
32983
32970
32975
32980
32975
32980
32980
32975
32975
32976
32986
32986
32988
32988
32983
32972
32978
32977
32978
32982
32992
32965
32970
32980
32974
32988
32976
32978
32961
32983
32992
32974
32975
32969
32980
32987
32962
32976
32981
32983
32961
32985
32994
32980
32990
32967
32996
32981
32982
32956
32996
32988
32975
32977
32964
32986
32983
32982
32974
32998
32999
32983
32988
32970
33003
32987
32986
32969
32994
33001
32989
32991
32978
33002
33007
32988
32994
32969
32996
33007
32993
32992
32997
33004
32993
32998
32979
33004
32990
32991
32997
33001
32997
32998
32996
33004
32996
32996
33002
33006
32996
33002
33003
33007
33012
33004
33000
33011
32965
32997
32988
33005
32996
32998
32997
33011
32996
32997
33004
33007
32998
33007
33005
33013
33007
33001
33009
33012
32999
33002
32999
33014
33003
33009
33010
33017
33010
33006
33022
33002
33015
33016
33007
33018
33020
32999
33012
33012
33014
33015
33008
33004
33020
33010
33008
33015
33021
33025
33009
33023
33020
33006
33007
33007
33022
33015
33013
33025
33014
33020
33018
33023
33014
33014
33020
33027
33002
33014
33015
33025
33014
33020
33013
33028
33019
33022
33021
33028
33023
33021
33030
33024
33030
33035
33031
33027
33022
33018
33020
33023
33031
33007
33021
33030
33007
33028
33040
33021
33028
33031
33012
33044
33046
33028
33039
33015
33039
33032
33028
33034
33041
33025
33034
33026
33030
33026
33025
33016
33007
33021
33039
33020
33028
33012
33024
33006
33009
33039
33028
33028
33007
33062
33045
33040
33055
33027
33025
33047
33038
33047
33044
33044
33055
33062
33052
33056
33064
33068
33072
33055
33073
33068
33022
33082
33081
33066
33068
33067
33079
33048
33061
33062
33038
33068
33079
33060
33064
33039
33071
33073
33048
33070
33064
33031
33075
33081
33052
33063
33073
33065
33079
33063
33071
33062
33079
33080
33065
33071
33068
33078
33060
33065
33042
33074
33073
33069
33068
33074
33061
33064
33082
33071
33074
33079
33080
33068
33044
33076
33049
33076
33076
33060
33084
33073
33074
33076
33087
33068
33084
33064
33086
33069
33070
33071
33086
33071
33072
33078
33050
33079
33059
33087
33074
33084
33084
33087
33076
33071
33092
33073
33084
33079
33088
33077
33057
33095
33076
33081
33080
33089
33076
33081
33086
33086
33086
33086
33091
33084
33092
33089
33092
33086
33094
33072
33093
33092
33094
33067
33090
33088
33094
33093
33088
33085
33087
33082
33101
33085
33087
33071
33102
33095
33091
33090
33079
33097
33100
33082
33092
33094
33098
33110
33092
33092
33100
33094
33097
33079
33107
33090
33100
33077
33104
33093
33098
33080
33110
33101
33108
33102
33100
33112
33094
33106
33092
33108
33099
33100
33108
33096
33109
33101
33096
33097
33102
33104
33110
33102
33097
33113
33114
33105
33105
33105
33109
33105
33110
33097
33105
33114
33110
33108
33110
33110
33102
33109
33107
33115
33086
33106
33117
33116
33124
33109
33115
33096
33103
33120
33123
33106
33118
33086
33112
33113
33109
33105
33116
33115
33113
33100
33113
33127
33112
33122
33115
33119
33115
33119
33119
33118
33121
33125
33119
33118
33125
33127
33131
33120
33127
33124
33131
33121
33127
33131
33108
33128
33134
33111
33124
33131
33118
33125
33115
33124
33115
33128
33120
33124
33124
33138
33119
33136
33129
33116
33135
33134
33126
33127
33108
33127
33127
33122
33110
33140
33124
33126
33130
33141
33127
33140
33137
33143
33138
33149
33138
33146
33138
33141
33134
33148
33135
33141
33143
33148
33136
33113
33149
33132
33133
33136
33143
33135
33147
33140
33143
33135
33144
33118
33142
33146
33141
33135
33127
33146
33132
33133
33114
33149
33125
33135
33132
33143
33146
33132
33139
33133
33149
33116
33134
33141
33137
33145
33134
33135
33132
33141
33122
33137
33152
33121
33137
33141
33148
33150
33121
33137
33140
33112
33144
33148
33138
33142
33119
33145
33150
33143
33140
33140
33148
33148
33135
33140
33119
33144
33145
33135
33148
33148
33138
33140
33140
33137
33132
33137
33140
33142
33144
33138
33139
33126
33150
33124
33138
33140
33133
33152
33151
33140
33143
33120
33146
33157
33140
33135
33127
33150
33151
33140
33145
33120
33151
33154
33135
33141
33151
33125
33148
33124
33145
33127
33146
33141
33142
33143
33151
33132
33141
33116
33146
33143
33148
33142
33141
33148
33138
33147
33146
33156
33150
33142
33148
33151
33150
33140
33140
33124
33156
33156
33148
33143
33147
33148
33146
33151
33154
33146
33144
33146
33148
33153
33139
33140
33146
33149
33156
33143
33143
33149
33140
33159
33151
33142
33143
33149
33150
33139
33140
33148
33140
33148
33150
33136
33143
33126
33150
33142
33141
33143
33158
33138
33142
33144
33140
33143
33149
33148
33132
33124
33143
33138
33141
33145
33152
33140
33140
33118
33147
33129
33142
33134
33153
33143
33149
33148
33128
33148
33148
33145
33136
33146
33143
33143
33142
33151
33137
33136
33146
33126
33142
33137
33144
33135
33142
33117
33140
33132
33132
33143
33151
33135
33144
33148
33147
33128
33116
33150
33137
33124
33149
33134
33140
33138
33146
33134
33142
33149
33144
33134
33132
33150
33135
33141
33143
33151
33135
33138
33137
33145
33135
33140
33114
33138
33142
33114
33133
33126
33147
33130
33124
33144
33138
33124
33146
33141
33130
33124
33148
33129
33132
33137
33147
33140
33122
33142
33131
33139
33117
33140
33111
33136
33111
33146
33140
33147
33142
33132
33134
33124
33145
33129
33134
33133
33140
33129
33138
33124
33143
33125
33130
33130
33137
33127
33133
33140
33117
33135
33139
33137
33137
33132
33139
33132
33134
33127
33137
33132
33131
33127
33138
33128
33126
33143
33129
33138
33138
33134
33129
33127
33128
33138
33103
33134
33124
33138
33124
33129
33132
33138
33127
33129
33139
33112
33140
33127
33130
33130
33141
33124
33131
33124
33127
33126
33133
33138
33130
33132
33126
33138
33124
33127
33132
33132
33130
33128
33118
33124
33119
33135
33137
33124
33125
33127
33145
33123
33131
33125
33125
33130
33130
33124
33132
33103
33133
33124
33139
33124
33125
33130
33140
33124
33108
33128
33120
33108
33125
33124
33119
33116
33112
33116
33114
33108
33096
33101
33117
33104
33119
33095
33150
33120
33099
33099
33095
33130
33116
33107
33102
33129
33115
33132
33110
33118
33128
33119
33132
33134
33128
33140
33134
33134
33150
33125
33136
33140
33148
33153
33141
33138
33098
33137
33117
33128
33137
33140
33144
33132
33129
33132
33135
33144
33133
33139
33142
33127
33127
33129
33118
33143
33118
33117
33095
33135
33135
33122
33124
33095
33133
33116
33120
33100
33126
33134
33114
33125
33092
33126
33115
33121
33098
33127
33102
33118
33127
33124
33125
33110
33117
33095
33126
33111
33116
33103
33116
33089
33111
33116
33113
33118
33105
33109
33091
33116
33088
33108
33110
33095
33119
33111
33100
33115
33104
33111
33119
33117
33116
33116
33114
33111
33110
33090
33108
33121
33107
33111
33108
33106
33112
33092
33102
33107
33109
33114
33102
33108
33110
33106
33101
33108
33094
33103
33093
33098
33101
33103
33106
33095
33092
33100
33094
33097
33104
33095
33100
33091
33104
33081
33092
33103
33094
33097
33092
33090
33091
33096
33100
33090
33092
33076
33094
33100
33087
33099
33106
33098
33090
33090
33089
33086
33101
33104
33086
33093
33092
33094
33090
33092
33084
33090
33093
33093
33098
33080
33087
33088
33090
33087
33094
33084
33093
33064
33081
33082
33087
33095
33076
33087
33084
33092
33078
33077
33088
33092
33095
33092
33090
33071
33084
33076
33082
33076
33076
33082
33087
33090
33079
33079
33082
33076
33074
33078
33080
33065
33079
33077
33076
33077
33072
33069
33076
33080
33065
33064
33074
33075
33071
33080
33078
33072
33067
33077
33074
33081
33072
33079
33065
33076
33067
33053
33060
33081
33071
33070
33066
33061
33063
33070
33063
33063
33065
33052
33065
33056
33055
33068
33069
33062
33062
33062
33055
33062
33067
33054
33062
33047
33065
33066
33053
33056
33063
33050
33063
33054
33062
33048
33048
33061
33040
33063
33045
33055
33042
33061
33063
33053
33056
33058
33060
33054
33047
33060
33054
33047
33031
33060
33057
33039
33046
33044
33048
33052
33056
33037
33047
33052
33036
33048
33057
33046
33049
33054
33056
33047
33047
33044
33052
33034
33040
33037
33050
33034
33034
33019
33041
33035
33031
33044
33042
33048
33039
33037
33012
33038
33012
33026
33038
33044
33046
33030
33030
33031
33039
33041
33024
33031
33026
33037
33029
33028
33031
33028
33031
33019
33027
33029
33038
33018
33022
33003
33026
33017
33022
33024
33030
33015
33021
33028
33016
33007
33023
33015
33016
33014
33023
33012
33012
32995
33025
33005
33013
33017
33020
33019
33008
33015
33014
33023
33007
33012
33017
33008
33008
33010
33012
33000
33009
33015
33021
33007
33007
33010
33004
32999
32990
33012
33007
33000
32998
33012
33001
32998
33005
33013
32996
32999
32999
33011
33000
32999
32998
32998
32991
32996
32999
32996
33003
32988
32996
32999
32991
32999
32988
32999
32998
32988
32994
32999
32983
32980
32994
32990
32973
32990
32980
32986
32995
32976
32970
32988
32981
32967
32992
32981
32980
32967
32983
32988
32980
32982
32966
32978
32965
32977
32965
32981
32967
32976
32963
32981
32967
32967
32980
32982
32974
32975
32971
32979
32964
32974
32975
32972
32966
32960
32973
32967
32961
32970
32970
32964
32967
32964
32958
32958
32965
32975
32962
32968
32966
32958
32942
32965
32940
32956
32960
32964
32951
32949
32956
32961
32938
32956
32956
32955
32960
32954
32952
32945
32965
32948
32952
32950
32940
32946
32948
32948
32943
32941
32951
32947
32948
32935
32949
32936
32943
32945
32950
32936
32941
32943
32950
32932
32936
32940
32942
32932
32937
32940
32929
32926
32940
32927
32930
32930
32935
32935
32921
32933
32911
32928
32927
32911
32935
32932
32914
32927
32932
32924
32935
32935
32924
32925
32926
32928
32926
32924
32918
32921
32919
32908
32919
32927
32921
32917
32914
32922
32910
32913
32915
32918
32927
32912
32912
32903
32893
32916
32918
32910
32912
32908
32914
32906
32911
32902
32913
32903
32903
32909
32903
32901
32906
32903
32906
32885
32916
32913
32900
32903
32889
32903
32908
32903
32903
32903
32887
32900
32903
32900
32896
32900
32898
32902
32878
32897
32892
32876
32892
32902
32889
32890
32876
32893
32880
32892
32879
32892
32898
32887
32881
32886
32881
32885
32882
32885
32879
32868
32883
32875
32876
32870
32878
32868
32884
32875
32882
32879
32867
32884
32871
32869
32879
32879
32870
32863
32875
32878
32871
32868
32870
32877
32868
32863
32871
32860
32858
32863
32870
32858
32860
32861
32859
32868
32863
32860
32848
32861
32856
32859
32850
32862
32833
32852
32837
32861
32861
32847
32851
32850
32839
32847
32841
32849
32841
32852
32852
32833
32852
32836
32855
32816
32847
32838
32845
32855
32847
32836
32844
32845
32842
32844
32847
32842
32839
32831
32836
32831
32836
32843
32831
32835
32812
32832
32833
32833
32836
32828
32844
32831
32831
32832
32814
32839
32839
32820
32825
32820
32822
32820
32815
32815
32808
32807
32807
32796
32823
32807
32799
32798
32786
32816
32813
32813
32788
32790
32834
32820
32807
32822
32797
32799
32808
32810
32807
32805
32820
32807
32814
32815
32822
32817
32822
32818
32836
32807
32828
32821
32831
32807
32811
32807
32820
32806
32806
32810
32789
32804
32769
32815
32806
32796
32794
32808
32793
32793
32769
32804
32805
32796
32792
32775
32797
32800
32790
32793
32772
32804
32801
32786
32788
32785
32791
32791
32791
32771
32798
32796
32775
32775
32757
32786
32783
32785
32771
32775
32784
32785
32775
32775
32775
32793
32769
32772
32775
32775
32766
32768
32765
32765
32772
32758
32756
32751
32761
32772
32758
32764
32769
32728
32753
32745
32759
32748
32746
32747
32765
32739
32749
32739
32748
32712
32739
32745
32750
32751
32745
32745
32734
32748
32741
32740
32730
32749
32748
32732
32743
32720
32743
32729
32735
32727
32743
32726
32732
32734
32738
32712
32736
32730
32734
32714
32736
32724
32728
32711
32735
32727
32726
32727
32732
32735
32727
32722
32703
32719
32712
32715
32711
32718
32724
32711
32717
32716
32720
32720
32711
32717
32717
32720
32703
32705
32716
32711
32702
32705
32713
32679
32701
32692
32710
32703
32707
32705
32708
32695
32703
32698
32708
32692
32690
32706
32694
32692
32699
32669
32692
32680
32694
32676
32684
32678
32691
32677
32688
32682
32700
32685
32687
32680
32699
32676
32676
32684
32687
32676
32678
32678
32685
32677
32678
32679
32684
32672
32679
32663
32680
32667
32670
32673
32671
32662
32663
32656
32669
32665
32664
32650
32668
32668
32658
32660
32666
32670
32659
32659
32667
32657
32660
32636
32656
32660
32646
32652
32652
32633
32647
32653
32652
32646
32646
32651
32647
32648
32647
32633
32647
32636
32645
32637
32649
32633
32639
32623
32643
32636
32636
32644
32639
32636
32635
32636
32636
32641
32631
32636
32631
32628
32620
32631
32633
32620
32621
32627
32632
32625
32620
32625
32622
32623
32625
32624
32618
32628
32624
32607
32628
32615
32597
32623
32614
32602
32620
32612
32598
32621
32604
32596
32590
32616
32602
32609
32615
32605
32604
32605
32606
32593
32604
32598
32609
32606
32590
32604
32596
32598
32591
32594
32590
32582
32601
32589
32596
32602
32600
32586
32580
32598
32595
32588
32596
32586
32589
32586
32596
32572
32584
32591
32593
32578
32577
32580
32578
32591
32577
32577
32576
32577
32583
32561
32577
32576
32558
32570
32567
32575
32564
32568
32571
32562
32571
32564
32569
32559
32567
32568
32538
32554
32551
32561
32554
32563
32554
32541
32553
32566
32544
32553
32554
32546
32554
32554
32546
32548
32549
32548
32546
32529
32549
32552
32540
32534
32535
32540
32538
32542
32540
32532
32533
32534
32548
32528
32535
32518
32532
32524
32529
32518
32530
32519
32526
32514
32538
32525
32522
32522
32531
32519
32519
32525
32532
32519
32519
32522
32522
32508
32519
32514
32518
32529
32511
32514
32496
32519
32505
32519
32516
32510
32502
32503
32508
32503
32501
32499
32514
32503
32486
32503
32495
32503
32494
32503
32492
32500
32501
32498
32493
32494
32505
32468
32484
32481
32491
32485
32486
32486
32494
32485
32484
32492
32494
32484
32478
32482
32483
32474
32474
32471
32482
32474
32460
32479
32476
32470
32468
32460
32479
32484
32469
32476
32476
32481
32471
32474
32464
32469
32459
32460
32462
32460
32456
32469
32470
32456
32456
32460
32454
32454
32460
32438
32446
32456
32452
32455
32455
32442
32456
32453
32449
32446
32454
32443
32444
32454
32452
32434
32439
32454
32438
32439
32447
32442
32441
32447
32444
32439
32433
32447
32428
32438
32446
32433
32434
32420
32442
32442
32429
32424
32426
32430
32422
32428
32420
32431
32410
32422
32422
32423
32426
32420
32412
32423
32406
32422
32409
32410
32415
32419
32423
32407
32414
32415
32398
32407
32391
32413
32401
32404
32407
32410
32402
32408
32407
32406
32420
32403
32410
32394
32405
32391
32407
32411
32388
32396
32392
32401
32389
32377
32396
32391
32402
32390
32399
32397
32386
32396
32391
32388
32395
32388
32384
32385
32394
32369
32389
32383
32367
32389
32398
32378
32372
32367
32385
32375
32375
32374
32380
32387
32375
32377
32378
32364
32380
32382
32365
32366
32368
32351
32374
32375
32356
32360
32367
32376
32364
32364
32375
32364
32352
32361
32345
32364
32372
32352
32358
32348
32364
32350
32350
32347
32359
32343
32354
32357
32359
32349
32329
32348
32351
32350
32346
32351
32340
32343
32348
32345
32357
32338
32343
32342
32345
32340
32335
32323
32343
32313
32326
32333
32324
32333
32320
32333
32327
32331
32325
32331
32330
32342
32324
32324
32317
32334
32335
32335
32325
32323
32320
32319
32324
32326
32327
32295
32321
32327
32324
32332
32321
32320
32321
32324
32334
32306
32315
32317
32324
32330
32313
32320
32316
32311
32324
32320
32305
32302
32314
32308
32319
32296
32302
32308
32308
32305
32293
32314
32274
32300
32310
32309
32310
32295
32303
32298
32308
32298
32289
32295
32268
32305
32297
32280
32292
32291
32295
32299
32292
32286
32287
32252
32299
32281
32287
32284
32290
32292
32287
32283
32281
32287
32297
32281
32289
32255
32294
32300
32284
32274
32284
32247
32289
32292
32295
32271
32270
32274
32277
32263
32263
32238
32276
32255
32261
32260
32262
32247
32241
32244
32238
32255
32242
32238
32249
32247
32231
32250
32236
32229
32255
32254
32234
32250
32244
32240
32255
32248
32254
32263
32255
32263
32262
32277
32238
32263
32234
32283
32263
32263
32207
32277
32263
32263
32257
32274
32228
32263
32223
32274
32259
32196
32276
32253
32255
32206
32268
32255
32252
32256
32263
32249
32252
32230
32261
32244
32253
32212
32260
32239
32252
32244
32258
32245
32247
32226
32252
32226
32231
32242
32231
32249
32227
32234
32206
32248
32233
32236
32196
32244
32247
32234
32225
32168
32241
32215
32226
32204
32236
32224
32228
32174
32239
32238
32218
32224
32182
32234
32212
32220
32223
32191
32239
32222
32215
32162
32244
32220
32215
32169
32231
32228
32212
32215
32176
32234
32221
32220
32208
32206
32234
32238
32208
32215
32220
32154
32229
32229
32191
32215
32219
32142
32229
32196
32204
32168
32222
32206
32208
32217
32206
32226
32201
32214
32199
32228
32199
32208
32191
32199
32216
32196
32196
32180
32212
32182
32211
32143
32216
32205
32196
32188
32203
32214
32196
32138
32209
32190
32199
32196
32191
32199
32211
32191
32125
32212
32199
32188
32136
32140
32143
32135
32200
32211
32188
32133
32203
32185
32188
32167
32203
32187
32180
32199
32194
32180
32167
32199
32179
32180
32122
32196
32180
32180
32180
32157
32180
32111
32194
32196
32178
32175
32180
32124
32174
32115
32195
32169
32181
32181
32191
32173
32174
32161
32191
32167
32117
32110
32191
32166
32172
32108
32183
32158
32167
32177
32167
32189
32170
32168
32110
32180
32148
32159
32170
32174
32186
32161
32168
32153
32182
32156
32162
32172
32144
32183
32164
32168
32111
32174
32158
32155
32149
32164
32175
32159
32102
32175
32156
32164
32164
32177
32156
32168
32151
32173
32156
32164
32163
32175
32159
32161
32162
32171
32156
32166
32166
32156
32154
32120
32171
32151
32150
32159
32127
32173
32154
32164
32123
32175
32150
32158
32167
32155
32157
32175
32118
32148
32167
32116
32168
32144
32143
32111
32165
32172
32154
32156
32095
32173
32149
32143
32153
32157
32108
32148
32094
32166
32135
32151
32081
32159
32164
32142
32143
32078
32151
32158
32135
32140
32070
32148
32164
32132
32142
32069
32151
32135
32135
32085
32103
32154
32084
32126
32068
32149
32128
32138
32119
32156
32133
32137
32116
32151
32127
32134
32137
32126
32141
32134
32135
32081
32145
32122
32124
32133
32107
32148
32133
32126
32088
32126
32141
32095
32125
32132
32109
32140
32124
32117
32133
32100
32146
32103
32119
32126
32098
32134
32135
32135
32138
32091
32117
32118
32121
32061
32120
32135
32112
32109
32052
32124
32116
32114
32071
32132
32111
32111
32068
32130
32119
32119
32114
32135
32113
32070
32132
32111
32077
32124
32074
32117
32062
32132
32111
32119
32117
32129
32103
32084
32118
32090
32108
32065
32126
32108
32111
32087
32113
32121
32120
32124
32102
32103
32111
32076
32110
32118
32098
32105
32096
32117
32103
32100
32060
32114
32117
32092
32094
32102
32054
32111
32110
32095
32103
32090
32110
32101
32097
32092
32103
32109
32095
32091
32085
32101
32093
32089
32059
32103
32071
32094
32072
32102
32088
32095
32092
32100
32095
32091
32094
32100
32085
32092
32084
32096
32081
32080
32084
32049
32101
32095
32086
32094
32077
32088
32084
32102
32086
32086
32077
32093
32078
32087
32060
32089
32093
32076
32084
32091
32091
32077
32085
32084
32091
32059
32076
32074
32084
32087
32078
32069
32086
32071
32084
32085
32088
32079
32081
32090
32077
32086
32088
32055
32082
32082
32087
32071
32076
32090
32079
32071
32080
32076
32078
32067
32086
32061
32072
32075
32085
32074
32087
32092
32065
32079
32066
32087
32067
32072
32071
32077
32074
32077
32076
32084
32071
32078
32070
32077
32068
32078
32059
32076
32077
32074
32074
32085
32069
32076
32079
32084
32075
32075
32075
32084
32077
32074
32071
32077
32076
32079
32089
32073
32060
32082
32078
32062
32087
32072
32076
32084
32076
32072
32068
32087
32074
32076
32082
32084
32077
32078
32086
32089
32080
32081
32077
32081
32074
32082
32078
32084
32084
32079
32079
32079
32091
32087
32087
32076
32085
32079
32080
32090
32085
32087
32082
32083
32084
32080
32091
32085
32087
32084
32087
32082
32077
32091
32085
32086
32082
32085
32079
32090
32061
32081
32076
32095
32068
32082
32084
32085
32090
32079
32085
32087
32086
32086
32088
32087
32082
32087
32095
32087
32094
32087
32093
32095
32098
32092
32097
32094
32095
32093
32096
32099
32096
32094
32095
32097
32092
32093
32100
32100
32096
32101
32098
32095
32103
32108
32103
32090
32092
32096
32102
32100
32097
32095
32097
32100
32095
32098
32100
32095
32091
32101
32103
32107
32103
32102
32103
32102
32100
32107
32093
32102
32102
32094
32105
32106
32098
32101
32096
32099
32106
32104
32097
32102
32108
32103
32116
32107
32102
32109
32105
32104
32103
32106
32113
32100
32108
32103
32103
32113
32109
32102
32103
32105
32111
32104
32114
32109
32111
32110
32117
32106
32109
32085
32112
32113
32103
32116
32116
32107
32123
32117
32109
32111
32119
32118
32107
32122
32119
32108
32119
32108
32111
32119
32114
32119
32114
32127
32125
32119
32131
32123
32127
32117
32132
32125
32133
32131
32116
32135
32127
32119
32132
32119
32112
32115
32127
32122
32118
32128
32135
32119
32134
32135
32126
32133
32132
32132
32134
32134
32126
32134
32142
32127
32142
32142
32120
32138
32138
32126
32147
32150
32124
32163
32135
32119
32228
32150
32133
32114
32147
32130
32214
32155
32137
32127
32167
32172
32128
32188
32156
32142
32177
32167
32159
32145
32185
32172
32172
32159
32175
32167
32163
32159
32164
32170
32167
32165
32167
32161
32167
32164
32166
32169
32165
32180
32167
32164
32175
32167
32175
32167
32163
32170
32167
32172
32170
32166
32164
32172
32167
32175
32162
32166
32177
32172
32178
32162
32162
32180
32174
32174
32169
32181
32187
32179
32167
32178
32180
32177
32188
32177
32175
32196
32183
32197
32180
32204
32187
32188
32175
32202
32188
32187
32180
32180
32169
32181
32172
32174
32202
32197
32196
32212
32183
32173
32215
32190
32183
32223
32190
32182
32260
32200
32218
32174
32223
32196
32197
32180
32220
32200
32193
32175
32229
32224
32176
32225
32224
32180
32219
32229
32183
32242
32207
32196
32195
32223
32223
32183
32233
32236
32189
32241
32223
32199
32263
32215
32198
32244
32215
32199
32198
32239
32243
32203
32303
32232
32220
32223
32204
32271
32231
32246
32212
32351
32236
32252
32212
32271
32238
32247
32212
32210
32258
32234
32252
32216
32217
32263
32248
32255
32228
32223
32263
32254
32257
32222
32224
32263
32252
32257
32228
32290
32255
32270
32231
32276
32247
32239
32230
32276
32254
32262
32234
32297
32272
32253
32258
32236
32303
32276
32263
32274
32237
32285
32274
32260
32245
32290
32263
32250
32295
32263
32250
32291
32274
32255
32288
32300
32262
32284
32284
32262
32282
32276
32256
32320
32295
32294
32263
32332
32296
32296
32271
32298
32285
32278
32310
32292
32284
32278
32306
32308
32276
32327
32301
32295
32283
32308
32296
32292
32325
32303
32304
32295
32320
32316
32308
32311
32290
32295
32318
32302
32292
32324
32308
32294
32342
32322
32323
32307
32324
32328
32296
32322
32332
32300
32333
32322
32308
32348
32326
32330
32317
32335
32326
32322
32318
32337
32341
32322
32351
32335
32338
32326
32346
32335
32321
32347
32351
32335
32345
32340
32359
32341
32332
32343
32352
32336
32343
32355
32359
32346
32361
32349
32349
32340
32359
32351
32359
32351
32365
32359
32356
32365
32359
32356
32367
32372
32362
32370
32367
32367
32364
32372
32375
32374
32378
32374
32373
32379
32389
32377
32377
32383
32378
32379
32380
32380
32389
32380
32389
32378
32386
32391
32388
32389
32388
32391
32390
32397
32391
32393
32394
32393
32398
32399
32396
32389
32396
32404
32407
32403
32404
32409
32397
32407
32405
32411
32412
32415
32418
32412
32414
32406
32419
32420
32418
32419
32428
32428
32420
32423
32423
32422
32428
32428
32426
32423
32431
32439
32426
32435
32436
32435
32441
32443
32434
32447
32444
32446
32446
32447
32437
32440
32443
32448
32448
32444
32448
32446
32446
32454
32452
32455
32454
32455
32460
32457
32461
32461
32471
32463
32471
32470
32469
32477
32471
32466
32474
32468
32468
32472
32481
32471
32476
32474
32474
32468
32479
32473
32478
32486
32454
32481
32483
32487
32486
32482
32492
32487
32487
32488
32494
32489
32492
32500
32502
32498
32503
32508
32511
32500
32506
32503
32515
32514
32509
32511
32513
32514
32519
32513
32519
32520
32519
32519
32514
32511
32519
32519
32527
32516
32529
32524
32524
32526
32519
32519
32516
32527
32525
32522
32522
32524
32533
32528
32528
32530
32535
32538
32527
32537
32538
32528
32536
32516
32542
32540
32537
32540
32543
32551
32555
32548
32558
32551
32550
32551
32553
32556
32550
32556
32553
32558
32556
32557
32558
32557
32559
32565
32567
32567
32574
32567
32573
32577
32580
32572
32581
32573
32576
32574
32579
32576
32574
32575
32580
32591
32576
32585
32578
32583
32575
32578
32588
32593
32585
32583
32599
32593
32591
32594
32603
32594
32596
32597
32603
32590
32599
32602
32605
32591
32599
32589
32615
32601
32584
32615
32596
32602
32607
32611
32604
32612
32612
32616
32611
32609
32615
32614
32608
32612
32622
32620
32615
32623
32629
32619
32635
32624
32628
32628
32629
32614
32629
32623
32645
32628
32637
32636
32629
32636
32644
32631
32646
32642
32638
32644
32640
32644
32642
32644
32640
32629
32655
32644
32646
32652
32644
32652
32650
32644
32655
32653
32655
32652
32646
32667
32650
32661
32647
32647
32671
32663
32656
32639
32670
32661
32663
32669
32656
32668
32671
32663
32662
32668
32667
32670
32676
32664
32679
32674
32680
32683
32672
32679
32682
32689
32676
32684
32676
32695
32683
32693
32671
32685
32676
32695
32684
32692
32705
32692
32699
32701
32706
32686
32698
32698
32705
32695
32706
32706
32703
32706
32703
32692
32702
32709
32708
32700
32678
32719
32703
32704
32704
32717
32683
32703
32698
32713
32702
32708
32710
32716
32711
32710
32726
32714
32722
32724
32715
32718
32716
32701
32716
32727
32716
32717
32722
32714
32725
32723
32735
32722
32726
32716
32724
32740
32730
32695
32736
32731
32743
32722
32727
32732
32725
32737
32735
32724
32735
32743
32732
32741
32740
32733
32743
32747
32715
32735
32731
32754
32738
32712
32754
32738
32726
32751
32742
32749
32755
32743
32749
32757
32750
32753
32754
32736
32751
32745
32764
32749
32719
32766
32757
32765
32760
32772
32748
32758
32765
32751
32762
32761
32752
32764
32768
32753
32757
32772
32759
32771
32775
32767
32773
32774
32769
32768
32759
32787
32765
32737
32783
32770
32770
32749
32791
32772
32729
32799
32783
32788
32788
32778
32775
32741
32794
32767
32775
32787
32751
32804
32769
32789
32729
32800
32775
32793
32804
32775
32799
32799
32785
32782
32804
32788
32785
32767
32790
32775
32775
32775
32774
32775
32770
32766
32758
32766
32770
32762
32775
32768
32764
32782
32775
32766
32786
32784
32772
32791
32783
32782
32791
32792
32780
32808
32796
32804
32824
32828
32807
32764
32828
32812
32828
32807
32796
32820
32802
32836
32812
32755
32831
32831
32816
32817
32747
32835
32808
32818
32759
32836
32820
32826
32833
32818
32827
32834
32815
32793
32842
32822
32765
32837
32817
32787
32842
32818
32807
32835
32811
32827
32772
32836
32818
32821
32835
32814
32821
32815
32838
32821
32813
32838
32821
32775
32839
32823
32786
32844
32820
32834
32840
32799
32820
32804
32836
32828
32824
32839
32814
32816
32772
32838
32822
32828
32825
32846
32828
32828
32818
32828
32821
32846
32826
32807
32838
32826
32826
32833
32829
32837
32842
32839
32822
32789
32851
32825
32796
32847
32831
32792
32840
32823
32839
32823
32835
32837
32841
32825
32791
32849
32829
32842
32835
32837
32842
32832
32830
32837
32852
32833
32839
32847
32830
32827
32855
32833
32841
32841
32828
32831
32836
32846
32831
32820
32852
32839
32836
32852
32839
32817
32852
32837
32817
32844
32836
32832
32842
32835
32821
32844
32832
32833
32833
32846
32835
32837
32811
32852
32836
32840
32846
32844
32832
32845
32837
32848
32836
32839
32831
32843
32820
32836
32836
32844
32847
32828
32839
32836
32842
32836
32837
32847
32839
32836
32836
32852
32835
32836
32845
32842
32834
32838
32849
32836
32841
32833
32845
32847
32828
32843
32838
32822
32837
32841
32836
32812
32809
32823
32822
32849
32831
32805
32843
32822
32839
32839
32844
32831
32832
32817
32842
32843
32838
32841
32846
32832
32806
32847
32835
32812
32839
32829
32839
32838
32829
32834
32842
32809
32836
32847
32835
32823
32844
32837
32834
32847
32836
32831
32845
32837
32844
32832
32828
32852
32832
32820
32841
32834
32813
32852
32839
32845
32831
32836
32846
32829
32836
32845
32833
32837
32839
32847
32836
32815
32849
32828
32838
32847
32837
32831
32830
32852
32828
32836
32812
32832
32839
32834
32807
32850
32844
32847
32832
32836
32841
32833
32837
32850
32828
32833
32837
32831
32839
32840
32847
32832
32838
32842
32820
32838
32833
32844
32828
32815
32839
32829
32794
32844
32829
32834
32816
32844
32831
32833
32836
32822
32837
32836
32807
32836
32820
32841
32827
32826
32833
32813
32828
32830
32844
32829
32798
32831
32818
32804
32839
32813
32793
32828
32829
32814
32800
32816
32831
32839
32809
32823
32823
32814
32825
32822
32817
32820
32818
32822
32815
32814
32798
32829
32812
32816
32820
32826
32814
32815
32821
32831
32814
32792
32823
32814
32818
32818
32809
32815
32814
32820
32813
32822
32806
32796
32820
32807
32815
32802
32790
32822
32814
32815
32813
32823
32804
32802
32815
32815
32807
32788
32816
32807
32816
32804
32808
32800
32793
32797
32808
32807
32793
32809
32804
32812
32804
32775
32812
32798
32807
32810
32798
32797
32800
32785
32799
32788
32804
32791
32796
32791
32813
32795
32773
32810
32799
32790
32806
32791
32798
32799
32790
32798
32799
32789
32791
32794
32790
32789
32801
32790
32772
32796
32786
32789
32797
32788
32765
32796
32783
32788
32790
32775
32783
32789
32794
32789
32782
32788
32775
32783
32787
32772
32783
32788
32774
32775
32774
32784
32767
32775
32775
32771
32775
32783
32775
32775
32775
32775
32767
32772
32775
32764
32768
32772
32749
32772
32775
32757
32773
32775
32775
32767
32746
32775
32766
32766
32775
32767
32766
32764
32773
32765
32741
32775
32764
32743
32770
32754
32764
32765
32756
32755
32742
32765
32750
32767
32766
32759
32756
32756
32764
32754
32759
32766
32734
32754
32735
32760
32748
32754
32759
32740
32751
32759
32743
32753
32765
32740
32748
32746
32759
32740
32743
32751
32740
32756
32750
32743
32742
32745
32742
32743
32750
32736
32738
32731
32736
32742
32738
32740
32741
32732
32732
32742
32733
32732
32740
32740
32733
32737
32736
32734
32723
32742
32730
32736
32728
32731
32734
32712
32726
32732
32713
32725
32726
32709
32718
32722
32727
32718
32707
32726
32714
32731
32726
32728
32711
32717
32722
32731
32712
32727
32725
32721
32714
32700
32727
32718
32704
32710
32719
32703
32711
32698
32718
32700
32700
32703
32715
32700
32711
32699
32712
32709
32700
32710
32719
32702
32705
32702
32689
32702
32693
32708
32695
32698
32702
32706
32695
32692
32700
32689
32698
32695
32702
32693
32687
32692
32684
32689
32694
32689
32682
32692
32679
32680
32694
32685
32663
32687
32679
32683
32689
32680
32676
32686
32679
32684
32679
32678
32690
32669
32657
32679
32674
32674
32687
32668
32678
32680
32682
32663
32669
32674
32666
32671
32676
32669
32669
32679
32669
32668
32677
32672
32672
32663
32668
32665
32666
32661
32671
32656
32668
32663
32670
32665
32648
32670
32657
32661
32660
32637
32660
32658
32645
32653
32662
32647
32647
32651
32638
32651
32646
32647
32647
32644
32649
32647
32647
32652
32645
32646
32646
32640
32645
32641
32646
32628
32637
32627
32645
32637
32639
32639
32647
32636
32639
32628
32635
32640
32630
32618
32640
32624
32631
32633
32631
32633
32639
32620
32631
32632
32620
32629
32628
32616
32628
32630
32617
32613
32633
32615
32609
32620
32615
32590
32627
32606
32614
32615
32610
32596
32617
32614
32608
32614
32610
32610
32612
32608
32613
32607
32612
32605
32611
32607
32598
32603
32597
32612
32593
32602
32610
32596
32606
32601
32615
32599
32609
32610
32588
32599
32604
32584
32592
32602
32582
32588
32594
32582
32581
32580
32583
32583
32581
32574
32578
32583
32568
32574
32576
32553
32584
32568
32548
32594
32574
32588
32548
32587
32567
32556
32585
32574
32559
32577
32567
32598
32573
32573
32580
32574
32581
32576
32583
32583
32559
32596
32577
32584
32586
32589
32583
32584
32575
32574
32586
32557
32573
32574
32557
32567
32572
32540
32560
32559
32568
32556
32564
32565
32577
32556
32559
32566
32548
32558
32556
32557
32548
32553
32558
32559
32550
32550
32557
32550
32550
32553
32537
32543
32551
32548
32544
32539
32536
32537
32527
32515
32542
32535
32534
32519
32535
32541
32519
32534
32525
32532
32535
32519
32498
32536
32527
32535
32516
32522
32527
32518
32497
32531
32512
32511
32508
32513
32502
32519
32504
32486
32519
32510
32516
32514
32519
32508
32511
32516
32508
32519
32502
32512
32513
32505
32485
32514
32497
32503
32492
32500
32500
32495
32492
32498
32494
32489
32498
32484
32495
32486
32495
32490
32480
32480
32490
32487
32492
32476
32461
32484
32480
32479
32471
32463
32481
32479
32478
32476
32484
32461
32463
32482
32466
32469
32474
32466
32465
32466
32460
32455
32469
32456
32444
32468
32465
32468
32471
32455
32461
32457
32452
32458
32453
32441
32454
32452
32443
32452
32454
32444
32452
32454
32447
32452
32452
32446
32452
32447
32439
32423
32445
32439
32433
32443
32437
32436
32432
32436
32428
32436
32439
32436
32431
32422
32432
32429
32436
32426
32423
32423
32430
32419
32421
32424
32425
32422
32427
32422
32405
32414
32408
32424
32422
32422
32410
32419
32417
32408
32413
32412
32412
32407
32401
32415
32404
32396
32399
32406
32405
32397
32407
32396
32402
32396
32406
32396
32391
32401
32393
32390
32399
32390
32391
32394
32384
32380
32391
32390
32385
32391
32386
32385
32391
32380
32387
32384
32390
32382
32380
32388
32377
32388
32382
32375
32375
32383
32355
32374
32377
32378
32372
32373
32364
32383
32373
32372
32375
32380
32365
32359
32375
32365
32348
32379
32348
32359
32350
32367
32359
32361
32363
32359
32354
32364
32350
32360
32335
32358
32360
32358
32356
32358
32359
32349
32351
32355
32358
32346
32351
32345
32350
32345
32346
32335
32348
32342
32332
32348
32344
32335
32346
32334
32340
32332
32335
32328
32327
32340
32306
32326
32334
32316
32329
32327
32335
32321
32324
32334
32321
32329
32297
32311
32321
32333
32318
32324
32324
32316
32320
32316
32327
32319
32316
32319
32325
32314
32325
32314
32292
32312
32316
32317
32303
32308
32306
32311
32293
32300
32302
32306
32297
32300
32303
32303
32298
32297
32298
32287
32295
32289
32300
32287
32292
32297
32295
32287
32292
32292
32261
32284
32273
32292
32281
32273
32286
32277
32285
32276
32260
32276
32276
32260
32274
32275
32276
32263
32257
32273
32258
32263
32271
32261
32262
32269
32262
32263
32252
32263
32263
32252
32260
32250
32239
32257
32248
32255
32255
32230
32257
32247
32252
32246
32250
32248
32239
32244
32247
32253
32236
32239
32237
32247
32244
32239
32244
32232
32241
32231
32239
32228
32216
32215
32219
32227
32205
32220
32226
32231
32228
32230
32223
32230
32223
32228
32223
32222
32215
32231
32217
32222
32222
32225
32218
32224
32218
32230
32221
32223
32219
32224
32214
32222
32212
32213
32212
32210
32222
32210
32206
32217
32201
32196
32210
32201
32191
32215
32205
32201
32215
32213
32208
32206
32211
32206
32207
32192
32209
32199
32199
32185
32207
32206
32203
32206
32198
32186
32204
32196
32200
32190
32199
32193
32189
32184
32183
32185
32177
32196
32183
32193
32189
32186
32188
32191
32183
32194
32186
32191
32183
32182
32184
32180
32180
32180
32184
32175
32176
32175
32172
32175
32183
32180
32167
32177
32165
32167
32175
32164
32170
32162
32166
32158
32159
32167
32158
32164
32160
32150
32156
32156
32148
32148
32156
32156
32159
32151
32150
32148
32145
32150
32149
32145
32132
32137
32148
32140
32139
32133
32132
32136
32138
32117
32137
32135
32128
32125
32127
32135
32126
32122
32121
32119
32127
32121
32119
32119
32117
32119
32110
32109
32106
32104
32102
32106
32108
32103
32111
32103
32100
32101
32103
32102
32101
32095
32086
32100
32089
32077
32095
32088
32095
32094
32093
32087
32086
32087
32087
32085
32078
32075
32087
32075
32081
32074
32067
32064
32078
32074
32070
32071
32070
32070
32055
32070
32053
32071
32062
32062
32068
32054
32059
32055
32046
32049
32052
32050
32040
32039
32046
32040
32036
32052
32039
32035
32042
32036
32038
32044
32006
32038
32018
32039
32025
32036
32039
32020
32012
32022
32023
32026
32008
32015
32028
32021
32007
32026
32019
32013
32021
32010
32019
32005
32007
32005
31997
31993
32006
32001
32002
32007
31991
32001
31994
31996
32000
31994
31996
31980
31996
31985
31991
31996
31991
31981
31985
31986
31983
31972
31987
31978
31980
31985
31975
31979
31977
31975
31975
31974
31956
31969
31964
31965
31956
31951
31951
31969
31959
31951
31961
31964
31954
31956
31962
31951
31953
31955
31943
31947
31948
31934
31940
31942
31942
31943
31937
31939
31938
31922
31932
31942
31922
31928
31934
31921
31935
31933
31925
31931
31930
31930
31934
31919
31927
31924
31918
31921
31916
31918
31902
31919
31910
31911
31910
31905
31912
31916
31910
31911
31911
31897
31887
31903
31905
31903
31883
31905
31907
31894
31904
31900
31882
31905
31893
31893
31900
31894
31890
31901
31888
31884
31884
31876
31881
31873
31876
31862
31868
31869
31862
31868
31867
31872
31880
31884
31850
31860
31844
31920
31876
31879
31846
31884
31882
31847
31887
31862
31853
31894
31864
31864
31868
31872
31870
31871
31876
31873
31876
31868
31873
31877
31860
31857
31870
31860
31860
31870
31847
31857
31862
31846
31852
31854
31820
31855
31828
31854
31847
31841
31835
31846
31842
31837
31832
31847
31831
31825
31845
31823
31828
31830
31836
31831
31820
31834
31805
31837
31820
31824
31826
31823
31814
31821
31810
31828
31802
31821
31791
31831
31814
31816
31820
31822
31814
31788
31818
31804
31809
31804
31807
31815
31804
31791
31801
31808
31802
31791
31799
31786
31794
31793
31802
31791
31792
31799
31790
31781
31799
31788
31788
31794
31776
31791
31775
31781
31789
31768
31751
31783
31774
31774
31780
31772
31748
31775
31769
31770
31764
31783
31767
31770
31772
31770
31765
31743
31767
31764
31770
31751
31762
31762
31760
31765
31750
31750
31751
31751
31750
31729
31745
31750
31742
31746
31724
31749
31747
31735
31740
31741
31732
31735
31740
31714
31735
31738
31726
31735
31742
31731
31735
31732
31721
31733
31735
31716
31720
31719
31721
31722
31710
31720
31721
31714
31717
31717
31713
31720
31727
31714
31711
31709
31713
31703
31710
31706
31695
31700
31697
31703
31707
31695
31691
31703
31695
31695
31695
31695
31698
31697
31700
31695
31697
31695
31692
31681
31679
31661
31684
31690
31686
31689
31679
31668
31686
31672
31665
31681
31676
31665
31679
31660
31669
31677
31671
31679
31673
31660
31658
31671
31665
31659
31666
31660
31663
31657
31668
31662
31654
31653
31656
31652
31658
31668
31655
31652
31655
31650
31653
31654
31650
31644
31660
31639
31642
31652
31639
31638
31644
31636
31636
31640
31638
31630
31630
31638
31628
31629
31637
31626
31626
31639
31621
31635
31626
31636
31628
31630
31629
31632
31622
31623
31614
31623
31629
31621
31609
31624
31615
31616
31606
31620
31616
31606
31622
31605
31610
31608
31604
31611
31609
31604
31599
31610
31596
31584
31607
31592
31599
31604
31602
31605
31577
31601
31599
31590
31583
31596
31591
31588
31588
31588
31588
31581
31581
31588
31578
31566
31587
31575
31572
31588
31574
31575
31567
31572
31579
31551
31572
31570
31572
31565
31562
31568
31563
31567
31559
31556
31562
31556
31566
31552
31551
31559
31552
31552
31553
31555
31548
31556
31543
31546
31540
31553
31542
31526
31548
31541
31549
31551
31535
31527
31536
31532
31524
31540
31534
31527
31540
31527
31528
31532
31524
31521
31531
31519
31514
31517
31527
31513
31501
31530
31510
31511
31512
31508
31516
31508
31519
31503
31509
31511
31491
31511
31484
31511
31495
31499
31498
31504
31495
31494
31495
31479
31494
31498
31493
31478
31486
31479
31490
31492
31481
31486
31488
31486
31478
31477
31490
31471
31481
31469
31478
31476
31476
31474
31481
31473
31477
31469
31475
31473
31460
31461
31468
31448
31455
31436
31456
31450
31453
31451
31456
31454
31459
31454
31460
31450
31453
31455
31440
31441
31447
31419
31439
31439
31440
31432
31438
31447
31414
31434
31438
31440
31430
31433
31437
31428
31431
31421
31436
31414
31428
31417
31432
31420
31408
31425
31414
31417
31425
31414
31410
31408
31421
31422
31413
31413
31415
31410
31416
31398
31412
31413
31398
31403
31390
31407
31398
31399
31399
31396
31407
31407
31393
31377
31399
31394
31395
31384
31391
31380
31387
31398
31381
31377
31397
31383
31370
31390
31379
31381
31386
31379
31375
31383
31374
31383
31383
31367
31375
31380
31374
31366
31353
31377
31367
31359
31376
31367
31372
31364
31356
31356
31366
31358
31367
31356
31354
31323
31356
31363
31344
31329
31364
31349
31351
31357
31343
31345
31351
31335
31348
31348
31346
31336
31348
31329
31340
31340
31308
31338
31337
31327
31329
31332
31336
31327
31303
31335
31317
31303
31335
31324
31325
31327
31303
31316
31329
31309
31308
31318
31288
31311
31291
31321
31309
31315
31319
31308
31308
31316
31300
31307
31292
31316
31289
31302
31300
31309
31293
31273
31304
31287
31286
31299
31281
31294
31295
31295
31281
31278
31298
31279
31268
31286
31276
31284
31289
31279
31283
31287
31271
31255
31277
31268
31275
31269
31270
31278
31268
31260
31279
31271
