EDA
24354
24348
24351
24357
24341
24347
24341
24349
24353
24359
24348
24344
24347
24349
24350
24345
24355
24338
24341
24343
24349
24351
24340
24350
24351
24351
24351
24350
24338
24341
24341
24338
24343
24351
24343
24348
24355
24343
24343
24353
24339
24338
24338
24339
24359
24348
24354
24334
24340
24334
24338
24331
24336
24338
24347
24338
24351
24345
24337
24341
24348
24335
24344
24346
24346
24347
24345
24342
24349
24342
24340
24343
24343
24347
24346
24346
24335
24335
24337
24338
24342
24342
24348
24349
24349
24342
24343
24341
24343
24342
24344
24345
24344
24343
24346
24354
24330
24339
24333
24338
24337
24348
24342
24350
24347
24351
24335
24326
24332
24338
24348
24339
24338
24354
24316
24315
24334
24332
24342
24349
24364
24361
24403
24441
24316
24325
24316
24321
24327
24326
24335
24343
24330
24327
24327
24327
24327
24339
24339
24336
24337
24349
24360
24348
24353
24353
24351
24352
24356
24354
24340
24343
24346
24351
24340
24351
24350
24345
24347
24345
24351
24348
24353
24348
24335
24347
24348
24348
24341
24348
24344
24336
24346
24345
24344
24348
24330
24349
24345
24346
24347
24343
24340
24340
24348
24350
24340
24348
24347
24347
24343
24344
24338
24340
24338
24346
24344
24342
24340
24332
24348
24341
24344
24341
24344
24340
24338
24340
24341
24343
24346
24344
24341
24344
24340
24340
24340
24331
24341
24303
24346
24334
24341
24337
24337
24335
24340
24337
24338
24343
24333
24335
24332
24336
24334
24336
24341
24336
24341
24347
24337
24340
24340
24327
24337
24338
24334
24343
24335
24334
24343
24342
24335
24343
24334
24334
24339
24339
24335
24333
24339
24335
24335
24340
24340
24338
24339
24340
24345
24332
24333
24336
24337
24334
24336
24340
24330
24329
24336
24337
24333
24335
24337
24336
24337
24327
24327
24332
24327
24339
24340
24334
24342
24329
24337
24340
24335
24327
24338
24342
24333
24322
24330
24330
24334
24331
24339
24341
24337
24333
24331
24337
24332
24332
24339
24335
24334
24334
24329
24333
24332
24334
24332
24315
24334
24333
24333
24341
24338
24334
24332
24332
24332
24330
24339
24338
24327
24338
24332
24327
24334
24332
24334
24335
24335
24338
24336
24334
24349
24323
24327
24327
24331
24333
24330
24337
24330
24327
24324
24327
24335
24326
24332
24341
24325
24327
24321
24327
24340
24333
24335
24335
24335
24331
24326
24319
24330
24325
24327
24320
24327
24327
24332
24326
24335
24318
24322
24325
24324
24339
24334
24326
24327
24335
24327
24334
24333
24327
24324
24324
24319
24324
24324
24322
24327
24338
24325
24326
24331
24333
24332
24334
24338
24331
24324
24322
24321
24326
24327
24327
24332
24327
24335
24324
24316
24320
24324
24337
24327
24334
24337
24351
24324
24326
24334
24334
24327
24335
24332
24332
24330
24330
24327
24345
24308
24321
24322
24321
24327
24337
24327
24333
24334
24322
24323
24324
24324
24323
24327
24326
24320
24335
24327
24317
24316
24321
24323
24327
24320
24332
24327
24326
24326
24323
24322
24327
24318
24323
24327
24322
24322
24323
24327
24327
24324
24316
24327
24326
24323
24327
24327
24315
24319
24322
24321
24327
24320
24315
24332
24326
24327
24327
24317
24319
24317
24327
24324
24325
24335
24342
24316
24318
24337
24327
24327
24324
24319
24323
24322
24323
24324
24327
24319
24319
24322
24332
24327
24316
24327
24335
24317
24318
24334
24327
24318
24323
24327
24320
24313
24321
24321
24321
24327
24327
24316
24317
24319
24334
24320
24327
24334
24321
24323
24322
24322
24321
24320
24327
24327
24315
24316
24324
24326
24326
24335
24316
24328
24325
24328
24316
24316
24324
24327
24326
24341
24308
24317
24315
24311
24321
24326
24327
24311
24318
24314
24324
24319
24318
24322
24320
24324
24327
24315
24311
24318
24319
24324
24316
24312
24311
24319
24322
24320
24316
24322
24316
24310
24311
24322
24324
24322
24318
24324
24316
24316
24319
24327
24319
24316
24323
24308
24310
24314
24312
24313
24324
24316
24321
24327
24325
24310
24315
24316
24326
24317
24319
24323
24306
24313
24313
24320
24314
24316
24317
24308
24310
24324
24323
24324
24318
24304
24314
24327
24321
24325
24311
24307
24306
24313
24321
24316
24319
24321
24319
24324
24309
24303
24315
24327
24319
24324
24320
24326
24315
24316
24311
24315
24317
24322
24304
24311
24311
24324
24316
24316
24327
24327
24308
24306
24316
24318
24319
24320
24324
24322
24305
24309
24315
24309
24319
24316
24317
24320
24324
24309
24313
24305
24321
24325
24316
24316
24318
24327
24306
24311
24313
24318
24322
24303
24307
24313
24317
24318
24322
24309
24314
24311
24315
24317
24335
24306
24310
24318
24311
24316
24319
24303
24300
24310
24310
24311
24311
24311
24321
24308
24305
24308
24311
24309
24317
24313
24323
24327
24308
24308
24308
24315
24319
24306
24309
24319
24300
24303
24308
24309
24309
24311
24319
24305
24303
24305
24319
24311
24312
24316
24321
24305
24305
24295
24306
24308
24311
24309
24309
24311
24317
24303
24308
24315
24311
24316
24311
24315
24301
24303
24311
24315
24308
24318
24300
24308
24305
24313
24315
24302
24302
24305
24310
24313
24316
24315
24306
24305
24304
24311
24303
24311
24311
24308
24306
24303
24303
24303
24305
24311
24306
24308
24311
24308
24309
24312
24315
24296
24302
24301
24304
24310
24303
24307
24308
24305
24311
24313
24319
24314
24295
24301
24305
24300
24311
24303
24303
24298
24311
24307
24308
24310
24325
24300
24303
24309
24307
24300
24313
24314
24308
24303
24297
24300
24308
24309
24311
24318
24311
24313
24308
24309
24308
24300
24305
24310
24312
24309
24306
24308
24318
24305
24307
24307
24314
24311
24316
24301
24306
24303
24309
24308
24310
24308
24315
24303
24300
24303
24305
24315
24314
24303
24301
24309
24310
24309
24316
24294
24300
24303
24302
24311
24308
24311
24304
24306
24325
24303
24299
24311
24303
24306
24321
24297
24311
24314
24302
24309
24309
24320
24293
24301
24303
24302
24302
24306
24311
24299
24305
24311
24299
24302
24301
24309
24311
24283
24300
24295
24297
24308
24301
24307
24295
24295
24300
24308
24294
24300
24309
24308
24297
24301
24307
24295
24299
24314
24296
24299
24311
24303
24296
24301
24317
24289
24293
24295
24311
24299
24301
24309
24303
24311
24311
24298
24299
24294
24299
24301
24299
24300
24303
24300
24302
24297
24287
24293
24288
24304
24297
24301
24295
24300
24303
24294
24300
24301
24294
24297
24301
24295
24309
24295
24295
24302
24303
24306
24309
24314
24293
24293
24313
24301
24313
24318
24280
24279
24318
24300
24318
24340
24284
24279
24291
24316
24299
24298
24315
24318
24357
24284
24284
24293
24326
24314
24322
24324
24333
24345
24293
24292
24315
24314
24321
24355
24300
24300
24302
24316
24310
24313
24313
24308
24311
24316
24284
24301
24312
24311
24305
24303
24308
24305
24313
24306
24313
24311
24303
24305
24302
24304
24308
24309
24310
24304
24303
24311
24307
24308
24308
24309
24300
24305
24306
24311
24309
24302
24309
24309
24306
24308
24302
24305
24309
24309
24308
24307
24304
24305
24305
24305
24308
24303
24308
24303
24303
24306
24304
24300
24310
24311
24303
24308
24305
24314
24308
24302
24308
24311
24306
24300
24305
24308
24306
24300
24301
24303
24297
24301
24302
24302
24303
24300
24300
24305
24306
24299
24308
24300
24297
24298
24305
24303
24295
24300
24303
24302
24294
24300
24302
24295
24302
24301
24301
24302
24303
24305
24300
24301
24300
24302
24300
24302
24300
24296
24303
24304
24303
24302
24295
24298
24296
24300
24306
24301
24302
24301
24306
24308
24298
24299
24297
24303
24301
24309
24294
24298
24296
24305
24297
24303
24302
24303
24306
24298
24304
24298
24298
24300
24308
24296
24298
24294
24298
24295
24302
24300
24305
24301
24303
24300
24295
24297
24296
24303
24303
24306
24303
24303
24308
24301
24303
24302
24295
24303
24298
24301
24303
24301
24293
24297
24302
24300
24302
24298
24301
24299
24295
24295
24303
24297
24294
24306
24301
24303
24295
24297
24292
24303
24301
24301
24303
24303
24295
24297
24295
24300
24303
24300
24294
24294
24293
24297
24297
24299
24295
24294
24297
24295
24298
24295
24300
24293
24293
24295
24303
24301
24292
24307
24301
24293
24297
24295
24302
24295
24292
24297
24295
24297
24297
24301
24289
24288
24293
24285
24292
24287
24305
24299
24289
24296
24300
24300
24295
24295
24288
24294
24298
24292
24300
24295
24301
24296
24300
24319
24292
24292
24301
24303
24298
24286
24284
24290
24297
24294
24294
24290
24293
24297
24289
24285
24294
24294
24302
24295
24292
24300
24300
24286
24290
24292
24303
24295
24298
24310
24287
24295
24295
24298
24303
24287
24294
24303
24295
24303
24291
24285
24300
24294
24299
24297
24284
24289
24299
24294
24290
24298
24285
24282
24286
24301
24288
24293
24297
24304
24285
24285
24294
24287
24293
24295
24309
24289
24292
24298
24289
24295
24295
24303
24294
24286
24293
24293
24295
24297
24301
24299
24288
24289
24288
24296
24289
24292
24292
24294
24296
24294
24284
24286
24290
24295
24299
24300
24308
24283
24280
24287
24288
24295
24292
24292
24288
24294
24289
24306
24285
24284
24287
24291
24294
24286
24289
24292
24295
24295
24295
24298
24297
24310
24284
24284
24282
24295
24292
24292
24292
24294
24282
24285
24295
24293
24292
24297
24305
24293
24279
24286
24284
24297
24293
24282
24281
24294
24295
24298
24297
24278
24281
24293
24301
24286
24292
24295
24295
24293
24302
24303
24309
24285
24285
24281
24286
24290
24296
24290
24291
24292
24293
24311
24284
24306
24285
24277
24289
24287
24294
24287
24294
24294
24300
24293
24280
24283
24286
24292
24293
24295
24289
24294
24272
24290
24289
24285
24285
24300
24293
24292
24296
24304
24284
24294
24285
24293
24293
24303
24285
24289
24286
24294
24299
24287
24284
24286
24292
24291
24286
24297
24303
24284
24284
24284
24287
24292
24295
24299
24292
24295
24297
24283
24286
24298
24293
24293
24310
24283
24289
24287
24289
24295
24295
24294
24293
24300
24282
24293
24294
24289
24288
24295
24305
24285
24284
24295
24293
24294
24297
24297
24286
24292
24288
24294
24295
24294
24293
24295
24284
24287
24287
24295
24291
24290
24300
24305
24287
24286
24293
24298
24298
24295
24297
24291
24287
24284
24293
24295
24295
24295
24301
24285
24288
24286
24291
24286
24293
24304
24295
24293
24295
24294
24297
24296
24298
24292
24294
24290
24295
24300
24287
24294
24294
24288
24288
24294
24297
24294
24292
24294
24295
24295
24295
24297
24298
24308
24293
24285
24293
24292
24294
24292
24295
24303
24286
24289
24290
24293
24291
24305
24296
24294
24300
24295
24302
24293
24292
24302
24295
24294
24296
24298
24305
24295
24290
24303
24295
24296
24300
24300
24303
24304
24288
24291
24293
24294
24299
24293
24295
24295
24300
24294
24293
24297
24297
24309
24287
24291
24293
24294
24300
24302
24316
24294
24294
24303
24301
24294
24307
24295
24288
24292
24290
24303
24302
24301
24302
24293
24289
24300
24305
24299
24305
24302
24294
24294
24298
24295
24297
24303
24295
24295
24306
24300
24297
24305
24293
24295
24300
24297
24299
24303
24302
24318
24295
24294
24299
24301
24303
24295
24302
24312
24292
24291
24290
24290
24311
24306
24303
24311
24294
24295
24294
24294
24304
24309
24296
24301
24303
24303
24306
24294
24298
24300
24311
24300
24303
24302
24308
24309
24307
24309
24292
24294
24293
24298
24298
24303
24300
24306
24319
24293
24295
24295
24302
24311
24305
24312
24314
24300
24303
24300
24314
24303
24308
24312
24311
24303
24300
24308
24308
24303
24308
24320
24327
24303
24302
24308
24300
24307
24311
24314
24324
24300
24309
24308
24308
24310
24313
24303
24300
24297
24303
24306
24312
24319
24308
24316
24318
24302
24304
24319
24311
24312
24318
24299
24303
24308
24311
24321
24317
24320
24301
24307
24305
24325
24316
24318
24317
24326
24301
24308
24298
24316
24310
24311
24313
24316
24321
24321
24324
24309
24313
24308
24317
24310
24313
24327
24302
24310
24303
24310
24310
24324
24313
24307
24316
24318
24322
24332
24309
24307
24308
24305
24317
24324
24308
24318
24318
24319
24320
24321
24323
24327
24315
24311
24310
24319
24319
24320
24316
24327
24313
24309
24316
24317
24324
24309
24317
24322
24324
24325
24308
24316
24317
24326
24322
24325
24333
24347
24310
24327
24317
24331
24374
24309
24315
24321
24327
24340
24300
24311
24325
24321
24337
24348
24309
24305
24319
24316
24326
24341
24349
24307
24316
24330
24348
24342
24313
24322
24327
24331
24333
24340
24351
24319
24327
24336
24327
24327
24335
24343
24324
24326
24334
24330
24330
24334
24335
24335
24330
24333
24335
24337
24333
24340
24334
24329
24327
24331
24337
24332
24333
24335
24327
24335
24338
24333
24335
24335
24335
24318
24339
24334
24327
24335
24338
24339
24335
24330
24333
24333
24328
24331
24331
24330
24337
24333
24335
24340
24339
24334
24332
24333
24337
24333
24332
24333
24334
24335
24339
24333
24334
24340
24339
24340
24335
24339
24340
24336
24336
24339
24338
24336
24340
24338
24335
24327
24341
24337
24339
24343
24339
24343
24340
24340
24341
24338
24327
24337
24335
24334
24340
24341
24337
24342
24342
24338
24340
24333
24337
24335
24342
24336
24345
24343
24341
24335
24338
24341
24338
24347
24335
24339
24342
24343
24342
24342
24341
24342
24340
24338
24343
24344
24345
24343
24351
24349
24344
24341
24346
24342
24340
24341
24340
24348
24343
24345
24344
24340
24354
24340
24345
24346
24346
24348
24349
24351
24357
24357
24348
24343
24348
24351
24350
24342
24351
24349
24346
24348
24343
24346
24342
24346
24348
24359
24359
24319
24352
24346
24358
24354
24354
24353
24348
24351
24352
24347
24351
24348
24350
24349
24348
24348
24349
24358
24357
24351
24348
24353
24355
24350
24359
24356
24356
24351
24355
24359
24353
24359
24358
24350
24351
24354
24353
24366
24356
24359
24368
24355
24359
24356
24358
24364
24363
24357
24358
24356
24356
24360
24357
24356
24358
24361
24356
24357
24356
24359
24363
24367
24365
24360
24363
24362
24364
24358
24353
24361
24365
24359
24366
24369
24375
24356
24357
24358
24363
24370
24373
24367
24374
24357
24360
24366
24364
24360
24364
24374
24358
24356
24365
24375
24370
24370
24374
24379
24364
24371
24373
24362
24370
24378
24366
24358
24361
24368
24375
24363
24370
24374
24385
24380
24381
24389
24362
24361
24359
24364
24371
24374
24369
24373
24378
24374
24374
24362
24369
24364
24367
24369
24374
24368
24369
24380
24395
24368
24369
24367
24364
24368
24375
24370
24371
24373
24379
24372
24373
24377
24378
24380
24383
24377
24356
24371
24365
24375
24380
24384
24375
24378
24385
24380
24391
24368
24375
24374
24378
24383
24385
24382
24372
24366
24379
24391
24377
24389
24391
24379
24378
24387
24388
24381
24388
24381
24376
24381
24377
24380
24381
24385
24383
24391
24391
24378
24383
24381
24393
24390
24389
24390
24392
24383
24378
24382
24386
24394
24386
24387
24383
24389
24384
24391
24398
24395
24386
24386
24386
24386
24394
24392
24397
24385
24378
24391
24394
24389
24391
24397
24382
24383
24391
24394
24392
24392
24396
24397
24399
24409
24381
24388
24389
24389
24392
24391
24398
24394
24388
24398
24391
24392
24391
24394
24399
24391
24396
24403
24399
24396
24401
24399
24405
24397
24399
24396
24405
24394
24402
24401
24407
24395
24393
24391
24393
24390
24391
24392
24397
24395
24392
24396
24396
24392
24393
24399
24399
24395
24393
24397
24399
24400
24403
24404
24398
24405
24410
24415
24402
24406
24403
24410
24414
24404
24401
24405
24406
24407
24400
24399
24405
24415
24415
24404
24400
24404
24405
24399
24407
24402
24407
24420
24414
24417
24402
24403
24407
24402
24404
24405
24405
24406
24405
24405
24402
24399
24403
24404
24407
24400
24406
24405
24409
24410
24405
24405
24411
24410
24404
24407
24400
24411
24409
24415
24408
24409
24404
24411
24407
24410
24413
24410
24408
24409
24421
24407
24428
24420
24420
24427
24423
24423
24420
24428
24430
24423
24423
24422
24423
24428
24423
24423
24423
24420
24416
24417
24420
24418
24413
24416
24418
24436
24428
24426
24436
24423
24425
24426
24427
24428
24436
24436
24431
24444
24438
24443
24423
24422
24417
24425
24414
24418
24423
24422
24423
24421
24422
24424
24422
24423
24423
24427
24451
24439
24434
24436
24436
24431
24436
24435
24438
24431
24431
24429
24427
24423
24431
24431
24431
24425
24426
24431
24429
24428
24433
24434
24434
24431
24413
24451
24445
24437
24444
24443
24441
24444
24442
24446
24449
24450
24453
24454
24447
24454
24437
24440
24437
24439
24437
24436
24441
24442
24450
24447
24450
24455
24458
24444
24451
24451
24452
24447
24447
24451
24444
24451
24448
24446
24447
24447
24462
24442
24436
24442
24447
24446
24465
24454
24463
24452
24452
24455
24456
24453
24460
24455
24458
24455
24460
24450
24455
24455
24465
24458
24466
24459
24461
24460
24463
24468
24471
24450
24452
24450
24448
24452
24455
24453
24455
24448
24453
24455
24453
24459
24452
24455
24455
24461
24460
24465
24467
24460
24462
24462
24471
24463
24462
24463
24460
24458
24460
24461
24465
24461
24462
24464
24469
24474
24477
24471
24475
24481
24483
24481
24479
24475
24470
24468
24468
24467
24467
24468
24469
24475
24473
24470
24471
24466
24472
24470
24483
24479
24471
24472
24478
24473
24463
24474
24469
24471
24468
24466
24471
24466
24467
24461
24489
24485
24485
24487
24484
24488
24464
24471
24479
24481
24477
24483
24479
24480
24474
24473
24479
24473
24473
24468
24492
24486
24495
24491
24487
24484
24479
24486
24478
24483
24486
24477
24479
24474
24481
24477
24484
24486
24486
24481
24484
24484
24479
24485
24481
24479
24479
24483
24485
24484
24481
24479
24479
24482
24483
24477
24481
24486
24485
24486
24495
24480
24488
24486
24484
24487
24488
24490
24487
24491
24486
24488
24485
24484
24492
24489
24486
24484
24487
24487
24487
24495
24504
24499
24495
24492
24495
24488
24491
24492
24491
24488
24494
24495
24503
24514
24478
24475
24477
24472
24479
24479
24480
24471
24477
24479
24478
24476
24476
24479
24481
24491
24516
24500
24507
24500
24511
24517
24510
24514
24509
24509
24511
24519
24518
24512
24515
24508
24514
24519
24500
24510
24517
24511
24497
24505
24508
24501
24504
24511
24507
24507
24504
24507
24511
24506
24510
24517
24513
24511
24509
24516
24511
24516
24506
24516
24510
24512
24510
24510
24511
24508
24516
24512
24516
24513
24513
24513
24511
24514
24499
24518
24513
24516
24518
24512
24510
24511
24514
24511
24515
24516
24522
24515
24514
24514
24514
24512
24513
24518
24512
24513
24517
24516
24498
24516
24514
24511
24517
24517
24519
24518
24527
24523
24519
24522
24516
24516
24519
24525
24523
24523
24517
24521
24519
24518
24520
24523
24524
24522
24523
24524
24520
24518
24536
24525
24501
24518
24521
24522
24518
24524
24520
24525
24517
24519
24522
24518
24532
24535
24535
24534
24520
24519
24524
24527
24522
24524
24522
24518
24516
24525
24519
24527
24519
24527
24539
24533
24537
24532
24537
24534
24530
24535
24532
24535
24535
24530
24532
24530
24535
24530
24532
24533
24535
24535
24533
24535
24537
24536
24538
24534
24540
24543
24537
24543
24541
24537
24538
24543
24538
24544
24538
24538
24535
24540
24543
24531
24545
24540
24544
24545
24540
24548
24543
24542
24540
24547
24548
24539
24546
24543
24541
24540
24538
24543
24543
24540
24542
24551
24542
24543
24550
24548
24546
24543
24542
24543
24548
24545
24545
24547
24549
24551
24545
24546
24542
24546
24551
24553
24546
24546
24551
24543
24542
24543
24549
24551
24545
24545
24550
24540
24547
24551
24551
24550
24551
24549
24543
24544
24540
24540
24564
24556
24551
24559
24553
24554
24551
24550
24551
24554
24549
24551
24548
24551
24545
24551
24551
24552
24553
24556
24555
24554
24556
24557
24548
24555
24556
24549
24556
24559
24551
24553
24556
24556
24554
24559
24557
24554
24553
24549
24551
24556
24564
24555
24553
24564
24559
24559
24558
24553
24558
24558
24561
24557
24549
24549
24555
24551
24551
24553
24573
24565
24564
24562
24564
24562
24561
24562
24556
24557
24551
24556
24562
24565
24564
24566
24569
24566
24570
24574
24573
24575
24572
24575
24567
24574
24564
24562
24567
24567
24564
24571
24577
24563
24559
24561
24561
24564
24570
24580
24567
24564
24574
24564
24571
24569
24570
24570
24574
24575
24569
24565
24559
24562
24567
24562
24566
24561
24560
24567
24567
24569
24564
24567
24573
24570
24569
24575
24574
24575
24575
24572
24569
24571
24572
24575
24575
24570
24570
24572
24575
24576
24583
24583
24580
24573
24574
24575
24580
24573
24572
24581
24581
24578
24583
24575
24578
24580
24581
24580
24579
24579
24581
24579
24583
24577
24572
24569
24573
24583
24583
24580
24583
24583
24579
24583
24578
24583
24583
24576
24582
24583
24583
24582
24579
24570
24574
24575
24583
24583
24583
24580
24583
24583
24583
24577
24577
24594
24583
24588
24575
24583
24580
24583
24589
24589
24583
24586
24591
24582
24583
24582
24583
24583
24583
24583
24582
24583
24583
24589
24591
24583
24588
24592
24594
24596
24582
24583
24583
24593
24583
24583
24583
24588
24599
24587
24583
24578
24582
24583
24578
24582
24582
24589
24580
24582
24588
24583
24583
24583
24581
24581
24596
24593
24596
24589
24583
24591
24595
24597
24583
24582
24583
24583
24583
24582
24599
24596
24596
24594
24591
24593
24588
24580
24599
24591
24590
24589
24583
24591
24583
24583
24583
24586
24590
24589
24590
24589
24591
24588
24588
24583
24590
24591
24596
24599
24599
24598
24589
24599
24594
24591
24598
24599
24591
24597
24592
24599
24597
24596
24594
24603
24588
24597
24597
24599
24599
24599
24605
24593
24591
24596
24590
24596
24597
24596
24597
24601
24599
24599
24597
24604
24600
24617
24593
24592
24599
24603
24590
24606
24606
24609
24604
24607
24603
24606
24602
24607
24602
24598
24609
24601
24599
24604
24608
24599
24600
24591
24591
24594
24596
24604
24609
24603
24599
24604
24604
24604
24607
24608
24598
24601
24605
24599
24611
24609
24599
24607
24608
24605
24613
24605
24615
24612
24613
24608
24613
24599
24599
24597
24603
24599
24607
24602
24604
24606
24605
24607
24608
24601
24597
24602
24601
24614
24600
24614
24607
24597
24597
24601
24599
24597
24615
24615
24611
24611
24609
24609
24612
24623
24612
24620
24602
24601
24599
24604
24607
24615
24609
24606
24613
24609
24607
24610
24612
24612
24613
24614
24613
24614
24615
24615
24618
24615
24620
24618
24618
24607
24609
24614
24615
24621
24612
24613
24620
24618
24623
24607
24607
24600
24606
24605
24607
24606
24607
24613
24614
24619
24615
24615
24619
24615
24610
24610
24605
24609
24607
24614
24620
24615
24610
24615
24616
24618
24620
24619
24623
24607
24610
24604
24618
24613
24616
24619
24620
24623
24609
24611
24612
24631
24617
24613
24619
24623
24617
24613
24614
24612
24609
24613
24615
24623
24615
24609
24616
24617
24619
24620
24619
24621
24622
24629
24631
24606
24615
24613
24617
24621
24616
24620
24621
24616
24618
24615
24619
24623
24625
24623
24622
24612
24614
24613
24613
24617
24623
24623
24618
24619
24619
24623
24615
24623
24616
24617
24618
24621
24618
24623
24619
24616
24618
24617
24620
24612
24615
24615
24625
24622
24609
24614
24614
24615
24623
24621
24620
24614
24623
24631
24608
24604
24614
24615
24616
24627
24615
24619
24612
24620
24617
24606
24608
24615
24614
24616
24614
24615
24608
24615
24618
24617
24615
24614
24618
24621
24622
24622
24616
24616
24619
24630
24628
24622
24617
24618
24613
24607
24608
24616
24631
24614
24615
24617
24620
24620
24623
24621
24628
24631
24624
24628
24628
24638
24641
24638
24627
24620
24628
24627
24618
24657
24642
24634
24613
24621
24621
24622
24618
24624
24623
24618
24623
24622
24620
24629
24617
24628
24634
24631
24628
24631
24626
24632
24628
24628
24632
24631
24623
24633
24626
24634
24630
24629
24628
24628
24634
24634
24631
24636
24630
24627
24631
24629
24629
24629
24630
24632
24631
24631
24631
24633
24631
24631
24626
24628
24636
24629
24631
24628
24630
24631
24631
24639
24637
24636
24631
24628
24629
24630
24631
24632
24635
24629
24630
24631
24626
24628
24631
24631
24631
24636
24635
24630
24631
24631
24631
24635
24626
24631
24629
24601
24623
24623
24618
24618
24631
24618
24628
24629
24628
24631
24628
24628
24629
24631
24630
24628
24634
24627
24634
24628
24628
24626
24627
24628
24629
24625
24631
24635
24630
24635
24631
24631
24635
24632
24635
24637
24633
24630
24626
24637
24636
24631
24629
24630
24629
24629
24633
24639
24631
24629
24633
24628
24638
24634
24637
24635
24630
24628
24633
24630
24632
24631
24628
24636
24629
24631
24629
24631
24637
24637
24636
24631
24629
24631
24633
24639
24633
24635
24636
24634
24634
24636
24636
24629
24637
24629
24634
24634
24637
24629
24630
24636
24636
24633
24633
24632
24630
24632
24630
24632
24629
24630
24631
24630
24639
24641
24636
24639
24634
24639
24633
24639
24637
24633
24637
24633
24637
24634
24636
24639
24632
24635
24628
24635
24635
24633
24637
24634
24630
24636
24633
24636
24635
24639
24636
24633
24639
24631
24636
24634
24636
24631
24631
24628
24632
24636
24625
24632
24636
24637
24645
24633
24635
24639
24636
24639
24634
24634
24633
24631
24625
24635
24631
24629
24637
24633
24639
24636
24638
24643
24628
24635
24636
24644
24649
24630
24626
24628
24625
24625
24625
24628
24622
24631
24628
24639
24624
24628
24625
24628
24629
24633
24637
24641
24631
24636
24636
24634
24633
24633
24637
24636
24636
24639
24647
24642
24658
24628
24621
24646
24646
24641
24655
24654
24637
24620
24631
24628
24627
24623
24628
24628
24628
24628
24633
24636
24634
24637
24645
24645
24636
24638
24639
24643
24636
24634
24635
24634
24637
24637
24631
24636
24639
24641
24636
24641
24644
24628
24622
24634
24629
24634
24627
24630
24637
24644
24634
24633
24637
24638
24636
24643
24636
24639
24643
24639
24639
24636
24635
24633
24629
24629
24631
24619
24643
24647
24631
24630
24630
24631
24628
24633
24635
24634
24638
24636
24632
24629
24630
24628
24625
24626
24633
24629
24636
24630
24631
24652
24639
24640
24643
24643
24646
24639
24636
24642
24636
24633
24639
24647
24639
24638
24651
24645
24639
24632
24631
24632
24624
24628
24623
24653
24637
24639
24642
24640
24638
24639
24645
24636
24645
24648
24653
24644
24653
24645
24645
24639
24636
24637
24647
24642
24647
24647
24646
24647
24606
24635
24633
24623
24633
24631
24633
24631
24639
24647
24636
24641
24643
24640
24641
24641
24637
24637
24637
24637
24643
24641
24640
24639
24639
24633
24644
24647
24647
24635
24642
24637
24632
24631
24630
24633
24636
24633
24634
24634
24631
24656
24640
24645
24640
24645
24646
24645
24645
24644
24647
24637
24642
24637
24642
24636
24638
24635
24620
24631
24631
24633
24633
24630
24632
24631
24636
24641
24634
24629
24630
24634
24630
24630
24636
24642
24644
24636
24635
24635
24634
24633
24630
24632
24631
24657
24657
24647
24642
24647
24637
24644
24648
24638
24646
24643
24643
24640
24638
24647
24646
24639
24618
24635
24625
24634
24633
24635
24644
24645
24640
24633
24631
24636
24638
24635
24644
24642
24636
24639
24644
24640
24642
24644
24640
24647
24639
24645
24642
24639
24641
24641
24639
24636
24640
24638
24644
24644
24646
24641
24653
24646
24650
24649
24632
24630
24631
24628
24634
24647
24646
24643
24643
24644
24642
24638
24639
24642
24636
24645
24640
24647
24628
24639
24632
24637
24633
24632
24633
24645
24638
24637
24637
24644
24630
24640
24634
24631
24637
24641
24632
24634
24634
24636
24642
24635
24638
24640
24646
24638
24638
24643
24640
24647
24641
24634
24639
24644
24631
24628
24632
24636
24640
24643
24636
24644
24644
24638
24638
24640
24637
24637
24641
24638
24631
24636
24630
24630
24636
24631
24637
24645
24642
24642
24642
24647
24630
24635
24639
24637
24641
24634
24631
24635
24639
24639
24631
24630
24638
24635
24642
24640
24642
24639
24639
24637
24643
24644
24638
24630
24631
24634
24635
24632
24638
24632
24640
24639
24638
24639
24639
24642
24644
24644
24635
24632
24629
24635
24632
24634
24631
24631
24635
24632
24639
24643
24641
24639
24639
24641
24645
24630
24634
24633
24645
24642
24643
24638
24634
24638
24634
24638
24634
24647
24636
24639
24646
24631
24646
24646
24645
24646
24647
24644
24647
24640
24639
24638
24633
24639
24630
24635
24636
24635
24638
24637
24629
24634
24629
24631
24631
24633
24631
24628
24636
24630
24639
24631
24644
24641
24645
24636
24638
24631
24636
24637
24643
24639
24637
24636
24646
24633
24629
24630
24633
24638
24636
24639
24636
24635
24634
24632
24639
24638
24634
24631
24625
24623
24628
24629
24631
24637
24630
24631
24633
24629
24628
24628
24630
24636
24634
24634
24637
24636
24626
24631
24630
24633
24633
24638
24636
24633
24634
24638
24637
24641
24633
24643
24634
24638
24635
24644
24631
24643
24637
24629
24628
24628
24625
24629
24629
24636
24637
24635
24632
24631
24638
24632
24647
24643
24630
24623
24631
24633
24628
24634
24638
24636
24637
24637
24632
24637
24639
24638
24647
24687
24618
24615
24612
24622
24620
24623
24609
24612
24609
24614
24615
24612
24614
24615
24613
24618
24607
24614
24613
24621
24615
24620
24618
24623
24623
24699
24660
24681
24627
24624
24631
24628
24636
24630
24635
24627
24636
24630
24621
24644
24647
24650
24646
24639
24619
24636
24639
24644
24639
24637
24636
24638
24634
24644
24633
24645
24637
24639
24636
24639
24635
24639
24636
24639
24641
24643
24643
24630
24636
24632
24634
24639
24639
24636
24639
24633
24639
24643
24640
24636
24635
24634
24633
24611
24633
24634
24640
24634
24632
24637
24638
24632
24631
24631
24636
24628
24636
24636
24630
24637
24633
24636
24636
24636
24636
24634
24634
24637
24636
24634
24629
24634
24628
24634
24635
24637
24629
24636
24630
24637
24634
24628
24642
24629
24634
24631
24630
24630
24629
24635
24629
24630
24630
24628
24630
24626
24630
24629
24626
24629
24636
24634
24632
24636
24636
24631
24635
24628
24632
24628
24631
24626
24625
24631
24626
24631
24625
24628
24628
24625
24627
24624
24629
24630
24631
24630
24631
24628
24629
24634
24628
24629
24631
24627
24639
24633
24643
24638
24630
24633
24632
24634
24631
24629
24628
24629
24629
24631
24630
24634
24631
24631
24628
24626
24635
24634
24633
24632
24630
24634
24634
24631
24633
24634
24629
24629
24628
24635
24623
24630
24622
24629
24623
24625
24626
24631
24629
24640
24625
24628
24631
24639
24631
24629
24628
24623
24627
24627
24620
24628
24628
24636
24625
24625
24625
24623
24623
24630
24631
24636
24630
24628
24628
24633
24626
24631
24631
24628
24625
24630
24627
24623
24631
24623
24638
24632
24629
24631
24631
24632
24629
24626
24628
24631
24630
24623
24623
24623
24620
24624
24621
24615
24620
24623
24623
24623
24622
24620
24621
24623
24622
24620
24623
24628
24631
24623
24621
24618
24628
24623
24628
24628
24623
24623
24621
24621
24618
24618
24623
24620
24627
24628
24628
24625
24629
24625
24625
24623
24633
24623
24619
24631
24623
24622
24625
24636
24635
24633
24627
24621
24624
24628
24626
24634
24623
24627
24628
24625
24636
24614
24619
24615
24612
24613
24616
24620
24615
24620
24621
24623
24620
24628
24628
24626
24624
24636
24612
24613
24617
24613
24617
24623
24612
24613
24614
24612
24620
24620
24621
24620
24621
24620
24618
24621
24620
24620
24623
24624
24622
24619
24628
24631
24612
24616
24617
24608
24618
24622
24621
24621
24625
24628
24625
24621
24626
24623
24629
24625
24622
24621
24623
24616
24617
24620
24621
24621
24620
24626
24616
24616
24620
24618
24612
24614
24612
24620
24618
24617
24622
24622
24621
24621
24623
24618
24621
24623
24623
24618
24622
24623
24621
24622
24617
24623
24620
24623
24625
24621
24625
24626
24624
24628
24621
24631
24631
24628
24625
24625
24623
24623
24620
24623
24626
24623
24621
24625
24621
24614
24620
24621
24613
24621
24617
24627
24631
24612
24610
24612
24614
24614
24613
24610
24614
24610
24614
24614
24613
24609
24620
24606
24615
24611
24613
24612
24615
24615
24612
24615
24606
24612
24615
24611
24615
24631
24630
24620
24613
24631
24607
24613
24614
24610
24612
24628
24610
24615
24612
24613
24614
24629
24615
24613
24612
24614
24609
24615
24611
24617
24617
24607
24611
24611
24614
24613
24633
24622
24624
24621
24620
24621
24617
24620
24616
24615
24619
24619
24615
24611
24606
24609
24608
24626
24623
24614
24618
24621
24610
24620
24615
24607
24612
24613
24615
24633
24629
24623
24619
24613
24614
24616
24614
24622
24618
24619
24616
24617
24615
24618
24614
24614
24615
24618
24619
24620
24619
24613
24615
24615
24609
24617
24616
24627
24607
24608
24608
24612
24610
24611
24612
24609
24614
24615
24614
24613
24614
24614
24609
24602
24607
24612
24607
24620
24613
24614
24615
24612
24627
24618
24621
24612
24612
24605
24612
24603
24609
24612
24610
24614
24614
24623
24619
24615
24614
24615
24612
24613
24612
24613
24615
24615
24623
24624
24622
24621
24628
24617
24619
24614
24615
24615
24623
24613
24620
24618
24626
24620
24636
24629
24627
24629
24618
24627
24629
24620
24619
24615
24615
24610
24613
24607
24615
24614
24619
24617
24629
24626
24617
24621
24625
24613
24620
24623
24629
24622
24619
24622
24620
24628
24629
24621
24634
24618
24614
24615
24612
24618
24620
24614
24614
24610
24618
24617
24612
24613
24614
24615
24615
24611
24615
24614
24613
24614
24615
24614
24611
24611
24614
24615
24615
24611
24615
24612
24610
24631
24625
24617
24615
24618
24612
24609
24612
24606
24615
24610
24612
24611
24607
24615
24604
24615
24613
24613
24612
24623
24621
24615
24617
24615
24615
24615
24614
24615
24622
24604
24610
24609
24606
24607
24612
24611
24612
24615
24623
24621
24615
24615
24612
24615
24606
24613
24615
24613
24612
24608
24610
24615
24617
24616
24612
24612
24614
24611
24608
24604
24610
24607
24607
24607
24606
24606
24609
24603
24620
24615
24613
24615
24615
24613
24612
24612
24621
24612
24613
24614
24610
24619
24607
24608
24602
24605
24601
24620
24614
24612
24609
24612
24612
24607
24612
24612
24610
24617
24610
24614
24603
24605
24610
24604
24623
24623
24615
24615
24613
24623
24620
24622
24616
24620
24625
24618
24625
24623
24621
24618
24614
24612
24612
24620
24610
24600
24593
24598
24598
24599
24596
24602
24599
24593
24595
24607
24662
24636
24630
24627
24621
24623
24621
24615
24618
24618
24634
24632
24615
24621
24621
24613
24622
24615
24615
24615
24617
24621
24617
24617
24620
24623
24623
24620
24621
24622
24623
24622
24619
24622
24621
24621
24626
24620
24620
24622
24621
24622
24626
24615
24622
24620
24615
24604
24629
24613
24616
24616
24613
24623
24619
24619
24619
24620
24626
24620
24618
24621
24599
24619
24622
24618
24623
24620
24623
24620
24623
24621
24623
24616
24626
24619
24622
24623
24623
24623
24625
24623
24628
24616
24620
24624
24615
24621
24623
24625
24623
24629
24626
24620
24615
24629
24622
24618
24622
24621
24619
24621
24625
24626
24623
24622
24625
24622
24621
24623
24622
24623
24622
24623
24620
24620
24615
24623
24620
24623
24621
24625
24621
24621
24624
24618
24625
24622
24626
24625
24622
24626
24626
24625
24622
24623
24623
24627
24623
24628
24622
24628
24627
24620
24618
24628
24626
24623
24621
24623
24625
24623
24628
24625
24631
24628
24631
24630
24628
24633
24631
24626
24626
24631
24631
24626
24629
24622
24628
24628
24636
24630
24623
24624
24632
24638
24631
24635
24634
24635
24630
24629
24619
24636
24630
24626
24629
24631
24631
24637
24631
24631
24633
24636
24630
24628
24628
24630
24631
24628
24628
24632
24636
24631
24636
24629
24637
24639
24634
24634
24634
24637
24639
24634
24639
24639
24639
24644
24635
24637
24634
24633
24635
24636
24637
24639
24639
24638
24635
24642
24636
24639
24638
24637
24632
24636
24636
24641
24639
24638
24641
24639
24639
24639
24634
24639
24628
24647
24644
24647
24647
24646
24641
24640
24639
24647
24647
24639
24641
24639
24650
24646
24642
24646
24645
24647
24639
24637
24637
24638
24640
24639
24634
24658
24663
24636
24635
24639
24644
24640
24641
24645
24644
24639
24647
24660
24647
24639
24666
24664
24656
24668
24639
24647
24644
24646
24646
24647
24646
24643
24643
24649
24645
24647
24666
24656
24653
24658
24659
24655
24654
24654
24658
24662
24661
24662
24661
24659
24660
24664
24661
24666
24661
24666
24666
24667
24663
24660
24660
24658
24663
24664
24661
24666
24668
24663
24668
24674
24671
24664
24658
24662
24663
24661
24666
24662
24663
24663
24679
24679
24657
24660
24662
24676
24678
24671
24671
24670
24673
24671
24675
24674
24675
24672
24673
24671
24672
24679
24671
24677
24669
24678
24678
24679
24684
24691
24686
24682
24680
24679
24684
24681
24680
24681
24683
24682
24678
24679
24684
24679
24677
24679
24672
24678
24671
24670
24693
24693
24689
24688
24685
24682
24686
24692
24687
24678
24684
24683
24677
24683
24679
24679
24683
24695
24705
24676
24684
24682
24687
24681
24685
24684
24708
24695
24687
24690
24692
24699
24698
24692
24695
24685
24686
24698
24687
24689
24682
24687
24686
24709
24700
24700
24695
24708
24695
24690
24689
24687
24685
24681
24694
24689
24692
24691
24692
24715
24715
24695
24691
24693
24693
24695
24697
24703
24693
24693
24700
24699
24701
24708
24702
24703
24708
24696
24698
24700
24697
24697
24698
24698
24702
24700
24721
24724
24710
24710
24702
24710
24709
24713
24706
24703
24700
24701
24718
24711
24711
24717
24715
24711
24714
24710
24710
24710
24712
24715
24706
24714
24708
24711
24725
24714
24715
24718
24714
24717
24713
24714
24724
24721
24716
24714
24711
24719
24711
24711
24711
24714
24717
24713
24712
24711
24710
24718
24715
24721
24719
24720
24722
24737
24719
24727
24720
24715
24724
24725
24724
24729
24725
24716
24718
24717
24721
24731
24727
24727
24727
24724
24731
24725
24731
24728
24733
24730
24732
24729
24732
24732
24733
24733
24726
24725
24726
24727
24725
24724
24733
24743
24742
24740
24732
24733
24734
24743
24737
24735
24735
24733
24728
24742
24737
24737
24743
24740
24738
24739
24743
24742
24742
24743
24748
24743
24747
24746
24742
24736
24741
24734
24740
24737
24737
24735
24738
24734
24738
24740
24740
24746
24755
24743
24746
24747
24746
24751
24750
24759
24755
24745
24745
24746
24744
24757
24748
24746
24753
24754
24767
24747
24748
24751
24753
24763
24753
24756
24759
24757
24759
24762
24748
24758
24750
24756
24748
24751
24752
24756
24757
24751
24750
24761
24756
24759
24757
24758
24759
24750
24773
24767
24767
24771
24767
24767
24766
24771
24760
24756
24767
24758
24773
24775
24778
24777
24778
24772
24777
24779
24764
24775
24765
24765
24765
24771
24761
24770
24772
24770
24769
24769
24773
24769
24770
24773
24774
24775
24775
24766
24777
24764
24772
24779
24780
24775
24777
24778
24779
24773
24779
24781
24779
24774
24783
24785
24785
24782
24785
24786
24785
24779
24772
24777
24775
24782
24777
24773
24788
24781
24786
24776
24782
24785
24777
24776
24783
24779
24797
24788
24788
24786
24792
24788
24788
24788
24795
24796
24796
24791
24791
24791
24791
24802
24788
24796
24791
24800
24797
24796
24792
24783
24791
24790
24793
24791
24796
24797
24797
24790
24793
24797
24806
24811
24804
24794
24803
24801
24799
24803
24799
24799
24798
24802
24799
24804
24801
24807
24805
24804
24805
24807
24806
24806
24804
24807
24806
24804
24815
24812
24812
24809
24815
24807
24815
24811
24805
24802
24795
24796
24785
24785
24789
24789
24786
24791
24789
24902
24914
24868
24880
24854
24839
24842
24836
24849
24844
24845
24847
24845
24853
24841
24838
24839
24842
24842
24850
24856
24863
24854
24834
24833
24833
24834
24839
24833
24832
24833
24837
24835
24826
24836
24837
24836
24825
24837
24836
24828
24820
24839
24813
24835
24834
24836
24836
24839
24838
24838
24836
24836
24839
24836
24839
24842
24839
24836
24839
24839
24836
24839
24839
24843
24839
24835
24839
24839
24842
24845
24847
24844
24846
24845
24847
24844
24839
24840
24845
24841
24848
24839
24845
24848
24850
24846
24847
24847
24846
24845
24845
24853
24849
24847
24852
24844
24855
24853
24849
24848
24852
24847
24851
24851
24849
24850
24854
24850
24855
24848
24853
24851
24858
24854
24850
24853
24853
24856
24847
24851
24854
24853
24853
24853
24848
24854
24854
24854
24856
24857
24860
24858
24856
24863
24862
24858
24862
24858
24859
24856
24865
24855
24868
24857
24860
24854
24867
24859
24863
24865
24864
24862
24865
24868
24862
24866
24865
24862
24867
24863
24863
24864
24865
24863
24862
24860
24866
24869
24866
24871
24870
24871
24873
24870
24869
24869
24869
24870
24872
24869
24875
24873
24875
24868
24873
24871
24877
24868
24868
24878
24877
24878
24873
24879
24876
24878
24879
24879
24871
24874
24876
24875
24878
24878
24874
24879
24876
24878
24885
24884
24879
24878
24882
24884
24884
24881
24887
24876
24880
24887
24878
24879
24882
24882
24882
24881
24882
24884
24884
24887
24882
24886
24888
24879
24884
24887
24886
24882
24887
24882
24887
24884
24884
24889
24882
24886
24887
24888
24893
24887
24887
24884
24884
24887
24895
24878
24888
24887
24887
24892
24890
24884
24895
24888
24885
24895
24892
24882
24887
24886
24887
24890
24887
24893
24901
24902
24896
24903
24902
24896
24899
24894
24901
24895
24900
24897
24898
24897
24898
24898
24900
24898
24897
24911
24917
24897
24893
24890
24910
24908
24902
24906
24901
24903
24902
24902
24901
24901
24898
24894
24900
24903
24895
24900
24901
24902
24900
24899
24901
24907
24906
24902
24903
24905
24910
24905
24910
24916
24913
24900
24899
24900
24903
24907
24913
24913
24902
24908
24910
24909
24908
24911
24915
24910
24911
24904
24911
24911
24914
24908
24916
24919
24921
24921
24916
24917
24912
24917
24916
24914
24917
24918
24905
24916
24927
24916
24916
24926
24911
24913
24916
24916
24913
24919
24916
24916
24914
24917
24916
24918
24913
24918
24915
24925
24930
24932
24930
24932
24927
24930
24927
24929
24926
24927
24927
24929
24920
24930
24926
24935
24935
24935
24926
24926
24927
24929
24932
24936
24926
24935
24937
24941
24953
24946
24929
24927
24932
24927
24932
24933
24935
24932
24943
24934
24937
24930
24933
24941
24939
24940
24943
24944
24934
24937
24939
24932
24935
24932
24943
24943
24941
24939
24943
24943
24940
24942
24927
24942
24942
24937
24941
24943
24953
24951
24942
24950
24948
24953
24956
24947
24943
24938
24949
24943
24939
24940
24943
24943
24948
24949
24955
24946
24950
24956
24953
24954
24951
24958
24956
24956
24952
24953
24959
24955
24957
24955
24957
24964
24959
24958
24966
24964
24962
24966
24952
24949
24953
24957
24959
24959
24956
24965
24967
24958
24961
24956
24956
24967
24961
24967
24967
24967
24967
24968
24964
24967
24972
24966
24956
24958
24962
24957
24983
24971
24945
24975
24975
24973
24974
24977
24979
24972
24983
24972
24981
24987
24983
24972
24970
24967
24965
24972
24973
24975
24977
24975
24980
24973
24980
24969
24970
24961
24973
24961
24990
24980
24972
24976
24981
24979
24980
24975
24975
24983
24984
24946
24975
24967
24971
24973
24973
24970
24980
24975
24972
24974
24978
24975
24974
24977
24977
24985
24981
24991
24981
24987
24990
24987
24986
24981
24980
24975
24976
24983
24988
24988
24987
24986
24991
24985
24986
24991
24993
24983
24992
24990
24996
24996
24981
24982
24987
24985
24989
24983
24989
24999
25000
25005
25005
25001
24996
24996
24989
24989
24991
24989
24998
24997
24996
24996
25003
24997
25001
25001
25007
24999
24997
25000
24998
25004
25002
24996
24999
24999
25003
24997
25006
25005
24993
25001
24993
24996
24997
24998
25006
25013
25001
25002
25002
25001
25010
25005
25000
25001
25012
25000
25003
25007
25007
25007
25006
25015
25018
25008
25015
25011
25008
25006
25005
25001
25011
25014
25004
25001
25001
25005
25005
25021
25021
25007
25004
25002
25013
25009
25007
25001
25007
25004
25018
25012
25012
25010
25014
25012
25014
25014
25007
25009
25008
25016
25009
25031
25028
25025
25036
25009
25029
25028
25029
25031
25022
25026
25031
25031
25023
25021
25016
25018
25019
25023
25023
25019
25021
25023
25030
25030
25023
25028
25026
25030
25027
25031
25024
25023
25022
25029
25031
25020
25028
25029
25031
25029
25039
25031
25036
25038
25001
25031
25023
25033
25028
25030
25029
25026
25043
25033
25036
25030
25039
25038
25043
25036
25040
25047
25042
25045
25050
25038
25034
25035
25038
25033
25032
25035
25034
25030
25039
25037
25044
25039
25047
25047
25046
25041
25043
25038
25047
25044
25044
25039
25042
25039
25036
25040
25044
25050
25050
25047
25047
25047
25045
25047
25049
25045
25050
25047
25054
25052
25054
25052
25052
25048
25052
25048
25047
25053
25047
25053
25049
25050
25044
25050
25053
25053
25052
25049
25054
25055
25052
25057
25021
25047
25049
25048
25052
25048
25057
25051
25055
25063
25067
25055
25057
25055
25072
25059
25063
25065
25070
25100
25046
25038
25036
25079
25052
25071
25113
25045
25044
25039
25042
25041
25046
25057
25050
25047
25039
25052
25054
25063
25084
25087
25087
25087
25084
25093
25069
25072
25085
25078
25090
25066
25079
25073
25076
25080
25087
25079
25078
25077
25082
25083
25084
25079
25079
25083
25082
25083
25076
25084
25081
25083
25080
25087
25081
25081
25085
25082
25082
25084
25085
25092
25079
25084
25087
25087
25087
25084
25082
25086
25089
25086
25085
25087
25092
25092
25082
25088
25087
25085
25083
25094
25087
25087
25084
25086
25095
25086
25087
25089
25093
25093
25087
25095
25092
25093
25092
25095
25093
25093
25095
25095
25094
25092
25095
25087
25095
25095
25095
25095
25095
25095
25095
25095
25103
25100
25095
25095
25105
25089
25095
25095
25100
25095
25095
25095
25093
25103
25096
25100
25096
25114
25095
25095
25105
25107
25101
25103
25103
25100
25100
25100
25105
25103
25103
25103
25109
25101
25102
25105
25111
25106
25108
25111
25113
25103
25108
25105
25111
25111
25108
25111
25110
25107
25113
25111
25110
25108
25111
25111
25111
25111
25111
25122
25113
25117
25110
25114
25113
25110
25114
25111
25115
25111
25113
25115
25116
25117
25118
25121
25116
25120
25119
25121
25123
25114
25119
25116
25116
25116
25119
25120
25123
25111
25114
25111
25117
25124
25118
25118
25126
25126
25125
25125
25119
25119
25119
25119
25119
25127
25119
25118
25121
25119
25122
25125
25124
25125
25125
25117
25120
25130
25127
25123
25123
25126
25124
25127
25122
25133
25124
25130
25127
25127
25132
25131
25125
25126
25133
25127
25127
25130
25130
25135
25135
25127
25130
25127
25133
25131
25133
25132
25129
25124
25130
25130
25132
25128
25127
25128
25140
25134
25134
25135
25143
25136
25132
25131
25132
25135
25133
25137
25143
25128
25132
25132
25141
25134
25140
25140
25135
25135
25135
25138
25133
25138
25128
25141
25132
25143
25140
25142
25142
25146
25139
25135
25140
25135
25143
25135
25145
25140
25137
25140
25137
25140
25138
25139
25135
25143
25135
25140
25142
25140
25141
25143
25142
25146
25143
25141
25153
25159
25146
25152
25146
25148
25154
25151
25151
25147
25148
25145
25150
25140
25150
25157
25145
25159
25156
25146
25166
25155
25157
25147
25167
25164
25159
25163
25159
25158
25156
25161
25156
25155
25159
25153
25152
25158
25156
25161
25153
25167
25163
25165
25156
25158
25163
25163
25165
25162
25164
25162
25156
25161
25160
25165
25162
25164
25167
25167
25171
25169
25159
25159
25163
25167
25164
25162
25165
25155
25173
25173
25178
25173
25173
25172
25171
25167
25172
25177
25172
25168
25183
25170
25180
25174
25167
25171
25173
25178
25173
25173
25175
25169
25175
25167
25174
25173
25175
25173
25179
25175
25175
25169
25171
25171
25175
25180
25175
25175
25181
25175
25175
25173
25177
25167
25178
25175
25178
25172
25181
25182
25188
25186
25172
25178
25170
25175
25178
25175
25174
25179
25177
25177
25175
25175
25173
25174
25195
25182
25190
25188
25188
25188
25191
25198
25198
25190
25191
25191
25191
25190
25188
25183
25188
25184
25187
25192
25187
25189
25199
25196
25193
25191
25189
25191
25185
25186
25181
25188
25189
25185
25204
25196
25196
25195
25195
25198
25191
25189
25196
25191
25205
25197
25196
25192
25194
25199
25180
25204
25169
25190
25212
25198
25199
25196
25197
25198
25201
25206
25208
25199
25199
25201
25203
25199
25199
25204
25202
25205
25207
25182
25212
25207
25207
25204
25207
25206
25207
25204
25207
25214
25217
25215
25220
25215
25205
25209
25212
25217
25215
25217
25220
25220
25215
25214
25212
25206
25219
25222
25221
25216
25223
25215
25219
25220
25222
25222
25223
25222
25221
25217
25217
25227
25229
25223
25223
25220
25226
25225
25235
25223
25229
25229
25233
25239
25225
25227
25229
25224
25224
25236
25236
25227
25231
25232
25233
25236
25218
25228
25229
25240
25234
25240
25239
25230
25228
25229
25239
25236
25239
25239
25245
25243
25250
25211
25237
25236
25245
25248
25234
25236
25238
25234
25236
25242
25240
25243
25246
25247
25245
25246
25250
25247
25253
25252
25253
25255
25253
25246
25246
25241
25242
25247
25247
25247
25245
25252
25250
25250
25255
25252
25252
25229
25258
25262
25261
25259
25259
25268
25269
25276
25263
25253
25254
25254
25255
25255
25254
25255
25257
25260
25263
25260
25261
25259
25260
25269
25269
25268
25269
25263
25262
25264
25265
25267
25271
25271
25268
25270
25271
25270
25273
25271
25273
25275
25276
25270
25275
25272
25277
25277
25278
25279
25278
25284
25277
25281
25283
25282
25273
25274
25279
25282
25281
25279
25283
25289
25276
25271
25272
25276
25277
25273
25279
25278
25276
25286
25270
25278
25283
25279
25282
25279
25284
25280
25286
25279
25279
25278
25283
25281
25285
25286
25278
25284
25282
25293
25287
25287
25286
25286
25293
25287
25286
25289
25293
25289
25292
25293
25294
25293
25294
25295
25298
25295
25301
25292
25287
25285
25299
25299
25296
25291
25297
25300
25290
25295
25300
25298
25302
25285
25293
25290
25302
25294
25303
25302
25297
25303
25304
25299
25297
25301
25303
25313
25305
25311
25303
25307
25309
25304
25306
25306
25308
25313
25310
25309
25302
25305
25308
25313
25310
25316
25314
25315
25316
25318
25303
25308
25313
25307
25309
25304
25302
25301
25302
25335
25341
25340
25344
25359
25338
25329
25334
25353
25296
25296
25298
25321
25340
25317
25322
25327
25334
25342
25396
25311
25312
25311
25306
25309
25313
25319
25313
25323
25316
25316
25318
25326
25325
25325
25331
25329
25327
25326
25322
25332
25325
25331
25327
25332
25329
25329
25333
25331
25331
25335
25333
25333
25331
25332
25327
25337
25329
25333
25332
25343
25332
25335
25335
25333
25338
25340
25335
25338
25332
25335
25335
25340
25340
25339
25339
25344
25339
25338
25336
25346
25340
25341
25341
25347
25338
25337
25334
25339
25338
25336
25336
25338
25341
25349
25345
25344
25348
25338
25342
25346
25340
25346
25341
25340
25349
25349
25340
25348
25340
25345
25346
25341
25343
25348
25348
25351
25345
25344
25348
25347
25348
25350
25342
25350
25348
25351
25339
25344
25348
25351
25348
25348
25351
25350
25359
25351
25345
25348
25348
25349
25348
25354
25348
25358
25351
25351
25355
25350
25359
25351
25349
25351
25348
25351
25359
25359
25358
25354
25359
25364
25356
25359
25357
25355
25357
25359
25352
25354
25364
25356
25362
25357
25358
25367
25362
25362
25361
25354
25362
25361
25361
25361
25360
25362
25362
25359
25364
25360
25364
25367
25364
25364
25365
25361
25367
25359
25365
25364
25368
25364
25367
25367
25372
25367
25371
25368
25364
25370
25373
25365
25369
25367
25373
25374
25373
25371
25374
25374
25372
25374
25373
25377
25370
25374
25366
25372
25366
25369
25371
25366
25374
25367
25375
25363
25372
25375
25369
25372
25374
25375
25380
25365
25381
25372
25372
25367
25373
25367
25374
25374
25369
25373
25372
25378
25376
25372
25368
25379
25382
25380
25381
25375
25370
25373
25375
25372
25375
25370
25375
25379
25373
25375
25374
25368
25372
25382
25379
25379
25380
25376
25372
25378
25386
25378
25375
25376
25378
25388
25385
25389
25396
25388
25387
25382
25395
25379
25378
25380
25376
25376
25383
25377
25378
25375
25378
25381
25381
25383
25386
25383
25390
25383
25385
25388
25393
25386
25381
25380
25383
25374
25380
25381
25381
25386
25381
25383
25386
25385
25364
25376
25376
25388
25383
25388
25391
25386
25388
25385
25380
25389
25385
25389
25390
25390
25389
25391
25388
25391
25394
25394
25387
25383
25383
25381
25386
25382
25378
25387
25391
25394
25388
25391
25387
25394
25391
25396
25388
25402
25391
25401
25396
25388
25389
25391
25385
25389
25389
25386
25387
25393
25399
25392
25396
25392
25390
25399
25403
25390
25391
25395
25388
25392
25388
25396
25400
25399
25392
25400
25394
25404
25390
25395
25404
25399
25393
25397
25395
25403
25392
25402
25392
25399
25396
25401
25402
25397
25398
25398
25399
25406
25407
25402
25406
25398
25407
25399
25396
25397
25397
25399
25390
25401
25392
25396
25399
25399
25399
25407
25399
25399
25404
25404
25403
25403
25407
25407
25412
25412
25399
25409
25408
25412
25406
25399
25403
25407
25401
25411
25407
25409
25410
25408
25409
25414
25408
25418
25399
25403
25407
25410
25404
25404
25400
25403
25410
25405
25410
25404
25407
25403
25407
25409
25414
25415
25412
25405
25414
25415
25413
25413
25420
25412
25402
25412
25411
25409
25421
25411
25412
25417
25408
25406
25410
25406
25413
25411
25410
25405
25406
25415
25420
25414
25421
25420
25420
25431
25416
25414
25411
25412
25421
25414
25414
25412
25412
25415
25416
25421
25423
25409
25415
25415
25418
25417
25428
25412
25413
25423
25415
25418
25421
25418
25417
25415
25409
25412
25415
25412
25421
25426
25416
25413
25423
25421
25425
25424
25399
25413
25412
25421
25426
25416
25421
25423
25424
25426
25425
25420
25411
25421
25418
25416
25425
25428
25428
25429
25421
25423
25423
25425
25423
25420
25429
25420
25424
25418
25429
25420
25428
25420
25429
25431
25433
25427
25431
25431
25434
25444
25426
25421
25418
25425
25420
25423
25428
25423
25426
25421
25422
25423
25422
25420
25429
25424
25426
25419
25428
25426
25428
25432
25428
25429
25427
25423
25438
25435
25430
25436
25435
25436
25437
25441
25439
25436
25438
25439
25438
25439
25443
25440
25446
25431
25435
25433
25437
25428
25438
25436
25436
25438
25444
25446
25443
25439
25438
25444
25437
25440
25445
25439
25439
25443
25442
25439
25439
25439
25444
25447
25434
25447
25440
25445
25444
25449
25452
25455
25437
25440
25434
25439
25439
25439
25442
25439
25444
25444
25444
25443
25440
25446
25438
25445
25439
25444
25446
25444
25443
25441
25443
25444
25442
25442
25446
25447
25445
25444
25445
25446
25443
25451
25447
25447
25450
25452
25451
25443
25449
25446
25447
25447
25452
25448
25442
25444
25445
25447
25449
25447
25452
25453
25452
25458
25455
25456
25452
25458
25453
25460
25439
25449
25441
25444
25445
25446
25447
25446
25446
25446
25448
25452
25450
25452
25447
25460
25450
25462
25447
25452
25458
25444
25455
25455
25449
25445
25450
25448
25455
25448
25451
25446
25452
25447
25442
25444
25449
25447
25444
25452
25446
25445
25452
25447
25445
25449
25449
25443
25447
25426
25455
25450
25453
25455
25455
25461
25454
25455
25463
25463
25455
25457
25449
25450
25449
25460
25450
25455
25454
25454
25463
25463
25458
25470
25461
25457
25463
25458
25460
25458
25455
25461
25455
25456
25466
25458
25463
25460
25462
25461
25460
25460
25469
25479
25478
25473
25473
25468
25471
25474
25471
25476
25471
25469
25472
25454
25458
25460
25461
25476
25489
25445
25443
25467
25464
25492
25473
25477
25484
25489
25487
25490
25486
25489
25484
25485
25484
25493
25491
25489
25502
25467
25454
25460
25463
25470
25465
25477
25478
25486
25482
25478
25485
25482
25487
25482
25479
25482
25481
25480
25484
25482
25481
25481
25488
25484
25484
25484
25485
25489
25485
25486
25486
25484
25489
25483
25489
25486
25477
25481
25477
25484
25487
25482
25484
25489
25478
25485
25487
25481
25484
25482
25487
25490
25485
25487
25491
25492
25489
25484
25486
25483
25487
25484
25486
25486
25484
25486
25486
25481
25487
25492
25490
25483
25484
25489
25482
25486
25481
25483
25484
25476
25489
25479
25491
25478
25487
25484
25488
25484
25486
25486
25493
25487
25479
25487
25491
25487
25484
25489
25486
25484
25485
25482
25485
25484
25484
25484
25485
25492
25482
25487
25487
25487
25487
25487
25485
25490
25483
25487
25485
25485
25474
25480
25487
25486
25487
25486
25491
25484
25481
25489
25481
25486
25489
25487
25491
25479
25479
25493
25495
25484
25484
25487
25491
25493
25487
25489
25488
25487
25490
25491
25493
25485
25495
25497
25492
25491
25490
25499
25492
25487
25493
25489
25493
25497
25492
25484
25492
25492
25492
25495
25495
25492
25487
25494
25497
25494
25498
25494
25493
25497
25493
25494
25493
25486
25487
25493
25499
25498
25499
25492
25488
25492
25491
25496
25492
25492
25492
25488
25494
25495
25489
25492
25494
25495
25496
25494
25489
25495
25494
25493
25498
25488
25496
25480
25493
25495
25492
25495
25492
25495
25493
25498
25496
25499
25494
25494
25500
25497
25500
25500
25497
25501
25495
25492
25495
25500
25490
25493
25500
25492
25499
25498
25498
25495
25491
25496
25495
25503
25498
25492
25495
25496
25495
25501
25500
25498
25492
25497
25500
25494
25492
25498
25495
25487
25497
25492
25500
25488
25503
25500
25495
25498
25473
25505
25503
25503
25498
25502
25503
25503
25503
25508
25505
25508
25508
25504
25506
25503
25501
25511
25508
25500
25496
25502
25503
25500
25497
25503
25503
25497
25498
25504
25511
25511
25511
25513
25508
25509
25506
25511
25516
25511
25507
25509
25502
25501
25504
25509
25510
25508
25508
25509
25511
25510
25516
25511
25509
25508
25511
25514
25507
25511
25511
25511
25506
25511
25506
25521
25500
25513
25513
25516
25513
25509
25516
25517
25519
25519
25510
25518
25519
25510
25506
25510
25514
25516
25516
25511
25512
25509
25508
25510
25513
25516
25519
25516
25516
25510
25523
25514
25515
25516
25512
25513
25510
25508
25504
25511
25517
25514
25513
25518
25503
25511
25509
25504
25502
25511
25517
25516
25510
25510
25510
25518
25511
25504
25510
25511
25506
25508
25513
25509
25511
25505
25511
25510
25509
25511
25513
25513
25511
25509
25510
25516
25509
25503
25505
25517
25513
25511
25511
25511
25513
25509
25510
25508
25508
25509
25510
25509
25507
25503
25508
25508
25503
25506
25510
25511
25511
25511
25510
25511
25509
25503
25510
25506
25511
25505
25508
25503
25511
25510
25511
25501
25510
25519
25511
25510
25508
25510
25506
25510
25506
25508
25508
25510
25513
25512
25509
25511
25513
25514
25502
25511
25504
25505
25508
25505
25508
25510
25508
25515
25510
25515
25512
25509
25509
25509
25510
25506
25516
25510
25513
25519
25515
25511
25505
25503
25498
25511
25514
25512
25505
25504
25509
25511
25508
25508
25509
25511
25511
25507
25506
25510
25504
25505
25507
25508
25511
25510
25509
25503
25508
25501
25500
25501
25502
25507
25506
25503
25507
25506
25508
25510
25519
25517
25525
25510
25512
25511
25514
25508
25517
25514
25516
25511
25510
25508
25506
25513
25508
25509
25513
25516
25514
25514
25517
25512
25519
25510
25508
25508
25506
25508
25516
25519
25521
25522
25518
25514
25515
25524
25517
25519
25518
25518
25510
25509
25514
25511
25515
25519
25518
25519
25519
25512
25515
25517
25516
25517
25512
25514
25510
25511
25511
25511
25510
25516
25510
25517
25514
25521
25511
25521
25515
25522
25513
25523
25525
25527
25516
25508
25512
25517
25519
25518
25519
25512
25514
25519
25519
25513
25512
25529
25524
25520
25519
25518
25521
25524
25516
25518
25517
25522
25526
25519
25516
25517
25517
25522
25517
25511
25513
25522
25526
25523
25519
25518
25509
25514
25527
25524
25521
25516
25521
25514
25524
25516
25517
25516
25522
25522
25516
25527
25521
25529
25516
25518
25525
25519
25527
25518
25524
25520
25525
25529
25525
25520
25514
25529
25516
25510
25516
25521
25532
25524
25525
25521
25521
25519
25519
25519
25519
25516
25519
25521
25525
25518
25525
25525
25521
25524
25524
25524
25516
25518
25524
25524
25519
25517
25519
25525
25522
25524
25522
25523
25525
25527
25530
25526
25526
25526
25527
25530
25524
25527
25529
25530
25519
25522
25517
25523
25518
25519
25520
25518
25520
25530
25527
25527
25522
25532
25524
25524
25527
25525
25523
25524
25526
25523
25526
25527
25533
25524
25524
25522
25524
25524
25519
25524
25527
25524
25524
25518
25521
25515
25534
25527
25524
25526
25522
25525
25516
25513
25522
25521
25520
25522
25516
25523
25521
25519
25520
25521
25522
25516
25518
25524
25527
25521
25527
25520
25516
25521
25517
25516
25517
25519
25518
25521
25517
25523
25510
25524
25515
25519
25519
25515
25524
25516
25522
25519
25518
25517
25518
25513
25523
25525
25521
25521
25531
25527
25520
25523
25524
25520
25516
25522
25514
25515
25516
25538
25534
25532
25527
25506
25522
25533
25541
25536
25516
25524
25519
25532
25524
25531
25523
25550
25550
25545
25551
25540
25545
25548
25525
25527
25531
25526
25532
25541
25516
25528
25533
25540
25524
25532
25538
25532
25537
25534
25536
25530
25532
25531
25537
25528
25535
25532
25530
25526
25530
25531
25532
25535
25529
25532
25522
25535
25535
25535
25533
25532
25520
25524
25533
25531
25532
25527
25534
25525
25529
25532
25516
25532
25524
25526
25529
25532
25532
25527
25533
25529
25532
25535
25528
25527
25527
25528
25527
25528
25525
25531
25522
25527
25532
25526
25528
25526
25529
25531
25532
25524
25532
25522
25521
25530
25534
25527
25529
25526
25529
25521
25528
25524
25524
25527
25522
25524
25527
25533
25525
25524
25526
25532
25534
25526
25527
25520
25519
25527
25531
25527
25524
25527
25531
25527
25525
25520
25527
25533
25531
25527
25532
25529
25529
25517
25522
25530
25519
25522
25530
25518
25527
25522
25522
25530
25529
25525
25522
25522
25527
25519
25531
25524
25524
25525
25525
25522
25522
25525
25520
25515
25525
25521
25525
25522
25516
25516
25527
25527
25523
25524
25519
25524
25519
25523
25524
25525
25524
25525
25518
25527
25522
25519
25529
25527
25522
25525
25525
25524
25526
25524
25523
25527
25527
25524
25527
25523
25527
25519
25521
25525
25519
25520
25517
25525
25517
25527
25523
25521
25522
25516
25522
25530
25523
25524
25521
25521
25521
25520
25522
25515
25525
25515
25527
25523
25529
25526
25529
25523
25523
25520
25527
25521
25524
25522
25526
25519
25518
25516
25522
25519
25522
25521
25527
25516
25519
25519
25527
25517
25523
25519
25520
25514
25520
25524
25515
25519
25517
25521
25519
25519
25518
25527
25518
25526
25531
25527
25527
25524
25526
25532
25516
25519
25516
25518
25515
25516
25516
25524
25516
25516
25524
25527
25538
25512
25517
25509
25514
25516
25512
25517
25512
25522
25519
25525
25517
25517
25515
25510
25516
25521
25521
25527
25510
25512
25511
25514
25514
25511
25514
25514
25522
25509
25515
25510
25509
25514
25519
25518
25517
25519
25520
25540
25510
25510
25516
25516
25519
25532
25521
25516
25517
25522
25519
25519
25524
25521
25521
25519
25517
25517
25521
25520
25520
25524
25541
25514
25511
25517
25512
25517
25524
25516
25523
25517
25521
25519
25518
25521
25524
25527
25515
25502
25522
25518
25519
25524
25531
25516
25527
25525
25519
25519
25521
25519
25527
25527
25524
25524
25527
25530
25524
25527
25529
25525
25514
25515
25517
25516
25514
25519
25518
25516
25524
25516
25517
25519
25527
25527
25523
25524
25518
25519
25516
25517
25519
25518
25516
25525
25527
25518
25521
25527
25522
25529
25527
25538
25518
25533
25516
25526
25525
25532
25530
25521
25524
25517
25518
25527
25524
25532
25526
25529
25524
25527
25523
25527
25532
25524
25529
25527
25525
25527
25532
25532
25532
25529
25535
25529
25531
25527
25526
25525
25524
25522
25519
25524
25522
25524
25525
25521
25521
25520
25529
25527
25524
25525
25527
25528
25509
25535
25532
25530
25529
25524
25529
25534
25533
25532
25525
25530
25524
25532
25532
25529
25533
25525
25524
25530
25532
25537
25527
25525
25533
25535
25524
25524
25521
25516
25519
25543
25527
25535
25534
25533
25535
25535
25533
25530
25524
25525
25525
25519
25529
25525
25525
25527
25531
25535
25524
25522
25522
25524
25535
25535
25522
25525
25525
25524
25527
25501
25531
25524
25530
25535
25529
25526
25510
25540
25532
25532
25532
25531
25529
25527
25526
25527
25530
25524
25534
25524
25527
25521
25530
25521
25520
25521
25517
25524
25521
25522
25543
25535
25539
25524
25528
25530
25535
25524
25524
25526
25523
25521
25519
25529
25527
25528
25528
25530
25532
25530
25529
25526
25536
25530
25526
25532
25534
25527
25533
25530
25533
25535
25527
25535
25532
25533
25526
25528
25521
25526
25519
25525
25525
25529
25538
25537
25540
25532
25525
25524
25527
25530
25533
25528
25533
25534
25535
25535
25538
25523
25524
25526
25532
25527
25524
25527
25525
25532
25530
25527
25530
25539
25530
25533
25527
25529
25531
25527
25535
25534
25530
25529
25537
25534
25535
25535
25538
25535
25535
25532
25535
25535
25539
25535
25532
25534
25532
25531
25531
25526
25529
25532
25533
25533
25529
25535
25526
25532
25532
25543
25532
25539
25543
25547
25535
25538
25540
25540
25533
25537
25543
25528
25541
25537
25534
25535
25539
25537
25534
25535
25541
25536
25540
25534
25543
25541
25535
25533
25532
25541
25540
25543
25546
25541
25543
25549
25543
25543
25540
25540
25541
25540
25541
25538
25537
25544
25540
25543
25543
25543
25547
25549
25552
25539
25553
25550
25540
25540
25542
25542
25543
25543
25541
25543
25551
25539
25541
25543
25543
25544
25544
25542
25545
25545
25546
25546
25552
25551
25552
25551
25551
25547
25551
25550
25545
25546
25547
25556
25553
25554
25551
25552
25550
25547
25547
25545
25553
25550
25551
25544
25545
25551
25548
25549
25553
25556
25550
25546
25547
25548
25553
25545
25548
25545
25548
25543
25538
25548
25548
25545
25551
25553
25546
25556
25550
25551
25557
25549
25556
25555
25556
25557
25555
25559
25554
25565
25562
25552
25556
25555
25560
25557
25536
25550
25561
25559
25564
25560
25565
25556
25554
25560
25556
25559
25556
25567
25559
25562
25564
25570
25568
25579
25575
25559
25553
25548
25556
25549
25546
25546
25546
25542
25546
25549
25548
25550
25540
25561
25624
25582
25575
25577
25575
25569
25575
25569
25571
25574
25566
25571
25588
25579
25573
25591
25587
25589
25574
25570
25572
25574
25574
25575
25574
25574
25574
25578
25568
25572
25568
25573
25578
25588
25583
25573
25580
25578
25583
25580
25579
25579
25586
25582
25579
25576
25580
25583
25574
25567
25582
25576
25583
25583
25580
25585
25577
25581
25585
25582
25591
25581
25581
25588
25589
25580
25580
25580
25586
25583
25589
25583
25586
25584
25583
25591
25588
25589
25587
25584
25589
25589
25596
25587
25588
25591
25586
25585
25589
25591
25589
25587
25596
25589
25593
25588
25591
25592
25592
25590
25591
25591
25589
25591
25586
25593
25591
25597
25585
25588
25595
25591
25590
25591
25594
25599
25593
25593
25603
25596
25599
25595
25598
25599
25594
25596
25596
25596
25597
25601
25598
25601
25600
25603
25599
25596
25599
25606
25605
25607
25604
25603
25603
25602
25594
25605
25601
25603
25597
25602
25607
25604
25606
25604
25606
25607
25605
25607
25604
25604
25604
25604
25607
25607
25604
25607
25604
25605
25607
25606
25606
25607
25607
25607
25607
25615
25607
25615
25607
25615
25613
25619
25618
25607
25607
25615
25612
25616
25615
25615
25607
25621
25616
25620
25621
25623
25622
25623
25620
25614
25623
25623
25620
25613
25621
25620
25623
25625
25623
25620
25622
25625
25620
25625
25626
25624
25623
25623
25625
25620
25625
25623
25630
25626
25630
25626
25628
25633
25623
25623
25628
25620
25628
25625
25628
25621
25634
25626
25636
25631
25639
25634
25639
25631
25631
25633
25638
25627
25637
25636
25632
25636
25636
25642
25639
25639
25637
25639
25643
25641
25638
25641
25644
25639
25641
25642
25644
25644
25636
25637
25639
25637
25644
25641
25639
25639
25646
25639
25645
25639
25642
25638
25647
25641
25641
25645
25650
25649
25645
25648
25651
25658
25645
25647
25643
25647
25662
25650
25654
25654
25655
25652
25653
25664
25650
25651
25648
25653
25648
25660
25656
25662
25666
25663
25662
25666
25676
25671
25665
25663
25665
25658
25662
25666
25664
25660
25662
25662
25662
25660
25660
25659
25660
25662
25663
25664
25666
25670
25666
25674
25670
25671
25670
25677
25678
25683
25677
25689
25671
25671
25669
25693
25688
25680
25684
25685
25684
25685
25689
25688
25660
25672
25681
25686
25684
25678
25688
25678
25687
25691
25686
25694
25687
25679
25684
25690
25688
25702
25692
25696
25700
25700
25694
25696
25695
25698
25690
25691
25689
25689
25708
25711
25719
25699
25692
25699
25695
25699
25700
25701
25706
25706
25702
25706
25715
25703
25705
25704
25703
25706
25712
25711
25713
25717
25715
25713
25717
25716
25719
25717
25723
25716
25718
25719
25724
25717
25716
25719
25710
25717
25714
25718
25717
25719
25723
25719
25729
25727
25730
25731
25731
25739
25734
25727
25727
25726
25711
25734
25734
25729
25726
25739
25735
25733
25735
25740
25733
25736
25738
25744
25738
25741
25749
25748
25741
25737
25747
25743
25746
25751
25744
25743
25744
25750
25749
25748
25749
25751
25748
25751
25746
25759
25759
25754
25750
25756
25750
25756
25748
25762
25752
25756
25755
25754
25757
25759
25760
25765
25770
25770
25764
25764
25767
25771
25766
25773
25769
25765
25766
25772
25768
25769
25775
25775
25773
25775
25771
25776
25780
25775
25775
25778
25773
25777
25775
25779
25779
25781
25782
25782
25777
25783
25787
25780
25783
25780
25786
25786
25788
25785
25789
25783
25792
25787
25793
25788
25789
25799
25790
25789
25790
25791
25795
25797
25796
25798
25796
25799
25799
25802
25798
25806
25804
25811
25796
25805
25804
25803
25802
25801
25805
25813
25810
25819
25819
25807
25815
25808
25810
25811
25813
25817
25815
25815
25815
25815
25815
25810
25809
25811
25808
25818
25818
25817
25817
25819
25829
25825
25824
25831
25830
25826
25829
25824
25827
25812
25831
25831
25820
25830
25828
25831
25830
25828
25838
25838
25836
25834
25834
25842
25838
25844
25841
25842
25842
25846
25838
25849
25844
25844
25849
25844
25847
25849
25847
25851
25850
25851
25861
25854
25856
25854
25862
25852
25857
25854
25857
25856
25853
25854
25851
25871
25856
25863
25870
25871
25863
25861
25863
25871
25876
25868
25870
25871
25871
25870
25879
25869
25877
25876
25880
25868
25871
25876
25875
25881
25884
25886
25886
25885
25882
25886
25886
25887
25884
25885
25894
25892
25894
25893
25892
25882
25887
25892
25887
25898
25886
25894
25899
25900
25902
25895
25897
25898
25900
25898
25903
25900
25908
25900
25898
25898
25904
25903
25911
25910
25911
25911
25908
25913
25911
25913
25914
25910
25917
25911
25916
25914
25920
25914
25918
25918
25927
25926
25929
25924
25930
25929
25921
25931
25930
25929
25929
25926
25926
25926
25928
25934
25929
25934
25941
25938
25938
25937
25941
25940
25932
25949
25939
25940
25941
25943
25941
25944
25946
25946
25951
25950
25948
25950
25943
25946
25943
25946
25946
25951
25952
25964
25959
25957
25963
25965
25967
25964
25974
25964
25965
25964
25965
25965
25977
25967
25974
25990
25958
25956
25958
25963
25968
25991
25982
25987
25986
25982
25990
25988
25988
25991
25992
25996
26004
25997
26007
26004
26007
26010
26046
25983
25986
25988
26010
26001
26015
26005
26009
26012
26013
25998
26006
26006
26007
26007
26014
26015
26010
26020
26015
26007
26027
26017
26025
26020
26021
26027
26028
26023
26025
26023
26022
26023
26023
26027
26023
26026
26026
26034
26036
26041
26045
26036
26043
26055
26068
26068
26068
26076
26076
26085
26103
26101
26103
26091
26101
26101
26108
26087
26092
26085
26095
26092
26099
26097
26103
26109
26110
26109
26110
26103
26113
26104
26100
26096
26098
26085
26095
26095
26096
26098
26095
26099
26097
26093
26103
26100
26100
26098
26101
26100
26095
26095
26091
26099
26092
26097
26097
26101
26100
26097
26103
26107
26105
26105
26100
26103
26107
26104
26108
26104
26107
26103
26103
26100
26103
26107
26106
26103
26107
26112
26111
26113
26119
26119
26116
26110
26118
26118
26117
26119
26117
26119
26119
26129
26118
26116
26119
26119
26119
26119
26131
26127
26129
26134
26128
26133
26128
26135
26132
26130
26132
26128
26139
26134
26134
26136
26142
26140
26138
26138
26141
26142
26143
26149
26143
26146
26143
26151
26148
26142
26146
26150
26156
26148
26151
26152
26156
26154
26150
26156
26157
26157
26161
26162
26164
26164
26157
26161
26168
26164
26170
26160
26164
26165
26162
26175
26175
26174
26172
26179
26178
26171
26180
26177
26183
26188
26181
26183
26182
26187
26187
26183
26182
26187
26183
26186
26180
26193
26192
26197
26196
26198
26199
26200
26200
26194
26197
26198
26198
26199
26204
26205
26199
26205
26200
26202
26196
26209
26215
26207
26210
26213
26215
26219
26215
26213
26214
26215
26212
26215
26218
26214
26220
26227
26220
26219
26221
26223
26227
26227
26235
26228
26230
26235
26232
26236
26231
26230
26237
26234
26234
26234
26231
26237
26239
26236
26239
26244
26245
26249
26253
26244
26252
26250
26245
26253
26253
26252
26249
26252
26255
26252
26261
26252
26254
26263
26261
26260
26258
26270
26260
26272
26269
26268
26268
26265
26273
26270
26273
26271
26272
26269
26277
26269
26280
26276
26285
26281
26285
26279
26284
26287
26285
26289
26287
26295
26288
26300
26292
26290
26289
26292
26294
26292
26298
26303
26309
26300
26309
26303
26304
26306
26309
26311
26305
26310
26312
26303
26312
26301
26314
26322
26318
26316
26319
26322
26321
26329
26324
26322
26327
26335
26329
26329
26334
26329
26328
26335
26330
26332
26325
26334
26329
26335
26326
26333
26334
26335
26332
26336
26336
26337
26341
26343
26339
26335
26342
26332
26337
26335
26338
26328
26338
26340
26335
26340
26335
26346
26342
26347
26339
26353
26347
26350
26353
26345
26345
26346
26348
26350
26355
26343
26356
26347
26352
26356
26360
26354
26359
26357
26360
26361
26362
26364
26369
26367
26364
26363
26365
26367
26369
26361
26360
26365
26368
26372
26364
26371
26377
26378
26375
26380
26375
26382
26380
26387
26380
26382
26386
26381
26380
26380
26383
26391
26384
26385
26393
26394
26393
26396
26397
26396
26395
26407
26399
26401
26395
26399
26394
26394
26396
26399
26403
26404
26393
26404
26401
26404
26406
26409
26409
26407
26407
26410
26413
26415
26406
26414
26415
26419
26409
26405
26409
26415
26408
26412
26423
26418
26411
26409
26416
26412
26423
26424
26423
26426
26428
26424
26427
26430
26424
26420
26431
26416
26424
26431
26427
26429
26426
26426
26431
26442
26441
26443
26442
26441
26437
26439
26446
26440
26436
26438
26441
26439
26441
26447
26442
26445
26447
26446
26439
26444
26451
26449
26452
26447
26452
26445
26457
26453
26456
26450
26446
26450
26457
26453
26463
26458
26458
26462
26462
26465
26463
26460
26465
26470
26471
26471
26471
26464
26462
26465
26467
26471
26471
26469
26473
26467
26474
26478
26477
26481
26476
26484
26479
26483
26489
26481
26482
26481
26476
26485
26487
26478
26487
26484
26488
26493
26489
26497
26496
26500
26500
26503
26500
26498
26503
26502
26500
26500
26503
26503
26503
26505
26508
26509
26508
26512
26504
26514
26516
26509
26519
26521
26527
26524
26508
26519
26521
26522
26520
26527
26523
26522
26522
26523
26529
26532
26527
26533
26537
26538
26538
26537
26541
26537
26534
26542
26548
26541
26547
26542
26548
26544
26548
26554
26548
26549
26554
26562
26558
26559
26566
26556
26559
26561
26561
26563
26569
26568
26562
26566
26575
26573
26568
26564
26574
26586
26568
26575
26582
26575
26583
26580
26580
26576
26584
26586
26586
26594
26597
26588
26601
26577
26576
26577
26584
26590
26588
26600
26589
26607
26604
26602
26595
26604
26594
26601
26599
26605
26597
26601
26604
26608
26606
26612
26613
26609
26614
26612
26620
26615
26617
26622
26622
26623
26623
26623
26620
26625
26622
26628
26624
26620
26630
26630
26639
26645
26629
26625
26629
26630
26629
26631
26631
26631
26633
26642
26644
26647
26646
26652
26651
26660
26656
26647
26642
26645
26652
26649
26648
26650
26655
26657
26660
26656
26662
26660
26658
26657
26661
26657
26653
26657
26660
26664
26670
26677
26674
26673
26653
26653
26660
26660
26671
26678
26714
26642
26645
26641
26651
26655
26668
26682
26672
26663
26698
26693
26696
26695
26689
26677
26673
26688
26674
26689
26674
26673
26673
26682
26679
26668
26664
26675
26666
26672
26684
26676
26689
26687
26693
26692
26700
26703
26701
26690
26693
26697
26693
26698
26691
26695
26692
26693
26695
26693
26697
26695
26698
26703
26697
26710
26704
26712
26712
26713
26709
26713
26713
26703
26706
26706
26709
26702
26716
26708
26717
26718
26708
26708
26709
26713
26712
26716
26719
26719
26717
26716
26719
26695
26708
26711
26707
26708
26702
26705
26710
26708
26709
26706
26700
26719
26726
26729
26724
26726
26727
26726
26727
26723
26722
26718
26724
26711
26731
26733
26738
26732
26735
26740
26741
26740
26743
26746
26743
26746
26749
26742
26741
26733
26732
26737
26732
26731
26748
26749
26749
26743
26745
26756
26750
26752
26730
26758
26757
26764
26759
26765
26759
26756
26752
26759
26755
26756
26757
26759
26758
26760
26769
26763
26771
26767
26775
26768
26778
26773
26777
26760
26770
26772
26768
26762
26771
26767
26768
26767
26774
26767
26775
26777
26780
26774
26778
26780
26778
26770
26783
26783
26785
26778
26779
26777
26783
26777
26776
26775
26785
26788
26788
26784
26790
26785
26791
26796
26797
26795
26794
26794
26792
26788
26788
26791
26788
26793
26791
26794
26791
26799
26799
26807
26805
26808
26804
26808
26814
26806
26810
26805
26807
26805
26810
26807
26805
26805
26804
26806
26796
26802
26814
26811
26812
26815
26814
26813
26816
26818
26818
26813
26816
26812
26812
26810
26812
26820
26815
26818
26820
26820
26827
26821
26822
26830
26830
26824
26823
26825
26823
26818
26822
26825
26826
26828
26830
26823
26830
26824
26823
26836
26830
26831
26831
26833
26836
26834
26836
26827
26831
26828
26831
26833
26836
26830
26833
26837
26833
26841
26838
26838
26846
26837
26849
26844
26844
26847
26846
26849
26847
26846
26846
26852
26848
26855
26855
26862
26855
26852
26841
26844
26850
26854
26857
26861
26862
26855
26863
26853
26855
26860
26860
26868
26871
26857
26854
26860
26856
26862
26854
26861
26863
26860
26872
26870
26870
26871
26869
26873
26871
26876
26875
26876
26871
26868
26865
26868
26874
26876
26872
26879
26876
26885
26881
26887
26878
26885
26890
26887
26887
26885
26886
26884
26892
26895
26895
26887
26892
26893
26898
26895
26892
26887
26899
26892
26895
26888
26892
26899
26902
26903
26901
26902
26903
26903
26901
26903
26895
26901
26897
26902
26901
26902
26913
26904
26909
26903
26911
26915
26906
26904
26909
26909
26908
26909
26915
26918
26910
26910
26914
26916
26918
26916
26917
26916
26911
26912
26917
26916
26912
26922
26916
26913
26919
26916
26918
26919
26922
26919
26926
26929
26924
26925
26942
26929
26932
26932
26933
26935
26935
26936
26931
26935
26937
26935
26935
26936
26940
26936
26939
26942
26934
26935
26941
26936
26935
26940
26943
26940
26942
26943
26939
26943
26941
26939
26933
26936
26936
26951
26940
26948
26943
26949
26948
26950
26951
26951
26949
26952
26950
26952
26943
26951
26950
26947
26950
26960
26948
26958
26964
26962
26958
26964
26962
26965
26971
26962
26956
26960
26958
26961
26960
26963
26967
26958
26962
26958
26964
26973
26972
26974
26975
26973
26965
26974
26972
26976
26974
26974
26972
26969
26973
26969
26964
26967
26972
26964
26976
26975
26975
26968
26977
26978
26986
26972
26982
26982
26982
26987
26987
26986
26983
26989
26982
26989
26982
26989
26988
26987
26986
26987
26989
26989
26986
26990
26990
26997
26991
26991
26988
26991
26991
26991
26997
26997
26999
26997
27000
26994
27001
27002
27006
27007
27006
27004
27007
27006
27003
27007
27006
27006
27007
27013
27013
27015
27010
27011
27012
27017
27015
27017
27007
27023
27012
27014
27012
27009
27014
27015
27016
27023
27024
27013
27011
27015
27015
27024
27025
27021
27023
27028
27026
27028
27017
27018
27025
27028
27021
27026
27031
27030
27029
27035
27031
27028
27034
27034
27030
27034
27030
27034
27033
27039
27039
27038
27047
27044
27043
27039
27044
27040
27039
27041
27039
27044
27043
27047
27047
27051
27044
27051
27047
27045
27047
27047
27047
27047
27044
27050
27051
27047
27047
27048
27044
27046
27053
27055
27060
27050
27058
27060
27054
27054
27060
27057
27060
27056
27061
27056
27055
27060
27063
27064
27057
27061
27071
27063
27070
27071
27068
27063
27062
27061
27063
27065
27067
27074
27069
27071
27072
27071
27071
27071
27071
27076
27071
27068
27074
27070
27077
27077
27075
27076
27074
27079
27075
27079
27077
27079
27076
27077
27078
27081
27078
27076
27082
27083
27086
27076
27085
27068
27082
27087
27077
27084
27092
27086
27084
27087
27087
27087
27094
27081
27090
27086
27085
27090
27092
27087
27087
27092
27095
27095
27095
27093
27088
27099
27098
27100
27099
27095
27098
27100
27095
27094
27099
27092
27100
27101
27100
27107
27102
27106
27099
27106
27103
27108
27102
27111
27107
27107
27105
27114
27107
27111
27111
27105
27111
27104
27110
27106
27110
27111
27115
27111
27116
27111
27108
27109
27110
27116
27126
27107
27119
27111
27108
27116
27111
27122
27108
27112
27114
27121
27130
27152
27180
27108
27110
27113
27108
27119
27140
27141
27143
27152
27131
27127
27135
27127
27136
27140
27141
27141
27151
27146
27143
27151
27143
27149
27150
27132
27139
27140
27143
27143
27140
27143
27143
27143
27154
27154
27152
27150
27157
27159
27159
27166
27159
27157
27143
27143
27156
27156
27156
27164
27159
27159
27158
27164
27166
27165
27169
27172
27167
27153
27171
27170
27164
27166
27167
27167
27160
27166
27171
27165
27169
27174
27171
27172
27171
27174
27164
27169
27174
27176
27170
27174
27170
27174
27168
27175
27169
27167
27176
27172
27176
27176
27173
27183
27178
27174
27174
27181
27188
27180
27170
27182
27181
27183
27181
27191
27184
27189
27189
27183
27186
27187
27186
27185
27190
27188
27191
27191
27191
27191
27186
27194
27201
27188
27193
27193
27197
27197
27194
27188
27195
27199
27198
27191
27203
27202
27202
27206
27197
27196
27197
27202
27199
27206
27204
27204
27204
27196
27203
27198
27204
27204
27205
27206
27211
27204
27211
27208
27215
27209
27209
27212
27206
27205
27215
27215
27212
27210
27215
27210
27208
27215
27210
27222
27212
27209
27222
27215
27209
27214
27215
27214
27215
27215
27218
27214
27217
27214
27215
27216
27217
27231
27222
27225
27223
27220
27227
27228
27223
27225
27223
27225
27221
27221
27200
27222
27228
27231
27226
27230
27223
27230
27228
27223
27238
27233
27226
27233
27237
27230
27236
27236
27239
27238
27231
27237
27241
27228
27235
27231
27225
27234
27236
27237
27234
27239
27238
27237
27240
27239
27244
27244
27243
27243
27236
27235
27238
27241
27241
27239
27245
27244
27242
27246
27237
27247
27249
27249
27252
27244
27241
27248
27249
27255
27244
27247
27247
27252
27251
27247
27255
27245
27253
27252
27255
27254
27260
27255
27255
27255
27255
27256
27262
27257
27260
27260
27261
27259
27260
27263
27263
27262
27252
27257
27261
27260
27259
27262
27263
27265
27261
27260
27260
27266
27263
27263
27261
27261
27265
27260
27263
27259
27263
27270
27270
27268
27271
27268
27270
27277
27274
27271
27274
27276
27269
27271
27279
27265
27273
27275
27277
27273
27279
27278
27279
27287
27270
27283
27279
27279
27285
27278
27279
27277
27284
27281
27286
27283
27287
27284
27286
27287
27287
27281
27282
27287
27285
27287
27292
27287
27295
27287
27293
27292
27289
27293
27303
27297
27290
27300
27299
27298
27300
27300
27292
27303
27292
27300
27297
27301
27300
27294
27297
27296
27295
27300
27303
27302
27303
27302
27308
27303
27307
27302
27308
27303
27311
27302
27311
27304
27315
27310
27308
27311
27310
27311
27316
27308
27319
27309
27317
27311
27311
27311
27313
27316
27324
27327
27319
27321
27318
27323
27322
27317
27324
27318
27310
27316
27316
27327
27325
27329
27322
27332
27317
27327
27324
27318
27331
27318
27326
27325
27325
27325
27324
27328
27330
27325
27327
27327
27324
27324
27332
27331
27329
27332
27333
27332
27330
27333
27332
27335
27333
27335
27331
27329
27330
27333
27334
27336
27337
27330
27330
27332
27335
27333
27332
27335
27338
27342
27337
27337
27334
27336
27334
27340
27340
27343
27343
27343
27340
27341
27339
27341
27343
27346
27344
27342
27348
27351
27344
27351
27342
27342
27344
27344
27350
27344
27357
27351
27352
27351
27359
27351
27354
27352
27351
27363
27354
27353
27357
27353
27351
27350
27357
27363
27359
27353
27358
27359
27359
27352
27356
27353
27363
27366
27362
27361
27363
27365
27366
27364
27366
27366
27366
27366
27358
27367
27357
27368
27371
27372
27371
27366
27367
27368
27364
27367
27365
27364
27369
27365
27367
27366
27367
27367
27371
27369
27372
27372
27370
27375
27368
27372
27373
27375
27373
27378
27370
27382
27376
27383
27382
27388
27380
27375
27380
27383
27382
27383
27389
27377
27384
27384
27383
27388
27381
27389
27384
27383
27390
27391
27390
27392
27388
27393
27392
27391
27388
27391
27395
27399
27390
27396
27397
27398
27391
27398
27397
27396
27397
27399
27393
27399
27396
27397
27395
27396
27395
27394
27397
27404
27399
27399
27403
27399
27410
27403
27405
27412
27409
27408
27408
27415
27405
27411
27404
27413
27411
27411
27410
27413
27413
27412
27415
27412
27412
27415
27417
27418
27415
27412
27414
27417
27421
27409
27419
27410
27415
27423
27417
27423
27412
27423
27428
27420
27425
27424
27423
27420
27427
27421
27418
27421
27428
27423
27429
27418
27424
27429
27429
27423
27431
27420
27426
27425
27431
27431
27428
27431
27428
27431
27429
27430
27430
27428
27431
27426
27437
27432
27430
27430
27438
27444
27438
27439
27435
27438
27434
27438
27442
27439
27438
27439
27439
27442
27442
27442
27443
27444
27447
27445
27447
27444
27442
27446
27439
27445
27447
27446
27446
27449
27442
27447
27448
27450
27447
27451
27447
27447
27447
27452
27452
27447
27451
27452
27453
27454
27450
27455
27454
27454
27450
27452
27455
27455
27455
27456
27455
27454
27455
27471
27450
27453
27445
27452
27455
27461
27459
27457
27456
27468
27462
27454
27454
27459
27460
27464
27462
27470
27475
27473
27476
27474
27470
27470
27473
27477
27476
27488
27449
27455
27452
27456
27458
27454
27457
27459
27462
27460
27462
27462
27462
27470
27476
27474
27482
27482
27484
27484
27484
27492
27491
27488
27486
27486
27491
27485
27487
27484
27492
27489
27486
27494
27492
27494
27492
27493
27489
27492
27482
27489
27484
27498
27495
27497
27502
27494
27493
27493
27495
27494
27494
27492
27495
27492
27502
27497
27502
27495
27493
27487
27494
27497
27503
27498
27503
27498
27495
27502
27499
27498
27492
27495
27498
27502
27497
27500
27503
27502
27502
27499
27496
27503
27492
27494
27497
27503
27508
27505
27506
27505
27508
27508
27510
27511
27517
27519
27516
27519
27514
27516
27519
27517
27514
27516
27515
27511
27513
27514
27508
27513
27519
27524
27525
27511
27519
27516
27519
27519
27524
27527
27519
27524
27525
27527
27520
27519
27526
27527
27523
27524
27522
27516
27524
27518
27530
27519
27527
27527
27531
27527
27527
27528
27519
27528
27527
27527
27527
27522
27525
27527
27530
27525
27527
27522
27526
27527
27526
27527
27526
27532
27523
27527
27531
27530
27531
27537
27530
27533
27532
27532
27541
27539
27540
27538
27538
27542
27544
27543
27546
27540
27539
27542
27548
27538
27543
27536
27544
27543
27543
27547
27540
27548
27540
27547
27549
27545
27553
27548
27550
27534
27546
27551
27548
27549
27548
27550
27555
27551
27546
27549
27543
27553
27542
27555
27554
27555
27556
27556
27559
27557
27555
27559
27563
27559
27549
27553
27556
27550
27552
27548
27557
27557
27555
27558
27551
27564
27557
27562
27560
27564
27564
27561
27559
27558
27566
27560
27560
27562
27559
27559
27558
27566
27564
27564
27567
27565
27567
27572
27568
27567
27565
27575
27572
27572
27564
27564
27565
27565
27573
27572
27573
27564
27573
27572
27567
27575
27578
27575
27575
27576
27568
27572
27578
27575
27573
27577
27573
27579
27571
27580
27574
27575
27582
27577
27577
27577
27584
27580
27578
27585
27585
27586
27590
27586
27592
27577
27584
27586
27583
27585
27587
27589
27584
27593
27588
27590
27590
27590
27591
27590
27589
27593
27590
27593
27591
27591
27590
27596
27592
27594
27595
27596
27594
27600
27604
27596
27600
27606
27591
27602
27598
27594
27596
27599
27601
27600
27602
27606
27612
27601
27600
27605
27616
27598
27602
27605
27604
27605
27609
27609
27607
27606
27611
27613
27612
27619
27609
27606
27612
27609
27615
27609
27615
27614
27618
27622
27613
27622
27620
27621
27619
27620
27620
27621
27616
27614
27626
27624
27621
27624
27617
27623
27628
27627
27623
27634
27629
27636
27634
27614
27629
27631
27625
27626
27631
27631
27638
27631
27629
27631
27635
27636
27632
27639
27636
27651
27636
27636
27636
27638
27642
27642
27636
27642
27639
27642
27646
27635
27642
27644
27643
27644
27643
27649
27649
27648
27647
27651
27650
27645
27651
27651
27645
27649
27650
27650
27652
27644
27655
27652
27651
27655
27650
27655
27655
27655
27655
27655
27662
27655
27654
27655
27662
27655
27662
27661
27660
27655
27655
27661
27658
27658
27654
27663
27662
27657
27661
27658
27665
27671
27668
27675
27669
27671
27670
27667
27655
27673
27676
27677
27674
27673
27671
27669
27676
27671
27679
27679
27674
27684
27676
27673
27666
27676
27676
27677
27680
27681
27683
27676
27685
27683
27684
27677
27690
27684
27686
27684
27685
27685
27690
27686
27691
27686
27686
27695
27687
27695
27687
27695
27689
27685
27692
27689
27695
27697
27696
27702
27700
27696
27697
27694
27697
27700
27703
27699
27708
27701
27700
27703
27706
27703
27708
27702
27706
27712
27711
27711
27708
27717
27712
27719
27713
27710
27686
27712
27713
27713
27712
27711
27719
27715
27716
27718
27719
27725
27727
27723
27723
27724
27719
27721
27719
27721
27719
27716
27717
27720
27719
27726
27722
27716
27722
27725
27724
27731
27725
27725
27724
27735
27728
27728
27722
27724
27724
27725
27732
27740
27724
27729
27726
27731
27732
27735
27737
27737
27734
27734
27737
27732
27738
27735
27736
27738
27732
27740
27740
27739
27733
27739
27738
27739
27737
27737
27738
27742
27739
27742
27743
27744
27746
27748
27734
27742
27749
27740
27749
27748
27749
27746
27750
27743
27748
27756
27735
27756
27754
27747
27754
27748
27751
27753
27756
27758
27756
27754
27751
27757
27759
27758
27758
27765
27758
27761
27760
27759
27761
27765
27759
27756
27764
27763
27764
27772
27766
27760
27767
27764
27770
27770
27769
27767
27769
27775
27775
27770
27777
27778
27775
27773
27774
27773
27773
27774
27780
27769
27778
27781
27783
27776
27783
27777
27778
27783
27791
27790
27791
27788
27790
27793
27791
27788
27793
27788
27786
27784
27793
27797
27796
27797
27803
27795
27798
27797
27801
27786
27791
27804
27799
27807
27812
27791
27801
27809
27785
27785
27818
27801
27801
27807
27812
27801
27808
27812
27820
27812
27820
27821
27823
27814
27812
27817
27818
27820
27816
27812
27810
27815
27818
27819
27820
27820
27828
27830
27832
27832
27834
27838
27836
27845
27839
27842
27836
27838
27839
27839
27835
27836
27838
27847
27837
27841
27838
27838
27847
27849
27852
27847
27844
27853
27837
27847
27832
27837
27842
27845
27839
27846
27837
27847
27844
27844
27838
27844
27846
27842
27854
27849
27846
27849
27852
27847
27848
27854
27848
27855
27850
27847
27852
27851
27856
27853
27860
27868
27867
27873
27857
27864
27868
27871
27868
27861
27849
27864
27863
27864
27862
27865
27874
27863
27860
27866
27876
27866
27872
27879
27872
27876
27875
27884
27872
27877
27874
27878
27853
27869
27867
27877
27874
27874
27872
27878
27876
27878
27876
27883
27876
27880
27885
27887
27884
27883
27883
27879
27886
27878
27876
27885
27882
27879
27881
27890
27886
27881
27876
27891
27892
27900
27897
27897
27899
27896
27890
27900
27898
27902
27896
27902
27900
27903
27896
27900
27905
27903
27911
27905
27908
27909
27910
27911
27903
27906
27911
27898
27910
27911
27909
27911
27916
27909
27911
27916
27919
27918
27918
27918
27920
27925
27927
27914
27921
27921
27919
27919
27932
27920
27908
27921
27922
27925
27920
27929
27926
27926
27924
27924
27924
27928
27930
27932
27930
27926
27933
27938
27935
27934
27935
27929
27928
27943
27939
27937
27942
27944
27941
27943
27950
27943
27946
27943
27932
27944
27947
27940
27940
27941
27946
27943
27943
27942
27951
27948
27950
27943
27952
27952
27956
27956
27951
27948
27951
27951
27950
27957
27958
27956
27953
27952
27954
27953
27959
27956
27963
27953
27967
27962
27959
27956
27962
27962
27961
27962
27967
27963
27959
27964
27962
27968
27971
27975
27964
27967
27973
27970
27972
27969
27972
27972
27972
27973
27975
27973
27972
27980
27974
27972
27974
27980
27973
27977
27980
27977
27980
27986
27979
27981
27984
27987
27978
27987
27980
27986
27984
27988
27984
27987
27988
27984
27991
27989
27989
27988
27986
27997
27991
28001
27997
27998
27993
27999
27991
27994
28000
27994
27998
27996
28002
27999
28007
27996
28002
28003
28000
28002
28006
28006
28004
28009
28005
27998
28010
28005
28012
28006
28007
28004
28007
28012
28006
28006
28005
28013
28018
28012
28015
27996
28012
28018
28018
28014
28017
28023
28020
28015
28019
28017
28016
28022
28023
28028
28028
28020
28027
28034
28029
28028
28030
28030
28015
28032
28031
28033
28028
28031
28028
28029
28031
28036
28032
28023
28036
28036
28035
28037
28040
28036
28037
28039
28045
28046
28042
28041
28039
28044
28044
28042
28044
28038
28043
28044
28052
28051
28046
28047
28055
28053
28047
28058
28049
28041
28052
28053
28053
28060
28051
28049
28055
28055
28050
28060
28062
28063
28062
28057
28065
28052
28070
28063
28062
28060
28061
28066
28060
28059
28060
28071
28063
28068
28074
28067
28070
28071
28070
28070
28067
28070
28073
28077
28076
28078
28073
28084
28070
28079
28076
28084
28076
28078
28074
28083
28085
28077
28087
28077
28084
28085
28081
28087
28087
28086
28090
28090
28092
28090
28093
28092
28094
28087
28094
28095
28098
28095
28097
28097
28093
28101
28100
28098
28103
28105
28100
28100
28100
28103
28109
28104
28109
28110
28098
28102
28110
28104
28110
28106
28118
28108
28113
28109
28113
28112
28119
28115
28117
28118
28109
28122
28111
28114
28111
28119
28119
28123
28118
28124
28121
28126
28119
28121
28123
28130
28122
28127
28120
28130
28124
28126
28124
28127
28126
28124
28130
28130
28132
28126
28132
28134
28132
28135
28138
28141
28135
28136
28131
28133
28132
28141
28138
28141
28140
28144
28143
28140
28141
28149
28145
28145
28155
28146
28148
28151
28148
28151
28153
28154
28151
28155
28156
28159
28159
28159
28161
28158
28159
28163
28160
28154
28162
28165
28161
28159
28158
28167
28160
28164
28167
28167
28164
28167
28159
28167
28167
28167
28174
28166
28167
28175
28167
28167
28179
28180
28170
28172
28174
28172
28178
28171
28176
28178
28175
28172
28180
28180
28178
28179
28188
28183
28191
28188
28180
28184
28186
28180
28182
28181
28179
28191
28191
28191
28186
28175
28192
28195
28191
28192
28189
28197
28192
28199
28197
28202
28198
28199
28196
28198
28196
28210
28202
28199
28199
28199
28212
28201
28199
28207
28199
28206
28207
28208
28212
28211
28208
28207
28212
28212
28212
28213
28211
28218
28215
28218
28218
28220
28216
28215
28220
28214
28221
28223
28212
28223
28225
28225
28222
28226
28228
28227
28229
28230
28231
28230
28228
28224
28222
28230
28229
28232
28237
28240
28289
28210
28228
28244
28229
28231
28239
28245
28245
28256
28262
28269
28329
28221
28234
28225
28239
28236
28237
28228
28231
28238
28239
28244
28244
28252
28265
28257
28258
28263
28260
28262
28261
28268
28261
28263
28276
28265
28274
28271
28271
28274
28270
28268
28278
28285
28284
28271
28273
28268
28279
28278
28281
28284
28279
28284
28292
28287
28279
28291
28289
28288
28288
28286
28289
28289
28287
28280
28284
28292
28289
28284
28287
28280
28301
28300
28304
28303
28303
28305
28305
28306
28306
28303
28297
28305
28308
28300
28296
28295
28288
28302
28305
28308
28302
28306
28309
28314
28308
28308
28309
28311
28306
28311
28307
28302
28311
28318
28309
28311
28313
28314
28319
28321
28317
28324
28320
28324
28317
28324
28328
28324
28322
28323
28327
28319
28315
28314
28322
28323
28318
28323
28327
28327
28319
28328
28329
28329
28327
28332
28332
28327
28332
28335
28332
28340
28332
28341
28327
28335
28333
28335
28335
28340
28337
28341
28335
28340
28344
28345
28345
28346
28338
28342
28349
28345
28346
28343
28351
28343
28356
28346
28352
28344
28353
28335
28359
28356
28359
28358
28365
28359
28361
28363
28359
28358
28364
28352
28361
28353
28364
28360
28364
28362
28366
28372
28374
28366
28372
28375
28374
28359
28375
28369
28372
28374
28373
28373
28368
28382
28378
28378
28379
28375
28386
28388
28383
28384
28381
28383
28382
28380
28387
28390
28383
28383
28380
28386
28386
28380
28391
28388
28384
28386
28388
28385
28396
28395
28396
28399
28390
28394
28399
28396
28398
28390
28397
28398
28399
28395
28396
28386
28391
28394
28404
28407
28405
28404
28404
28411
28412
28402
28407
28407
28412
28409
28412
28406
28413
28412
28411
28410
28410
28417
28410
28414
28423
28417
28423
28412
28423
28418
28419
28417
28423
28420
28422
28412
28416
28419
28418
28423
28423
28425
28427
28428
28426
28436
28438
28432
28435
28436
28432
28435
28435
28430
28429
28428
28428
28433
28432
28431
28436
28439
28443
28442
28440
28446
28449
28447
28445
28449
28444
28447
28443
28446
28449
28447
28452
28453
28456
28455
28457
28463
28453
28452
28457
28459
28462
28460
28463
28459
28455
28463
28457
28462
28462
28469
28454
28463
28462
28462
28472
28471
28464
28474
28465
28471
28483
28474
28472
28476
28473
28474
28479
28479
28478
28478
28479
28474
28475
28482
28479
28480
28480
28487
28491
28485
28480
28485
28495
28493
28490
28487
28488
28495
28492
28493
28492
28500
28495
28499
28495
28500
28495
28499
28503
28501
28503
28504
28502
28510
28502
28510
28502
28511
28505
28511
28502
28514
28516
28510
28511
28511
28515
28519
28515
28519
28522
28525
28521
28519
28519
28521
28514
28525
28520
28521
28519
28527
28524
28531
28534
28527
28532
28535
28529
28535
28529
28532
28535
28540
28533
28541
28533
28543
28538
28538
28543
28534
28540
28547
28548
28551
28548
28551
28543
28543
28550
28548
28553
28557
28551
28557
28555
28554
28548
28551
28551
28554
28556
28557
28564
28562
28559
28562
28556
28567
28564
28566
28567
28565
28564
28575
28578
28573
28573
28574
28570
28572
28572
28572
28582
28575
28577
28578
28575
28580
28576
28579
28583
28586
28580
28588
28581
28588
28588
28583
28585
28570
28590
28593
28591
28584
28594
28593
28595
28599
28596
28607
28594
28596
28603
28599
28601
28596
28605
28607
28606
28606
28604
28610
28599
28612
28606
28615
28613
28616
28614
28615
28615
28611
28614
28617
28618
28615
28625
28631
28616
28628
28623
28624
28619
28629
28631
28631
28631
28636
28635
28636
28632
28631
28628
28614
28637
28638
28643
28641
28641
28647
28644
28642
28645
28647
28650
28642
28647
28647
28648
28654
28653
28647
28654
28654
28652
28663
28660
28660
28660
28660
28663
28668
28660
28663
28670
28667
28663
28667
28668
28671
28672
28679
28679
28675
28679
28671
28679
28674
28679
28679
28679
28686
28686
28693
28691
28682
28689
28695
28692
28688
28693
28695
28700
28695
28694
28692
28695
28701
28697
28694
28695
28701
28702
28700
28700
28701
28709
28705
28708
28711
28711
28709
28711
28711
28714
28713
28711
28709
28711
28714
28718
28713
28712
28714
28724
28720
28724
28721
28721
28730
28726
28732
28727
28734
28726
28731
28729
28737
28734
28735
28736
28741
28737
28741
28743
28743
28748
28747
28745
28748
28750
28746
28730
28757
28749
28746
28757
28751
28751
28748
28759
28754
28761
28756
28759
28756
28767
28764
28767
28764
28764
28762
28762
28768
28770
28765
28767
28780
28780
28777
28775
28775
28774
28772
28773
28773
28778
28772
28776
28775
28776
28778
28780
28776
28786
28783
28788
28810
28797
28772
28768
28773
28884
28821
28811
28807
28799
28801
28807
28795
28812
28820
28816
28813
28799
28813
28811
28814
28814
28817
28817
28822
28825
28831
28827
28837
28838
28839
28846
28844
28846
28838
28842
28844
28820
28841
28835
28842
28842
28844
28849
28843
28850
28847
28852
28853
28855
28853
28863
28857
28856
28863
28861
28861
28862
28850
28854
28863
28863
28859
28859
28858
28862
28855
28857
28871
28854
28870
28873
28875
28871
28871
28871
28879
28883
28884
28874
28874
28876
28885
28883
28883
28876
28861
28883
28883
28882
28879
28879
28892
28893
28890
28881
28894
28892
28895
28888
28888
28886
28895
28892
28890
28894
28895
28882
28895
28895
28910
28915
28918
28913
28916
28900
28905
28910
28916
28896
28904
28916
28917
28911
28919
28916
28908
28914
28916
28913
28924
28928
28924
28925
28927
28925
28924
28925
28924
28927
28927
28931
28934
28926
28942
28931
28935
28936
28941
28948
28938
28933
28957
28951
28951
28952
28946
28949
28956
28949
28950
28946
28950
28951
28951
28958
28956
28954
28967
28959
28965
28964
28963
28957
28964
28962
28964
28967
28963
28969
28970
28971
28974
28975
28980
28983
28964
28964
28973
28986
28980
28991
28989
28989
28991
28992
28994
28990
28999
28993
28991
28987
28991
28990
28990
28992
28997
28991
28994
28998
28997
29006
29007
29004
29006
29007
29012
29012
29004
29009
29007
29007
29004
29007
29010
28998
29009
29010
29017
29016
29015
29021
29028
29028
29026
29021
29024
29018
29017
29024
29023
29017
29025
29022
29030
29028
29025
29031
29039
29035
29039
29043
29029
29026
29039
29038
29040
29036
29039
29044
29038
29049
29046
29044
29048
29047
29046
29055
29053
29045
29054
29060
29052
29059
29048
29055
29056
29053
29062
29062
29059
29060
29058
29065
29065
29063
29066
29066
29063
29062
29071
29074
29076
29079
29071
29081
29074
29081
29082
29077
29079
29087
29086
29087
29087
29084
29088
29089
29085
29087
29089
29092
29090
29094
29095
29098
29103
29102
29099
29103
29099
29100
29098
29101
29091
29106
29103
29110
29102
29113
29112
29119
29116
29110
29119
29108
29122
29119
29119
29119
29125
29121
29125
29116
29118
29124
29126
29127
29130
29127
29134
29133
29135
29132
29135
29127
29140
29136
29133
29142
29131
29148
29143
29143
29146
29142
29145
29149
29153
29155
29157
29154
29164
29144
29158
29155
29151
29159
29157
29162
29158
29165
29160
29164
29159
29166
29169
29180
29172
29177
29174
29178
29169
29181
29180
29182
29177
29174
29179
29180
29173
29186
29187
29187
29185
29188
29186
29186
29191
29188
29199
29191
29199
29196
29189
29202
29204
29202
29198
29191
29202
29206
29212
29199
29208
29215
29220
29220
29215
29214
29219
29217
29220
29223
29221
29220
29221
29218
29221
29212
29221
29231
29231
29227
29231
29230
29231
29232
29231
29231
29228
29239
29243
29245
29238
29239
29239
29238
29243
29237
29244
29247
29251
29246
29245
29254
29254
29255
29251
29258
29257
29256
29256
29260
29263
29268
29261
29263
29268
29269
29269
29264
29265
29273
29268
29273
29272
29277
29274
29277
29279
29273
29276
29277
29281
29277
29281
29276
29285
29287
29287
29281
29287
29291
29290
29287
29292
29295
29289
29299
29292
29295
29298
29303
29302
29306
29301
29303
29306
29303
29306
29309
29308
29297
29305
29307
29315
29317
29319
29312
29316
29319
29315
29319
29319
29321
29317
29327
29325
29318
29333
29325
29325
29327
29322
29327
29327
29335
29332
29337
29340
29334
29340
29335
29345
29335
29342
29343
29345
29345
29342
29348
29350
29349
29355
29356
29351
29356
29351
29364
29357
29354
29357
29356
29359
29359
29361
29364
29361
29375
29362
29364
29367
29361
29367
29365
29375
29377
29376
29374
29373
29381
29381
29380
29384
29386
29382
29382
29382
29389
29390
29385
29380
29393
29390
29391
29395
29392
29395
29396
29398
29401
29393
29406
29410
29405
29402
29403
29405
29411
29407
29401
29406
29407
29405
29408
29415
29404
29408
29420
29419
29418
29419
29413
29423
29421
29421
29421
29420
29428
29421
29408
29424
29423
29436
29424
29423
29422
29441
29432
29437
29436
29444
29415
29442
29443
29439
29445
29443
29447
29447
29447
29455
29452
29454
29447
29455
29455
29452
29460
29457
29466
29458
29463
29467
29463
29460
29474
29468
29471
29467
29471
29471
29471
29476
29477
29476
29476
29480
29476
29483
29487
29482
29485
29481
29490
29487
29486
29482
29479
29476
29474
29460
29532
29542
29464
29469
29524
29509
29509
29503
29510
29500
29502
29500
29500
29501
29493
29504
29505
29514
29513
29516
29516
29518
29524
29525
29525
29527
29518
29521
29534
29541
29529
29540
29540
29542
29540
29543
29550
29545
29548
29556
29551
29560
29551
29549
29550
29559
29560
29562
29566
29567
29570
29570
29569
29572
29573
29550
29568
29574
29585
29575
29572
29578
29570
29574
29575
29570
29581
29575
29583
29580
29588
29586
29580
29596
29590
29596
29597
29588
29591
29593
29593
29596
29588
29601
29599
29598
29597
29604
29602
29605
29607
29605
29588
29583
29604
29591
29596
29610
29620
29615
29612
29615
29615
29616
29623
29623
29628
29628
29629
29625
29633
29617
29636
29621
29628
29633
29626
29625
29631
29634
29628
29631
29636
29636
29637
29636
29644
29639
29642
29646
29650
29653
29647
29642
29630
29646
29647
29648
29630
29652
29656
29652
29650
29662
29656
29671
29667
29671
29668
29665
29656
29664
29660
29671
29667
29671
29674
29668
29675
29669
29674
29674
29670
29678
29672
29682
29684
29687
29685
29689
29694
29695
29696
29696
29684
29698
29692
29697
29690
29695
29698
29694
29703
29703
29711
29714
29703
29692
29704
29703
29713
29721
29716
29712
29721
29715
29703
29714
29703
29716
29711
29718
29721
29723
29724
29727
29726
29726
29735
29733
29717
29726
29742
29732
29735
29733
29737
29739
29725
29743
29740
29740
29745
29743
29740
29741
29747
29748
29754
29759
29758
29759
29751
29753
29759
29754
29752
29756
29758
29758
29762
29758
29756
29758
29766
29766
29769
29772
29765
29780
29778
29774
29782
29780
29784
29783
29782
29781
29778
29780
29783
29785
29780
29792
29782
29788
29775
29801
29783
29789
29797
29799
29802
29798
29796
29796
29799
29790
29802
29798
29801
29801
29798
29805
29807
29813
29807
29812
29812
29812
29826
29820
29814
29823
29813
29815
29814
29818
29823
29818
29822
29820
29823
29830
29826
29834
29836
29839
29831
29836
29839
29841
29844
29844
29846
29838
29838
29844
29847
29840
29847
29847
29850
29849
29853
29857
29860
29856
29854
29863
29862
29861
29869
29858
29863
29863
29863
29862
29864
29864
29868
29871
29869
29879
29883
29884
29879
29881
29884
29886
29890
29893
29884
29892
29895
29888
29888
29895
29895
29895
29889
29894
29897
29899
29900
29899
29910
29904
29910
29913
29909
29901
29905
29908
29910
29914
29914
29912
29914
29919
29917
29922
29926
29924
29928
29927
29925
29925
29934
29931
29929
29933
29940
29935
29935
29938
29934
29940
29932
29935
29942
29944
29955
29941
29950
29945
29948
29955
29951
29951
29963
29949
29953
29935
29964
29969
29959
29961
29964
29960
29972
29969
29975
29973
29973
29983
29969
29974
29976
29981
29982
29982
29988
29986
29988
29982
29980
29994
29982
29986
29981
29991
29995
29996
29997
30005
30000
30001
30007
30002
30004
30005
30007
30007
30008
30005
30014
30012
30018
30020
30009
30018
30020
30020
30017
30023
30026
30020
30021
30031
30023
30024
30028
30024
30033
30035
30032
30036
30039
30034
30034
30043
30039
30044
30042
30046
30044
30049
30056
30046
30055
30052
30063
30050
30060
30055
30056
30063
30059
30055
30060
30069
30061
30062
30073
30065
30069
30063
30078
30082
30071
30067
30081
30075
30084
30078
30076
30076
30079
30079
30084
30087
30081
30087
30056
30087
30079
30101
30099
30092
30100
30098
30099
30094
30101
30102
30094
30094
30096
30101
30104
30103
30109
30108
30108
30118
30116
30123
30116
30108
30127
30125
30123
30125
30120
30121
30121
30128
30127
30127
30130
30125
30130
30129
30139
30135
30140
30132
30140
30140
30139
30142
30145
30148
30150
30148
30150
30151
30150
30151
30156
30151
30151
30157
30162
30158
30164
30167
30176
30166
30172
30169
30180
30172
30180
30166
30173
30170
30180
30173
30172
30181
30186
30179
30190
30187
30185
30189
30189
30197
30184
30180
30186
30199
30196
30196
30198
30199
30204
30194
30201
30206
30197
30206
30204
30214
30213
30213
30215
30220
30215
30212
30193
30223
30223
30222
30221
30223
30222
30215
30223
30231
30228
30235
30231
30244
30244
30247
30244
30249
30236
30234
30238
30246
30248
30246
30236
30247
30245
30255
30253
30257
30247
30256
30252
30263
30264
30253
30268
30274
30267
30270
30270
30268
30271
30273
30268
30260
30279
30277
30276
30277
30279
30282
30284
30287
30279
30282
30291
30290
30293
30295
30293
30300
30295
30303
30296
30303
30300
30308
30297
30308
30308
30311
30300
30312
30308
30303
30324
30329
30315
30332
30324
30330
30309
30306
30332
30323
30324
30324
30324
30324
30334
30334
30343
30340
30343
30335
30343
30332
30332
30335
30340
30340
30346
30356
30349
30372
30409
30426
30383
30388
30369
30366
30367
30373
30377
30386
30344
30346
30346
30357
30356
30374
30372
30374
30369
30383
30388
30391
30374
30375
30388
30387
30396
30400
30393
30409
30412
30412
30412
30415
30418
30414
30420
30420
30420
30414
30420
30423
30417
30431
30425
30409
30404
30436
30444
30444
30436
30437
30444
30445
30455
30447
30454
30441
30417
30447
30441
30450
30442
30452
30444
30450
30457
30460
30452
30471
30468
30478
30471
30437
30465
30470
30466
30477
30476
30470
30444
30478
30468
30468
30471
30491
30493
30495
30493
30460
30493
30488
30493
30485
30484
30506
30500
30498
30492
30482
30494
30495
30484
30500
30503
30500
30505
30506
30515
30520
30516
30511
30529
30526
30525
30527
30503
30526
30516
30518
30512
30516
30524
30516
30534
30534
30535
30521
30520
30544
30537
30541
30532
30548
30550
30549
30534
30524
30545
30548
30543
30551
30546
30552
30544
30540
30558
30572
30564
30555
30542
30569
30566
30567
30572
30564
30575
30570
30567
30577
30567
30567
30566
30583
30580
30580
30584
30589
30580
30596
30599
30591
30586
30587
30599
30603
30601
30599
30606
30600
30597
30594
30598
30598
30599
30609
30599
30610
30612
30620
30616
30629
30622
30629
30631
30624
30623
30629
30621
30604
30630
30626
30625
30632
30629
30638
30643
30644
30646
30633
30617
30650
30652
30644
30645
30652
30653
30648
30647
30653
30653
30647
30630
30655
30654
30655
30658
30663
30660
30671
30668
30656
30664
30678
30675
30670
30679
30686
30673
30674
30670
30670
30677
30676
30679
30687
30695
30689
30687
30687
30687
30668
30676
30675
30690
30692
30692
30688
30689
30693
30693
30695
30695
30699
30697
30692
30700
30697
30707
30709
30705
30707
30711
30703
30713
30719
30717
30709
30717
30710
30719
30717
30717
30716
30711
30726
30727
30724
30716
30739
30732
30743
30734
30732
30742
30738
30743
30744
30748
30740
30740
30740
30743
30745
30751
30744
30755
30750
30759
30757
30758
30763
30767
30754
30760
30764
30760
30759
30760
30759
30768
30762
30762
30772
30775
30774
30783
30779
30776
30781
30775
30780
30785
30786
30785
30788
30786
30790
30797
30788
30794
30791
30790
30802
30797
30807
30804
30812
30810
30809
30810
30813
30812
30816
30804
30807
30813
30810
30813
30815
30818
30812
30821
30820
30820
30820
30823
30827
30830
30839
30828
30833
30836
30831
30832
30836
30841
30837
30844
30833
30830
30831
30831
30845
30852
30852
30855
30853
30854
30858
30855
30862
30862
30864
30865
30866
30864
30865
30861
30864
30865
30868
30873
30874
30876
30874
30877
30887
30881
30890
30888
30886
30884
30882
30874
30887
30884
30887
30892
30889
30882
30897
30892
30895
30895
30896
30902
30907
30904
30898
30914
30905
30911
30913
30911
30907
30905
30911
30916
30908
30908
30908
30916
30912
30916
30922
30920
30927
30930
30935
30932
30930
30940
30930
30931
30931
30933
30928
30934
30930
30933
30932
30923
30938
30948
30952
30945
30951
30949
30945
30954
30959
30957
30960
30959
30951
30952
30950
30960
30970
30964
30966
30951
30964
30960
30964
30972
30965
30966
30983
30983
30978
30976
30990
30982
30983
30983
30983
30989
30985
30983
31001
30995
30990
30994
30994
30997
30999
30999
31004
31006
31008
31008
31005
31004
31002
31012
31015
31008
31015
31012
31008
31012
31024
31015
31020
31022
31020
31029
31028
31038
31014
31033
31033
31033
31028
31027
31040
31039
31030
31038
31031
31048
31036
31047
31039
31046
31040
31052
31061
31055
31057
31054
31056
31045
31063
31066
31071
31067
31063
31050
31069
31063
31070
31069
31070
31068
31077
31081
31077
31081
31083
31087
31078
31086
31087
31078
31083
31087
31079
31081
31093
31090
31090
31080
31097
31091
31095
31094
31105
31105
31110
31108
31108
31112
31117
31111
31110
31109
31110
31111
31118
31116
31116
31119
31124
31113
31132
31132
31133
31127
31134
31128
31132
31133
31137
31124
31138
31148
31149
31140
31137
31138
31145
31145
31142
31148
31156
31151
31154
31159
31162
31164
31153
31159
31154
31160
31162
31165
31161
31164
31164
31169
31167
31172
31167
31174
31175
31174
31172
31182
31178
31179
31178
31178
31183
31177
31176
31179
31190
31172
31188
31189
31191
31189
31192
31204
31196
31201
31193
31200
31199
31204
31206
31200
31188
31199
31207
31202
31212
31200
31215
31215
31212
31213
31205
31215
31214
31227
31222
31223
31225
31220
31220
31231
31228
31230
31230
31234
31236
31228
31228
31231
31233
31225
31236
31250
31251
31254
31257
31254
31260
31252
31260
31259
31256
31258
31253
31251
31261
31262
31264
31254
31266
31266
31265
31264
31270
31276
31265
31270
31270
31272
31277
31279
31278
31279
31289
31279
31292
31277
31278
31277
31280
31277
31289
31265
31271
31264
31276
31288
31300
31292
31284
31310
31332
31274
31278
31281
31292
31321
31309
31300
31301
31302
31301
31317
31331
31301
31310
31305
31320
31324
31327
31320
31330
31332
31335
31332
31337
31348
31351
31351
31356
31353
31363
31341
31362
31365
31364
31368
31357
31343
31359
31383
31383
31383
31343
31371
31374
31373
31380
31375
31387
31388
31386
31389
31405
31411
31400
31406
31398
31387
31379
31402
31397
31396
31398
31399
31398
31391
31409
31415
31407
31412
31415
31427
31412
31425
31420
31420
31399
31387
31425
31427
31421
31417
31417
31425
31412
31422
31423
31434
31431
31439
31432
31420
31421
31446
31439
31436
31443
31445
31447
31444
31439
31415
31423
31446
31445
31445
31439
31449
31444
31455
31445
31428
31463
31468
31469
31445
31430
31463
31464
31462
31469
31471
31464
31464
31465
31468
31462
31465
31478
31470
31457
31484
31492
31489
31488
31487
31495
31495
31490
31484
31491
31487
31483
31492
31489
31493
31493
31493
31495
31500
31496
31495
31495
31502
31503
31517
31519
31523
31519
31502
31515
31516
31516
31509
31518
31513
31519
31525
31523
31527
31524
31527
31526
31527
31532
31538
31531
31534
31543
31540
31540
31542
31535
31547
31548
31551
31548
31549
31551
31543
31550
31555
31558
31567
31550
31552
31567
31568
31541
31558
31567
31559
31567
31563
31564
31567
31567
31564
31564
31573
31568
31578
31577
31579
31583
31581
31591
31577
31588
31581
31587
31588
31591
31580
31587
31580
31591
31583
31586
31590
31594
31595
31599
31597
31590
31607
31612
31610
31622
31607
31596
31582
31609
31609
31607
31610
31610
31617
31604
31618
31615
31620
31617
31620
31620
31610
31625
31631
31628
31634
31622
31623
31631
31623
31620
31631
31634
31638
31642
31642
31634
31636
31646
31644
31647
31639
31644
31652
31650
31657
31655
31655
31650
31647
31647
31653
31653
31657
31665
31652
31660
31660
31671
31668
31663
31656
31668
31673
31673
31662
31670
31678
31679
31681
31679
31679
31673
31684
31684
31686
31684
31692
31688
31694
31692
31684
31692
31694
31695
31699
31698
31701
31703
31695
31697
31695
31702
31698
31703
31711
31714
31708
31710
31718
31701
31716
31719
31716
31725
31724
31722
31717
31716
31714
31724
31719
31723
31727
31735
31717
31732
31732
31732
31739
31745
31736
31719
31742
31743
31746
31728
31751
31748
31733
31741
31749
31743
31751
31761
31751
31760
31756
31751
31773
31764
31751
31765
31763
31760
31777
31768
31751
31771
31770
31775
31776
31775
31764
31775
31772
31776
31785
31778
31785
31783
31783
31787
31784
31796
31790
31791
31788
31793
31785
31796
31793
31796
31802
31797
31791
31797
31799
31804
31802
31815
31814
31813
31813
31814
31813
31815
31812
31801
31814
31812
31820
31812
31813
31823
31831
31823
31832
31834
31823
31829
31825
31829
31828
31828
31840
31841
31843
31838
31839
31842
31846
31838
31841
31852
31845
31866
31852
31847
31845
31858
31857
31860
31861
31857
31861
31870
31863
31867
31861
31866
31857
31861
31868
31874
31857
31868
31871
31876
31875
31878
31891
31879
31879
31881
31887
31889
31882
31884
31886
31879
31884
31884
31882
31890
31895
31901
31897
31905
31911
31908
31906
31900
31909
31908
31909
31907
31908
31911
31915
31912
31910
31908
31910
31911
31918
31903
31924
31919
31931
31928
31919
31916
31916
31935
31932
31932
31934
31936
31916
31932
31941
31940
31940
31940
31943
31943
31946
31949
31950
31947
31959
31952
31945
31959
31956
31953
31963
31959
31955
31956
31960
31956
31965
31958
31966
31962
31962
31972
31982
31966
31981
31988
31977
31972
31960
31974
31983
31982
31976
31981
31985
31991
31984
31983
31990
32001
32004
31981
31994
31998
31999
32007
32014
32007
32007
31991
32006
32004
32007
32004
32007
32004
32004
32015
32023
32017
32020
32018
32028
32037
32025
32023
32035
32031
32029
32028
32039
32028
32037
32037
32031
32016
32041
32034
32046
32050
32052
32054
32054
32054
32063
32062
32059
32056
32069
32062
32059
32060
32061
32056
32052
32063
32063
32061
32067
32072
32074
32071
32076
32078
32077
32076
32079
32079
32076
32089
32077
32082
32084
32088
32079
32084
32086
32085
32095
32089
32087
32093
32094
32100
32100
32100
32105
32102
32100
32101
32103
32103
32102
32102
32107
32109
32110
32103
32108
32113
32118
32126
32122
32125
32125
32126
32127
32127
32122
32134
32125
32119
32121
32124
32134
32129
32135
32134
32143
32143
32141
32143
32145
32141
32141
32148
32144
32149
32150
32151
32147
32150
32146
32158
32156
32157
32159
32159
32172
32167
32175
32172
32173
32175
32181
32173
32169
32172
32180
32180
32164
32180
32178
32170
32172
32180
32186
32191
32188
32192
32178
32192
32193
32207
32198
32196
32194
32184
32204
32195
32198
32192
32197
32188
32197
32202
32207
32215
32206
32205
32207
32201
32196
32198
32196
32190
32212
32196
32222
32222
32208
32216
32220
32228
32222
32212
32215
32222
32246
32204
32210
32207
32199
32207
32220
32239
32231
32239
32245
32236
32244
32244
32240
32247
32250
32248
32252
32259
32258
32263
32274
32276
32283
32290
32279
32286
32293
32289
32293
32293
32295
32295
32303
32300
32276
32254
32263
32276
32286
32296
32303
32303
32310
32311
32319
32323
32321
32309
32276
32294
32298
32320
32319
32318
32324
32286
32294
32313
32324
32332
32329
32335
32334
32316
32305
32308
32341
32340
32350
32342
32341
32345
32341
32354
32346
32350
32351
32343
32349
32348
32345
32358
32344
32361
32364
32367
32361
32364
32365
32333
32365
32361
32362
32363
32371
32371
32366
32360
32358
32364
32372
32377
32370
32373
32382
32377
32379
32382
32380
32381
32376
32378
32383
32372
32385
32387
32385
32391
32391
32398
32381
32396
32396
32399
32401
32398
32404
32399
32404
32406
32396
32409
32419
32406
32415
32420
32412
32418
32420
32420
32418
32420
32428
32431
32431
32393
32428
32431
32429
32436
32441
32436
32436
32433
32431
32413
32439
32439
32444
32445
32445
32450
32444
32450
32454
32457
32459
32461
32461
32460
32453
32429
32461
32460
32465
32465
32467
32463
32459
32472
32476
32477
32484
32478
32480
32471
32444
32486
32479
32487
32487
32486
32494
32485
32470
32497
32490
32495
32494
32495
32498
32501
32498
32500
32508
32508
32510
32511
32514
32513
32519
32516
32495
32516
32509
32513
32519
32510
32512
32506
32526
32532
32535
32543
32538
32535
32533
32509
32510
32534
32532
32527
32529
32530
32532
32532
32535
32537
32548
32549
32546
32549
32548
32550
32551
32551
32548
32553
32554
32561
32559
32553
32550
32548
32550
32559
32558
32559
32558
32564
32562
32561
32567
32564
32565
32580
32574
32571
32575
32575
32579
32572
32576
32582
32579
32588
32573
32583
32591
32591
32582
32589
32572
32593
32601
32595
32590
32594
32596
32599
32597
32596
32597
32607
32587
32609
32607
32615
32606
32615
32599
32615
32623
32617
32615
32611
32622
32620
32628
32625
32629
32624
32625
32614
32624
32631
32637
32629
32639
32634
32636
32637
32642
32647
32643
32647
32647
32654
32654
32657
32661
32650
32662
32655
32662
32660
32660
32667
32661
32671
32668
32668
32673
32679
32672
32674
32674
32673
32668
32673
32669
32679
32684
32683
32679
32683
32683
32679
32686
32684
32684
32684
32699
32697
32702
32693
32710
32708
32705
32703
32704
32705
32708
32706
32711
32710
32714
32708
32711
32703
32711
32719
32717
32723
32725
32719
32729
32721
32731
32731
32736
32725
32724
32734
32730
32727
32728
32740
32735
32741
32739
32741
32746
32740
32756
32748
32752
32749
32764
32748
32754
32759
32751
32743
32743
32743
32751
32749
32751
32748
32751
32756
32753
32757
32765
32767
32767
32774
32775
32767
32772
32775
32772
32762
32783
32764
32766
32768
32772
32798
32804
32796
32796
32807
32799
32801
32804
32807
32807
32812
32804
32807
32810
32807
32810
32812
32812
32815
32815
32813
32819
32814
32823
32821
32829
32839
32829
32837
32839
32838
32833
32820
32838
32828
32836
32836
32836
32842
32836
32839
32837
32844
32846
32853
32856
32851
32853
32853
32855
32868
32861
32855
32859
32854
32855
32865
32867
32870
32869
32869
32871
32871
32878
32871
32877
32877
32887
32880
32885
32885
32871
32876
32885
32896
32900
32891
32886
32903
32894
32900
32894
32900
32903
32908
32906
32903
32902
32902
32902
32913
32903
32909
32911
32922
32920
32929
32924
32920
32919
32927
32927
32933
32925
32935
32933
32933
32932
32936
32937
32935
32935
32948
32940
32940
32940
32947
32940
32944
32956
32950
32959
32957
32954
32959
32962
32966
32961
32956
32961
32962
32965
32964
32949
32951
32956
32950
32971
32970
32971
32966
32975
32983
32977
32990
32976
32980
32984
32981
32988
32993
32992
32988
32991
32996
32995
32990
32996
33000
32993
33002
32997
33005
33005
33013
33014
33015
33013
33015
33018
33015
33023
33013
33013
33023
33030
33018
33021
33029
33030
33031
33028
33031
33027
33038
33039
33042
33048
33047
33052
33047
33050
33044
33060
33050
33049
33047
33067
33055
33057
33052
33044
33060
33068
33063
33068
33075
33070
33067
33071
33066
33064
33070
33057
33079
33076
33074
33079
33083
33080
33082
33085
33082
33084
33066
33092
33091
33088
33090
33094
33093
33088
33093
33088
33103
33095
33101
33098
33091
33107
33111
33108
33116
33110
33119
33115
33111
33109
33119
33125
33119
33116
33124
33132
33126
33116
33116
33128
33135
33135
33140
33144
33141
33137
33144
33149
33145
33144
33153
33156
33157
33153
33159
33162
33157
33163
33159
33167
33167
33165
33167
33166
33159
33176
33178
33176
33180
33175
33189
33183
33188
33184
33188
33188
33183
33181
33191
33188
33205
33192
33204
33204
33209
33199
33213
33211
33206
33204
33196
33198
33211
33210
33220
33246
33186
33190
33191
33213
33220
33221
33226
33276
33204
33214
33207
33212
33226
33220
33231
33248
33258
33255
33260
33254
33253
33250
33262
33260
33262
33270
33264
33281
33278
33286
33287
33296
33297
33311
33317
33314
33310
33316
33319
33311
33324
33316
33320
33324
33324
33326
33318
33349
33338
33348
33342
33287
33348
33348
33343
33338
33350
33350
33363
33351
33321
33308
33354
33358
33350
33356
33361
33365
33351
33370
33383
33374
33343
33374
33381
33382
33387
33346
33383
33380
33383
33381
33382
33388
33372
33360
33372
33396
33396
33391
33389
33396
33402
33399
33364
33356
33394
33386
33404
33401
33405
33397
33407
33407
33411
33411
33411
33422
33417
33415
33379
33412
33429
33420
33421
33431
33423
33423
33425
33442
33437
33439
33432
33438
33431
33436
33399
33407
33428
33439
33442
33445
33446
33444
33444
33449
33444
33453
33433
33458
33465
33463
33444
33463
33457
33463
33469
33474
33472
33463
33476
33475
33479
33465
33485
33487
33483
33485
33478
33489
33463
33482
33479
33490
33491
33501
33495
33469
33492
33502
33499
33498
33492
33506
33508
33497
33486
33503
33508
33503
33504
33511
33505
33511
33511
33512
33487
33524
33516
33515
33529
33525
33506
33496
33537
33535
33531
33535
33532
33540
33539
33543
33539
33540
33527
33542
33545
33543
33554
33548
33548
33556
33558
33559
33550
33567
33564
33564
33559
33564
33565
33572
33575
33565
33572
33572
33569
33556
33575
33581
33570
33576
33566
33567
33582
33591
33586
33583
33583
33597
33588
33573
33564
33554
33593
33566
33574
33559
33564
33600
33596
33607
33594
33596
33606
33604
33604
33603
33575
33607
33591
33604
33607
33606
33609
33610
33614
33618
33595
33606
33620
33623
33609
33592
33620
33618
33621
33626
33620
33625
33624
33634
33630
33633
33639
33636
33639
33647
33637
33642
33636
33630
33625
33628
33639
33632
33624
33622
33633
33625
33634
33631
33652
33639
33641
33654
33655
33662
33663
33670
33668
33671
33665
33664
33671
33671
33671
33668
33669
33671
33672
