EGG
16405
16424
16557
16407
16412
16440
16430
16427
16501
16617
16422
16423
16454
16455
16458
16443
16463
16676
16447
16434
16447
16465
16477
16482
16465
16476
16489
16461
16459
16487
16489
16476
16547
16477
16482
16496
16514
16503
16501
16569
16740
16487
16500
16512
16499
16506
16503
16535
16492
16500
16529
16523
16505
16517
16675
16506
16510
16527
16533
16521
16518
16535
16638
16713
16514
16519
16529
16555
16538
16526
16532
16584
16661
16526
16535
16550
16555
16557
16542
16597
16813
16551
16545
16550
16568
16581
16575
16569
16574
16584
16615
16719
16571
16567
16591
16605
16593
16583
16639
16838
16591
16590
16575
16771
16638
16604
16604
16612
16631
16622
16613
16611
16607
16615
16565
16777
16731
16691
16655
16643
16623
16636
16636
16634
16651
16648
16659
16655
16646
16661
16648
16646
16639
16642
16645
16655
16655
16914
16869
16719
16674
16666
16674
16678
16686
16685
16698
16697
16676
16678
16683
16693
16681
16687
16677
16956
16946
16809
16728
16709
16715
16710
16724
16726
16717
16719
16703
16715
16710
16710
16947
16776
16728
16737
16734
16738
16757
16752
16767
16756
16743
16735
16738
16871
16831
16791
16760
16755
16754
16783
16786
16775
16770
16769
16788
16783
16782
16757
16773
16776
16775
16785
16781
17027
16822
16795
16798
16791
16805
16826
16803
16807
16831
16814
16819
16871
17036
16805
16900
17018
16931
16852
16844
16842
16833
16839
16841
16839
16847
16846
16868
16863
16849
16850
16853
16836
16913
16855
16858
16868
16885
16883
16881
16877
16871
16871
16867
17041
17004
16914
16897
16887
16900
16903
16892
16877
16887
16882
17015
16967
16912
16911
16911
16917
16917
16924
16937
16928
16913
16914
16928
16934
17174
16983
16975
16948
16951
16965
16962
16932
16943
17064
16980
16959
16960
16971
16988
16987
16973
16961
16965
16966
16967
16980
17159
17007
16985
16998
16996
17007
16993
16985
16991
17237
17175
17080
17056
17017
17007
17028
17027
17028
17025
17051
17046
17051
17033
17037
17261
17081
17069
17047
17058
17061
17073
17084
17063
17049
17062
17059
17065
17063
17072
17317
17303
17319
17221
17129
17100
17103
17105
17105
17121
17125
17107
17113
17228
17149
17130
17127
17138
17147
17151
17151
17161
17145
17142
17139
17138
17142
17389
17363
17232
17183
17164
17169
17173
17185
17217
17429
17173
17186
17196
17189
17195
17190
17201
17203
17222
17382
17447
17431
17447
17399
17403
17333
17318
17295
17276
17268
17269
17268
17268
17271
17449
17256
17269
17298
17294
17287
17284
17275
17288
17288
17268
17383
17319
17311
17316
17337
17349
17333
17325
17329
17340
17347
17344
17345
17340
17342
17351
17361
17572
17574
17539
17433
17436
17398
17398
17395
17391
17403
17415
17430
17428
17426
17422
17405
17422
17421
17422
17608
17507
17446
17440
17452
17454
17451
17457
17481
17494
17493
17489
17494
17493
17495
17481
17482
17703
17637
17644
17621
17583
17564
17552
17527
17532
17551
17551
17547
17541
17538
17623
17572
17558
17558
17606
17590
17588
17584
17589
17582
17577
17591
17583
17591
17594
17598
17604
17614
17610
17636
17613
17626
17862
17797
17789
17836
17665
17893
17644
17655
17665
17665
17829
17879
17793
17895
17814
17870
17770
17706
17703
17712
17732
17726
17723
17725
17719
17726
17734
17935
17884
17833
17781
17775
17769
17770
17786
17770
17781
17782
17785
17791
17803
17804
17799
17798
17811
17817
17831
17830
17835
17842
17839
17847
17834
17831
17838
17846
17838
17847
17854
17859
17861
17865
17870
17871
18103
18040
17975
17930
17903
17902
17918
17908
17918
17927
17927
17933
17927
17933
17940
17958
17958
17968
17972
17982
17975
17985
17986
17991
17990
17989
17996
17982
17983
17981
18204
18081
18035
18015
18023
18014
18018
18031
18038
18046
18054
18058
18047
18050
18045
18042
18050
18063
18051
18060
18062
18060
18061
18072
18066
18292
18244
18187
18146
18143
18137
18125
18127
18127
18120
18119
18125
18135
18154
18140
18143
18157
18171
18147
18157
18150
18156
18148
18376
18298
18204
18180
18183
18201
18198
18214
18207
18215
18207
18204
18204
18217
18218
18215
18214
18221
18222
18231
18223
18236
18172
18396
18363
18283
18255
18260
18276
18278
18271
18258
18262
18499
18351
18306
18287
18284
18298
18309
18306
18294
18289
18300
18513
18394
18347
18311
18325
18329
18330
18344
18354
18346
18329
18343
18327
18554
18474
18406
18396
18375
18366
18360
18366
18369
18369
18369
18377
18383
18371
18374
18397
18400
18396
18397
18404
18389
18398
18394
18407
18394
18420
18407
18406
18404
18412
18410
18404
18407
18405
18410
18407
18420
18613
18587
18462
18434
18427
18439
18446
18420
18455
18455
18447
18435
18422
18435
18623
18575
18623
18591
18529
18506
18537
18614
18559
18567
18501
18493
18486
18493
18478
18479
18478
18493
18493
18495
18513
18509
18502
18504
18515
18516
18516
18515
18510
18518
18517
18503
18526
18515
18513
18510
18513
18521
18517
18689
18564
18549
18539
18549
18545
18541
18553
18558
18551
18570
18551
18549
18551
18538
18784
18725
18628
18574
18567
18573
18577
18585
18581
18580
18590
18589
18580
18575
18567
18577
18807
18724
18658
18666
18644
18641
18703
18699
18670
18676
18671
18682
18711
18673
18639
18631
18646
18645
18649
18663
18699
18676
18658
18639
18624
18630
18637
18637
18635
18651
18639
18636
18654
18664
18659
18660
18660
18669
18670
18653
18645
18642
18636
18654
18829
18837
18861
18799
18693
18661
18662
18674
18671
18674
18689
18692
18687
18678
18673
18685
18671
18676
18681
18680
18667
18675
18675
18671
18674
18869
18874
18783
18769
18753
18751
18758
18749
18702
18707
18697
18699
18695
18708
18719
18721
18726
18717
18716
18710
18705
18687
18687
18692
18695
18690
18644
18906
18858
18799
18751
18730
18731
18772
18772
18857
18849
18708
18701
18706
18701
18701
18706
18708
18727
18727
18732
18734
18724
18719
18721
18729
18730
18725
18725
18725
18733
18789
18712
18711
18732
18736
18742
18745
18727
18723
18743
18743
18728
18733
18727
18735
18733
18747
18737
18740
18750
18742
18745
18751
18748
18731
18732
18738
18733
18733
18742
18733
18731
18738
18735
18761
18829
18934
18725
18735
18714
18727
18727
18727
18731
18727
18730
18731
18742
18739
18744
18749
18757
18754
18740
18742
18738
18739
18746
18745
18740
18733
18744
18738
18777
18846
18727
18725
18735
18727
18735
18741
18738
18724
18727
18729
18727
18719
18727
18916
18931
18871
18763
18743
18735
18743
18731
18740
18738
18741
18745
18745
18735
18734
18733
18744
18742
18747
18740
18742
18741
18735
18732
18743
18733
18739
18738
18738
18743
18734
18737
18729
18739
18743
18741
18733
18747
18740
18746
18746
18758
18749
18753
18753
18764
18752
18761
18752
18745
18745
18747
18744
18733
18749
18735
18748
18745
18757
18746
18740
18750
18763
18756
18746
18743
18747
18742
18745
18735
18755
18752
18748
18747
18740
18741
18759
18755
18767
18766
18830
18964
18916
18947
18727
18736
18740
18741
18738
18749
18743
18746
18747
18755
18761
18760
18760
18752
18772
18766
18767
18763
18757
18750
18749
18750
18745
18738
18734
18739
18744
18960
18902
18830
18760
18752
18743
18751
18759
18764
18764
18759
18764
18745
18749
18739
18735
18735
18739
18944
18871
18790
18752
18753
18750
18753
18754
18751
18748
18747
18757
18751
18759
18768
18770
18779
18759
18748
18742
18745
18740
18746
18909
18884
18820
18814
18810
18801
18775
18779
18770
18746
18757
18772
18759
18758
18760
18766
18770
18772
18757
18740
18755
18741
18738
18742
18740
18732
18751
18750
18756
18750
18949
18913
18751
18921
18908
18871
18804
18771
18767
18757
18758
18757
18751
18758
18751
18763
18772
18763
18755
18756
18763
18766
18774
18769
18756
18758
18764
18753
18764
18757
18755
18762
18753
18759
18757
18759
18759
18763
18748
18775
18772
18764
18766
18765
18748
18741
18755
18763
18770
18764
18754
18741
18742
18874
18767
18759
18757
18774
18759
18747
18757
18756
18769
18768
18766
18759
18756
18764
18743
18756
18764
18788
18748
18749
18762
18769
18759
18767
18942
18757
18756
18769
18770
18753
18799
18927
18744
18756
18778
18759
18782
18884
18921
18746
18773
18767
18759
18772
18878
18748
18743
18763
18759
18753
18790
18822
18896
18739
18751
18773
18763
18762
18757
18782
18802
18868
18913
18748
18745
18746
18766
18766
18758
18764
18815
18739
18742
18764
18782
18764
18764
18759
18811
18881
18748
18749
18770
18757
18759
18757
18782
18814
18941
18750
18744
18756
18776
18763
18763
18759
18778
18863
18940
18745
18744
18767
18764
18767
18759
18750
18774
18899
18733
18742
18743
18760
18761
18758
18752
18739
18729
18796
18726
18720
18727
18745
18734
18725
18761
18911
18719
18719
18729
18729
18727
18726
18790
18900
18698
18722
18714
18716
18715
18757
18699
18706
18709
18709
18718
18703
18703
18739
18709
18705
18702
18689
18692
18712
18700
18700
18689
18686
18671
18679
18676
18677
18854
18849
18802
18813
18807
18863
18850
18802
18742
18721
18705
18698
18685
18667
18681
18675
18668
18679
18678
18679
18683
18678
18682
18678
18675
18663
18660
18660
18663
18823
18789
18778
18777
18754
18695
18665
18667
18681
18702
18739
18746
18774
18771
18836
18645
18647
18654
18647
18652
18645
18644
18745
18675
18655
18661
18649
18657
18655
18652
18659
18657
18658
18652
18655
18658
18655
18653
18674
18662
18709
18715
18774
18766
18810
18636
18634
18638
18637
18637
18627
18633
18636
18631
18644
18643
18628
18637
18831
18819
18576
18827
18717
18668
18654
18650
18647
18639
18635
18639
18641
18639
18639
18643
18655
18652
18627
18631
18625
18627
18794
18743
18650
18631
18650
18637
18652
18650
18645
18656
18647
18628
18624
18620
18626
18759
18797
18797
18710
18727
18686
18672
18678
18657
18631
18635
18634
18623
18626
18641
18639
18631
18625
18628
18609
18622
18813
18780
18709
18719
18646
18630
18631
18632
18615
18628
18637
18635
18630
18623
18611
18612
18620
18711
18679
18617
18628
18615
18625
18647
18626
18610
18622
18617
18815
18797
18719
18647
18624
18612
18628
18631
18639
18620
18604
18603
18740
18609
18789
18663
18634
18610
18618
18628
18638
18620
18607
18617
18607
18615
18609
18607
18607
18755
18598
18612
18796
18773
18675
18684
18670
18678
18708
18759
18732
18653
18630
18620
18615
18618
18626
18623
18631
18625
18629
18629
18615
18602
18612
18790
18697
18689
18665
18637
18621
18622
18619
18631
18630
18642
18630
18620
18621
18625
18611
18617
18614
18614
18613
18608
18615
18767
18671
18653
18629
18628
18625
18630
18635
18642
18634
18627
18620
18805
18709
18649
18623
18634
18621
18638
18637
18636
18631
18627
18640
18628
18636
18630
18629
18639
18671
18627
18620
18635
18647
18639
18631
18653
18719
18625
18628
18653
18631
18636
18645
18693
18811
18631
18634
18650
18653
18648
18639
18637
18642
18664
18789
18623
18628
18649
18647
18648
18645
18722
18629
18640
18643
18659
18643
18645
18634
18665
18732
18773
18636
18634
18650
18671
18668
18669
18650
18642
18652
18703
18745
18855
18645
18647
18663
18665
18662
18663
18775
18859
18642
18642
18663
18655
18684
18864
18646
18660
18663
18682
18668
18663
18713
18807
18668
18667
18682
18673
18675
18673
18776
18666
18651
18659
18673
18680
18693
18671
18671
18700
18765
18878
18671
18673
18682
18687
18694
18687
18710
18824
18681
18678
18685
18700
18703
18708
18705
18703
18700
18771
18676
18685
18695
18699
18716
18713
18705
18698
18716
18733
18895
18705
18692
18695
18726
18717
18727
18863
18709
18708
18700
18719
18708
18710
18717
18731
18739
18725
18716
18738
18790
18883
18725
18719
18716
18722
18722
18727
18742
18751
18756
18751
18745
18807
18732
18735
18742
18759
18769
18762
18743
18744
18753
18762
18837
18962
18745
18757
18783
18782
18768
18764
18781
18814
18895
18978
18767
18767
18779
18788
18784
18786
18860
18773
18773
18812
18804
18785
18794
18839
18978
18788
18797
18814
18807
18823
19004
18798
18809
18836
18814
18823
18876
18809
18813
18834
18835
18821
18836
18857
18884
18884
18876
18853
18981
18829
18823
18831
18829
18836
18839
18865
18874
18852
18851
18861
18940
19051
18857
18855
18855
18879
18882
18865
18903
18908
18991
19033
19074
18880
18878
18886
18883
18894
18883
18903
18907
18917
18911
18912
18910
18915
18924
18948
19037
19124
18919
18911
18919
18916
18919
18949
18944
18938
18937
18942
18946
18975
18982
19045
19147
19142
19144
18951
18956
18940
18951
18951
18950
18956
18965
18977
18983
18989
19003
18983
18986
18990
19018
19026
19130
18981
18983
18993
19014
19023
19006
19010
19019
19012
19027
19052
19124
19210
19020
19017
19033
19042
19035
19039
19045
19051
19050
19049
19061
19075
19074
19067
19067
19074
19073
19074
19071
19081
19101
19137
19164
19272
19090
19079
19097
19105
19104
19093
19114
19176
19214
19094
19104
19100
19116
19130
19125
19125
19118
19121
19128
19119
19116
19120
19152
19175
19289
19109
19118
19118
19141
19153
19133
19137
19145
19173
19318
19135
19137
19140
19142
19147
19162
19167
19151
19159
19153
19159
19175
19183
19158
19180
19185
19180
19162
19173
19173
19197
19311
19172
19178
19170
19179
19184
19198
19193
19211
19193
19194
19279
19175
19190
19205
19217
19217
19215
19208
19210
19242
19308
19209
19211
19213
19234
19236
19223
19228
19245
19260
19311
19421
19230
19246
19255
19249
19259
19248
19247
19254
19284
19365
19435
19244
19255
19265
19287
19283
19283
19298
19297
19279
19286
19288
19291
19287
19315
19327
19359
19481
19301
19302
19301
19316
19330
19316
19319
19342
19376
19473
19511
19319
19324
19339
19346
19333
19353
19430
19500
19335
19343
19357
19365
19378
19377
19367
19359
19396
19547
19357
19361
19373
19389
19389
19380
19423
19564
19385
19413
19399
19403
19498
19585
19397
19415
19429
19426
19419
19433
19428
19427
19463
19507
19589
19430
19439
19431
19437
19431
19440
19463
19484
19463
19471
19467
19604
19462
19461
19479
19495
19498
19492
19487
19494
19525
19547
19659
19495
19492
19517
19518
19531
19532
19526
19520
19526
19543
19540
19598
19677
19542
19534
19556
19553
19573
19692
19545
19553
19565
19581
19583
19580
19584
19586
19609
19624
19697
19751
19591
19589
19596
19600
19609
19624
19620
19617
19621
19653
19728
19798
19626
19628
19632
19654
19649
19666
19665
19661
19662
19660
19667
19678
19666
19684
19711
19844
19666
19676
19691
19692
19710
19708
19716
19696
19711
19713
19734
19779
19846
19884
19704
19727
19743
19751
19743
19749
19818
19751
19749
19767
19770
19771
19773
19818
19756
19767
19785
19795
19785
19814
19860
19783
19793
19794
19813
19823
19828
19817
19830
19869
19986
19823
19820
19845
19841
19853
19939
19839
19835
19869
19871
19866
19873
19947
19858
19861
19868
19881
19899
19894
19894
19899
19901
19927
20028
19886
19908
19914
19928
19923
19939
19981
19919
19931
19962
19949
19950
19975
20087
19945
19956
19968
19985
19983
19978
19983
19988
20003
20071
20163
20161
20005
19994
20008
20022
20030
20028
20029
20029
20039
20036
20074
20066
20140
20207
20049
20058
20057
20061
20069
20093
20084
20085
20151
20258
20082
20087
20113
20111
20148
20283
20107
20119
20131
20140
20144
20153
20179
20133
20143
20171
20154
20169
20180
20271
20165
20183
20190
20182
20238
20187
20202
20221
20217
20228
20391
20215
20225
20245
20231
20245
20265
20335
20239
20247
20268
20279
20279
20263
20313
20443
20279
20300
20298
20299
20468
20303
20322
20340
20319
20326
20350
20430
20327
20332
20355
20348
20341
20395
20532
20359
20375
20383
20426
20545
20375
20393
20415
20404
20428
20503
20401
20414
20427
20449
20445
20436
20452
20465
20519
20630
20449
20460
20463
20476
20487
20485
20494
20535
20636
20487
20493
20506
20511
20533
20532
20533
20540
20566
20615
20711
20540
20539
20550
20563
20562
20570
20595
20591
20596
20607
20642
20769
20603
20612
20634
20628
20639
20647
20676
20716
20804
20647
20658
20673
20686
20687
20689
20682
20694
20764
20825
20687
20711
20711
20739
20729
20731
20766
20884
20737
20752
20764
20770
20773
20783
20827
20938
20772
20804
20817
20804
20807
20816
20813
20836
20828
20824
20815
20919
20864
20862
20860
20882
20879
20868
20874
20871
20999
20934
20911
20913
20921
20925
20932
20939
20930
20937
20935
20946
21029
20999
20975
20981
20996
20995
20989
20983
21117
21055
21023
21023
21032
21033
21158
21092
21049
21055
21070
21058
21071
21187
21111
21099
21101
21114
21115
21095
21172
21133
21132
21144
21141
21141
21145
21157
21243
21231
21189
21191
21183
21193
21213
21209
21199
21207
21210
21332
21255
21246
21261
21254
21262
21262
21263
21272
21269
21402
21418
21356
21309
21309
21320
21335
21348
21335
21345
21343
21343
21343
21354
21455
21390
21391
21389
21403
21399
21399
21401
21406
21407
21503
21465
21440
21448
21459
21454
21454
21599
21492
21481
21501
21498
21485
21465
21543
21510
21522
21532
21523
21529
21531
21665
21598
21580
21575
21575
21604
21593
21583
21597
21683
21637
21620
21629
21641
21639
21640
21639
21637
21649
21774
21662
21786
21737
21715
21698
21714
21719
21722
21722
21719
21850
21815
21779
21769
21757
21761
21768
21781
21790
21805
21810
21806
21801
21802
21822
21807
21818
21825
21828
21836
21828
21830
21834
21938
21880
21871
21874
21871
21871
21887
21898
21889
21893
21900
21911
21907
21901
21911
22033
21986
22004
22045
22005
21978
21983
21964
21964
21964
21967
21983
21985
21996
22002
22000
22005
22003
22019
22013
22013
22018
22093
22058
22049
22049
22047
22058
22066
22071
22070
22071
22188
22128
22108
22106
22099
22114
22118
22124
22119
22228
22168
22140
22143
22167
22161
22164
22170
22275
22186
22186
22194
22207
22199
22206
22324
22240
22239
22232
22237
22247
22247
22252
22255
22243
22334
22306
22288
22287
22287
22300
22304
22305
22295
22305
22402
22351
22342
22341
22351
22353
22363
22368
22368
22391
22389
22396
22397
22399
22398
22405
22406
22406
22421
22527
22516
22484
22497
22503
22477
22471
22495
22503
22503
22488
22502
22506
22509
22523
22522
22521
22525
22522
22527
22535
22535
22535
22552
22631
22552
22575
22668
22579
22581
22584
22591
22605
22613
22623
22615
22725
22731
22734
22727
22711
22746
22738
22736
22733
22752
22759
22694
22703
22722
22727
22734
22799
22736
22821
22798
22775
22771
22757
22775
22773
22782
22776
22772
22783
22794
22893
22884
22853
22836
22835
22842
22853
22840
22855
22854
22858
22859
22950
22930
22903
22887
22893
22900
22903
22902
22913
22932
22914
23013
22986
22935
22939
22951
22975
22977
22987
22997
23029
23062
22996
22998
23007
23014
23025
23028
23037
23038
23055
23109
23053
23062
23076
23082
23094
23146
23073
23099
23109
23101
23117
23120
23132
23167
23130
23130
23138
23150
23161
23164
23168
23188
23207
23244
23248
23183
23207
23208
23214
23236
23263
23284
23223
23222
23246
23254
23255
23277
23271
23275
23279
23287
23295
23316
23345
23357
23309
23311
23313
23330
23345
23345
23352
23375
23415
23373
23355
23364
23377
23381
23394
23390
23413
23430
23399
23402
23412
23426
23430
23440
23444
23447
23455
23470
23505
23447
23466
23472
23486
23503
23505
23495
23508
23531
23535
23572
23551
23515
23528
23529
23540
23554
23567
23571
23574
23572
23586
23587
23607
23639
23646
23591
23614
23623
23623
23653
23685
23683
23622
23651
23662
23653
23665
23695
23735
23671
23688
23695
23699
23724
23757
23655
23711
23715
23732
23731
23740
23773
23737
23751
23759
23761
23799
23767
23769
23798
23796
23798
23809
23841
23860
23762
23813
23819
23836
23844
23833
23847
23878
23927
23851
23868
23878
23879
23879
23899
23944
23902
23899
23898
23911
23919
23921
23943
23995
23933
23937
23959
23957
23988
23951
23966
23973
23992
23999
24028
23993
23994
24005
24016
24017
24013
24030
24065
24019
24039
24039
24049
24062
24068
24087
24058
24079
24089
24087
24092
24111
24166
24091
24101
24119
24116
24146
24190
24129
24132
24150
24150
24151
24157
24173
24196
24163
24166
24188
24182
24197
24218
24239
24245
24242
24206
24219
24236
24231
24239
24239
24247
24276
24325
24258
24257
24279
24279
24284
24294
24302
24316
24345
24301
24311
24319
24325
24335
24370
24378
24333
24347
24366
24370
24380
24410
24367
24385
24387
24398
24404
24427
24465
24399
24409
24421
24427
24439
24455
24491
24511
24446
24447
24455
24463
24478
24476
24483
24487
24501
24504
24533
24570
24501
24523
24521
24532
24533
24536
24542
24555
24559
24583
24615
24559
24562
24573
24578
24595
24595
24603
24612
24630
24677
24611
24618
24623
24636
24638
24655
24683
24642
24650
24663
24678
24677
24697
24703
24704
24725
24742
24743
24732
24757
24774
24771
24723
24729
24741
24747
24760
24756
24758
24769
24772
24775
24785
24791
24807
24837
24794
24796
24805
24807
24813
24812
24833
24829
24836
24839
24855
24861
24865
24875
24893
24899
24903
24927
24887
24895
24892
24903
24911
24927
24945
24909
24917
24927
24933
24935
24943
24962
24972
25003
24965
24967
24979
24980
24982
25005
25031
24994
24991
24996
25002
25008
25019
25023
25029
25040
25044
25057
25069
25083
25052
25057
25060
25073
25078
25079
25093
25093
25108
25118
25115
25111
25119
25131
25137
25159
25149
25129
25133
25148
25150
25147
25162
25175
25182
25199
25204
25172
25169
25190
25194
25205
25204
25207
25220
25233
25234
25239
25255
25252
25260
25231
25242
25247
25259
25255
25259
25274
25275
25277
25287
25297
25307
25319
25324
25330
25309
25304
25308
25319
25319
25325
25340
25354
25364
25324
25335
25351
25348
25351
25343
25351
25361
25372
25365
25382
25386
25402
25407
25368
25376
25380
25395
25389
25391
25398
25428
25387
25404
25415
25421
25411
25415
25414
25434
25434
25447
25458
25433
25427
25436
25440
25443
25447
25460
25466
25478
25486
25486
25457
25460
25465
25474
25479
25483
25486
25479
25491
25500
25498
25503
25506
25500
25524
25522
25533
25527
25546
25512
25520
25510
25524
25524
25532
25538
25542
25532
25541
25540
25543
25551
25550
25555
25567
25583
25583
25596
25567
25571
25570
25578
25583
25594
25581
25590
25599
25615
25614
25637
25596
25599
25604
25607
25620
25617
25625
25634
25653
25628
25639
25642
25647
25655
25670
25642
25647
25655
25666
25641
25658
25655
25671
25670
25679
25670
25676
25695
25674
25687
25702
25721
25721
25711
25726
25695
25703
25703
25695
25713
25707
25717
25730
25738
25754
25725
25708
25727
25733
25741
25734
25743
25751
25755
25748
25757
25778
25766
25765
25754
25767
25774
25761
25769
25777
25783
25789
25776
25781
25797
25781
25800
25805
25802
25815
25829
25794
25800
25807
25804
25815
25825
25829
25823
25831
25838
25827
25827
25823
25834
25835
25835
25835
25851
25857
25857
25882
25851
25850
25851
25859
25863
25863
25876
25877
25890
25895
25862
25879
25872
25888
25890
25895
25915
25905
25898
25916
25885
25895
25885
25901
25915
25911
25915
25919
25913
25919
25933
25927
25933
25915
25919
25921
25929
25929
25928
25939
25930
25946
25937
25950
25957
25966
25958
25954
25941
25956
25951
25958
25965
25959
25961
25970
25965
25968
25947
25967
25979
25973
25967
25983
25991
25997
25985
25985
25999
25988
25993
26016
26015
26003
25997
26007
26012
26015
26015
26023
26036
26022
25956
26007
26017
26023
26031
26039
26038
26033
26042
26051
26016
26037
26049
26046
26052
26054
26055
26060
26059
26055
26062
26077
26063
26063
26070
26068
26084
26079
26083
26087
26086
26093
26063
26084
26078
26084
26079
26087
26087
26097
26095
26095
26103
26102
26111
26102
26116
26117
26127
26129
26126
26126
26119
26113
26115
26116
26130
26130
26132
26133
26149
26140
26145
26149
26159
26143
26146
26142
26146
26149
26146
26166
26165
26173
26156
26155
26167
26170
26178
26182
26174
26183
26191
26193
26206
26179
26181
26183
26197
26196
26199
26199
26202
26205
26220
26222
26199
26215
26215
26205
26220
26223
26218
26230
26228
26235
26245
26244
26247
26235
26229
26237
26236
26239
26251
26236
26247
26257
26258
26255
26266
26282
26268
26276
26273
26282
26279
26287
26267
26263
26270
26283
26279
26285
26291
26293
26295
26308
26309
26290
26294
26298
26296
26308
26322
26291
26297
26308
26306
26322
26318
26307
26315
26323
26324
26331
26337
26334
26351
26325
26331
26342
26331
26346
26341
26351
26355
26359
26360
26367
26365
26374
26371
26375
26375
26375
26388
26375
26383
26383
26383
26396
26389
26381
26375
26386
26389
26394
26390
26396
26415
26403
26411
26407
26413
26418
26435
26401
26413
26410
26422
26415
26409
26415
26411
26428
26428
26436
26436
26431
26438
26451
26454
26452
26459
26447
26458
26469
26466
26375
26452
26463
26463
26467
26471
26474
26487
26481
26461
26481
26487
26488
26491
26495
26500
26495
26493
26496
26503
26503
26513
26508
26518
26521
26527
26524
26503
26508
26520
26527
26527
26532
26527
26533
26548
26538
26544
26545
26521
26541
26534
26551
26557
26553
26553
26562
26571
26572
26582
26572
26563
26577
26574
26586
26587
26583
26597
26599
26601
26583
26590
26589
26599
26601
26610
26615
26601
26615
26621
26628
26617
26626
26631
26631
26631
26648
26641
26644
26649
26631
26639
26649
26650
26652
26664
26669
26671
26668
26671
26670
26671
26669
26676
26675
26681
26679
26694
26703
26701
26695
26702
26703
26701
26702
26711
26715
26711
26726
26729
26726
26725
26730
26727
26711
26724
26733
26735
26741
26743
26754
26758
26759
26758
26767
26759
26751
26773
26759
26759
26758
26775
26772
26780
26788
26792
26780
26786
26801
26791
26799
26804
26814
26804
26816
26809
26819
26827
26828
26821
26821
26837
26821
26830
26827
26831
26839
26857
26845
26857
26855
26855
26853
26852
26852
26855
26853
26863
26879
26885
26881
26879
26879
26879
26884
26880
26895
26879
26883
26887
26893
26894
26906
26895
26907
26911
26915
26916
26923
26919
26920
26920
26935
26939
26940
26943
26955
26955
26948
26947
26954
26953
26946
26942
26935
26941
26950
26939
26943
26957
26950
26952
26950
26957
26957
26972
26959
26971
26965
26958
26938
26962
26965
26963
26966
26970
26983
26962
26974
26979
26966
26982
26981
26983
26979
26991
26991
26999
26988
26983
26983
26990
26910
26999
27007
27005
26996
26999
27002
26998
26988
27001
27005
27013
27013
27009
27013
27012
27000
27009
27028
27034
27031
27031
27018
27020
27022
27022
27042
27035
27028
27020
27036
27041
27046
27049
27036
27036
27041
27033
27047
27051
27053
27049
27049
27055
27054
27015
27054
27058
27071
27071
27066
27062
27065
27063
27065
27038
27066
27079
27074
27083
27079
27079
27069
27078
27051
27075
27091
27084
27099
27100
27092
27090
27092
27093
27101
27079
27084
27109
27114
27096
27101
27104
27079
27099
27109
27116
27109
27112
27111
27108
27055
27116
27123
27133
27117
27119
27132
27127
27104
27103
27078
27127
27141
27137
27141
27137
27135
27140
27139
27149
27066
27125
27148
27165
27158
27158
27158
27153
27155
27134
27159
27171
27162
27163
27172
27175
27173
27143
27174
27177
27191
27181
27188
27188
27183
27182
27186
27178
27182
27187
27169
27178
27188
27196
27203
27208
27196
27196
27201
27207
27159
27207
27212
27214
27197
27205
27212
27207
27212
27190
27214
27231
27214
27219
27215
27159
27212
27232
27225
27231
27221
27190
27222
27237
27237
27225
27172
27236
27127
27247
27235
27159
27221
27239
27253
27242
27244
27235
27156
27231
27255
27263
27260
27252
27247
27260
27246
27263
27246
27261
27222
27226
27261
27271
27277
27266
27273
27265
27269
27239
27271
27286
27270
27287
27279
27276
27233
27265
27287
27289
27287
27289
27284
27278
27291
27294
27292
27285
27299
27297
27292
27293
27215
27237
27262
27277
27292
27293
27315
27321
27322
27311
27311
27307
27316
27260
27287
27325
27334
27329
27325
27323
27329
27332
27329
27336
27260
27285
27319
27327
27339
27350
27345
27343
27347
27348
27355
27351
27297
27343
27361
27372
27365
27370
27367
27365
27362
27371
27364
27365
27371
27364
27351
27358
27379
27393
27386
27405
27385
27388
27388
27391
27271
27353
27386
27399
27405
27413
27412
27402
27399
27404
27399
27411
27399
27413
27383
27406
27421
27418
27443
27417
27422
27423
27436
27431
27428
27438
27431
27430
27343
27422
27438
27459
27433
27455
27450
27458
27386
27436
27470
27476
27464
27468
27463
27431
27423
27467
27479
27482
27498
27487
27487
27478
27485
27488
27490
27439
27486
27502
27500
27505
27510
27513
27511
27511
27502
27509
27517
27525
27521
27518
27530
27523
27526
27529
27548
27536
27527
27497
27527
27531
27546
27551
27556
27555
27540
27555
27554
27559
27559
27553
27560
27566
27570
27438
27575
27571
27541
27566
27575
27591
27596
27597
27587
27591
27581
27580
27598
27554
27554
27565
27601
27612
27618
27623
27623
27622
27623
27617
27623
27624
27627
27583
27599
27643
27642
27652
27649
27647
27655
27650
27599
27635
27652
27660
27663
27670
27673
27687
27663
27626
27679
27686
27679
27680
27691
27684
27698
27694
27655
27687
27707
27702
27706
27709
27714
27676
27693
27718
27719
27722
27740
27739
27727
27730
27744
27732
27745
27728
27706
27725
27727
27735
27736
27755
27751
27772
27763
27758
27775
27781
27783
27788
27794
27797
27793
27797
27805
27804
27812
27815
27815
27819
27815
27816
27819
27823
27827
27829
27751
27830
27836
27833
27841
27764
27783
27803
27825
27851
27862
27871
27871
27887
27872
27881
27877
27883
27883
27886
27895
27796
27865
27876
27890
27899
27901
27910
27924
27933
27935
27935
27943
27935
27935
27945
27943
27940
27951
27948
27963
27879
27905
27929
27967
27975
27990
27973
27979
27979
27990
27994
27997
28004
27999
27996
27935
27951
27979
27982
27988
27983
27999
28007
28022
28027
28053
28054
28054
28043
28057
28061
28062
28065
28071
28047
28072
28076
28095
28093
28092
28079
28090
28084
28103
28107
28044
28069
28079
28109
28132
28132
28122
28127
28136
28146
28135
28140
28071
28112
28142
28142
28162
28175
28174
28182
28189
28180
28179
28182
28185
28167
28154
28167
28194
28199
28212
28209
28223
28229
28215
28222
28223
28231
28235
28241
28239
28233
28250
28148
28199
28258
28261
28266
28269
28259
28269
28207
28241
28212
28228
28235
28248
28253
28279
28275
28268
28270
28308
28307
28319
28310
28327
28329
28343
28348
28348
28348
28352
28351
28343
28359
28350
28357
28353
28367
28325
28346
28340
28371
28378
28376
28381
28383
28386
28372
28381
28373
28388
28386
28389
28404
28409
28400
28412
28409
28403
28404
28409
28407
28419
28414
28410
28404
28412
28421
28415
28423
28413
28416
28382
28430
28431
28440
28445
28428
28444
28442
28445
28441
28449
28448
28453
28450
28455
28447
28373
28393
28386
28380
28412
28423
28423
28444
28455
28462
28478
28482
28493
28504
28474
28479
28486
28487
28494
28492
28493
28495
28508
28447
28479
28487
28509
28511
28521
28515
28517
28521
28521
28523
28533
28513
28501
28524
28543
28547
28527
28541
28537
28544
28489
28544
28532
28538
28552
28558
28551
28557
28556
28562
28564
28561
28572
28504
28530
28565
28575
28598
28585
28599
28575
28584
28583
28591
28599
28594
28580
28585
28582
28546
28580
28597
28612
28619
28612
28599
28610
28559
28599
28608
28626
28635
28621
28619
28620
28624
28532
28567
28592
28612
28615
28645
28645
28655
28662
28645
28645
28649
28652
28657
28654
28663
28653
28655
28666
28615
28628
28662
28666
28679
28676
28689
28669
28679
28679
28687
28679
28688
28645
28679
28692
28704
28716
28700
28701
28709
28705
28708
28612
28695
28708
28719
28727
28714
28724
28716
28725
28678
28724
28746
28732
28730
28725
28655
28687
28738
28749
28743
28757
28749
28753
28741
28747
28700
28758
28766
28761
28767
28758
28700
28729
28783
28771
28773
28771
28732
28755
28781
28799
28781
28789
28786
28698
28787
28793
28796
28799
28799
28805
28760
28799
28813
28812
28807
28807
28817
28748
28811
28812
28832
28839
28830
28821
28831
28831
28831
28825
28771
28799
28834
28839
28855
28852
28839
28852
28847
28861
28852
28855
28860
28793
28847
28862
28875
28879
28870
28879
28871
28876
28807
28826
28852
28884
28895
28895
28887
28893
28852
28905
28903
28895
28827
28887
28916
28917
28909
28917
28847
28880
28933
28935
28924
28932
28931
28854
28914
28944
28946
28947
28940
28935
28941
28935
28867
28899
28940
28955
28968
28951
28962
28974
28961
28921
28919
28867
28974
28974
28927
28967
28997
28990
28989
28982
28980
28991
28927
28972
28983
28999
29015
29007
29005
29011
29015
29002
29015
29018
28974
28999
29022
29031
29047
29031
29028
29038
29039
29031
29004
29039
29055
29052
29049
29058
29043
29070
29057
29063
29005
29072
29069
29080
29076
29019
29071
29097
29083
29086
29087
29015
29063
29087
29105
29119
29103
29115
29115
29118
29112
29066
29129
29141
29126
29135
29129
29092
29134
29149
29141
29153
29165
29142
29125
29103
29036
29108
29159
29153
29173
29173
29165
29170
29162
29175
29171
29133
29134
29164
29185
29212
29214
29199
29200
29208
29211
29204
29220
29179
29219
29220
29237
29223
29238
29241
29238
29187
29226
29240
29268
29248
29243
29253
29202
29238
29265
29271
29277
29259
29271
29268
29198
29226
29250
29267
29287
29297
29309
29300
29294
29297
29311
29289
29299
29311
29316
29287
29313
29333
29347
29325
29330
29335
29335
29335
29338
29311
29340
29357
29364
29361
29370
29362
29365
29303
29338
29375
29386
29382
29381
29379
29394
29387
29388
29391
29349
29381
29398
29415
29421
29421
29409
29421
29377
29397
29421
29447
29432
29436
29443
29447
29441
29412
29443
29479
29447
29447
29462
29383
29431
29479
29483
29491
29488
29490
29493
29495
29483
29494
29423
29468
29487
29508
29506
29523
29515
29524
29527
29515
29486
29519
29526
29545
29543
29542
29551
29489
29535
29550
29577
29567
29568
29565
29533
29567
29596
29594
29586
29589
29553
29620
29605
29599
29611
29609
29555
29603
29631
29636
29630
29628
29629
29637
29606
29644
29659
29649
29650
29546
29634
29663
29671
29668
29669
29671
29637
29683
29699
29685
29695
29688
29679
29703
29703
29716
29703
29669
29696
29743
29723
29725
29722
29660
29716
29750
29754
29757
29753
29755
29751
29764
29716
29769
29795
29783
29779
29787
29758
29799
29799
29796
29802
29753
29792
29823
29820
29817
29823
29823
29775
29821
29839
29837
29845
29848
29852
29766
29839
29861
29860
29862
29871
29871
29837
29877
29887
29887
29891
29827
29895
29912
29918
29902
29868
29912
29927
29921
29927
29931
29868
29924
29951
29949
29943
29867
29953
29974
29959
29959
29870
29927
29965
29970
29999
29982
29989
29991
30007
29908
29973
29999
30031
30027
30019
30020
30027
29991
30039
30055
30044
30037
30004
29996
30039
30056
30061
30037
30081
30073
30022
30095
30079
30027
30101
30092
30107
30061
30125
30116
29991
30115
30130
30125
30118
30085
30152
30135
30136
30127
30148
30163
30146
30136
30168
30161
30161
30142
30181
30159
30174
30083
30182
30191
30191
30191
30111
30201
30194
30191
30207
30136
30206
30206
30202
30215
30140
30212
30234
30215
30214
30166
30236
30214
30229
30211
30252
30239
30239
30237
30261
30253
30241
30246
30269
30252
30253
30191
30247
30269
30284
30256
30283
30274
30271
30274
30231
30276
30295
30289
30287
30290
30303
30215
30291
30313
30309
30306
30201
30255
30306
30316
30318
30319
30327
30214
30277
30317
30348
30335
30330
30295
30348
30368
30354
30351
30350
30354
30356
30284
30303
30362
30383
30372
30378
30375
30255
30327
30369
30390
30397
30395
30401
30385
30324
30389
30410
30409
30415
30413
30409
30409
30334
30397
30424
30436
30423
30431
30436
30434
30343
30399
30439
30453
30439
30452
30458
30455
30369
30381
30436
30471
30481
30468
30459
30485
30487
30471
30435
30471
30489
30502
30490
30499
30493
30404
30484
30511
30515
30525
30507
30510
30515
30511
30380
30402
30457
30516
30533
30548
30547
30534
30534
30541
30550
30543
30537
30538
30548
30454
30510
30561
30567
30563
30573
30583
30577
30582
30567
30579
30582
30575
30575
30567
30471
30569
30591
30591
30592
30596
30594
30583
30594
30599
30594
30494
30541
30599
30623
30607
30620
30615
30559
30612
30637
30618
30613
30588
30644
30630
30628
30643
30643
30543
30639
30649
30657
30642
30652
30533
30597
30639
30663
30673
30651
30655
30663
30663
30670
30663
30663
30672
30670
30575
30631
30670
30687
30702
30679
30691
30679
30687
30620
30682
30711
30715
30690
30700
30697
30701
30604
30647
30673
30705
30722
30711
30714
30719
30715
30626
30702
30727
30715
30727
30716
30725
30662
30687
30724
30755
30727
30727
30727
30703
30755
30740
30738
30748
30727
30773
30749
30745
30700
30727
30770
30753
30759
30697
30783
30759
30759
30760
30767
30703
30751
30780
30790
30774
30775
30785
30687
30745
30775
30790
30812
30779
30787
30788
30791
30790
30725
30747
30789
30795
30804
30799
30674
30739
30803
30814
30801
30697
30791
30812
30809
30801
30742
30804
30815
30811
30811
30751
30805
30839
30831
30823
30818
30777
30831
30820
30836
30818
30743
30796
30844
30834
30846
30839
30839
30758
30829
30829
30855
30841
30829
30834
30791
30839
30867
30863
30852
30847
30764
30839
30854
30860
30863
30855
30756
30847
30887
30863
30855
30866
30815
30863
30882
30865
30875
30862
30757
30799
30883
30887
30881
30876
30795
30887
30895
30884
30887
30887
30883
30884
30818
30878
30900
30915
30893
30908
30782
30837
30878
30909
30901
30899
30887
30834
30894
30919
30914
30904
30908
30876
30922
30915
30916
30910
30835
30876
30908
30930
30924
30921
30925
30815
30869
30926
30931
30923
30925
30927
30932
30850
30907
30936
30947
30937
30943
30935
30938
30859
30903
30924
30948
30959
30967
30948
30946
30954
30948
30945
30953
30844
30902
30944
30966
30958
30965
30964
30961
30863
30922
30949
30983
30965
30961
30970
30967
30965
30876
30950
30978
30990
30971
30972
30972
30970
30871
30966
30990
30983
30982
30983
30910
30949
30976
30995
31014
30983
31003
30992
30999
30862
30943
30981
31010
31020
30999
30999
30891
30977
31001
31016
31007
31007
31014
31007
31010
30954
30999
31019
31038
31013
31017
31023
31013
30964
31006
31027
31044
31020
31031
31028
31035
30951
30980
31006
31007
31010
31023
31047
31063
31038
31037
31028
31034
31034
31047
31046
31047
30957
31007
31035
31047
31060
31051
31050
31052
31054
31063
31051
31055
30956
31005
31045
31062
31082
31079
31055
31069
31073
31077
30968
31045
31061
31079
31095
31079
31078
31079
31089
31083
31077
31031
31058
31079
31098
31084
31095
31082
31055
31092
31103
31092
31087
31090
31004
31047
31100
31109
31092
31103
31103
31101
31111
31103
30999
31035
31074
31090
31111
31119
31127
31111
31111
31111
31111
31012
31041
31062
31076
31117
31135
31135
31125
31111
31117
31124
31010
31071
31111
31141
31132
31139
31124
31138
31126
31127
31018
31087
31125
31148
31132
31135
31130
31129
31147
31141
31139
31074
31119
31132
31146
31159
31148
31143
31140
31141
31140
31082
31119
31143
31140
31150
31143
31052
31132
31159
31142
31148
31007
31085
31143
31166
31171
31156
31162
31167
31159
31167
31095
31155
31177
31157
31158
31166
31167
31092
31148
31158
31175
31167
31167
31167
31177
31173
31175
31180
31174
31175
31167
31170
31183
31172
31172
31167
31045
31092
31167
31175
31193
31183
31183
31184
31185
31187
31183
31107
31167
31207
31191
31189
31195
31185
31184
31087
31124
31165
31175
31197
31205
31206
31191
31204
31196
31077
31154
31196
31215
31215
31187
31205
31207
31191
31202
31194
31095
31119
31140
31151
31172
31188
31195
31215
31217
31220
31199
31199
31212
31199
31196
31201
31203
31196
31081
31133
31146
31146
31153
31177
31186
31199
31191
31183
31187
31187
31176
31189
31076
31111
31143
31171
31188
31171
31175
31175
31175
31172
31108
31164
31169
31171
31181
31159
31095
31163
31183
31169
31158
31174
31110
31158
31173
31166
31162
31159
31161
31052
31131
31127
31167
31174
31148
31157
31155
31101
31151
31159
31148
31150
31070
31122
31151
31159
31140
31148
31155
31157
31139
31077
31110
31143
31151
31143
31156
31135
31135
31047
31127
31163
31138
31139
31131
31013
31093
31061
31125
31135
31133
31135
31135
31127
31148
31121
31103
31079
31038
30994
30973
31124
31125
31127
31124
31111
31124
31134
31139
31131
31108
31092
31081
31063
31124
31119
30983
31119
31127
31127
31119
31111
31142
31117
31127
31111
31117
31077
31047
31106
31109
31111
31111
31113
31117
31109
31109
31111
31075
31043
31109
31105
31111
31102
31124
31095
31049
31008
31092
31093
31103
31106
31098
31106
31117
31107
31079
31055
31043
31007
31081
31089
31098
31095
31097
31097
31087
31111
31107
31095
31085
31071
31015
31086
31087
31087
31084
31077
31084
31074
31082
31079
31074
31091
31091
31075
31070
31071
31051
31025
31018
30974
30919
31062
31069
31068
31062
31066
31063
31068
31060
31057
30988
30999
31012
31023
30994
30989
30935
30915
31044
31050
31054
31057
31047
31064
31068
31063
31034
31004
30983
30959
30953
31033
31036
31041
31042
31036
31056
31035
31012
30975
30932
30906
31033
31038
31033
31027
31021
31033
31013
30982
30937
30913
30932
30911
30911
31020
31017
31007
31014
31006
31010
31003
30999
31020
30997
30931
30871
30996
31002
30991
31001
31010
31015
30991
30967
30879
30991
30991
30975
30983
31012
31007
31007
31001
30977
30956
30932
30900
30873
30983
30979
30979
30974
30949
30919
30971
30968
30963
30964
30964
30977
30951
30902
30965
30956
30963
30966
30947
30969
30951
30900
30953
30948
30950
30943
30959
30954
30935
30916
30869
30815
30943
30935
30940
30930
30936
30933
30934
30946
30935
30924
30905
30859
30921
30919
30928
30919
30926
30917
30890
30820
30906
30917
30910
30908
30836
30907
30903
30915
30926
30892
30855
30776
30900
30896
30895
30919
30908
30891
30882
30845
30773
30876
30885
30899
30887
30889
30903
30893
30850
30808
30771
30863
30877
30881
30895
30859
30822
30756
30855
30875
30865
30879
30831
30789
30772
30863
30859
30855
30849
30852
30852
30848
30855
30871
30850
30836
30773
30717
30836
30836
30833
30831
30839
30844
30842
30842
30860
30837
30839
30820
30793
30781
30766
30726
30711
30815
30823
30813
30817
30815
30818
30809
30804
30807
30803
30799
30807
30817
30807
30795
30764
30766
30749
30727
30684
30795
30785
30788
30791
30791
30783
30780
30791
30783
30769
30734
30685
30775
30775
30774
30767
30771
30775
30765
30743
30705
30691
30629
30747
30757
30748
30758
30747
30759
30750
30745
30747
30743
30743
30749
30759
30740
30737
30716
30682
30635
30727
30723
30727
30719
30727
30723
30721
30727
30727
30717
30691
30647
30716
30701
30708
30727
30714
30708
30669
30652
30619
30703
30702
30691
30679
30687
30695
30709
30690
30673
30645
30618
30667
30670
30679
30678
30663
30673
30677
30652
30663
30676
30667
30647
30618
30597
30558
30644
30639
30659
30646
30653
30647
30667
30647
30645
30607
30596
30535
30629
30636
30621
30631
30633
30625
30625
30631
30638
30623
30610
30591
30591
30579
30518
30480
30595
30598
30598
30599
30602
30599
30591
30591
30599
30597
30599
30584
30594
30590
30595
30572
30558
30484
30579
30575
30583
30567
30567
30569
30566
30571
30559
30554
30564
30553
30567
30578
30567
30566
30559
30550
30519
30484
30551
30548
30551
30547
30538
30543
30537
30535
30538
30531
30543
30539
30537
30531
30524
30492
30454
30407
30513
30508
30523
30509
30517
30518
30503
30502
30501
30524
30494
30487
30493
30497
30447
30491
30497
30482
30490
30476
30486
30479
30478
30460
30478
30367
30379
30431
30446
30468
30471
30467
30454
30463
30451
30453
30451
30449
30447
30445
30459
30455
30444
30441
30449
30426
30438
30433
30425
30425
30431
30419
30428
30415
30426
30410
30418
30308
30342
30351
30393
30415
30408
30391
30397
30393
30299
30343
30383
30407
30407
30396
30388
30383
30383
30295
30353
30368
30395
30372
30385
30367
30375
30367
30359
30360
30352
30207
30261
30255
30277
30305
30287
30300
30327
30325
30329
30326
30342
30343
30335
30334
30317
30327
30319
30316
30314
30319
30180
30250
30234
30215
30214
30259
30282
30292
30311
30301
30293
30285
30291
30284
30286
30283
30278
30172
30215
30253
30278
30279
30279
30277
30255
30263
30260
30263
30256
30244
30255
30160
30183
30196
30209
30244
30260
30239
30236
30229
30226
30224
30223
30228
30215
30169
30195
30214
30212
30215
30198
30190
30197
30188
30184
30174
30090
30138
30163
30154
30151
30165
30164
30157
30140
30144
30140
30136
30139
30133
30131
30119
30131
30126
30118
30109
30117
30100
30098
30087
30020
30052
30044
30070
30087
30084
30093
30075
30077
30059
30066
29959
29991
30026
30050
30061
30053
30055
30052
30039
30039
30035
30025
30018
30023
30022
30028
30021
30006
29932
29964
29990
30007
30004
30018
29998
29991
29996
29981
29989
29912
29935
29943
29967
29971
29975
29972
29954
29966
29955
29946
29957
29943
29959
29943
29879
29908
29941
29940
29951
29937
29935
29920
29913
29922
29915
29905
29910
29906
29906
29895
29896
29898
29895
29892
29830
29847
29844
29885
29887
29871
29863
29876
29868
29861
29863
29860
29795
29807
29831
29840
29854
29838
29842
29835
29836
29831
29836
29740
29829
29814
29756
29794
29812
29830
29809
29812
29812
29803
29771
29775
29799
29793
29805
29799
29790
29768
29767
29746
29770
29766
29769
29772
29768
29775
29767
29732
29718
29759
29749
29756
29757
29745
29750
29746
29733
29727
29698
29727
29728
29735
29735
29730
29715
29658
29723
29714
29703
29637
29711
29719
29695
29697
29702
29700
29703
29703
29692
29694
29678
29631
29679
29675
29674
29671
29671
29684
29671
29659
29630
29607
29648
29650
29651
29647
29639
29647
29642
29647
29639
29631
29604
29543
29620
29627
29607
29607
29604
29615
29610
29603
29615
29607
29589
29579
29558
29586
29583
29593
29569
29585
29585
29582
29583
29574
29550
29510
29574
29565
29559
29571
29567
29558
29549
29519
29498
29541
29543
29539
29543
29545
29534
29527
29495
29483
29445
29526
29519
29519
29511
29518
29511
29518
29509
29511
29487
29474
29471
29479
29488
29497
29498
29491
29484
29485
29476
29458
29414
29459
29461
29465
29467
29462
29452
29431
29404
29452
29439
29442
29455
29447
29447
29455
29447
29415
29431
29427
29420
29428
29434
29431
29428
29419
29419
29414
29357
29414
29408
29411
29399
29415
29395
29359
29307
29389
29390
29390
29382
29391
29374
29304
29367
29367
29385
29372
29364
29290
29364
29364
29375
29375
29341
29338
29324
29349
29358
29351
29344
29343
29351
29332
29279
29333
29348
29343
29333
29332
29306
29293
29327
29319
29319
29319
29319
29315
29319
29326
29307
29303
29295
29254
29302
29300
29297
29310
29307
29314
29311
29299
29290
29290
29262
29258
29279
29283
29287
29269
29271
29274
29285
29282
29286
29284
29279
29255
29251
29229
29198
29277
29259
29260
29253
29256
29253
29267
29255
29239
29220
29251
29255
29246
29238
29242
29244
29235
29207
29225
29236
29235
29239
29225
29230
29222
29223
29177
29207
29219
29223
29233
29223
29216
29215
29222
29202
29223
29223
29215
29205
29214
29213
29204
29187
29204
29209
29207
29202
29191
29191
29099
29189
29198
29204
29186
29191
29191
29183
29177
29164
29165
29185
29191
29183
29176
29171
29159
29191
29188
29183
29167
29174
29162
29135
29175
29180
29180
29165
29160
29132
29156
29173
29170
29164
29159
29156
29108
29146
29167
29158
29151
29155
29135
29151
29151
29158
29159
29153
29151
29157
29146
29148
29137
29148
29124
29127
29151
29146
29146
29151
29143
29141
29108
29131
29143
29149
29134
29141
29133
29127
29119
29143
29135
29138
29127
29124
29108
29135
29135
29133
29126
29141
29129
29127
29122
29117
29127
29121
29127
29124
29126
29119
29119
29117
29118
29097
29117
29120
29134
29121
29111
29109
29101
29127
29126
29111
29115
29106
29113
29101
29113
29062
29092
29095
29111
29095
29111
29108
29103
29110
29123
29113
29116
29111
29116
29111
29103
29117
29099
29059
29085
29095
29095
29108
29110
29105
29105
29092
29100
29100
29105
29092
29065
29079
29101
29118
29103
29099
29099
29092
29070
29092
29115
29102
29094
29101
29099
29095
29066
29095
29095
29107
29103
29099
29086
29103
29074
29100
29109
29095
29101
29084
29068
29093
29094
29106
29100
29094
29089
29012
29079
29093
29095
29105
29089
29092
29084
29079
29060
29092
29109
29092
29095
29091
29092
29093
29079
29079
29092
29062
29093
29095
29111
29098
29095
29090
29101
29085
29091
29090
29091
29023
29058
29076
29084
29093
29087
29095
29098
29089
29086
29087
29093
29087
29079
29036
29055
29071
29070
29093
29098
29086
29098
29095
29087
29095
29095
29087
29091
29091
29061
29093
29092
29092
29082
29068
29084
29093
29088
29084
29053
29085
29101
29087
29092
29094
29063
29094
29100
29084
29097
29084
29070
29082
29099
29100
29089
29089
29085
29055
29071
29095
29100
29090
29092
29099
29093
29098
29077
29063
29097
29102
29096
29095
29095
29098
29094
29084
29108
29116
29095
29101
29104
29053
29091
29106
29117
29102
29104
29108
29082
29102
29110
29100
29100
29095
29074
29102
29118
29097
29100
29076
29097
29108
29103
29095
29092
29092
29089
29087
29093
29103
29092
29092
29095
29054
29077
29102
29085
29084
29081
28994
29075
29092
29087
29087
29083
29073
29076
29055
29055
29079
29079
29073
29067
29068
29071
29059
29051
29076
29063
29062
29063
29057
29055
29063
29065
29067
29063
29061
29063
29042
29054
29063
29060
29063
29063
28975
29045
29053
29070
29059
29063
29058
29023
29066
29071
29062
29063
29061
29059
29023
29041
29061
29060
29066
29060
29055
29021
29038
29060
29057
29062
29038
29044
29045
29061
29057
29055
29055
29012
29045
29061
29063
29060
29052
29051
28992
29023
29054
29059
29051
29055
29035
29063
29047
29062
29047
29036
29051
29063
29056
29052
29050
29052
29047
28999
29023
29047
29060
29068
29063
29070
29055
29047
29031
29031
29025
29060
29063
29063
29063
29051
29055
29009
29054
29061
29063
29055
29062
29058
29030
29063
29063
29055
29058
29055
29063
29005
29039
29050
29071
29059
29071
29063
29058
29027
29047
29062
29071
29070
29076
29063
29063
29060
29063
29055
29016
29047
29052
29070
29063
29079
29075
29079
29085
29060
29063
29071
29063
29073
29062
29060
29065
29068
29063
29045
29047
29067
29077
29081
29083
29066
29076
29081
29077
29076
29038
29063
29065
29082
29079
29079
29079
29039
29071
29089
29101
29084
29079
29087
29015
29079
29090
29091
29086
29082
29079
29081
29090
28984
29052
29079
29087
29091
29085
29081
29083
29051
29085
29095
29092
29086
29086
29028
29087
29105
29100
29086
29085
29062
29103
29111
29095
29101
29090
29092
29059
29097
29106
29092
29092
29095
29095
29069
29101
29114
29102
29089
29093
29100
29069
29107
29110
29103
29103
29101
29057
29092
29103
29107
29106
29103
29015
29063
29103
29114
29104
29114
29106
29108
29079
29102
29120
29125
29115
29111
29113
29077
29119
29126
29118
29119
29125
29122
29087
29111
29145
29135
29125
29127
29123
29124
29084
29127
29135
29146
29127
29126
29135
29096
29132
29146
29143
29135
29146
29106
29143
29153
29147
29146
29138
29148
29062
29116
29148
29156
29159
29159
29148
29156
29156
29154
29156
29152
29153
29103
29124
29153
29167
29158
29164
29164
29164
29157
29162
29161
29114
29147
29164
29177
29171
29185
29174
29175
29181
29178
29166
29175
29176
29143
29175
29191
29191
29191
29191
29183
29199
29167
29205
29212
29207
29197
29207
29201
29140
29174
29204
29212
29223
29212
29223
29214
29214
29183
29217
29227
29235
29219
29222
29235
29221
29141
29228
29220
29231
29239
29236
29239
29215
29239
29251
29253
29238
29245
29252
29239
29221
29249
29253
29268
29255
29251
29249
29181
29241
29263
29271
29267
29266
29266
29220
29273
29281
29271
29271
29276
29269
29213
29244
29278
29296
29284
29287
29292
29243
29287
29295
29310
29299
29290
29295
29308
29277
29313
29313
29319
29319
29308
29311
29312
29317
29308
29274
29311
29319
29327
29339
29331
29337
29327
29327
29326
29293
29310
29338
29347
29351
29343
29341
29341
29352
29292
29294
29324
29358
29365
29355
29365
29363
29321
29366
29370
29387
29371
29378
29365
29335
29359
29389
29397
29385
29383
29383
29389
29391
29325
29357
29393
29405
29395
29398
29397
29351
29397
29415
29407
29402
29415
29415
29417
29399
29421
29420
29416
29428
29365
29411
29441
29439
29428
29435
29434
29430
29399
29432
29457
29447
29439
29457
29423
29463
29455
29461
29397
29471
29468
29468
29469
29433
29477
29492
29473
29482
29481
29386
29438
29492
29499
29493
29491
29503
29498
29402
29487
29511
29509
29491
29447
29499
29512
29510
29514
29479
29539
29525
29519
29527
29529
29524
29487
29500
29541
29553
29530
29540
29524
29470
29511
29544
29567
29559
29555
29556
29527
29553
29566
29578
29567
29571
29570
29564
29503
29536
29557
29583
29580
29585
29586
29583
29521
29568
29596
29600
29599
29601
29596
29533
29589
29620
29629
29611
29617
29522
29564
29605
29635
29621
29628
29617
29614
29575
29607
29631
29647
29647
29634
29639
29652
29563
29640
29667
29660
29653
29644
29575
29657
29661
29671
29659
29671
29667
29670
29674
29575
29601
29630
29654
29671
29694
29693
29697
29697
29691
29694
29693
29695
29700
29703
29703
29703
29629
29647
29656
29664
29709
29730
29721
29719
29723
29644
29716
29741
29742
29735
29729
29738
29727
29738
29647
29700
29743
29747
29763
29759
29751
29738
29754
29755
29758
29755
29753
29684
29703
29731
29733
29767
29774
29790
29778
29772
29778
29780
29782
29777
29694
29743
29780
29790
29799
29793
29798
29794
29783
29782
29790
29796
29798
29792
29791
29796
29799
29729
29775
29803
29804
29805
29799
29686
29773
29798
29796
29796
29800
29797
29790
29794
29785
29796
29710
29737
29745
29773
29775
29780
29786
29797
29798
29810
29799
29814
29797
29798
29798
29790
29689
29703
29782
29791
29787
29800
29820
29821
29805
29786
29799
29799
29790
29807
29799
29799
29669
29799
29801
29711
29731
29765
29781
29786
29790
29807
29807
29810
29802
29798
29796
29810
29804
29796
29800
29799
29692
29703
29729
29734
29758
29788
29799
29815
29825
29795
29810
29802
29805
29681
29734
29791
29813
29805
29805
29811
29703
29759
29799
29828
29807
29796
29804
29807
29807
29805
29797
29703
29735
29765
29756
29781
29764
29779
29798
29797
29798
29807
29814
29807
29807
29799
29768
29776
29767
29791
29793
29798
29795
29818
29815
29812
29823
29807
29812
29804
29797
29810
29804
29807
29804
29802
29674
29727
29761
29777
29801
29819
29812
29801
29815
29814
29797
29674
29715
29759
29772
29803
29817
29822
29799
29805
29815
29697
29748
29788
29799
29814
29814
29818
29818
29820
29799
29811
29804
29805
29688
29750
29783
29796
29822
29803
29801
29800
29806
29805
29662
29701
29727
29775
29812
29794
29798
29796
29799
29794
29799
29806
29694
29770
29796
29820
29799
29791
29806
29791
29801
29790
29799
29634
29703
29772
29801
29799
29789
29785
29797
29796
29655
29703
29759
29782
29799
29791
29772
29783
29774
29787
29780
29780
29679
29726
29770
29789
29802
29766
29774
29780
29767
29769
29701
29748
29758
29773
29785
29787
29789
29783
29754
29767
29765
29761
29764
29636
29703
29747
29782
29771
29763
29756
29753
29631
29695
29748
29777
29758
29753
29749
29615
29663
29657
29684
29695
29700
29725
29751
29762
29766
29746
29746
29758
29755
29743
29750
29651
29713
29738
29751
29758
29740
29740
29743
29749
29729
29634
29693
29735
29749
29727
29743
29735
29745
29617
29673
29725
29735
29747
29740
29723
29745
29727
29735
29741
29617
29719
29751
29727
29742
29735
29741
29644
29697
29735
29751
29735
29740
29602
29666
29687
29703
29719
29739
29743
29742
29743
29734
29731
29723
29719
29717
29570
29617
29654
29690
29732
29733
29751
29723
29713
29730
29724
29732
29735
29631
29679
29703
29730
29748
29743
29725
29716
29723
29722
29730
29731
29723
29575
29639
29651
29703
29732
29744
29717
29732
29719
29732
29559
29636
29703
29758
29735
29729
29732
29736
29727
29741
29720
29743
29730
29589
29667
29700
29740
29749
29745
29756
29746
29753
29733
29733
29732
29591
29647
29701
29732
29748
29765
29735
29749
29739
29735
29742
29623
29695
29753
29739
29747
29735
29746
29605
29677
29735
29757
29735
29731
29737
29743
29740
29743
29743
29754
29743
29756
29605
29648
29703
29758
29746
29755
29743
29627
29670
29750
29751
29755
29762
29754
29642
29662
29755
29766
29782
29750
29763
29765
29767
29666
29728
29780
29758
29773
29767
29676
29738
29778
29797
29771
29780
29780
29775
29668
29749
29789
29781
29786
29775
29783
29631
29702
29749
29798
29768
29786
29795
29715
29758
29791
29806
29796
29792
29798
29790
29682
29765
29795
29800
29811
29827
29791
29798
29799
29821
29816
29805
29807
29711
29756
29782
29814
29830
29823
29823
29823
29812
29820
29824
29828
29821
29820
29831
29830
29831
29721
29761
29799
29822
29851
29860
29858
29863
29853
29844
29850
29851
29854
29851
29719
29844
29730
29788
29837
29854
29861
29890
29852
29863
29876
29860
29869
29863
29751
29786
29851
29878
29895
29899
29893
29909
29908
29877
29878
29895
29894
29887
29902
29890
29900
29789
29830
29879
29895
29927
29916
29903
29911
29910
29918
29917
29916
29797
29887
29919
29944
29933
29925
29933
29929
29831
29873
29905
29920
29957
29929
29943
29938
29807
29916
29959
29957
29959
29959
29846
29943
29984
29972
29971
29895
29950
29988
29972
29990
29991
29983
29829
29886
29942
29980
30011
29983
30004
29990
29997
29876
29931
30001
30023
30006
30019
30018
30023
29938
29991
30010
30021
30038
30038
30030
30041
30022
30028
29916
29972
30020
30014
30023
30022
30023
30029
30036
30060
30072
30063
30055
30061
30063
29923
30023
30077
30074
30076
30074
30084
29955
30010
30074
30095
30102
30107
30095
30079
30102
30095
30108
30098
29980
29990
29974
29971
29967
29996
30055
30087
30117
30120
30133
30139
30156
30127
30137
30140
30140
30138
30045
30107
30133
30146
30167
30165
30154
30139
30147
30156
30151
30159
30165
30022
30116
30145
30175
30183
30165
30172
30167
30173
30036
30111
30153
30176
30191
30164
30174
30163
30169
30166
30046
30087
30145
30178
30170
30179
30177
30170
30109
30174
30191
30171
30166
30181
30182
30173
30170
30014
30071
30079
30087
30097
30087
30108
30124
30151
30172
30183
30194
30188
30183
30187
30191
30194
30186
30183
30058
30078
30102
30163
30187
30204
30215
30199
30201
30198
30210
30196
30211
30093
30151
30199
30214
30203
30214
30215
30073
30131
30180
30214
30214
30211
30212
30208
30108
30183
30241
30215
30215
30225
30215
30215
30214
30230
30213
30124
30095
30164
30201
30231
30239
30230
30228
30223
30223
30224
30231
30235
30231
30229
30226
30233
30237
30229
30233
30231
30140
30155
30199
30228
30246
30259
30243
30239
30251
30247
30237
30238
30237
30238
30215
30107
30119
30130
30159
30211
30236
30260
30269
30252
30255
30255
30252
30159
30220
30255
30276
30279
30281
30267
30260
30257
30122
30138
30180
30200
30227
30244
30260
30287
30262
30267
30268
30276
30271
30271
30191
30206
30244
30271
30276
30274
30273
30279
30275
30271
30267
30173
30229
30279
30287
30276
30279
30279
30277
30133
30186
30233
30241
30270
30278
30301
30271
30287
30282
30277
30228
30257
30284
30294
30279
30284
30281
30291
30273
30273
30130
30190
30253
30278
30299
30277
30279
30285
30284
30289
30193
30246
30279
30280
30302
30283
30278
30279
30280
30292
30215
30266
30301
30279
30279
30279
30154
30199
30239
30278
30303
30277
30292
30291
30282
30271
30151
30215
30255
30293
30299
30277
30274
30285
30279
30142
30215
30266
30286
30298
30303
30286
30277
30284
30283
30284
30261
30154
30206
30241
30250
30279
30295
30268
30268
30279
30271
30275
30156
30213
30240
30244
30259
30282
30292
30300
30268
30273
30276
30278
30278
30178
30228
30252
30141
30279
30273
30279
30273
30284
30285
30267
30269
30272
30269
30269
30140
30179
30215
30279
30263
30269
30263
30263
30167
30189
30207
30257
30274
30286
30275
30271
30261
30261
30260
30212
30271
30271
30255
30254
30260
30261
30152
30207
30242
30271
30267
30263
30257
30264
30163
30183
30215
30260
30268
30251
30267
30267
30253
30247
30129
30174
30212
30212
30261
30249
30255
30248
30212
30260
30260
30255
30250
30259
30166
30228
30265
30249
30245
30244
30159
30225
30261
30257
30255
30253
30172
30215
30257
30263
30251
30237
30148
30199
30235
30255
30247
30239
30239
30257
30151
30164
30225
30246
30254
30271
30240
30244
30244
30180
30236
30253
30260
30239
30238
30239
30245
30166
30208
30246
30251
30257
30247
30237
30255
30132
30215
30251
30250
30239
30244
30239
30243
30215
30257
30241
30238
30242
30175
30242
30263
30239
30236
30111
30198
30166
30155
30237
30239
30237
30139
30215
30230
30255
30242
30237
30143
30215
30249
30250
30235
30239
30246
30243
30135
30199
30234
30250
30242
30225
30148
30215
30249
30239
30236
30238
30121
30231
30252
30239
30229
30177
30224
30251
30239
30238
30239
30208
30231
30239
30236
30237
30234
30231
30143
30166
30230
30260
30236
30233
30237
30119
30178
30236
30253
30236
30243
30234
30242
30175
30238
30248
30247
30247
30235
30235
30246
30149
30190
30231
30247
30237
30247
30228
30239
30173
30215
30236
30255
30238
30243
30233
30207
30234
30253
30263
30237
30239
30119
30202
30247
30255
30244
30236
30158
30225
30255
30243
30243
30237
30159
30241
30254
30243
30253
30247
30244
30190
30246
30255
30243
30253
30245
30236
30182
30193
30231
30255
30247
30239
30252
30123
30172
30215
30255
30257
30260
30251
30251
30198
30238
30262
30262
30247
30260
30263
30207
30252
30263
30259
30258
30250
30195
30260
30279
30260
30249
30255
30174
30243
30254
30260
30268
30258
30178
30215
30253
30271
30261
30271
30271
30257
30202
30244
30255
30279
30263
30275
30271
30266
30206
30265
30279
30260
30274
30266
30266
30228
30249
30268
30293
30290
30276
30274
30279
30263
30165
30238
30273
30291
30271
30266
30263
30283
30204
30260
30292
30295
30274
30271
30285
30279
30288
30279
30268
30188
30236
30271
30303
30307
30270
30281
30289
30284
30282
30223
30273
30279
30311
30279
30282
30278
30292
30142
30215
30271
30277
30261
30265
30215
30183
30285
30285
30284
30297
30287
30298
30287
30205
30269
30317
30293
30300
30293
30189
30285
30308
30293
30309
30299
30254
30301
30300
30305
30200
30300
30297
30294
30297
30227
30289
30316
30311
30307
30301
30306
30311
30310
30303
30300
30314
30302
30308
30319
30324
30319
30318
30301
30287
30289
30284
30267
30239
30231
30222
30188
30308
30309
30302
30314
30315
30305
30313
30302
30308
30317
30316
30303
30293
30283
30271
30247
30231
30168
30301
30298
30291
30298
30286
30288
30280
30284
30286
30285
30287
30277
30236
30245
30229
30235
30215
30227
30175
30161
30266
30273
30271
30263
30269
30268
30258
30261
30257
30263
30255
30250
30255
30255
30270
30275
30271
30277
30263
30263
30269
30256
30261
30244
30253
30250
30247
30255
30248
30250
30242
30256
30257
30253
30245
30215
30202
30181
30223
30215
30236
30239
30215
30245
30225
30226
30228
30228
30228
30227
30215
30226
30231
30223
30207
30186
30169
30147
30118
30214
30206
30103
30125
30210
30199
30204
30206
30208
30212
30209
30206
30206
30215
30210
30215
30207
30199
30199
30201
30191
30181
30175
30177
30189
30191
30199
30193
30196
30190
30189
30193
30183
30199
30202
30205
30186
30174
30182
30175
30178
30189
30196
30181
30165
30165
30157
30143
30100
30076
30175
30167
30171
30166
30156
30171
30175
30165
30174
30164
30166
30159
30153
30161
30171
30159
30150
30123
30101
30068
30031
30156
30159
30139
30151
30141
30143
30148
30161
30157
30159
30167
30151
30131
30084
30055
30143
30139
30143
30132
30129
30133
30132
30140
30145
30151
30131
30108
30059
30062
30011
30130
30118
30117
30127
30111
30119
30119
30124
30114
30116
30111
30113
30106
30101
30098
30103
30095
30116
30119
30102
30119
30103
30094
30089
30076
30050
30052
30006
29991
30010
30019
29997
30070
30076
30075
30075
30075
30082
30068
30071
30079
30073
30069
30070
30071
30067
30075
30076
30062
30065
30065
30063
30073
30075
30076
30068
30063
30039
30051
30047
30044
30049
30046
30046
30028
30031
30034
30037
30045
30052
30051
30039
30031
30012
29959
29916
30036
30020
30015
30023
30019
30023
30026
30025
30023
30010
30015
30018
30020
30023
30020
30020
30023
30015
30007
29978
29959
29981
29971
29986
29981
29994
29989
29983
29987
29991
29985
29987
29990
29991
29988
29985
29985
29991
29978
29948
29957
29946
29935
29918
29892
29932
29927
29889
29863
29979
29975
29971
29969
29957
29966
29975
29968
29926
29906
29899
29959
29954
29958
29951
29954
29955
29943
29941
29942
29942
29948
29955
29958
29938
29933
29935
29922
29946
29926
29917
29901
29884
29879
29885
29870
29855
29854
29854
29909
29921
29922
29919
29918
29920
29915
29911
29914
29916
29920
29919
29918
29925
29911
29909
29917
29909
29927
29910
29914
29900
29909
29919
29908
29917
29919
29911
29911
29898
29903
29890
29899
29885
29895
29895
29881
29873
29878
29865
29861
29869
29873
29850
29858
29862
29881
29884
29884
29887
29887
29871
29863
29854
29831
29828
29839
29813
29791
29791
29799
29795
29799
29807
29793
29787
29787
29765
29852
29855
29859
29870
29863
29859
29855
29855
29861
29858
29858
29863
29862
29838
29812
29821
29807
29771
29791
29789
29839
29843
29852
29846
29843
29834
29837
29850
29842
29849
29849
29839
29839
29838
29831
29824
29842
29831
29824
29833
29845
29844
29837
29831
29815
29825
29803
29804
29779
29773
29773
29763
29745
29830
29828
29831
29836
29835
29831
29830
29823
29839
29843
29837
29844
29831
29820
29831
29825
29821
29831
29828
29815
29815
29807
29810
29815
29815
29815
29799
29756
29821
29812
29818
29823
29810
29831
29813
29746
29806
29820
29818
29820
29836
29820
29829
29818
29824
29818
29807
29804
29767
29759
29781
29775
29804
29797
29788
29799
29779
29762
29749
29731
29815
29813
29807
29804
29807
29811
29815
29807
29815
29822
29809
29805
29819
29823
29808
29818
29814
29815
29813
29806
29815
29820
29809
29799
29812
29809
29818
29809
29813
29805
29805
29809
29811
29825
29815
29815
29815
29823
29829
29823
29815
29803
29771
29762
29740
29722
29689
29812
29731
29743
29686
29821
29822
29815
29812
29812
29827
29809
29811
29828
29812
29815
29813
29786
29750
29807
29830
29820
29821
29821
29824
29834
29831
29813
29773
29820
29814
29820
29836
29815
29839
29822
29811
29783
29738
29823
29824
29823
29822
29839
29838
29831
29825
29831
29831
29804
29789
29751
29750
29763
29791
29827
29835
29831
29827
29820
29683
29815
29831
29839
29818
29823
29831
29772
29823
29852
29831
29825
29831
29833
29843
29823
29823
29839
29789
29839
29843
29823
29837
29767
29828
29840
29839
29839
29831
29820
29803
29837
29859
29831
29838
29844
29779
29795
29838
29852
29842
29839
29839
29828
29729
29807
29829
29847
29854
29836
29838
29838
29853
29831
29772
29814
29830
29850
29831
29847
29845
29836
29795
29826
29839
29855
29860
29847
29840
29842
29839
29764
29813
29847
29855
29839
29845
29839
29796
29834
29859
29863
29847
29852
29846
29763
29772
29812
29829
29843
29847
29860
29839
29845
29789
29831
29847
29840
29845
29847
29842
29766
29802
29812
29836
29836
29836
29836
29847
29831
29831
29828
29839
29836
29703
29791
29807
29827
29838
29813
29814
29810
29820
29820
29806
29703
29743
29772
29799
29807
29826
29804
29805
29797
29746
29782
29807
29807
29798
29786
29799
29797
29751
29767
29799
29796
29783
29786
29724
29764
29781
29777
29787
29783
29786
29755
29781
29791
29773
29767
29775
29687
29743
29776
29764
29763
29668
29758
29773
29767
29751
29663
29754
29774
29759
29744
29754
29663
29655
29749
29678
29755
29769
29747
29750
29749
29659
29727
29744
29758
29748
29745
29735
29687
29727
29743
29726
29735
29730
29676
29720
29748
29732
29731
29719
29661
29703
29725
29732
29727
29720
29716
29615
29678
29703
29731
29731
29711
29716
29703
29669
29726
29703
29703
29703
29698
29639
29676
29700
29709
29716
29703
29703
29696
29694
29586
29644
29682
29700
29706
29687
29699
29691
29687
29682
29641
29675
29703
29699
29687
29677
29679
29636
29677
29695
29681
29687
29673
29674
29605
29658
29672
29684
29681
29675
29671
29667
29615
29663
29679
29660
29666
29665
29615
29671
29671
29659
29663
29664
29655
29657
29654
29650
29642
29659
29658
29639
29539
29567
29582
29554
29543
29636
29639
29631
29641
29628
29637
29644
29628
29628
29629
29628
29627
29628
29620
29630
29637
29617
29612
29613
29604
29602
29597
29588
29591
29599
29557
29510
29510
29495
29598
29491
29604
29590
29599
29583
29591
29479
29577
29494
29516
29529
29552
29575
29591
29591
29568
29571
29575
29577
29571
29563
29551
29523
29503
29514
29500
29501
29499
29521
29528
29558
29562
29556
29565
29567
29563
29573
29559
29546
29545
29534
29545
29542
29506
29477
29447
29473
29477
29447
29401
29453
29447
29452
29426
29436
29415
29527
29522
29532
29476
29508
29510
29503
29505
29408
29422
29371
29508
29502
29491
29500
29492
29501
29501
29489
29396
29447
29511
29491
29477
29482
29425
29475
29500
29479
29479
29479
29371
29406
29464
29478
29500
29478
29479
29468
29375
29447
29482
29471
29455
29463
29403
29460
29473
29471
29469
29458
29455
29404
29467
29463
29455
29356
29447
29444
29455
29455
29423
29465
29447
29446
29383
29407
29454
29444
29441
29447
29439
29331
29370
29427
29445
29437
29435
29327
29408
29439
29430
29428
29429
29423
29416
29335
29377
29413
29428
29414
29421
29420
29399
29423
29414
29407
29406
29407
29375
29407
29423
29407
29398
29403
29359
29403
29409
29404
29402
29375
29392
29402
29395
29393
29335
29368
29398
29399
29385
29387
29345
29378
29381
29383
29383
29329
29383
29391
29385
29383
29309
29375
29389
29375
29379
29374
29343
29369
29375
29379
29373
29362
29335
29363
29383
29369
29374
29316
29355
29383
29367
29359
29364
29353
29363
29377
29347
29351
29351
29364
29363
29344
29311
29349
29348
29351
29347
29346
29351
29284
29340
29354
29361
29349
29339
29271
29336
29354
29342
29345
29339
29336
29309
29340
29351
29341
29348
29332
29243
29300
29333
29354
29331
29327
29328
29319
29271
29323
29332
29324
29326
29319
29261
29318
29322
29319
29308
29314
29309
29319
29310
29311
29316
29287
29311
29311
29309
29309
29305
29295
29263
29260
29284
29300
29303
29308
29299
29293
29287
29285
29244
29254
29286
29299
29305
29290
29269
29287
29281
29287
29234
29273
29302
29303
29281
29291
29291
29287
29263
29287
29291
29291
29285
29272
29239
29271
29297
29289
29287
29276
29185
29287
29299
29284
29228
29281
29284
29286
29254
29286
29279
29280
29211
29271
29300
29295
29284
29292
29295
29277
29303
29297
29278
29289
29247
29275
29309
29309
29303
29295
29295
29216
29253
29294
29311
29287
29295
29215
29265
29297
29309
29304
29303
29226
29282
29310
29311
29311
29307
29212
29271
29311
29308
29311
29306
29255
29311
29329
29319
29308
29247
29298
29342
29327
29321
29311
29266
29319
29331
29326
29325
29259
29324
29343
29338
29329
29334
29258
29302
29351
29335
29346
29281
29332
29355
29333
29337
29341
29261
29335
29353
29343
29342
29302
29348
29361
29343
29352
29351
29303
29354
29359
29351
29360
29319
29370
29361
29351
29296
29348
29375
29356
29364
29319
29366
29390
29375
29365
29372
29335
29376
29382
29377
29377
29386
29387
29373
29359
29391
29388
29382
29383
29308
29366
29396
29396
29391
29385
29394
29357
29396
29393
29406
29393
29404
29391
29399
29358
29412
29407
29412
29319
29374
29399
29421
29419
29412
29415
29415
29349
29410
29428
29419
29412
29423
29335
29385
29436
29435
29431
29423
29357
29419
29405
29365
29433
29434
29439
29443
29442
29431
29432
29405
29383
29372
29358
29447
29447
29446
29447
29447
29439
29459
29452
29447
29455
29459
29447
29446
29463
29455
29476
29468
29476
29471
29462
29471
29455
29459
29470
29460
29473
29471
29463
29466
29472
29463
29473
29479
29482
29486
29482
29495
29492
29492
29485
29476
29469
29489
29476
29477
29468
29466
29460
29478
29492
29487
29499
29492
29479
29487
29401
29476
29490
29481
29473
29476
29414
29471
29486
29485
29476
29479
29477
29479
29391
29399
29444
29444
29463
29478
29483
29483
29474
29461
29461
29423
29431
29462
29479
29474
29470
29463
29466
29430
29457
29471
29457
29469
29463
29335
29430
29469
29476
29483
29463
29474
29460
29447
29453
29414
29463
29469
29453
29468
29462
29469
29454
29463
29417
29447
29471
29471
29458
29459
29457
29397
29431
29447
29461
29467
29457
29459
29459
29412
29463
29470
29463
29459
29421
29453
29463
29461
29447
29408
29438
29471
29471
29469
29471
29457
29427
29459
29471
29458
29452
29455
29391
29420
29459
29471
29458
29447
29453
29439
29460
29471
29460
29455
29455
29431
29463
29462
29463
29458
29407
29447
29460
29470
29471
29460
29455
29444
29447
29403
29447
29471
29465
29453
29460
29463
29423
29451
29471
29455
29472
29463
29335
29443
29467
29473
29461
29463
29466
29458
29413
29403
29439
29455
29469
29468
29471
29475
29463
29469
29399
29439
29471
29481
29468
29471
29461
29389
29467
29482
29476
29455
29428
29479
29460
29456
29465
29480
29468
29461
29386
29447
29472
29471
29475
29458
29388
29447
29473
29468
29463
29463
29483
29468
29463
29415
29452
29479
29478
29468
29466
29431
29476
29483
29463
29473
29458
29428
29463
29479
29462
29463
29476
29447
29468
29471
29479
29467
29423
29447
29468
29477
29454
29453
29429
29473
29463
29468
29386
29447
29479
29463
29458
29375
29460
29468
29463
29448
29476
29430
29471
29462
29455
29447
29475
29463
29459
29455
29423
29471
29468
29463
29468
29446
29474
29474
29465
29405
29445
29479
29463
29460
29453
29391
29447
29470
29457
29453
29447
29462
29435
29466
29462
29447
29461
29427
29455
29454
29458
29442
29455
29463
29447
29448
29389
29439
29452
29463
29455
29447
29455
29431
29443
29460
29463
29455
29455
29457
29433
29459
29460
29455
29447
29436
29444
29422
29455
29455
29469
29460
29454
29444
29455
29447
29461
29466
29455
29447
29402
29441
29467
29454
29447
29383
29423
29447
29469
29463
29457
29403
29439
29446
29455
29460
29447
29462
29447
29459
29452
29463
29447
29451
29461
29428
29459
29466
29458
29452
29447
29436
29460
29469
29463
29463
29462
29447
29475
29456
29469
29460
29380
29431
29461
29477
29475
29464
29469
29434
29471
29469
29470
29468
29462
29458
29443
29462
29475
29470
29470
29452
29412
29463
29471
29460
29468
29468
29447
29469
29464
29461
29437
29479
29484
29468
29483
29469
29485
29469
29471
29411
29456
29476
29487
29468
29479
29445
29477
29476
29476
29469
29471
29474
29439
29470
29474
29477
29473
29466
29438
29469
29490
29483
29469
29427
29478
29487
29479
29484
29478
29465
29477
29490
29471
29479
29474
29444
29474
29487
29487
29479
29487
29471
29447
29485
29491
29487
29479
29485
29409
29471
29488
29491
29485
29489
29492
29487
29492
29492
29431
29471
29495
29487
29485
29487
29476
29476
29487
29499
29486
29484
29487
29490
29471
29499
29495
29492
29491
29494
29415
29476
29501
29491
29484
29489
29483
29425
29468
29491
29500
29493
29492
29493
29427
29483
29511
29495
29503
29495
29495
29479
29495
29515
29509
29511
29493
29425
29479
29509
29511
29503
29503
29481
29514
29503
29502
29503
29460
29487
29511
29523
29518
29517
29427
29471
29500
29500
29520
29514
29513
29519
29511
29473
29510
29532
29527
29531
29509
29465
29524
29524
29519
29519
29535
29479
29531
29535
29525
29534
29511
29529
29548
29535
29538
29508
29543
29540
29534
29534
29530
29553
29543
29527
29519
29559
29543
29546
29511
29548
29547
29543
29542
29532
29559
29544
29550
29546
29531
29559
29555
29548
29556
29534
29564
29566
29559
29438
29546
29571
29574
29570
29551
29532
29566
29582
29571
29576
29535
29572
29574
29570
29541
29567
29591
29575
29565
29583
29591
29586
29588
29559
29589
29589
29583
29491
29589
29588
29590
29591
29579
29607
29594
29609
29597
29613
29603
29575
29603
29610
29603
29559
29603
29615
29607
29608
29612
29591
29617
29607
29607
29611
29542
29613
29618
29623
29614
29615
29595
29631
29623
29625
29620
29599
29633
29630
29629
29626
29620
29629
29639
29639
29631
29599
29651
29644
29630
29548
29639
29660
29645
29643
29596
29637
29651
29646
29645
29647
29643
29623
29665
29653
29657
29650
29629
29671
29655
29655
29606
29649
29677
29663
29671
29656
29588
29655
29680
29668
29671
29599
29670
29681
29673
29674
29678
29651
29678
29686
29674
29678
29666
29695
29681
29684
29686
29660
29682
29696
29692
29690
29686
29657
29697
29702
29685
29687
29670
29630
29661
29696
29695
29687
29696
29682
29686
29679
29690
29691
29693
29604
29668
29689
29686
29690
29690
29650
29679
29693
29679
29682
29684
29617
29678
29695
29679
29671
29635
29677
29685
29678
29675
29684
29626
29667
29692
29675
29677
29679
29671
29613
29661
29679
29677
29671
29671
29631
29683
29684
29682
29677
29678
29647
29675
29679
29676
29668
29618
29667
29687
29670
29668
29605
29663
29691
29672
29667
29642
29656
29670
29666
29674
29673
29639
29677
29674
29671
29668
29669
29684
29671
29676
29647
29671
29679
29679
29589
29663
29677
29674
29679
29652
29689
29671
29671
29605
29666
29692
29673
29607
29671
29685
29668
29670
29654
29687
29671
29670
29621
29675
29671
29679
29670
29671
29671
29670
29633
29674
29686
29677
29663
29660
29658
29679
29673
29661
29663
29623
29668
29684
29671
29671
29670
29670
29607
29639
29663
29675
29668
29669
29670
29607
29660
29671
29653
29660
29651
29612
29647
29679
29668
29663
29667
29591
29644
29673
29660
29660
29653
29613
29649
29653
29669
29661
29655
29663
29613
29662
29667
29650
29652
29655
29607
29649
29658
29652
29562
29643
29655
29647
29588
29652
29647
29654
29669
29650
29652
29614
29660
29653
29639
29573
29643
29649
29639
29639
29575
29630
29645
29642
29633
29619
29639
29632
29633
29596
29636
29639
29636
29628
29607
29639
29623
29630
29535
29607
29623
29615
29620
29631
29589
29626
29627
29618
29615
29601
29626
29614
29604
29594
29623
29607
29606
29575
29604
29630
29606
29599
29526
29575
29601
29615
29599
29604
29591
29548
29604
29594
29591
29514
29575
29596
29593
29589
29556
29591
29583
29590
29577
29519
29572
29591
29575
29575
29572
29525
29554
29572
29558
29505
29564
29580
29571
29567
29541
29569
29554
29564
29511
29560
29557
29555
29487
29556
29567
29549
29460
29539
29551
29543
29484
29537
29539
29543
29546
29541
29535
29534
29543
29531
29443
29511
29536
29528
29493
29535
29540
29518
29459
29541
29532
29519
29487
29532
29529
29519
29519
29468
29525
29511
29505
29447
29500
29511
29511
29508
29484
29512
29507
29503
29447
29503
29505
29494
29491
29423
29503
29501
29492
29498
29487
29423
29451
29506
29495
29479
29487
29489
29484
29455
29481
29471
29471
29476
29447
29476
29463
29473
29471
29359
29431
29465
29476
29468
29464
29389
29435
29466
29447
29455
29457
29397
29447
29454
29447
29381
29447
29460
29446
29437
29332
29428
29451
29445
29426
29414
29445
29433
29434
29394
29447
29423
29431
29385
29431
29420
29429
29422
29420
29423
29414
29412
29417
29415
29327
29351
29374
29383
29374
29395
29399
29394
29391
29396
29399
29407
29396
29406
29399
29403
29385
29407
29388
29383
29396
29383
29389
29386
29380
29381
29378
29381
29375
29380
29372
29372
29375
29367
29365
29359
29278
29355
29359
29363
29364
29353
29354
29360
29359
29343
29359
29349
29343
29350
29348
29356
29342
29341
29332
29335
29338
29335
29335
29325
29323
29233
29276
29315
29319
29335
29325
29340
29327
29311
29321
29316
29308
29313
29306
29306
29303
29306
29314
29303
29294
29303
29295
29293
29301
29296
29284
29269
29252
29252
29223
29226
29209
29279
29279
29275
29276
29271
29265
29287
29270
29273
29271
29258
29252
29240
29239
29237
29239
29239
29227
29238
29229
29239
29228
29229
29246
29241
29255
29247
29236
29227
29226
29223
29223
29217
29220
29221
29220
29215
29213
29217
29218
29212
29215
29203
29200
29191
29210
29199
29191
29190
29188
29183
29183
29090
29127
29135
29142
29158
29170
29161
29175
29182
29188
29164
29164
29173
29169
29167
29165
29159
29161
29159
29054
29101
29105
29114
29110
29095
29119
29135
29140
29154
29143
29143
29149
29136
29128
29127
29121
29118
29119
29109
29123
29114
29115
29108
29109
29110
29115
29105
29095
29100
29095
29094
29095
29087
29089
29087
29084
29087
29085
29087
29077
29076
29066
29074
29063
29071
29083
29082
29063
29052
29063
29061
29047
29055
29055
29046
29047
29052
29059
29037
29039
29031
29046
29037
29025
29037
29028
29029
29031
29027
29023
29031
29031
29022
29015
28998
29007
29015
28999
28983
28967
28983
28983
28966
28968
28964
28968
28988
28999
29000
28990
28981
28975
28976
28975
28972
28967
28885
28912
28932
28966
28983
28969
28963
28966
28956
28956
28951
28953
28948
28945
28945
28946
28934
28932
28948
28919
28926
28923
28926
28910
28919
28906
28908
28901
28896
28902
28890
28890
28887
28872
28876
28873
28869
28871
28869
28861
28863
28871
28867
28867
28847
28851
28839
28837
28839
28828
28822
28814
28812
28817
28804
28807
28794
28807
28799
28795
28795
28807
28795
28786
28780
28782
28793
28795
28779
28764
28766
28772
28750
28757
28743
28751
28751
28743
28747
28736
28727
28725
28725
28719
28597
28623
28668
28669
28661
28655
28631
28654
28650
28637
28628
28658
28659
28654
28651
28661
28667
28671
28685
28675
28659
28655
28658
28649
28648
28642
28647
28644
28636
28645
28631
28633
28627
28636
28617
28618
28613
28613
28611
28612
28604
28603
28606
28601
28609
28585
28565
28571
28553
28547
28540
28534
28530
28503
28495
28437
28567
28550
28554
28555
28551
28551
28398
28422
28403
28541
28536
28530
28525
28517
28523
28519
28516
28515
28515
28511
28510
28510
28498
28494
28487
28492
28489
28503
28477
28485
28479
28470
28465
28356
28470
28462
28351
28429
28389
28373
28387
28365
28358
28319
28361
28390
28435
28457
28423
28431
28422
28429
28367
28395
28418
28439
28413
28407
28404
28396
28295
28327
28390
28413
28391
28391
28391
28381
28287
28332
28349
28381
28385
28362
28375
28367
28231
28330
28351
28354
28343
28347
28292
28340
28343
28327
28327
28326
28327
28249
28293
28300
28331
28318
28302
28292
28303
28308
28303
28227
28239
28292
28290
28291
28284
28224
28271
28287
28269
28270
28213
28261
28255
28254
28258
28195
28241
28245
28252
28245
28228
28122
28167
28210
28199
28183
28165
28140
28141
28155
28126
28125
28103
28127
28115
28132
28135
28151
28167
28187
28176
28183
28188
28188
28188
28167
28165
28165
28158
28151
28167
28164
28160
28156
28148
28156
28148
28140
28148
28133
28130
28124
28111
28110
28119
28115
28122
28125
28126
28113
28119
28098
28075
28039
28020
28023
28017
28005
28015
28011
28007
27947
28084
28073
28082
28087
28004
28068
28071
28061
28066
28060
28055
28054
28068
28060
28052
28053
28037
27997
27991
27967
27948
27972
27939
27945
27943
27975
28009
27977
27977
27975
27957
27949
27942
28020
28014
28017
28007
28004
27999
28009
28005
28004
28013
28006
28005
28009
28006
28000
28003
28001
28005
27999
27994
28005
27985
27978
27988
27975
27979
27988
27967
27977
27982
27975
27961
27975
27975
27959
27964
27967
27972
27969
27958
27956
27961
27963
27951
27953
27967
27962
27967
27968
27959
27966
27964
27956
27951
27955
27951
27952
27952
27966
27961
27959
27951
27951
27945
27962
27951
27941
27935
27926
27927
27930
27928
27911
27899
27878
27882
27860
27847
27927
27935
27930
27919
27925
27927
27919
27924
27926
27927
27927
27924
27911
27879
27878
27864
27807
27911
27919
27923
27914
27911
27924
27926
27923
27924
27911
27911
27886
27861
27911
27921
27911
27911
27911
27921
27923
27927
27917
27918
27905
27911
27907
27898
27888
27895
27910
27902
27887
27887
27887
27879
27895
27901
27900
27911
27907
27892
27883
27900
27895
27911
27911
27907
27918
27919
27911
27910
27852
27858
27855
27842
27905
27919
27903
27911
27916
27911
27910
27911
27926
27919
27934
27932
27917
27919
27883
27850
27923
27920
27927
27930
27926
27932
27927
27922
27902
27918
27935
27930
27931
27917
27951
27939
27927
27919
27898
27879
27927
27932
27943
27935
27937
27935
27935
27940
27935
27911
27906
27935
27948
27940
27935
27862
27939
27946
27951
27946
27950
27949
27946
27952
27956
27959
27948
27959
27965
27962
27963
27967
27965
27981
27981
27980
27980
27983
27983
27983
27987
27975
27977
27974
27977
27974
27967
27953
27954
27950
27972
27975
27983
27991
27991
27983
27994
27991
28001
27991
28001
28004
27997
28004
28004
28006
27989
27996
27981
27971
27971
27982
27991
28005
28006
28006
27998
27991
28007
27983
27989
27995
27994
27959
28031
28026
27951
27998
28015
28007
28031
28017
28007
28013
28003
28012
27989
27973
28038
28053
28010
28012
28023
28021
27948
28058
28061
28068
28073
28071
28072
28085
28078
28081
28078
28080
28095
28088
28075
28094
28079
28062
28067
28061
28060
28071
28076
28055
28039
28017
28102
28102
28095
28104
28119
28104
28104
28101
28110
28116
28118
28116
28135
28125
28130
28124
28135
28130
28133
28138
28142
28135
28132
28143
28130
28142
28126
28145
28156
28150
28163
28151
28157
28120
28139
28151
28154
28164
28129
28088
28147
28150
28148
28158
28166
28164
28154
28157
28163
28145
28164
28161
28157
28151
28156
28153
28154
28151
28151
28156
28094
28077
28111
28138
28161
28167
28167
28167
28167
28167
28166
28167
28164
28156
28167
28164
28135
28143
28159
28167
28186
28185
28178
28187
28188
28167
28187
28179
28183
28177
28180
28190
28195
28196
28196
28199
28183
28196
28190
28195
28199
28196
28190
28206
28201
28211
28199
28207
28199
28199
28191
28207
28205
28213
28207
28220
28222
28228
28200
28191
28151
28225
28223
28222
28220
28218
28223
28233
28234
28226
28222
28213
28178
28167
28239
28230
28231
28229
28229
28241
28245
28235
28227
28223
28241
28243
28259
28257
28258
28263
28256
28263
28264
28263
28271
28263
28258
28259
28276
28261
28265
28263
28263
28273
28277
28271
28277
28284
28271
28285
28285
28291
28279
28286
28293
28287
28295
28292
28247
28276
28283
28306
28299
28319
28314
28308
28308
28311
28315
28319
28314
28311
28318
28321
28322
28327
28327
28318
28327
28333
28323
28331
28319
28338
28322
28337
28341
28332
28349
28347
28348
28342
28348
28348
28355
28347
28348
28350
28354
28315
28324
28343
28353
28350
28357
28367
28365
28375
28372
28369
28373
28336
28378
28391
28381
28375
28344
28385
28390
28381
28388
28394
28396
28391
28391
28363
28392
28415
28412
28402
28397
28371
28407
28413
28411
28413
28413
28366
28409
28423
28418
28413
28352
28409
28445
28423
28423
28407
28442
28451
28424
28438
28367
28420
28447
28447
28434
28449
28370
28436
28459
28457
28458
28462
28447
28435
28463
28464
28476
28465
28462
28459
28476
28485
28457
28476
28476
28439
28432
28423
28471
28503
28482
28487
28451
28505
28495
28503
28435
28494
28519
28501
28513
28486
28519
28511
28517
28503
28516
28502
28525
28532
28527
28526
28531
28519
28532
28544
28534
28524
28507
28547
28551
28548
28551
28551
28480
28516
28554
28569
28556
28571
28568
28531
28567
28583
28572
28583
28555
28591
28590
28574
28566
28602
28599
28603
28592
28551
28600
28616
28609
28607
28535
28588
28621
28639
28621
28642
28627
28617
28558
28612
28620
28654
28644
28647
28652
28606
28652
28667
28662
28668
28619
28668
28679
28674
28675
28663
28675
28661
28695
28699
28689
28706
28703
28698
28706
28703
28710
28661
28679
28709
28726
28730
28725
28726
28668
28721
28751
28738
28742
28743
28612
28727
28745
28767
28756
28759
28737
28770
28782
28781
28773
28777
28757
28783
28799
28796
28791
28803
28767
28791
28803
28819
28831
28813
28815
28816
28827
28820
28773
28831
28846
28839
28839
28833
28838
28861
28853
28863
28860
28821
28865
28882
28871
28875
28876
28827
28858
28872
28877
28899
28906
28916
28903
28907
28903
28911
28912
28923
28911
28927
28921
28877
28910
28953
28953
28944
28941
28940
28946
28894
28909
28956
28970
28977
28966
28983
28977
28973
28944
28970
28989
28999
28998
28994
28996
29002
28983
29018
29015
29006
29019
29011
29031
29035
29035
29010
29045
29044
29047
29047
28967
29037
29071
29063
29063
29062
29043
29076
29078
29083
29084
29087
29003
29063
29099
29109
29103
29107
29103
29099
29091
29127
29119
29127
29122
29107
29144
29131
29139
29146
29089
29143
29158
29158
29151
29164
29106
29164
29191
29174
29175
29187
29071
29166
29191
29191
29201
29203
29152
29207
29227
29226
29217
29217
29183
29228
29247
29245
29246
29182
29247
29276
29259
29254
29255
29255
29278
29277
29283
29267
29227
29273
29301
29301
29298
29299
29299
29269
29311
29319
29325
29316
29250
29281
29335
29343
29335
29339
29325
29313
29348
29367
29351
29350
29367
29309
29343
29375
29385
29390
29403
29378
29393
29393
29339
29398
29409
29399
29405
29407
29423
29367
29391
29439
29427
29443
29438
29406
29442
29455
29455
29460
29447
29479
29461
29471
29435
29491
29482
29478
29438
29477
29495
29487
29493
29499
29479
29508
29511
29512
29506
29467
29514
29533
29538
29536
29476
29526
29554
29561
29554
29558
29510
29558
29574
29572
29564
29575
29564
29539
29575
29594
29588
29591
29592
29498
29574
29588
29620
29612
29611
29619
29612
29574
29618
29638
29644
29626
29631
29634
29575
29626
29666
29647
29652
29652
29623
29648
29660
29679
29663
29664
29671
29615
29668
29703
29690
29695
29687
29660
29686
29708
29711
29714
29699
29703
29648
29703
29716
29730
29714
29718
29679
29733
29732
29724
29724
29728
29640
29718
29730
29739
29728
29719
29676
29746
29735
29733
29735
29715
29752
29736
29735
29739
29719
29756
29751
29748
29748
29722
29757
29756
29753
29754
29754
29750
29692
29745
29766
29762
29774
29775
29724
29775
29775
29766
29767
29684
29770
29783
29770
29780
29779
29717
29756
29779
29785
29784
29794
29795
29709
29772
29807
29791
29797
29745
29809
29814
29802
29753
29812
29812
29815
29807
29710
29780
29823
29830
29815
29821
29821
29815
29772
29810
29830
29821
29819
29831
29831
29823
29821
29775
29827
29855
29831
29839
29802
29853
29861
29853
29849
29754
29823
29855
29849
29861
29843
29775
29829
29863
29863
29883
29855
29871
29860
29755
29825
29869
29887
29871
29876
29862
29813
29840
29876
29895
29877
29893
29876
29812
29865
29886
29898
29886
29899
29898
29813
29874
29903
29925
29908
29911
29904
29903
29931
29925
29922
29925
29930
29927
29926
29927
29930
29929
29943
29937
29943
29940
29930
29930
29937
29943
29950
29951
29926
29927
29922
29928
29931
29900
29887
29895
29916
29927
29940
29945
29941
29932
29933
29925
29925
29915
29908
29890
29900
29888
29844
29852
29894
29934
29947
29965
29943
29935
29935
29937
29927
29895
29931
29974
29854
29895
29875
29916
29902
29990
29982
29979
29991
29990
29997
29989
29987
29996
29993
29991
29994
29991
30000
30007
30019
30018
30023
30013
30012
29999
29991
29997
29989
29970
29957
29929
30023
30015
30012
30019
30023
30016
30023
30014
30026
30025
30031
30031
30026
30023
30027
30021
30024
30031
30047
30045
30042
30036
30028
30051
30034
30054
30052
30046
30053
30045
30057
30047
30055
30048
30033
30061
30063
30063
30075
30066
30071
30075
30063
30073
30058
29989
30060
30067
30038
29979
30060
30060
30066
30060
30068
30086
30063
30053
30023
29972
30079
30063
30061
30063
30093
30090
30076
30061
30036
29983
30064
30071
30084
30087
30085
30087
30083
30109
30108
30096
30114
30102
30091
30080
30077
30075
30079
30074
30087
30084
30052
30010
30107
30107
30112
30119
30101
30119
30103
30117
30115
30035
30032
30023
30023
30032
30114
30111
30129
30125
30125
30137
30135
30135
30130
30131
30125
30103
30094
30071
30074
30068
30136
30155
30143
30143
30147
30145
30147
30146
30149
30158
30145
30154
30151
30168
30167
30164
30146
30143
30103
30095
30164
30156
30172
30105
30164
30170
30187
30183
30173
30179
30167
30163
30141
30129
30132
30118
30183
30183
30196
30189
30191
30179
30189
30215
30214
30207
30206
30215
30207
30207
30205
30205
30207
30211
30215
30226
30228
30215
30214
30221
30215
30230
30229
30223
30227
30242
30244
30238
30231
30231
30215
30204
30227
30212
30188
30198
30173
30191
30207
30180
30179
30159
30185
30174
30205
30201
30228
30241
30247
30251
30251
30258
30271
30269
30278
30271
30267
30276
30270
30282
30279
30266
30263
30271
30275
30286
30287
30283
30294
30299
30279
30281
30279
30287
30300
30301
30308
30287
30311
30290
30306
30279
30286
30260
30215
30188
30303
30289
30298
30302
30295
30295
30313
30303
30306
30310
30307
30308
30304
30310
30311
30319
30324
30326
30335
30324
30338
30335
30311
30316
30332
30335
30337
30343
30316
30303
30300
30300
30291
30294
30280
30348
30359
30335
30348
30347
30302
30356
30362
30359
30343
30250
30343
30362
30361
30369
30364
30276
30327
30375
30389
30375
30379
30372
30247
30311
30367
30380
30387
30383
30391
30395
30388
30389
30380
30391
30396
30396
30398
30382
30391
30388
30393
30401
30402
30419
30412
30407
30406
30412
30409
30408
30415
30423
30427
30415
30407
30410
30433
30436
30436
30436
30428
30407
30411
30423
30423
30416
30430
30432
30422
30418
30431
30426
30382
30348
30310
30446
30447
30327
30303
30457
30444
30455
30317
30447
30447
30460
30469
30464
30462
30490
30487
30475
30468
30462
30467
30452
30469
30471
30468
30468
30471
30466
30471
30478
30470
30431
30343
30498
30494
30492
30485
30503
30518
30507
30511
30519
30514
30504
30495
30506
30530
30519
30516
30526
30514
30511
30512
30503
30503
30514
30531
30532
30532
30543
30526
30525
30520
30527
30519
30527
30522
30530
30530
30521
30534
30535
30550
30554
30546
30557
30552
30541
30547
30559
30561
30555
30564
30570
30556
30561
30566
30537
30543
30559
30549
30559
30548
30573
30565
30579
30566
30564
30546
30548
30526
30471
30446
30445
30439
30572
30556
30561
30563
30569
30571
30566
30567
30567
30567
30575
30572
30586
30571
30580
30572
30583
30580
30575
30577
30596
30599
30597
30593
30584
30590
30590
30588
30590
30586
30597
30588
30592
30596
30582
30595
30472
30505
30558
30581
30586
30596
30599
30599
30593
30588
30594
30582
30591
30596
30591
30599
30606
30595
30584
30586
30599
30605
30605
30596
30590
30591
30583
30590
30589
30597
30593
30583
30580
30588
30599
30590
30588
30583
30581
30588
30588
30574
30587
30589
30580
30573
30594
30585
30575
30588
30594
30589
30581
30575
30577
30577
30455
30510
30507
30517
30549
30562
30567
30571
30573
30599
30589
30575
30585
30581
30581
30583
30588
30579
30572
30575
30580
30572
30500
30481
30449
30454
30495
30483
30482
30464
30581
30580
30589
30492
30533
30508
30529
30523
30527
30551
30575
30596
30589
30594
30583
30599
30591
30583
30581
30591
30591
30584
30581
30582
30587
30585
30586
30595
30594
30590
30575
30558
30555
30547
30535
30531
30535
30508
30478
30589
30590
30583
30590
30596
30590
30583
30586
30583
30591
30597
30598
30581
30583
30591
30591
30599
30483
30502
30508
30479
30591
30599
30590
30497
30599
30607
30575
30594
30596
30606
30601
30614
30595
30591
30605
30599
30604
30599
30599
30607
30599
30604
30595
30607
30614
30615
30598
30611
30599
30615
30606
30607
30604
30615
30615
30615
30612
30601
30615
30604
30604
30602
30607
30619
30618
30609
30618
30604
30607
30614
30615
30615
30620
30619
30615
30643
30639
30630
30628
30635
30636
30631
30629
30636
30638
30637
30631
30641
30627
30639
30628
30621
30621
30628
30620
30628
30628
30636
30539
30569
30599
30622
30623
30638
30650
30625
30635
30634
30639
30643
30638
30639
30564
30591
30615
30635
30645
30639
30663
30653
30655
30660
30657
30634
30623
30644
30628
30636
30638
30662
30655
30647
30641
30655
30638
30535
30577
30596
30623
30641
30646
30641
30635
30647
30655
30663
30670
30668
30674
30661
30647
30647
30659
30660
30656
30670
30655
30663
30650
30671
30671
30653
30650
30624
30620
30626
30612
30607
30607
30637
30650
30660
30672
30668
30667
30669
30678
30661
30650
30671
30682
30677
30671
30690
30665
30661
30677
30668
30650
30663
30646
30647
30615
30589
30695
30689
30700
30700
30692
30701
30695
30701
30705
30700
30700
30704
30711
30706
30695
30705
30706
30715
30711
30711
30717
30709
30718
30719
30599
30638
30644
30669
30662
30675
30679
30721
30724
30740
30735
30727
30719
30721
30711
30711
30693
30693
30695
30703
30727
30745
30759
30758
30765
30767
30775
30780
30775
30779
30785
30770
30775
30780
30775
30772
30783
30788
30780
30772
30772
30780
30781
30773
30783
30694
30711
30727
30751
30753
30769
30755
30756
30750
30790
30796
30804
30799
30796
30796
30799
30800
30805
30815
30826
30819
30820
30815
30822
30813
30823
30828
30846
30834
30828
30845
30828
30838
30831
30839
30825
30815
30794
30813
30817
30807
30797
30782
30775
30771
30756
30757
30844
30850
30855
30845
30860
30853
30855
30857
30859
30855
30861
30859
30867
30865
30869
30872
30871
30871
30870
30879
30879
30874
30877
30881
30889
30893
30903
30892
30901
30892
30899
30900
30886
30848
30814
30807
30895
30895
30900
30903
30901
30913
30901
30907
30906
30919
30919
30911
30927
30927
30933
30918
30911
30917
30924
30935
30935
30946
30935
30943
30937
30917
30927
30924
30932
30943
30943
30947
30935
30951
30934
30854
30911
30941
30965
30959
30967
30965
30967
30972
30966
30965
30959
30963
30958
30885
30911
30965
30980
30983
30975
30982
30983
30981
30919
30943
30953
30983
30983
30989
30973
30983
30993
31002
30983
30983
31007
31011
31015
31001
31009
31015
31009
31019
31009
31015
31009
31031
31025
31036
31020
31025
31031
31026
31023
31023
31035
31033
31020
31045
31035
31057
31045
31063
31052
31052
31052
31047
31047
31055
31061
31049
31055
31047
31077
31050
31053
31057
31052
31071
31069
31073
31069
31077
31075
31077
31067
31068
31070
31073
31063
31079
31079
31079
31099
31099
31094
31108
31111
31112
31102
31100
31103
31105
31102
31102
31077
31040
31013
31047
31057
31079
31073
31087
31076
31081
31076
31075
31049
31047
31054
31127
31139
31140
31135
31140
31143
31151
31150
31151
31150
31163
31164
31078
31103
31132
31095
31100
31097
31079
31069
31166
31070
31101
31109
31084
31175
31183
31175
31180
31199
31195
31185
31199
31215
31212
31214
31205
31188
31165
31159
31100
31206
31207
31210
31217
31228
31216
31223
31228
31228
31231
31237
31228
31239
31239
31228
31231
31231
31221
31230
31239
31239
31228
31239
31239
31255
31239
31233
31202
31166
31274
31268
31274
31278
31275
31271
31279
31295
31292
31285
31273
31239
31207
31201
31207
31198
31187
31175
31301
31303
31303
31301
31306
31324
31309
31310
31329
31313
31305
31252
31220
31327
31330
31335
31333
31330
31345
31343
31348
31343
31272
31345
31344
31338
31366
31358
31341
31308
31271
31349
31351
31355
31356
31359
31356
31355
31367
31364
31355
31359
31345
31350
31375
31380
31372
31359
31361
31349
31302
31276
31267
31359
31364
31365
31367
31367
31360
31362
31367
31367
31230
31293
31325
31372
31383
31375
31369
31373
31380
31374
31271
31321
31367
31398
31375
31383
31385
31319
31377
31411
31399
31410
31373
31383
31392
31282
31373
31409
31399
31398
31395
31325
31375
31423
31399
31405
31399
31355
31399
31418
31399
31420
31407
31407
31314
31341
31378
31404
31414
31437
31407
31427
31438
31416
31311
31375
31415
31455
31421
31430
31426
31358
31438
31450
31415
31439
31431
31375
31423
31449
31428
31432
31441
31435
31399
31455
31440
31437
31447
31366
31439
31455
31457
31454
31367
31454
31452
31463
31454
31429
31484
31466
31457
31394
31462
31463
31473
31336
31452
31466
31478
31467
31476
31388
31444
31487
31481
31484
31365
31438
31492
31500
31486
31482
31418
31495
31490
31495
31495
31433
31511
31489
31495
31439
31496
31511
31506
31495
31484
31523
31511
31508
31450
31521
31507
31513
31519
31455
31526
31516
31520
31427
31540
31525
31527
31503
31542
31527
31527
31472
31548
31526
31534
31391
31514
31551
31530
31531
31533
31549
31530
31463
31517
31562
31543
31532
31543
31543
31455
31519
31566
31541
31551
31551
31479
31559
31542
31556
31396
31513
31555
31557
31549
31495
31579
31559
31551
31545
31555
31558
31421
31527
31580
31556
31564
31500
31580
31568
31567
31563
31461
31535
31541
31555
31563
31590
31591
31564
31583
31583
31575
31572
31573
31443
31471
31479
31490
31459
31495
31515
31531
31538
31539
31527
31535
31552
31573
31580
31595
31594
31599
31590
31582
31583
31599
31583
31572
31559
31580
31568
31567
31574
31583
31591
31587
31586
31590
31605
31622
31615
31589
31603
31606
31603
31622
31590
31598
31607
31610
31599
31610
31451
31590
31461
31463
31599
31607
31603
31614
31613
31605
31623
31612
31607
31623
31613
31626
31620
31618
31614
31619
31612
31620
31617
31615
31614
31612
31626
31623
31615
31621
31615
31641
31644
31644
31635
31647
31652
31663
31644
31645
31644
31650
31652
31639
31621
31631
31645
31637
31642
31639
31633
31639
31646
31633
31637
31645
31647
31639
31655
31654
31655
31646
31643
31652
31654
31655
31639
31655
31667
31678
31651
31636
31659
31661
31655
31655
31645
31655
31647
31650
31652
31671
31654
31663
31666
31661
31666
31652
31679
31671
31648
31661
31621
31607
31612
31603
31619
31611
31598
31597
31591
31593
31604
31596
31540
31528
31669
31677
31668
31674
31682
31678
31668
31534
31678
31527
31524
31687
31671
31676
31679
31687
31684
31685
31681
31679
31685
31703
31685
31668
31663
31615
31603
31573
31581
31573
31590
31591
31617
31591
31623
31621
31602
31607
31591
31563
31532
31551
31540
31682
31686
31685
31688
31692
31691
31693
31691
31695
31688
31695
31692
31684
31694
31679
31684
31681
31674
31686
31687
31695
31684
31708
31721
31698
31687
31695
31663
31639
31596
31583
31562
31703
31527
31537
31565
31694
31539
31695
31687
31694
31694
31701
31701
31693
31708
31699
31703
31717
31703
31692
31683
31707
31702
31711
31711
31716
31721
31716
31714
31715
31717
31719
31695
31684
31703
31703
31711
31698
31698
31692
31692
31703
31695
31701
31697
31698
31719
31721
31730
31714
31700
31708
31703
31705
31703
31711
31715
31707
31698
31703
31710
31695
31702
31699
31694
31692
31700
31711
31710
31711
31692
31704
31727
31725
31719
31743
31734
31735
31717
31727
31722
31708
31708
31703
31691
31678
31657
31609
31599
31548
31717
31710
31718
31716
31726
31705
31727
31718
31719
31717
31719
31711
31719
31717
31709
31724
31718
31727
31724
31722
31709
31731
31743
31740
31739
31724
31725
31726
31742
31742
31743
31735
31721
31719
31734
31746
31748
31733
31727
31727
31734
31707
31709
31719
31724
31727
31713
31721
31703
31701
31642
31601
31581
31590
31594
31651
31647
31640
31663
31655
31663
31664
31694
31699
31721
31687
31623
31553
31736
31740
31731
31724
31715
31730
31719
31764
31751
31743
31751
31743
31727
31729
31727
31726
31741
31733
31751
31751
31725
31737
31733
31743
31741
31737
31751
31751
31751
31751
31743
31751
31751
31751
31751
31746
31727
31727
31722
31726
31706
31719
31703
31661
31563
31540
31535
31575
31551
31537
31559
31566
31743
31727
31743
31743
31741
31740
31759
31751
31751
31748
31745
31743
31546
31594
31636
31668
31656
31680
31698
31714
31727
31725
31735
31735
31733
31710
31719
31719
31705
31656
31671
31555
31732
31725
31736
31686
31570
31718
31719
31730
31743
31724
31732
31732
31723
31711
31728
31703
31700
31694
31706
31702
31703
31703
31700
31695
31708
31691
31670
31679
31692
31690
31710
31711
31701
31703
31667
31669
31658
31677
31668
31655
31660
31666
31663
31671
31655
31662
31653
31661
31661
31671
31665
31647
31674
31659
31671
31679
31663
31663
31663
31477
31655
31660
31655
31495
31655
31471
31653
31453
31470
31550
31573
31581
31613
31621
31643
31655
31663
31670
31653
31638
31642
31649
31647
31641
31644
31645
31445
31490
31543
31591
31614
31635
31636
31630
31459
31613
31639
31631
31477
31619
31615
31644
31527
31647
31631
31631
31543
31615
31621
31631
31617
31453
31575
31636
31607
31617
31622
31473
31620
31623
31618
31436
31605
31599
31615
31439
31585
31628
31604
31620
31530
31623
31590
31612
31490
31597
31599
31599
31604
31415
31573
31614
31582
31604
31420
31563
31612
31587
31588
31415
31561
31610
31586
31585
31509
31601
31578
31589
31455
31567
31599
31587
31583
31519
31586
31575
31582
31469
31559
31595
31582
31562
31524
31581
31575
31570
31567
31438
31526
31572
31562
31567
31402
31530
31571
31556
31562
31560
31405
31502
31559
31551
31556
31550
31439
31541
31542
31548
31547
31375
31479
31551
31522
31536
31535
31343
31489
31556
31527
31543
31439
31380
31346
31441
31515
31507
31525
31514
31452
31533
31525
31512
31382
31495
31533
31508
31501
31391
31521
31491
31501
31401
31505
31486
31507
31487
31398
31487
31519
31487
31495
31484
31431
31509
31487
31487
31329
31408
31462
31435
31500
31470
31473
31462
31409
31471
31484
31457
31467
31458
31359
31455
31471
31484
31466
31457
31431
31447
31443
31390
31485
31463
31383
31462
31459
31455
31427
31436
31433
31425
31437
31445
31436
31297
31412
31467
31441
31341
31455
31442
31340
31436
31431
31261
31439
31433
31367
31439
31431
31377
31445
31435
31316
31416
31422
31419
31407
31400
31425
31398
31402
31423
31370
31407
31415
31310
31430
31414
31268
31423
31404
31239
31391
31400
31394
31380
31389
31399
31325
31413
31399
31412
31374
31393
31414
31220
31404
31399
31391
31369
31396
31394
31303
31419
31391
31364
31388
31393
31291
31407
31398
31222
31399
31378
31381
31367
31409
31375
31383
31215
31338
31375
31388
31378
31394
31374
31330
31407
31378
31380
31271
31370
31389
31390
31380
31202
31325
31382
31394
31383
31367
31280
31367
31366
31383
31299
31399
31382
31367
31356
31373
31373
31292
31381
31375
31367
31333
31380
31371
31365
31325
31360
31391
31377
31366
31363
31239
31294
31337
31364
31393
31359
31358
31367
31366
31363
31279
31339
31380
31364
31367
31364
31362
31270
31313
31335
31359
31381
31383
31358
31355
31362
31351
31260
31315
31342
31375
31364
31356
31351
31302
31360
31367
31364
31364
31231
31336
31382
31354
31358
31356
31223
31281
31357
31377
31354
31364
31351
31283
31351
31367
31356
31359
31348
31187
31269
31318
31351
31375
31345
31359
31346
31191
31308
31371
31335
31347
31343
31337
31235
31327
31356
31335
31347
31348
31345
31276
31335
31367
31335
31339
31333
31271
31348
31325
31343
31335
31210
31303
31335
31359
31339
31348
31343
31251
31335
31340
31358
31334
31343
31339
31338
31217
31279
31316
31345
31363
31342
31332
31329
31198
31258
31314
31340
31351
31348
31327
31343
31323
31330
31335
31248
31295
31303
31295
31320
31343
31341
31339
31335
31340
31327
31326
31259
31325
31343
31311
31319
31322
31293
31327
31313
31314
31191
31267
31332
31313
31319
31320
31213
31284
31304
31319
31308
31316
31303
31239
31319
31310
31311
31317
31259
31311
31301
31313
31310
31178
31255
31271
31303
31317
31291
31308
31303
31215
31287
31320
31289
31302
31309
31308
31297
31183
31220
31290
31311
31290
31298
31292
31294
31153
31239
31291
31319
31293
31296
31287
31144
31255
31303
31299
31295
31287
31284
31191
31263
31303
31285
31281
31102
31183
31270
31298
31283
31280
31279
31154
31255
31303
31275
31274
31282
31261
31140
31237
31291
31263
31269
31151
31220
31269
31279
31265
31267
31277
31141
31239
31269
31255
31267
31269
31255
31255
31140
31223
31231
31276
31236
31254
31091
31207
31255
31262
31251
31239
31176
31221
31260
31250
31239
31239
31119
31211
31248
31239
31239
31239
31138
31235
31228
31233
31230
31130
31205
31237
31214
31231
31221
31090
31149
31206
31223
31247
31223
31215
31094
31141
31215
31212
31207
31207
31212
31132
31205
31214
31207
31207
31198
31110
31196
31213
31191
31207
31188
31071
31108
31167
31205
31181
31194
31190
31183
31072
31135
31186
31183
31181
31182
31178
31138
31187
31182
31173
31173
31161
31063
31133
31173
31143
31156
31156
31070
31137
31159
31148
31135
31140
31141
31063
31127
31118
31133
31121
31038
31110
31104
31119
31105
31091
31099
30947
31061
31094
31071
31082
31079
31069
31060
31059
30924
30967
31011
31046
31063
31076
31055
31042
31048
31034
31039
30887
30943
31009
31029
31026
30862
30944
31014
31018
30996
31007
30991
30902
30957
31015
30983
30983
30973
30924
30959
30973
30983
30965
30962
30959
30959
30823
30923
30959
30941
30934
30875
30934
30938
30920
30919
30767
30860
30911
30927
30892
30909
30901
30889
30755
30815
30863
30887
30884
30874
30873
30871
30770
30799
30854
30858
30843
30846
30853
30839
30841
30766
30811
30836
30849
30827
30813
30822
30815
30820
30799
30699
30727
30775
30811
30799
30781
30780
30765
30692
30747
30790
30756
30749
30746
30679
30743
30772
30727
30727
30727
30727
30727
30727
30602
30639
30687
30716
30716
30719
30706
30692
30684
30684
30675
30599
30663
30695
30690
30666
30647
30667
30659
30653
30644
30651
30645
30638
30644
30637
30620
30610
30617
30438
30500
30567
30587
30597
30599
30594
30584
30580
30577
30565
30423
30451
30517
30543
30550
30555
30552
30543
30535
30525
30527
30513
30399
30431
30459
30481
30500
30496
30479
30485
30489
30486
30471
30327
30383
30428
30437
30455
30452
30449
30440
30430
30438
30424
30407
30277
30351
30407
30409
30414
30407
30386
30386
30375
30373
30263
30291
30298
30291
30326
30357
30343
30355
30332
30325
30317
30314
30309
30215
30247
30255
30287
30292
30296
30269
30278
30263
30148
30191
30228
30256
30259
30235
30234
30228
30215
30215
30142
30194
30212
30213
30182
30183
30172
30174
30084
30156
30154
30165
30156
30144
30153
30142
30135
30122
30132
30122
30113
30023
30044
30087
30111
30093
30083
30084
30076
30071
30068
30054
29887
29975
29986
30004
30016
30037
30035
30015
30009
30005
29999
29996
29874
29946
29961
29991
29991
29965
29951
29957
29830
29887
29921
29942
29951
29915
29918
29919
29906
29903
29831
29873
29887
29908
29891
29865
29869
29855
29857
29851
29858
29852
29823
29810
29743
29700
29809
29817
29811
29807
29798
29807
29805
29770
29701
29766
29767
29764
29759
29746
29745
29762
29744
29727
29715
29684
29643
29716
29703
29696
29681
29699
29699
29676
29677
29675
29656
29627
29613
29601
29571
29516
29635
29630
29623
29621
29615
29614
29615
29604
29586
29595
29575
29597
29575
29543
29566
29555
29575
29566
29559
29559
29537
29519
29516
29485
29431
29507
29503
29498
29495
29495
29487
29481
29471
29486
29469
29458
29437
29423
29413
29403
29387
29372
29379
29372
29351
29351
29351
29355
29343
29325
29317
29295
29282
29303
29318
29324
29334
29319
29317
29303
29253
29326
29318
29310
29309
29313
29300
29300
29286
29289
29271
29275
29284
29287
29267
29244
29222
29202
29191
29223
29228
29228
29226
29215
29212
29191
29191
29183
29203
29185
29181
29184
29173
29160
29152
29134
29095
29149
29142
29134
29128
29127
29132
29116
29095
29052
29095
29084
29087
29085
29076
29082
29063
29063
29063
29063
29051
29031
29006
28983
28929
29031
29013
29013
29006
28999
29012
28998
28987
28970
28932
28885
28965
28964
28958
28950
28956
28934
28935
28930
28950
28932
28907
28890
28864
28835
28807
28884
28888
28886
28871
28861
28863
28869
28860
28845
28835
28847
28775
28780
28791
28788
28789
28803
28798
28799
28791
28791
28796
28775
28766
28769
28751
28751
28754
28742
28738
28713
28721
28717
28710
28713
28703
28699
28698
28679
28687
28679
28674
28676
28661
28585
28581
28589
28588
28615
28623
28623
28618
28620
28612
28606
28604
28596
28591
28596
28576
28580
28574
28571
28564
28551
28558
28551
28543
28541
28519
28527
28514
28511
28503
28505
28511
28497
28480
28475
28469
28462
28469
28463
28446
28429
28423
28420
28420
28419
28369
28303
28399
28398
28391
28393
28391
28380
28370
28354
28348
28354
28351
28341
28337
28335
28322
28327
28325
28317
28303
28292
28250
28224
28227
28276
28271
28262
28260
28251
28245
28239
28229
28234
28223
28231
28236
28222
28205
28211
28199
28194
28175
28174
28167
28166
28167
28161
28154
28151
28143
28140
28132
28116
28117
28110
28085
28079
28066
28071
28050
28065
28071
28061
28042
28047
28044
28039
28030
28034
28028
27978
28007
27991
27998
27959
27980
27975
27983
27936
27958
27949
27945
27933
27932
27927
27927
27919
27920
27911
27895
27903
27898
27887
27882
27881
27877
27860
27860
27859
27858
27838
27836
27837
27814
27805
27795
27755
27757
27788
27775
27779
27765
27748
27751
27753
27750
27735
27729
27722
27719
27709
27701
27695
27687
27685
27687
27679
27663
27655
27653
27651
27647
27643
27631
27625
27622
27594
27590
27583
27588
27572
27557
27542
27546
27557
27557
27541
27537
27515
27485
27501
27479
27498
27487
27490
27479
27457
27447
27436
27430
27420
27412
27421
27412
27409
27402
27385
27382
27368
27365
27339
27302
27319
27322
27325
27327
27295
27316
27308
27306
27300
27290
27239
27251
27262
27267
27249
27236
27236
27226
27218
27205
27191
27181
27185
27157
27165
27167
27143
27130
27133
27112
27111
27078
27103
27097
27073
27071
27053
27015
27042
27039
27038
27014
27007
26997
26997
26983
26968
26953
26958
26943
26905
26925
26923
26927
26914
26895
26885
26868
26863
26861
26867
26844
26828
26825
26805
26804
26770
26779
26776
26775
26775
26759
26757
26743
26733
26725
26707
26687
26701
26688
26679
26678
26663
26651
26638
26620
26612
26575
26599
26598
26586
26597
26586
26556
26549
26543
26534
26530
26513
26503
26492
26493
26491
26476
26469
26444
26449
26437
26430
26406
26410
26396
26383
26385
26373
26361
26346
26339
26326
26310
26323
26305
26293
26295
26279
26256
26258
26254
26237
26233
26230
26219
26203
26198
26195
26185
26144
26163
26152
26144
26138
26129
26113
26114
26101
25981
26080
26068
26050
26055
26042
26038
26029
26017
26005
25961
25988
25980
25975
25958
25951
25932
25932
25916
25907
25892
25892
25879
25874
25861
25847
25846
25833
25823
25817
25804
25780
25791
25769
25758
25754
25748
25741
25725
25705
25710
25699
25679
25680
25671
25650
25646
25643
25622
25626
25605
25575
25595
25570
25542
25559
25551
25530
25532
25519
25495
25493
25484
25468
25466
25460
25441
25429
25428
25427
25403
25386
25385
25367
25351
25361
25345
25321
25314
25297
25300
25286
25266
25267
25253
25232
25247
25226
25215
25188
25196
25181
25166
25161
25143
25127
25130
25121
25106
25087
25084
25076
25050
25047
25043
25030
25018
25014
24993
24983
24980
24959
24943
24951
24935
24916
24918
24898
24897
24863
24862
24859
24833
24850
24822
24815
24814
24789
24766
24764
24770
24738
24734
24707
24719
24689
24678
24677
24660
24638
24647
24625
24616
24619
24599
24583
24590
24564
24539
24546
24542
24519
24542
24506
24485
24491
24458
24454
24455
24429
24416
24422
24401
24369
24380
24359
24391
24351
24334
24339
24313
24302
24316
24282
24257
24241
24244
24239
24215
24207
24202
24181
24197
24166
24143
24163
24140
24119
24102
24111
24079
24071
24104
24061
24043
24026
24040
24012
23985
23989
23971
23961
23973
23943
23930
23958
23910
23886
23916
23883
23856
23855
23843
23824
23834
23805
23793
23820
23762
23754
23788
23743
23724
23743
23709
23690
23676
23687
23660
23644
23643
23623
23652
23597
23575
23607
23575
23559
23553
23530
23585
23517
23504
23491
23462
23482
23461
23445
23425
23421
23428
23402
23383
23383
23350
23420
23351
23333
23319
23302
23335
23292
23279
23254
23285
23239
23234
23213
23285
23207
23180
23179
23154
23174
23170
23148
23147
23142
23143
23090
23076
23052
23055
23025
23096
23031
23005
22989
22975
22946
22941
22967
22925
22916
22907
22887
22940
22884
22855
22858
22824
22811
22855
22801
22794
22786
22765
22751
22735
22717
22791
22753
22700
22693
22684
22664
22649
22628
22679
22625
22606
22596
22585
22567
22584
22554
22530
22520
22498
22599
22515
22475
22467
22447
22451
22423
22399
22501
22410
22383
22364
22364
22340
22431
22347
22306
22303
22284
22258
22319
22255
22237
22227
22214
22258
22221
22187
22169
22152
22133
22223
22119
22111
22087
22180
22081
22062
22041
22085
22062
22013
22001
21982
22100
21987
21952
21957
21931
21902
21933
21896
21878
21976
21870
21849
21846
21813
21904
21805
21791
21767
21751
21780
21734
21742
21715
21690
21724
21677
21671
21629
21676
21621
21611
21594
21579
21705
21583
21550
21547
21523
21549
21511
21503
21475
21588
21459
21454
21434
21414
21445
21405
21399
21357
21443
21345
21346
21318
21306
21308
21295
21271
21327
21254
21251
21214
21347
21199
21190
21320
21172
21165
21135
21132
21123
21094
21157
21085
21084
21037
21123
21023
21031
20995
21135
20980
20973
20942
20948
20942
20916
21050
20900
20886
20857
20887
20845
20831
20884
20807
20779
20921
20775
20770
20735
20780
20722
20724
20692
20707
20674
20660
20643
20719
20631
20622
20596
20626
20572
20580
20537
20596
20521
20521
20487
20516
20479
20452
20427
20453
20423
20417
20380
20406
20375
20358
20533
20351
20334
20299
20308
20300
20263
20242
20299
20231
20239
20195
20333
20209
20172
20147
20131
20156
20123
20121
20094
20191
20075
20057
20069
20028
20005
20182
20045
19989
19974
19958
19948
19917
20055
19925
19895
19897
19877
19844
19833
19807
19859
19805
19805
19785
19756
19736
19809
19731
19727
19690
19680
19810
19700
19646
19638
19629
19608
19584
19592
19577
19577
19541
19674
19531
19507
19495
19475
19469
19497
19436
19447
19415
19602
19401
19380
19378
19337
19469
19335
19317
19309
19289
19269
19364
19247
19243
19207
19276
19201
19198
19161
19175
19147
19140
19111
19113
19100
19079
19055
19063
19046
19038
19005
19027
18996
18978
18948
18970
18964
18909
18951
18895
18888
19077
18861
18841
18836
18818
18823
18800
18778
18973
18755
18763
18716
18739
18703
18687
18668
18711
18652
18640
18771
18614
18598
18572
18590
18561
18532
18655
18528
18528
18479
18568
18471
18449
18444
18414
18607
18428
18388
18383
18340
18367
18347
18318
18415
18293
18278
18489
18243
18254
18214
18247
18188
18172
18153
18188
18141
18127
18087
18262
18075
18064
18054
18007
18054
18003
17984
18211
17960
17959
17931
17902
18004
17889
17871
17873
17837
17819
17833
17803
17806
17763
17745
17737
17746
17722
17695
17867
17693
17664
17654
17617
17741
17602
17592
17564
17553
17588
17530
17530
17496
17474
17511
17455
17462
17425
17406
17461
17391
17395
17361
17327
17369
17324
17317
17287
17269
17384
17263
17245
17232
17246
17243
17201
17188
17163
17127
17111
17093
17093
17083
16999
17073
17036
17035
17015
17206
16967
16977
16949
17188
16918
16929
16889
17039
16866
16863
16823
16879
16807
16812
16775
16885
16761
16761
16711
16871
16697
16688
16685
16646
16637
16688
16604
16605
16597
16563
16553
16564
16515
16643
16501
16508
16463
16721
16455
16444
16429
16389
16423
16377
16379
16331
16331
16357
16306
16300
16303
16260
16483
16237
16245
16199
16266
16181
16186
16151
16292
16129
16132
16085
16101
16074
16063
16310
16017
16034
16015
15991
15953
16037
15949
15951
15908
15932
15894
15900
15850
16074
15845
15830
15815
16027
15780
15775
15778
15737
15717
15713
15715
15674
15678
15671
15642
15640
15615
15745
15587
15577
15564
15533
15772
15525
15499
15495
15461
15586
15452
15432
15434
15401
15389
15400
15358
15359
15326
15401
15311
15305
15265
15281
15252
15254
15214
15238
15199
15189
15162
15240
15148
15156
15108
15092
15087
15084
15078
15046
15037
15127
14993
15001
14981
14951
15030
14933
14927
14931
14880
14998
14863
14870
14830
14912
14812
14805
14804
14757
14901
14744
14746
14739
14709
14684
14971
14667
14655
14653
14636
14598
14585
14607
14570
14583
14546
14512
14636
14518
14496
14496
14482
14452
14423
14531
14414
14407
14399
14375
14345
14602
14381
14312
14315
14308
14295
14260
14546
14247
14223
14227
14193
14178
14183
14157
14153
14155
14122
14095
14084
14229
14082
14059
14077
14033
14006
14055
13991
14015
13985
13953
13941
13924
14052
13899
13924
13878
13854
14159
13847
13832
13827
13819
13777
13765
13788
13753
13766
13723
13711
13937
13701
13681
13684
13678
13629
13965
13646
13614
13586
13717
13562
13564
13540
13532
13540
13503
13720
13481
13484
13471
13442
13459
13431
13437
13388
13501
13370
13397
13351
13672
13331
13324
13314
13281
13285
13267
13259
13234
13319
13227
13241
13193
13314
13177
13180
13132
13349
13129
13120
13105
13089
13099
13074
13063
13076
13034
13016
13023
13007
13002
12965
13301
12990
12938
12960
12911
12910
12957
12882
12881
12894
12856
12838
12823
12907
12809
12801
12793
12766
13122
12828
12742
12767
12720
13057
12716
12678
12711
12668
12644
12849
12620
12636
12623
12590
12956
12649
12563
12571
12570
12528
12507
12518
12528
12483
12545
12474
12463
12439
12498
12421
12425
12418
12381
12422
12376
12369
12347
12334
12338
12322
12671
12286
12321
12269
12518
12244
12258
12217
12210
12238
12183
12190
12180
12158
12215
12157
12163
12120
12168
12119
12103
12457
12071
12100
12058
12179
12039
12058
12013
12164
11984
12015
11970
12079
11964
11959
11929
12007
11914
11933
11885
12279
11893
11861
11883
11841
11829
11852
11815
11839
11791
12180
11777
11811
11760
11891
11739
11756
11713
11690
11731
11694
11709
11674
11661
11940
11634
11671
11615
11618
11735
11587
11609
11570
11888
11560
11563
11575
11550
11526
11900
11494
11502
11510
11472
11773
11459
11448
11462
11431
11417
11446
11406
11422
11409
11372
11406
11369
11374
11346
11339
11340
11333
11299
11306
11299
11281
11271
11423
11250
11266
11246
11230
11260
11205
11223
11206
11181
11167
11164
11172
11166
11143
11150
11138
11127
11115
11114
11102
11081
11076
11084
11084
11058
11043
11109
11028
11038
11030
10992
11050
10997
11002
10967
11247
10964
10961
10947
10933
11130
10917
10920
10912
10877
11008
10883
10877
10867
10849
10976
10839
10857
10823
10924
10806
10808
10807
10784
10772
11095
10788
10753
10756
10759
10724
11047
10709
10725
10712
10674
10799
10674
10684
10680
10646
10701
10636
10673
10626
10618
10731
10609
10629
10591
10574
10583
10591
10567
10559
10605
10553
10565
10532
10894
10516
10523
10506
10885
10486
10506
10473
10884
10469
10459
10457
10437
10542
10418
10437
10429
10404
10431
10393
10418
10374
10700
10375
10388
10351
10748
10335
10338
10337
10344
10303
10307
10300
10556
10287
10289
10309
10288
10255
10428
10245
10255
10251
10219
10217
10319
10205
10215
10229
10207
10182
10181
10214
10175
10190
10161
10138
10287
10139
10140
10137
10137
10093
10101
10256
10097
10097
10121
10085
10057
10404
10105
10053
10082
10046
10029
10355
10031
10021
10021
10024
10022
9994
9985
9975
10114
9982
9962
9999
9961
9937
10259
9933
9937
9929
9905
10122
9904
9906
9905
9877
10208
9863
9867
9882
9870
9828
10135
9852
9812
9824
9835
9805
9791
9863
9781
9779
9777
9781
9741
9739
10071
9779
9728
9719
9745
9717
9703
9689
9712
9683
9682
9699
9649
9991
9645
9661
9634
9963
9641
9623
9644
9606
9968
9593
9588
9600
9575
9630
9569
9578
9534
9950
9553
9522
9550
9513
9509
9619
9493
9509
9498
9476
9623
9466
9476
9458
9450
9460
9444
9450
9417
9522
9406
9413
9431
9391
9388
9449
9374
9359
9384
9390
9359
9342
9386
9335
9356
9330
9320
9423
9310
9315
9306
9295
9516
9277
9289
9269
9510
9253
9290
9252
9556
9254
9234
9257
9221
9549
9208
9226
9199
9194
9315
9185
9213
9159
9510
9158
9167
9186
9133
9342
9135
9145
9152
9131
9114
9516
9199
9094
9092
9118
9078
9077
9298
9061
9059
9083
9042
9046
9097
9039
9034
9048
9021
9013
9032
8996
9014
9031
8999
8981
9274
8997
8967
8982
8990
8962
8939
9340
9019
9257
8932
8913
8938
8930
8902
8882
9169
8901
8886
8892
8907
8863
8866
8900
8850
8868
8879
8840
8831
8820
9009
8827
8831
8828
8805
8877
8786
8807
8799
8774
8793
8778
8801
8769
8752
9171
8775
8749
8770
8745
8719
8809
8719
8735
8691
8767
8697
8723
8679
8916
8668
8704
8658
8993
8652
8660
8670
8639
8679
8652
8631
8626
8673
8618
8631
8593
8602
8608
8593
8614
8580
8719
8582
8600
8569
8551
8636
8533
8577
8533
8848
8520
8535
8515
8505
8545
8518
8519
8484
8791
8495
8482
8496
8465
8468
8474
8461
8487
8449
8437
8512
8438
8464
8428
8421
8841
8413
8426
8409
8394
8421
8395
8412
8380
8597
8371
8388
8398
8359
8505
8351
8388
8348
8519
8340
8363
8331
8379
8329
8354
8310
8311
8340
8300
8445
8291
8320
8284
8663
8277
8318
8269
8374
8282
8262
8635
8239
8275
8245
8655
8238
8247
8231
8637
8215
8255
8212
8217
8207
8217
8204
8198
8212
8202
8187
8581
8178
8226
8177
8287
8176
8181
8170
8165
8190
8591
8161
8150
8409
8145
8164
8133
8155
8134
8132
8538
8119
8141
8119
8191
8100
8120
8101
8111
8111
8092
8092
8222
8081
8117
8085
8068
8511
8071
8085
8069
8061
8174
8055
8085
8060
8045
8038
8066
8036
8292
8024
8060
8023
8105
8022
8022
8007
8011
8049
8010
8157
8005
8035
7989
8013
8007
8001
7989
7975
7990
7987
7973
7990
7980
7991
7965
8325
7968
7968
7990
7963
7945
7986
7954
7989
7945
8085
7943
7970
7916
7996
7942
7937
7923
7917
7945
7918
7925
7951
7916
8314
7908
7951
7898
7900
7954
7892
7912
7898
7892
7881
7925
7886
7884
7921
7871
8296
7877
7914
7867
7905
7878
7898
7863
7860
7884
7860
7895
7861
7852
7887
7839
7866
7864
7841
7958
7840
7861
7897
7910
7970
7855
7828
7867
7939
7902
7831
7870
7842
7824
7954
7816
7828
7845
7800
7813
8123
7809
7816
7845
7811
7801
7839
7801
7814
7829
7793
7951
7795
7829
7798
7979
7792
7826
7783
8252
7784
7799
7799
7783
7780
7787
7801
7777
7774
7856
7773
7809
7784
7773
7775
7781
7800
7767
8108
7759
7774
7813
7774
7769
7794
7760
7810
7770
7749
7894
7754
7787
7753
8198
7785
7765
7791
7762
8063
7772
7760
7799
7752
7752
7768
7759
7778
7738
8107
7744
7758
7758
7749
7923
7756
7772
7748
7838
7748
7761
7751
7751
7763
7764
7739
7746
7764
7752
7781
7746
7748
7756
7750
7782
7754
7734
7962
7741
7770
7739
7972
7739
7754
7757
7743
7777
7746
7780
7747
7736
7804
7749
7767
7736
7853
7744
7777
7736
7909
7756
7750
7734
7729
7757
7764
