EGG
26386
26385
26378
26385
26375
26371
26344
26374
26376
26388
26375
26383
26388
26321
26349
26334
26375
26371
26367
26363
26370
26370
26364
26361
26370
26364
26367
26351
26357
26352
26363
26351
26351
26358
26351
26349
26348
26351
26350
26348
26336
26341
26343
26349
26343
26337
26338
26341
26338
26343
26358
26327
26340
26342
26321
26339
26342
26316
26336
26342
26346
26321
26342
26338
26347
26319
26334
26330
26330
26329
26347
26329
26338
26336
26341
26342
26346
26340
26330
26343
26329
26337
26342
26343
26337
26343
26327
26326
26334
26324
26337
26343
26341
26228
26309
26311
26311
26324
26312
26318
26319
26317
26311
26315
26317
26318
26323
26334
26305
26314
26318
26309
26315
26303
26311
26319
26306
26298
26309
26301
26308
26308
26318
26308
26314
26314
26313
26313
26314
26314
26311
26313
26308
26310
26311
26296
26307
26310
26311
26311
26318
26318
26289
26295
26287
26285
26293
26278
26285
26287
26287
26295
26297
26291
26295
26292
26284
26282
26284
26289
26289
26295
26298
26306
26287
26294
26292
26288
26290
26282
26282
26291
26295
26291
26283
26293
26284
26291
26287
26291
26279
26285
26283
26293
26287
26284
26288
26293
26282
26286
26271
26277
26271
26271
26273
26263
26279
26270
26264
26272
26279
26271
26279
26282
26278
26244
26257
26263
26264
26256
26261
26260
26260
26261
26255
26245
26254
26279
26226
26263
26254
26260
26247
26262
26271
26255
26254
26253
26262
26268
26254
26251
26252
26276
26269
26247
26251
26253
26247
26247
26252
26247
26254
26257
26247
26259
26257
26255
26258
26266
26266
26263
26244
26247
26246
26247
26247
26242
26250
26244
26250
26257
26263
26237
26244
26237
26242
26244
26242
26239
26244
26239
26237
26239
26244
26239
26242
26254
26243
26247
26236
26233
26232
26237
26238
26231
26242
26240
26252
26257
26244
26239
26251
26239
26244
26244
26234
26231
26227
26235
26231
26235
26239
26228
26234
26231
26234
26234
26239
26231
26218
26239
26234
26235
26200
26221
26231
26223
26221
26222
26223
26220
26223
26217
26229
26221
26222
26229
26225
26223
26223
26223
26233
26238
26234
26230
26232
26237
26233
26222
26221
26229
26231
26223
26217
26228
26223
26214
26223
26224
26218
26216
26235
26226
26221
26230
26220
26221
26214
26212
26201
26210
26211
26216
26216
26217
26212
26219
26215
26212
26214
26223
26216
26221
26228
26214
26217
26210
26212
26217
26210
26215
26215
26220
26223
26225
26211
26215
26214
26222
26210
26213
26209
26211
26212
26220
26214
26214
26222
26215
26220
26214
26186
26215
26215
26210
26223
26210
26215
26219
26212
26219
26204
26205
26209
26211
26214
26214
26204
26210
26208
26213
26217
26215
26202
26210
26213
26207
26220
26212
26208
26213
26210
26210
26212
26212
26215
26215
26214
26217
26220
26214
26212
26220
26197
26207
26204
26204
26220
26215
26189
26209
26210
26208
26210
26214
26224
26223
26199
26223
26207
26209
26214
26201
26202
26213
26215
26220
26209
26208
26210
26202
26214
26215
26221
26217
26220
26212
26203
26205
26212
26215
26229
26216
26215
26218
26223
26222
26214
26221
26213
26221
26219
26210
26210
26221
26219
26213
26215
26222
26213
26196
26207
26221
26205
26213
26206
26207
26223
26211
26220
26215
26215
26218
26210
26206
26205
26208
26221
26214
26214
26220
26214
26222
26213
26231
26208
26210
26212
26222
26209
26214
26223
26218
26212
26200
26198
26194
26194
26200
26166
26197
26199
26198
26199
26066
26201
26201
26199
26196
26188
26195
26169
26141
26183
26195
26199
26186
26190
26196
26182
26191
26192
26196
26196
26184
26184
26186
26190
26190
26191
26183
26173
26163
26180
26168
26183
26178
26188
26191
26188
26194
26183
26185
26164
26158
26135
26183
26174
26188
26182
26196
26189
26187
26181
26183
26184
26175
26181
26175
26167
26182
26178
26165
26167
26175
26170
26169
26165
26183
26183
26176
26178
26183
26171
26163
26161
26153
26164
26166
26119
26157
26167
26151
26166
26168
26168
26160
26174
26159
26167
26142
26159
26167
26158
26164
26158
26156
26164
26169
26167
26155
26167
26159
26158
26164
26159
26162
26164
26162
26150
26147
26143
26124
26127
26127
26119
26116
26103
26149
26125
26126
26119
26124
26129
26138
26147
26138
26143
26141
26150
26151
26148
26154
26143
26140
26107
26098
26142
26132
26133
26145
26135
26135
26140
26141
26132
26132
26131
26137
26133
26139
26127
26111
26069
26119
26124
26113
26132
26119
26087
26119
26116
26111
26116
26110
26116
26119
26115
26100
26094
26103
26097
26099
26101
26095
26100
26105
26095
26100
26103
26092
26088
26093
26085
26059
26046
25991
26092
26071
26084
26078
26081
26079
26078
26082
26076
26083
26074
26070
26071
26073
26075
26060
26055
26039
26028
26038
26038
26025
26051
26058
26048
26052
26052
26048
26051
26052
26044
26038
26050
26039
26028
26026
26005
26001
25996
26023
26029
26023
26016
26010
26023
26012
26012
26008
26012
26022
26008
26001
26014
26004
26006
26004
25992
25988
25991
25975
25989
25971
25943
25901
25981
25980
25975
25969
25977
25964
25957
25961
25959
25957
25959
25958
25966
25951
25946
25943
25935
25944
25943
25934
25935
25931
25930
25926
25919
25927
25922
25908
25918
25898
25907
25903
25886
25863
25841
25895
25887
25874
25895
25885
25894
25885
25874
25874
25881
25889
25867
25863
25871
25868
25850
25828
25818
25855
25846
25839
25839
25846
25841
25839
25829
25837
25832
25808
25831
25809
25820
25817
25829
25806
25809
25799
25815
25803
25788
25767
25732
25798
25787
25790
25784
25790
25775
25776
25767
25770
25772
25773
25766
25769
25765
25753
25756
25748
25762
25751
25745
25720
25741
25743
25749
25750
25707
25724
25670
25704
25706
25707
25699
25685
25697
25714
25716
25713
25714
25710
25708
25719
25703
25694
25698
25700
25708
25687
25697
25682
25691
25679
25682
25677
25686
25682
25666
25670
25670
25667
25668
25667
25668
25665
25664
25663
25660
25654
25650
25652
25654
25660
25650
25659
25650
25646
25647
25632
25646
25637
25647
25642
25639
25636
25627
25631
25627
25628
25626
25620
25612
25617
25615
25607
25605
25591
25599
25605
25601
25602
25596
25597
25604
25597
25601
25599
25602
25599
25593
25591
25575
25572
25589
25568
25575
25567
25575
25570
25575
25567
25567
25562
25565
25563
25535
25544
25550
25545
25559
25559
25559
25549
25543
25551
25559
25559
25557
25544
25546
25553
25540
25542
25540
25541
25543
25534
25523
25540
25528
25527
25529
25518
25433
25527
25527
25524
25513
25510
25517
25513
25524
25511
25529
25507
25516
25507
25511
25502
25510
25505
25507
25493
25495
25494
25501
25495
25509
25491
25492
25484
25500
25495
25495
25495
25495
25495
25484
25484
25476
25478
25473
25477
25489
25477
25479
25466
25474
25474
25471
25468
25478
25454
25478
25470
25473
25452
25475
25468
25460
25469
25483
25473
25471
25462
25465
25466
25457
25463
25463
25455
25465
25458
25447
25447
25449
25452
25447
25436
25445
25439
25444
25455
25442
25441
25447
25438
25445
25440
25431
25437
25431
25426
25436
25434
25430
25436
25434
25423
25419
25438
25422
25439
25436
25436
25446
25430
25438
25418
25420
25420
25420
25423
25421
25418
25415
25425
25425
25413
25416
25407
25409
25412
25412
25406
25410
25404
25404
25405
25390
25408
25407
25420
25421
25412
25416
25412
25413
25406
25417
25412
25406
25418
25415
25411
25407
25407
25412
25409
25418
25410
25406
25404
25404
25407
25408
25396
25409
25364
25387
25389
25393
25381
25383
25388
25389
25381
25396
25385
25388
25389
25391
25396
25406
25391
25391
25375
25397
25397
25391
25391
25404
25386
25393
25399
25384
25399
25383
25391
25369
25388
25385
25380
25383
25387
25383
25389
25390
25385
25388
25389
25383
25391
25379
25377
25369
25386
25384
25381
25383
25374
25391
25390
25380
25396
25395
25398
25383
25366
25380
25373
25378
25379
25386
25384
25385
25383
25380
25381
25388
25376
25377
25375
25375
25373
25375
25378
25378
25361
25367
25369
25380
25372
25366
25375
25377
25380
25363
25370
25371
25379
25381
25376
25383
25382
25383
25380
25381
25383
25381
25380
25382
25378
25383
25382
25382
25381
25379
25380
25378
25388
25383
25387
25376
25369
25381
25380
25378
25382
25378
25386
25395
25386
25398
25389
25385
25367
25374
25378
25372
25380
25385
25385
25380
25382
25389
25396
25391
25386
25394
25388
25382
25384
25383
25391
25383
25379
25382
25383
25382
25378
25383
25388
25386
25387
25395
25390
25399
25392
25387
25399
25391
25393
25389
25382
25383
25378
25380
25391
25271
25380
25375
25386
25407
25393
25391
25404
25396
25386
25389
25394
25388
25397
25394
25391
25404
25399
25396
25405
25395
25393
25399
25396
25397
25391
25405
25407
25420
25400
25400
25403
25405
25405
25406
25407
25396
25408
25410
25406
25407
25408
25399
25407
25400
25411
25414
25398
25419
25414
25378
25414
25428
25423
25409
25409
25415
25421
25418
25407
25415
25427
25407
25417
25426
25429
25417
25414
25418
25429
25418
25423
25422
25422
25414
25421
25423
25421
25426
25425
25423
25426
25434
25430
25426
25431
25439
25428
25429
25429
25431
25432
25433
25429
25423
25428
25430
25431
25424
25425
25432
25421
25436
25434
25429
25431
25439
25424
25429
25429
25426
25437
25438
25431
25428
25438
25437
25442
25428
25431
25423
25439
25430
25444
25445
25445
25434
25445
25454
25438
25452
25438
25446
25447
25446
25444
25463
25456
25454
25468
25463
25447
25455
25460
25451
25466
25471
25455
25455
25455
25473
25463
25470
25418
25460
25455
25455
25470
25471
25470
25472
25470
25473
25484
25479
25489
25485
25487
25491
25479
25470
25474
25479
25476
25472
25484
25480
25494
25484
25479
25495
25487
25501
25476
25490
25484
25502
25491
25490
25500
25494
25490
25495
25503
25500
25492
25497
25496
25495
25506
25498
25505
25502
25501
25511
25503
25507
25503
25519
25509
25512
25511
25519
25524
25511
25392
25511
25502
25511
25523
25524
25519
25519
25516
25520
25519
25527
25521
25526
25526
25534
25537
25527
25534
25511
25525
25521
25524
25534
25531
25528
25533
25533
25543
25535
25545
25540
25535
25538
25535
25543
25532
25543
25547
25539
25543
25538
25543
25541
25542
25543
25533
25532
25549
25533
25534
25543
25535
25535
25540
25535
25532
25536
25542
25537
25536
25537
25537
25543
25528
25547
25545
25543
25544
25537
25548
25551
25551
25552
25545
25543
25543
25543
25535
25541
25544
25546
25543
25539
25542
25541
25540
25539
25543
25537
25540
25534
25535
25527
25500
25540
25541
25501
25550
25540
25541
25547
25546
25548
25548
25534
25541
25541
25542
25524
25528
25534
25537
25550
25537
25537
25534
25530
25526
25535
25532
25525
25526
25520
25520
25532
25534
25536
25532
25530
25527
25531
25521
25518
25518
25522
25523
25518
25521
25509
25519
25506
25508
25462
25511
25510
25503
25516
25509
25511
25497
25505
25500
25503
25493
25487
25500
25500
25497
25493
25492
25495
25489
25483
25486
25479
25495
25491
25492
25483
25487
25470
25479
25474
25493
25479
25471
25482
25479
25476
25463
25478
25478
25468
25464
25469
25466
25471
25466
25453
25461
25463
25431
25447
25454
25450
25445
25444
25446
25446
25445
25445
25442
25450
25444
25449
25442
25447
25428
25430
25438
25441
25432
25439
25430
25425
25431
25415
25418
25415
25427
25435
25421
25421
25417
25420
25421
25429
25410
25412
25405
25414
25424
25432
25419
25398
25404
25402
25398
25409
25413
25409
25403
25412
25392
25394
25400
25412
25405
25410
25394
25395
25398
25383
25392
25396
25399
25396
25391
25404
25394
25399
25400
25385
25383
25383
25389
25388
25388
25377
25387
25388
25383
25385
25374
25380
25377
25385
25384
25381
25368
25374
25371
25372
25376
25375
25367
25375
25364
25365
25367
25367
25351
25357
25358
25357
25371
25369
25367
25369
25369
25362
25373
25372
25365
25358
25353
25361
25362
25347
25351
25372
25379
25371
25364
25364
25351
25367
25363
25356
25344
25351
25346
25348
25340
25342
25347
25340
25341
25343
25341
25332
25334
25327
25333
25337
25332
25339
25335
25338
25335
25326
25327
25333
25320
25335
25335
25332
25339
25336
25334
25334
25333
25330
25324
25326
25327
25327
25328
25334
25319
25321
25324
25351
25351
25343
25339
25342
25321
25331
25334
25322
25327
25325
25310
25285
25350
25345
25332
25340
25327
25321
25317
25318
25316
25317
25318
25310
25305
25318
25305
25318
25337
25341
25330
25321
25313
25318
25311
25312
25307
25309
25294
25340
25333
25332
25329
25319
25317
25323
25319
25311
25319
25321
25313
25318
25312
25310
25310
25319
25309
25311
25319
25311
25308
25311
25315
25303
25308
25318
25311
25313
25309
25305
25315
25305
25314
25311
25308
25316
25319
25316
25325
25314
25318
25318
25309
25308
25309
25310
25311
25307
25304
25305
25311
25307
25301
25300
25291
25306
25319
25329
25340
25335
25300
25299
25303
25300
25310
25310
25321
25312
25317
25318
25299
25303
25311
25316
25318
25311
25307
25311
25313
25313
25309
25316
25316
25335
25324
25333
25319
25319
25327
25324
25319
25314
25319
25311
25314
25311
25311
25316
25319
25318
25325
25319
25318
25316
25325
25310
25314
25316
25316
25308
25303
25310
25310
25302
25317
25317
25312
25329
25346
25346
25334
25325
25335
25327
25322
25325
25331
25321
25326
25328
25319
25327
25317
25377
25377
25343
25358
25356
25348
25359
25339
25337
25339
25335
25339
25333
25327
25332
25332
25334
25316
25319
25338
25377
25379
25375
25363
25361
25343
25356
25332
25343
25347
25332
25346
25340
25336
25351
25351
25351
25348
25348
25353
25350
25346
25343
25341
25351
25351
25341
25348
25342
25351
25346
25358
25369
25359
25357
25373
25359
25360
25366
25367
25370
25368
25370
25372
25362
25365
25366
25371
25372
25372
25381
25379
25386
25383
25383
25397
25396
25402
25402
25399
25393
25391
25397
25389
25385
25392
25397
25391
25399
25390
25396
25407
25403
25397
25392
25407
25404
25404
25407
25409
25407
25408
25410
25414
25415
25410
25416
25423
25415
25428
25428
25417
25428
25439
25427
25433
25429
25442
25447
25447
25451
25460
25450
25439
25455
25474
25470
25484
25486
25445
25453
25453
25457
25453
25468
25468
25471
25475
25483
25492
25516
25476
25463
25465
25468
25467
25477
25478
25478
25469
25471
25468
25487
25469
25484
25501
25543
25560
25541
25515
25517
25535
25538
25519
25517
25508
25520
25505
25516
25514
25524
25524
25531
25532
25540
25565
25560
25569
25575
25577
25583
25577
25599
25537
25542
25544
25546
25549
25548
25601
25604
25575
25605
25620
25558
25559
25561
25575
25558
25567
25571
25582
25582
25575
25594
25594
25591
25596
25593
25599
25601
25596
25607
25614
25615
25618
25620
25622
25624
25627
25617
25629
25628
25639
25631
25633
25632
25639
25639
25652
25653
25636
25658
25665
25649
25660
25666
25668
25665
25666
25668
25663
25668
25679
25674
25678
25679
25676
25687
25748
25748
25743
25729
25726
25748
25763
25774
25700
25715
25712
25711
25724
25713
25726
25727
25730
25736
25739
25743
25746
25750
25758
25778
25800
25739
25738
25752
25756
25756
25766
25758
25767
25790
25805
25767
25758
25764
25770
25772
25790
25817
25840
25775
25786
25788
25793
25807
25821
25813
25827
25854
25873
25805
25804
25816
25823
25838
25836
25825
25838
25836
25846
25852
25844
25844
25854
25852
25868
25875
25887
25906
25858
25863
25868
25879
25878
25882
25894
25883
25887
25882
25895
25894
25906
25892
25900
25916
25918
25927
25940
25923
25913
25927
25929
25933
25927
25937
25938
25949
25965
25972
25988
25987
26001
25951
25959
25961
25967
25965
25975
25981
25983
25991
25991
25996
25994
26010
26014
26018
26014
26007
26023
26023
26017
26022
26023
26029
26015
26021
26028
26029
26086
26068
26055
26053
26044
26053
26056
26052
26067
26060
26068
26069
26065
26079
26070
26118
26105
26094
26094
26090
26096
26094
26109
26110
26107
26102
26108
26110
26119
26117
26119
26119
26140
26134
26135
26133
26140
26157
26151
26158
26164
26153
26159
26161
26158
26157
26160
26176
26187
26186
26183
26182
26190
26197
26182
26187
26197
26190
26212
26215
26208
26207
26206
26212
26223
26222
26216
26231
26243
26220
26234
26239
26244
26238
26246
26253
26260
26269
26260
26271
26279
26285
26282
26287
26289
26300
26303
26301
26268
26276
26279
26290
26286
26292
26292
26300
26292
26300
26303
26299
26302
26314
26304
26317
26335
26339
26335
26330
26326
26329
26335
26331
26335
26340
26337
26342
26334
26335
26335
26373
26358
26375
26375
26375
26361
26351
26362
26357
26375
26372
26375
26372
26373
26375
26374
26381
26380
26375
26380
26388
26382
26405
26415
26406
26413
26412
26411
26412
26417
26403
26415
26411
26415
26413
26407
26416
26408
26415
26412
26417
26435
26412
26415
26431
26421
26421
26449
26447
26436
26439
26438
26438
26436
26441
26439
26444
26436
26442
26431
26444
26452
26444
26447
26441
26450
26449
26450
26446
26466
26454
26450
26456
26452
26460
26457
26462
26441
26479
26484
26499
26495
26487
26494
26495
26490
26502
26484
26479
26485
26479
26487
26487
26489
26490
26490
26487
26489
26486
26503
26502
26504
26503
26508
26513
26511
26516
26522
26516
26531
26518
26524
26526
26527
26525
26529
26520
26529
26541
26535
26538
26537
26533
26534
26554
26540
26554
26550
26547
26555
26567
26567
26565
26569
26565
26567
26574
26579
26566
26579
26589
26582
26599
26584
26597
26598
26601
26601
26604
26607
26604
26564
26583
26615
26615
26621
26625
26615
26618
26612
26617
26620
26620
26623
26629
26620
26620
26629
26631
26629
26631
26641
26631
26646
26639
26639
26654
26638
26645
26642
26653
26653
26654
26661
26657
26652
26652
26651
26655
26651
26654
26661
26671
26667
26672
26665
26679
26677
26673
26673
26684
26679
26691
26678
26684
26695
26690
26692
26708
26703
26702
26695
26693
26712
26731
26727
26743
26743
26735
26735
26742
26740
26759
26758
26755
26758
26761
26746
26769
26735
26734
26738
26751
26756
26661
26796
26787
26780
26767
26774
26775
26783
26791
26794
26791
26790
26792
26790
26787
26790
26783
26789
26797
26797
26798
26807
26803
26799
26801
26800
26814
26820
26823
26820
26817
26815
26818
26819
26821
26829
26837
26827
26844
26837
26831
26827
26827
26871
26874
26871
26852
26863
26859
26862
26863
26863
26871
26868
26874
26857
26868
26868
26871
26903
26911
26903
26895
26898
26900
26902
26908
26916
26926
26887
26884
26895
26903
26904
26907
26912
26910
26911
26908
26927
26916
26918
26919
26924
26924
26928
26935
26951
26967
26965
26965
26949
26957
26952
26953
26962
26959
26969
26969
26959
26979
26974
26975
26974
26983
26978
26970
26975
26981
26980
26993
26991
26991
27012
26997
27006
26997
27006
27009
27014
27015
27020
27021
27034
27035
27031
27031
27041
27047
27039
27041
27031
27036
27037
27047
27047
27050
27051
27046
27060
27060
27067
27061
27078
26996
27091
27098
27087
27086
27097
27098
27090
27087
27092
27101
27109
27109
27115
27104
27111
27121
27114
27119
27126
27129
27126
27132
27130
27141
27141
27135
27132
27143
27138
27149
27143
27143
27153
27162
27152
27158
27156
27165
27162
27168
27159
27177
27168
27167
27174
27175
27180
27175
27180
27189
27190
27201
27199
27215
27220
27214
27225
27231
27226
27221
27227
27238
27234
27233
27239
27239
27237
27231
27252
27246
27249
27246
27249
27259
27260
27257
27260
27260
27255
27263
27268
27259
27263
27271
27269
27276
27265
27278
27284
27281
27289
27298
27297
27291
27301
27303
27313
27317
27305
27314
27324
27300
27314
27317
27309
27319
27319
27326
27329
27318
27249
27343
27343
27351
27353
27350
27343
27346
27356
27350
27361
27356
27356
27363
27365
27363
27359
27354
27370
27388
27380
27391
27391
27399
27399
27393
27401
27406
27394
27399
27393
27404
27409
27415
27413
27412
27415
27408
27415
27378
27425
27433
27444
27436
27435
27436
27444
27438
27438
27438
27439
27452
27454
27450
27451
27458
27449
27466
27452
27456
27464
27460
27465
27472
27476
27472
27468
27483
27487
27486
27489
27490
27502
27488
27500
27498
27500
27515
27506
27507
27508
27516
27513
27519
27515
27522
27489
27517
27513
27536
27547
27539
27534
27542
27538
27543
27554
27544
27548
27547
27555
27553
27554
27565
27558
27561
27559
27577
27559
27558
27572
27567
27576
27579
27578
27583
27577
27568
27566
27581
27583
27593
27604
27597
27601
27606
27606
27607
27612
27621
27618
27620
27623
27634
27621
27630
27629
27638
27625
27631
27623
27610
27635
27629
27649
27644
27644
27658
27652
27642
27652
27649
27663
27627
27644
27644
27654
27669
27665
27677
27671
27676
27666
27670
27684
27679
27685
27677
27693
27676
27664
27671
27680
27675
27678
27674
27678
27618
27654
27668
27675
27694
27695
27700
27686
27700
27690
27685
27701
27702
27695
27708
27708
27699
27698
27705
27706
27694
27710
27719
27719
27716
27725
27713
27691
27690
27708
27729
27733
27734
27743
27747
27747
27744
27753
27751
27739
27748
27743
27740
27748
27740
27743
27739
27751
27751
27751
27749
27756
27755
27758
27767
27770
27772
27763
27771
27777
27767
27762
27778
27778
27775
27781
27778
27781
27791
27785
27707
27762
27780
27788
27804
27794
27796
27796
27801
27801
27797
27812
27799
27803
27804
27803
27811
27812
27815
27812
27817
27813
27818
27820
27817
27759
27827
27773
27767
27767
27792
27807
27819
27834
27828
27836
27834
27830
27851
27833
27855
27845
27847
27847
27847
27847
27853
27799
27817
27825
27844
27845
27860
27866
27859
27856
27860
27865
27853
27867
27861
27825
27847
27845
27855
27869
27875
27865
27869
27876
27870
27872
27879
27872
27797
27835
27847
27862
27875
27876
27885
27895
27887
27884
27881
27891
27887
27895
27885
27887
27889
27892
27796
27844
27862
27881
27845
27836
27828
27845
27870
27894
27901
27902
27907
27903
27907
27898
27900
27901
27901
27894
27904
27905
27828
27853
27890
27900
27910
27911
27893
27903
27911
27903
27901
27911
27903
27911
27906
27901
27903
27903
27902
27854
27892
27901
27903
27908
27895
27884
27836
27900
27897
27910
27910
27910
27895
27908
27907
27895
27911
27902
27900
27903
27911
27907
27911
27899
27894
27900
27905
27908
27897
27895
27895
27895
27894
27894
27893
27891
27892
27889
27890
27892
27879
27810
27807
27802
27807
27812
27813
27816
27831
27831
27830
27867
27863
27863
27850
27858
27854
27868
27872
27868
27864
27845
27829
27831
27836
27845
27852
27858
27862
27865
27868
27865
27871
27863
27868
27852
27841
27828
27839
27828
27835
27836
27835
27842
27827
27833
27836
27820
27817
27826
27847
27847
27836
27833
27838
27839
27836
27847
27847
27842
27830
27823
27831
27835
27831
27842
27830
27836
27814
27820
27807
27813
27820
27816
27811
27803
27814
27799
27805
27804
27803
27807
27803
27721
27748
27731
27724
27711
27734
27725
27735
27735
27759
27739
27742
27722
27705
27726
27721
27735
27745
27774
27791
27791
27786
27783
27780
27777
27775
27775
27787
27794
27775
27764
27719
27764
27769
27771
27767
27768
27766
27788
27775
27774
27765
27767
27765
27765
27765
27763
27769
27759
27758
27760
27755
27762
27761
27759
27759
27750
27759
27757
27748
27741
27743
27733
27726
27740
27742
27735
27722
27716
27700
27711
27679
27740
27731
27734
27727
27740
27735
27728
27734
27735
27740
27719
27710
27708
27695
27671
27663
27664
27685
27653
27634
27716
27625
27724
27703
27622
27645
27669
27667
27661
27670
27671
27648
27654
27637
27654
27655
27650
27628
27699
27600
27684
27700
27695
27691
27694
27686
27684
27703
27694
27690
27686
27683
27565
27574
27596
27613
27626
27645
27668
27669
27670
27679
27663
27668
27671
27671
27655
27667
27670
27675
27670
27670
27677
27672
27681
27671
27670
27681
27679
27655
27660
27655
27660
27655
27655
27663
27663
27655
27655
27668
27655
27662
27644
27649
27640
27652
27655
27638
27636
27647
27632
27637
27620
27620
27596
27602
27599
27617
27616
27622
27612
27592
27590
27591
27605
27586
27575
27631
27622
27630
27625
27622
27630
27630
27619
27628
27626
27635
27598
27601
27584
27568
27571
27563
27562
27562
27553
27495
27612
27606
27604
27603
27610
27604
27502
27602
27606
27607
27596
27602
27598
27598
27593
27592
27591
27597
27596
27592
27603
27597
27592
27593
27590
27591
27595
27593
27590
27594
27591
27591
27588
27550
27553
27550
27557
27554
27523
27585
27572
27585
27578
27577
27584
27579
27576
27578
27579
27574
27573
27574
27578
27569
27567
27575
27575
27576
27561
27575
27578
27573
27564
27562
27572
27567
27566
27556
27562
27570
27556
27560
27556
27561
27554
27551
27557
27553
27559
27553
27555
27548
27543
27547
27506
27531
27527
27538
27532
27538
27525
27527
27526
27535
27533
27548
27527
27459
27461
27546
27547
27544
27532
27527
27459
27463
27468
27476
27471
27481
27428
27454
27430
27521
27515
27519
27516
27533
27524
27523
27513
27519
27511
27510
27509
27509
27512
27511
27513
27493
27508
27399
27463
27482
27502
27506
27499
27507
27495
27505
27500
27505
27497
27494
27410
27438
27458
27440
27439
27367
27490
27493
27492
27485
27484
27486
27477
27482
27476
27435
27438
27439
27439
27456
27457
27460
27383
27477
27476
27478
27480
27463
27476
27476
27467
27463
27466
27461
27480
27460
27471
27399
27412
27451
27440
27453
27454
27455
27444
27431
27450
27444
27433
27432
27417
27438
27425
27429
27419
27399
27434
27440
27438
27434
27455
27449
27434
27447
27439
27444
27443
27447
27437
27434
27431
27437
27431
27425
27430
27428
27432
27429
27425
27416
27426
27415
27414
27414
27415
27409
27417
27418
27412
27415
27407
27414
27407
27404
27420
27415
27407
27409
27404
27396
27383
27359
27332
27388
27399
27391
27391
27389
27385
27393
27378
27391
27395
27384
27386
27385
27381
27375
27377
27377
27375
27374
27371
27373
27371
27367
27374
27370
27367
27374
27372
27370
27353
27357
27359
27350
27351
27335
27309
27292
27282
27356
27351
27349
27349
27354
27361
27343
27342
27347
27339
27332
27337
27345
27342
27338
27345
27341
27346
27338
27329
27348
27331
27334
27334
27341
27327
27322
27250
27286
27303
27324
27327
27329
27335
27323
27316
27319
27308
27316
27316
27303
27308
27308
27260
27269
27295
27302
27305
27303
27301
27298
27293
27220
27292
27295
27297
27303
27287
27292
27285
27293
27189
27231
27255
27266
27272
27278
27277
27272
27268
27259
27268
27210
27225
27238
27233
27217
27217
27225
27228
27242
27260
27246
27251
27242
27239
27234
27238
27225
27236
27228
27235
27234
27231
27163
27189
27190
27207
27234
27230
27229
27223
27220
27211
27215
27207
27211
27207
27202
27206
27202
27204
27199
27206
27113
27157
27174
27176
27193
27196
27189
27193
27196
27191
27183
27185
27153
27173
27178
27190
27188
27183
27174
27173
27172
27170
27171
27166
27171
27154
27108
27133
27134
27153
27167
27157
27161
27153
27143
27143
27092
27122
27149
27154
27140
27142
27136
27138
27137
27142
27139
27134
27127
27130
27078
27085
27068
27078
27094
27111
27110
27108
27111
27121
27121
27116
27107
27111
27106
27106
27102
27110
27111
27100
27095
27099
27047
27073
27086
27092
27089
27086
27079
27069
27079
27019
27065
27055
27078
27065
27068
27068
27062
27060
27060
27058
27055
27015
27036
27046
27044
27057
27047
27053
27038
27047
27034
27037
27039
27042
27028
27011
26932
27028
27025
27023
27020
26966
26986
26999
27015
27020
27018
27023
27003
27007
27006
26999
27005
26954
26964
26974
26973
26987
26989
26990
26982
26980
26972
26969
26965
26926
26961
26963
26966
26967
26955
26951
26942
26949
26951
26951
26946
26863
26937
26851
26882
26921
26918
26922
26927
26925
26920
26914
26919
26909
26903
26913
26901
26895
26897
26900
26898
26893
26895
26884
26884
26900
26877
26872
26879
26863
26863
26863
26868
26868
26859
26859
26847
26851
26839
26847
26837
26751
26791
26799
26798
26785
26769
26760
26759
26767
26789
26791
26803
26805
26805
26797
26793
26796
26782
26778
26777
26767
26771
26775
26767
26759
26745
26752
26755
26748
26745
26743
26740
26741
26730
26735
26715
26684
26663
26663
26680
26669
26659
26662
26652
26657
26627
26607
26581
26690
26682
26670
26671
26658
26663
26668
26662
26647
26652
26653
26639
26643
26631
26585
26628
26617
26616
26615
26617
26609
26620
26607
26599
26597
26605
26594
26590
26589
26574
26564
26559
26543
26517
26512
26498
26551
26553
26551
26538
26534
26539
26533
26534
26523
26524
26532
26531
26524
26514
26513
26503
26495
26484
26472
26449
26406
26480
26492
26481
26474
26471
26466
26468
26463
26462
26466
26461
26462
26468
26444
26438
26449
26452
26443
26437
26436
26420
26427
26432
26423
26414
26413
26399
26379
26380
26353
26394
26390
26395
26396
26386
26375
26375
26369
26364
26365
26360
26362
26364
26357
26365
26349
26347
26341
26309
26323
26319
26300
26294
26294
26324
26287
26278
26280
26293
26281
26251
26278
26277
26263
26279
26277
26290
26292
26284
26285
26281
26275
26271
26273
26274
26268
26271
26258
26257
26260
26253
26255
26253
26252
26247
26247
26246
26238
26230
26228
26223
26242
26228
26213
26208
26218
26191
26202
26222
26204
26218
26205
26192
26183
26163
26187
26195
26184
26181
26183
26186
26174
26173
26180
26175
26165
26157
26166
26164
26157
26152
26151
26162
26146
26140
26142
26141
26092
26113
26130
26126
26133
26129
26119
26130
26119
26126
26115
26117
26130
26113
26115
26111
26110
26118
26097
26106
26095
26103
26100
26087
26083
26092
26084
26092
26083
26076
26079
26083
26077
26079
26060
26073
26062
26058
26055
26053
26050
26047
26050
26049
26046
26044
26039
25958
26036
26042
26036
26023
26026
26024
26023
26031
26031
26017
26013
26023
26021
26010
26007
26009
25999
26003
26017
26007
26006
26005
25992
26000
25993
25994
25988
25984
25982
25983
25982
25963
25981
25981
25983
25975
25983
25967
25965
25967
25962
25967
25965
25957
25961
25958
25954
25964
25949
25948
25957
25945
25953
25945
25941
25932
25937
25940
25940
25941
25943
25939
25932
25929
25931
25923
25940
25933
25928
25917
25907
25908
25909
25907
25863
25910
25916
25914
25914
25907
25903
25900
25908
25911
25908
25907
25895
25896
25900
25892
25895
25895
25884
25894
25895
25879
25880
25883
25879
25882
25871
25882
25882
25866
25870
25867
25873
25876
25868
25874
25878
25868
25877
25879
25869
25872
25874
25876
25858
25858
25855
25863
25860
25857
25863
25850
25847
25711
25850
25853
25862
25853
25849
25838
25849
25845
25854
25851
25847
25859
25846
25846
25838
25845
25834
25840
25838
25844
25836
25831
25830
25830
25831
25830
25826
25829
25828
25831
25822
25823
25821
25829
25817
25820
25817
25824
25828
25831
25824
25827
25823
25821
25819
25832
25805
25813
25820
25805
25809
25815
25798
25811
25815
25797
25801
25797
25802
25798
25799
25800
25811
25799
25797
25777
25810
25814
25804
25805
25803
25804
25804
25804
25801
25796
25803
25801
25804
25807
25806
25803
25799
25802
25801
25785
25802
25798
25792
25806
25799
25795
25786
25743
25795
25774
25785
25776
25781
25702
25788
25779
25782
25780
25775
25780
25785
25775
25781
25776
25785
25788
25791
25791
25803
25796
25791
25787
25786
25786
25779
25796
25793
25784
25783
25799
25783
25783
25790
25785
25780
25796
25786
25779
25783
25781
25770
25775
25776
25781
25779
25771
25775
25772
25775
25777
25777
25783
25769
25766
25775
25773
25774
25761
25769
25769
25772
25765
25779
25775
25787
25787
25796
25786
25785
25776
25767
25777
25772
25783
25784
25786
25782
25795
25780
25778
25791
25774
25777
25777
25785
25784
25793
25797
25783
25780
25778
25788
25784
25774
25796
25780
25778
25773
25787
25770
25774
25776
25772
25764
25775
25775
25772
25782
25782
25782
25781
25773
25787
25782
25788
25790
25780
25791
25791
25792
25784
25780
25780
25789
25783
25801
25793
25788
25791
25798
25799
25789
25795
25797
25791
25802
25804
25794
25790
25762
25796
25787
25780
25791
25807
25810
25803
25796
25790
25804
25805
25799
25801
25804
25789
25804
25812
25799
25807
25785
25807
25807
25764
25804
25806
25773
25803
25806
25808
25807
25799
25807
25804
25810
25813
25818
25822
25824
25814
25819
25813
25811
25812
25809
25817
25810
25808
25814
25827
25813
25816
25811
25804
25809
25806
25810
25815
25812
25805
25807
25815
25806
25813
25804
25815
25817
25806
25809
25805
25813
25808
25815
25813
25819
25818
25828
25823
25826
25812
25817
25817
25822
25820
25831
25823
25825
25823
25823
25825
25823
25827
25829
25828
25826
25822
25838
25820
25826
25828
25837
25828
25839
25834
25830
25833
25828
25839
25847
25839
25837
25838
25839
25846
25854
25842
25851
25848
25851
25858
25842
25860
25855
25859
25859
25856
25861
25860
25859
25852
25871
25858
25868
25868
25868
25861
25873
25870
25868
25871
25870
25873
25870
25873
25873
25874
25869
25873
25883
25880
25872
25884
25892
25871
25884
25880
25895
25885
25886
25887
25885
25882
25891
25887
25895
25892
25887
25887
25887
25895
25876
25831
25867
25875
25895
25884
25892
25891
25895
25900
25884
25885
25892
25892
25892
25901
25906
25898
25903
25895
25904
25898
25907
25911
25910
25919
25912
25917
25900
25896
25895
25905
25905
25901
25907
25911
25925
25913
25921
25919
25911
25902
25926
25912
25924
25923
25919
25918
25919
25911
25910
25914
25925
25922
25920
25924
25927
25930
25926
25924
25924
25927
25927
25911
25922
25924
25908
25845
25918
25909
25916
25909
25919
25875
25908
25916
25918
25935
25924
25933
25942
25929
25931
25930
25927
25924
25927
25916
25921
25926
25928
25919
25926
25926
25902
25889
25901
25921
25924
25929
25943
25941
25933
25935
25927
25930
25931
25935
25940
25927
25919
25846
25933
25931
25932
25932
25934
25935
25928
25926
25934
25927
25930
25930
25915
25918
25926
25927
25901
25903
25910
25900
25903
25916
25921
25913
25927
25922
25919
25924
25927
25921
25903
25892
25837
25916
25919
25902
25913
25921
25914
25916
25916
25908
25904
25903
25916
25889
25841
25903
25903
25901
25911
25901
25905
25901
25910
25898
25898
25918
25903
25905
25887
25875
25871
25890
25887
25892
25894
25892
25884
25894
25888
25892
25894
25892
25884
25884
25886
25868
25832
25879
25880
25878
25882
25875
25871
25887
25881
25884
25874
25888
25878
25869
25879
25870
25886
25871
25871
25875
25874
25869
25869
25860
25873
25873
25877
25871
25860
25879
25872
25867
25868
25873
25868
25873
25863
25862
25863
25873
25877
25867
25863
25875
25875
25869
25871
25861
25862
25870
25868
25863
25861
25863
25871
25862
25857
25858
25861
25855
25854
25862
25860
25870
25863
25871
25871
25869
25863
25856
25855
25820
25860
25849
25863
25871
25868
25863
25863
25868
25862
25863
25871
25856
25863
25869
25876
25871
25863
25879
25861
25873
25868
25871
25879
25875
25882
25885
25863
25759
25860
25870
25867
25874
25876
25882
25868
25877
25863
25878
25874
25879
25876
25882
25890
25861
25869
25874
25870
25873
25884
25888
25892
25893
25888
25882
25894
25895
25876
25862
25873
25881
25885
25879
25886
25886
25892
25897
25895
25893
25884
25897
25894
25893
25901
25903
25908
25900
25912
25909
25906
25903
25905
25908
25905
25900
25898
25908
25907
25911
25910
25908
25916
25927
25911
25910
25925
25926
25939
25932
25929
25924
25929
25947
25955
25963
25927
25926
25923
25922
25927
25930
25926
25928
25939
25943
25935
25945
25937
25936
25944
25941
25949
25948
25983
25990
25981
25972
25990
25985
25989
25991
25972
25967
25973
25976
25974
25972
25980
26001
26009
25993
26023
25975
25977
25971
25975
25976
25985
25988
25988
25989
25991
25991
25992
25995
26045
26030
26034
26031
26023
26026
26029
26033
26026
26029
26031
26031
26033
26026
26032
26034
26051
26043
26039
26058
26043
26047
26055
26044
26062
26056
26060
26059
26055
26062
26061
26063
26073
26079
26080
26074
26084
26094
26109
26103
26086
26080
26089
26091
26109
26103
26103
26105
26105
26118
26135
26141
26119
26119
26115
26118
26124
26119
26135
26139
26141
26146
26153
26150
26151
26149
26155
26158
26163
26162
26169
26170
26169
26188
26197
26191
26196
26203
26197
26192
26199
26199
26199
26222
26206
26207
26215
26220
26213
26229
26215
26226
26224
26228
26226
26261
26256
26258
26251
26261
26261
26257
26271
26263
26260
26271
26262
26295
26303
26312
26311
26308
26313
26311
26311
26318
26304
26311
26312
26318
26323
26331
26319
26317
26324
26356
26372
26364
26364
26374
26366
26383
26375
26379
26380
26380
26401
26363
26375
26390
26383
26386
26394
26399
26397
26405
26407
26415
26426
26422
26422
26434
26438
26442
26432
26444
26447
26460
26455
26464
26470
26469
26471
26474
26469
26479
26489
26492
26500
26502
26503
26503
26505
26511
26521
26524
26535
26526
26530
26546
26551
26559
26569
26569
26573
26580
26587
26598
26559
26559
26580
26579
26579
26586
26598
26596
26593
26604
26603
26615
26623
26623
26631
26630
26631
26631
26650
26653
26657
26647
26655
26668
26660
26660
26671
26665
26678
26699
26707
26702
26703
26710
26721
26721
26724
26730
26741
26742
26756
26757
26766
26733
26749
26754
26756
26767
26778
26773
26783
26779
26793
26798
26807
26811
26803
26823
26823
26834
26844
26839
26847
26831
26844
26839
26846
26844
26850
26855
26854
26869
26879
26880
26887
26887
26898
26892
26905
26909
26916
26919
26931
26929
26932
26941
26951
26956
26959
26959
26975
26968
26978
26974
26989
26988
27004
26996
26998
27004
26999
27014
27013
27021
27015
27025
27040
27026
27047
27036
27047
27055
27054
27074
27078
27076
27081
27079
27100
27111
27112
27115
27079
27114
27114
27122
27132
27130
27143
27143
27157
27159
27160
27173
27168
27172
27176
27176
27185
27191
27204
27211
27221
27167
27207
27223
27223
27229
27240
27250
27259
27255
27264
27271
27265
27273
27273
27302
27300
27302
27311
27301
27300
27311
27307
27324
27327
27337
27336
27348
27367
27363
27365
27359
27380
27376
27380
27386
27394
27409
27410
27415
27407
27388
27423
27443
27431
27431
27438
27449
27451
27461
27466
27470
27479
27484
27479
27495
27499
27482
27507
27503
27503
27513
27524
27527
27525
27550
27542
27548
27552
27550
27548
27562
27564
27556
27577
27582
27588
27591
27581
27593
27593
27607
27613
27609
27622
27628
27621
27628
27637
27639
27655
27645
27655
27663
27655
27676
27669
27678
27681
27686
27701
27699
27701
27706
27716
27718
27729
27730
27732
27740
27751
27751
27728
27744
27767
27670
27782
27775
27780
27794
27807
27757
27815
27819
27823
27821
27828
27836
27794
27836
27801
27847
27757
27817
27828
27879
27847
27876
27887
27893
27903
27911
27919
27930
27933
27935
27930
27949
27946
27953
27952
27966
27967
27976
27983
27988
27996
27989
28005
28007
28010
28014
28015
28015
28030
28031
28035
28050
28044
28049
28060
28064
28053
28056
28071
28071
28079
28032
28082
28087
28098
28103
28111
28109
28121
28119
28127
28134
28147
28145
28151
28164
28156
28167
28167
28174
28188
28185
28199
28188
28210
28204
28212
28219
28223
28229
28228
28236
28243
28242
28242
28263
28263
28261
28268
28269
28277
28287
28279
28296
28298
28295
28301
28311
28322
28324
28321
28329
28335
28335
28342
28359
28363
28362
28362
28366
28371
28372
28371
28388
28394
28407
28391
28397
28422
28415
28415
28423
28418
28430
28431
28444
28439
28450
28454
28463
28462
28473
28476
28483
28479
28493
28497
28488
28503
28501
28516
28500
28503
28513
28518
28524
28540
28540
28541
28548
28541
28551
28564
28559
28562
28572
28573
28577
28582
28591
28593
28595
28596
28607
28607
28604
28612
28610
28615
28622
28623
28628
28630
28631
28642
28639
28636
28652
28655
28655
28648
28666
28671
28634
28629
28658
28673
28679
28692
28679
28700
28697
28711
28703
28715
28711
28719
28719
28717
28724
28725
28729
28732
28739
28732
28740
28754
28698
28733
28726
28703
28766
28757
28695
28767
28743
28778
28780
28783
28794
28794
28799
28794
28794
28796
28779
28778
28783
28807
28810
28823
28800
28823
28823
28833
28847
28853
28852
28842
28852
28860
28860
28854
28852
28859
28859
28852
28838
28859
28856
28862
28860
28849
28848
28871
28867
28838
28785
28894
28910
28901
28903
28903
28919
28918
28908
28922
28917
28935
28932
28935
28941
28929
28930
28957
28955
28948
28943
28909
28927
28945
28975
28972
28971
28973
28974
28975
28981
28994
28986
28990
28988
28999
29004
29007
29004
29018
29003
29020
29017
29018
29031
29031
29026
29049
29029
28975
28964
29045
29047
29039
28998
29023
29026
29029
29023
28999
29071
29060
29074
29084
29073
28999
29055
29042
29030
29031
29013
28994
29101
29095
29111
29100
29111
29113
29119
29121
29124
29135
29124
29139
29133
29134
29143
29140
29142
29155
29172
29159
29159
29160
29172
29173
29164
29165
29191
29175
29180
29184
29175
29191
29196
29199
29201
29201
29191
29213
29227
29222
29225
29230
29243
29230
29228
29234
29239
29246
29239
29243
29242
29242
29250
29255
29255
29260
29258
29263
29269
29263
29284
29279
29279
29279
29255
29234
29282
29287
29295
29295
29294
29308
29303
29311
29314
29317
29313
29308
29321
29327
29324
29327
29331
29340
29341
29335
29338
29345
29354
29351
29352
29300
29331
29346
29339
29333
29338
29327
29362
29373
29383
29385
29380
29367
29375
29377
29356
29356
29354
29364
29356
29406
29412
29407
29419
29420
29418
29418
29417
29428
29431
29431
29441
29423
29437
29434
29442
29447
29447
29441
29457
29458
29463
29473
29463
29467
29465
29469
29486
29479
29487
29480
29481
29487
29487
29489
29494
29500
29497
29499
29511
29511
29500
29515
29521
29527
29527
29530
29518
29524
29542
29528
29535
29542
29527
29523
29492
29481
29472
29495
29502
29478
29455
29559
29575
29471
29460
29519
29493
29568
29570
29582
29581
29583
29583
29583
29589
29519
29551
29581
29598
29597
29587
29588
29580
29566
29544
29537
29538
29504
29612
29634
29627
29626
29628
29629
29647
29637
29638
29642
29651
29652
29647
29655
29657
29671
29664
29670
29666
29669
29669
29664
29652
29643
29639
29647
29649
29640
29645
29652
29651
29636
29642
29643
29657
29658
29676
29669
29684
29698
29703
29716
29725
29719
29723
29724
29732
29724
29725
29732
29740
29675
29679
29718
29725
29732
29767
29757
29769
29758
29759
29771
29762
29772
29766
29789
29779
29767
29749
29692
29774
29783
29785
29801
29794
29796
29794
29801
29796
29804
29798
29799
29807
29815
29805
29809
29818
29826
29819
29822
29687
29823
29819
29823
29831
29828
29831
29832
29835
29824
29836
29840
29847
29847
29865
29867
29871
29875
29860
29868
29875
29880
29879
29873
29869
29873
29865
29869
29879
29882
29893
29885
29890
29892
29897
29890
29895
29901
29908
29912
29902
29909
29912
29908
29908
29926
29925
29927
29925
29920
29917
29924
29925
29941
29927
29939
29941
29943
29943
29937
29942
29944
29945
29957
29956
29950
29964
29951
29969
29973
29971
29990
29976
29980
29971
29972
29988
29987
29983
29976
29980
29937
29858
29997
29853
29884
29998
29990
30001
29999
29991
30002
29999
30017
30009
30018
30017
30023
30023
30026
30031
30023
30016
30027
30028
30038
30031
30042
30041
30044
30042
30046
30051
30045
29932
29930
29983
29983
29988
29971
29990
30015
30044
30044
30047
30069
30084
30076
30076
30087
30070
30082
30078
30090
30087
30095
30084
30103
30085
30096
30100
30090
30097
30108
30106
30111
30117
30108
30110
30119
30115
30127
30115
30124
30127
30124
30139
30013
30045
30031
30028
30061
30061
30102
30116
30135
30132
30141
30143
30157
30147
30145
30145
30146
30173
30156
30164
30153
30164
30171
30150
30173
30160
30164
30166
30173
30180
30175
30166
30173
30175
30173
30179
30172
30187
30187
30177
30191
30188
30181
30202
30196
30196
30196
30189
30191
30180
30196
30180
30188
30193
30204
30207
30204
30185
30198
30211
30207
30210
30204
30206
30198
30199
30205
30223
30208
30203
30205
30196
30204
30215
30215
30215
30211
30215
30215
30215
30227
30235
30215
30215
30203
30212
30215
30238
30231
30215
30229
30241
30222
30233
30215
30080
30239
30247
30078
30103
30104
30071
30243
30236
30247
30252
30252
30261
30253
30237
30248
30244
30268
30258
30246
30193
30118
30260
30256
30262
30279
30262
30249
30244
30223
30214
30215
30182
30140
30147
30111
30141
30121
30276
30277
30287
30287
30273
30282
30270
30272
30272
30263
30270
30284
30286
30269
30281
30292
30295
30284
30262
30237
30212
30197
30173
30161
30302
30297
30301
30306
30300
30298
30297
30289
30310
30303
30286
30227
30308
30308
30309
30298
30304
30293
30305
30303
30310
30311
30314
30316
30314
30307
30307
30311
30307
30310
30319
30318
30318
30318
30321
30318
30326
30317
30319
30169
30179
30171
30196
30158
30196
30175
30230
30281
30287
30295
30317
30329
30326
30330
30332
30337
30321
30327
30335
30327
30335
30329
30343
30330
30324
30325
30318
30299
30284
30252
30231
30231
30155
30324
30326
30335
30332
30327
30322
30316
30141
30329
30327
30325
30167
30193
30215
30204
30212
30190
30327
30327
30324
30316
30308
30323
30323
30319
30327
30319
30319
30317
30147
30133
30164
30212
30261
30276
30287
30284
30311
30303
30305
30313
30325
30311
30302
30309
30317
30318
30303
30317
30183
30235
30215
30193
30226
30249
30231
30253
30234
30251
30276
30271
30265
30271
30287
30279
30288
30286
30293
30303
30301
30303
30295
30299
30261
30152
30280
30282
30268
30287
30276
30276
30273
30277
30270
30274
30264
30111
30086
30152
30202
30227
30244
30247
30244
30254
30254
30260
30260
30269
30262
30243
30249
30252
30247
30258
30250
30215
30239
30238
30233
30229
30225
30215
30221
30220
30238
30083
30146
30194
30199
30225
30196
30204
30210
30200
30210
30215
30210
30199
30215
30200
30200
30203
30017
30086
30111
30099
30111
30127
30087
30125
30123
30139
30116
30119
30130
30148
30151
30154
30155
30150
30135
30015
30172
30182
30132
29996
30171
30176
30129
30038
30154
30135
30151
30087
30155
30149
30147
30153
30044
30145
30134
30018
30133
30140
30084
30110
30124
30139
30141
30143
30123
30126
30131
30124
30117
30127
30127
30126
30114
30125
30119
30117
30100
30100
30106
30109
30108
30108
30106
30117
30109
30105
30109
30109
30103
30106
30095
30108
30099
30095
30065
30001
29999
30000
30019
30044
30053
30066
30058
30029
30034
30038
30049
30055
30057
30065
30074
30047
30029
30027
30033
30047
30065
30071
30079
30072
30087
30084
30082
30076
30058
30060
30057
30076
30061
30078
30063
30054
30057
30066
30057
30057
30043
30049
30034
30057
30044
30054
30052
30026
30028
30007
30019
30020
30029
30031
30014
29911
30049
30042
30033
29860
29878
29863
30036
30031
30028
30038
30028
29855
30037
30026
30026
30024
30022
30034
30023
30019
30042
30031
30037
30028
30032
30017
30023
30031
30012
30013
30011
30013
30023
30004
29995
30011
30003
30014
30000
30012
30016
30015
30010
30014
30006
30007
30015
29857
29923
29949
29959
29980
29985
29999
30020
29991
30000
29998
30013
29999
29995
29823
29893
29933
29959
29973
29979
30002
30014
29996
29983
29989
29991
29988
29992
29991
29823
29925
29935
29943
29943
29959
29968
29977
29986
29992
30005
29979
29996
29971
29980
29999
29993
29992
29989
29994
29973
29971
29975
29982
29973
29972
29974
29977
29975
29982
29988
29987
29983
29983
29981
29974
29977
29977
29978
29834
29824
29879
29899
29947
29969
29981
29982
29976
29985
29965
29970
29956
29969
29980
29970
29928
29867
29980
29973
29980
29978
29972
29980
29959
29979
29967
29948
29928
29885
29863
29825
29954
29973
29966
29972
29959
29959
29964
29958
29972
29959
29959
29955
29967
29981
29984
29972
29974
29964
29953
29932
29913
29844
29853
29803
29959
29965
29972
29973
29964
29954
29948
29959
29970
29959
29979
29979
29973
29964
29972
29975
29987
29979
29982
29955
29946
29919
29919
29926
29917
29918
29918
29916
29895
29847
29789
29976
29965
29972
29959
29975
29976
29970
29979
29975
29972
29978
29966
29971
29971
29975
29971
29979
29974
29967
29959
29959
29970
29973
29975
29966
29964
29970
29975
29806
29804
29812
29830
29808
29819
29797
29807
29860
29823
29820
29847
29848
29907
29883
29909
29959
29933
29956
29959
29977
29982
29991
29995
29974
29972
29991
29983
29982
29997
29983
29986
29983
29820
29855
29871
29923
29942
29935
29922
29956
29983
29994
29964
29996
29991
29991
29988
29986
29991
29991
29983
29996
30001
29997
29992
29999
29996
29988
29996
29999
29996
30001
29995
29999
29844
29862
29831
29841
29836
29845
29997
29995
30002
30005
29847
29922
29940
29971
29992
30014
30027
30012
29996
30010
30015
30007
30019
30019
30015
30013
30020
30015
29852
29884
29878
29859
29863
29877
29863
29852
29922
29972
30004
30015
30015
30027
30028
30037
30036
30044
30047
30029
30041
30042
30017
30028
30033
30043
30028
30030
30037
30036
30032
30038
30046
30030
30052
30047
30046
30044
30042
29895
29952
29956
29985
30011
30021
30047
30049
30051
30050
30068
30047
30065
30051
30041
30041
30049
30050
30066
30073
30071
30068
30070
30070
30058
30058
30078
30069
30062
30068
29964
30027
30055
30073
30081
30089
30068
30078
30079
30076
30082
30073
30084
30079
30085
30098
30080
30087
30079
30092
30088
30101
29982
30024
30069
30076
30085
30082
30098
30111
30113
30087
30101
30105
30107
30119
30105
29934
29987
30028
30077
30100
30127
30114
30110
30110
30119
30119
30020
30077
30106
30118
30116
30127
30134
30136
30119
30108
30118
30127
30122
30133
30123
30132
30135
30127
29967
30054
30097
30116
30141
30118
30133
30119
30126
30133
30128
30134
30010
30080
30117
30140
30141
30136
30142
30148
30150
30127
30140
30148
30137
30149
30006
30067
30100
30128
30155
30148
30159
30142
30164
30153
30145
30151
29986
30039
30099
30116
30128
30142
30174
30183
30162
30165
30173
30164
30170
30175
30008
30045
30079
30079
30071
30068
30050
30063
30087
30056
30023
30190
29993
30187
30182
30189
30187
30187
30044
30032
30063
30101
30100
30116
30164
30175
30188
30197
30207
30215
30191
30193
30196
30204
30204
30202
30210
30207
30194
30214
30212
30201
30209
30215
30228
30230
30213
30210
30204
30215
30201
30215
30226
30215
30215
30229
30239
30223
30239
30215
30233
30233
30235
30036
30079
30151
30197
30209
30234
30247
30243
30231
30233
30242
30244
30244
30244
30227
30239
30239
30252
30239
30239
30133
30199
30197
30188
30207
30215
30236
30239
30247
30256
30255
30261
30263
30246
30255
30255
30255
30215
30116
30261
30247
30249
30229
30269
30263
30270
30259
30261
30260
30260
30247
30247
30239
30215
30172
30178
30153
30103
30102
30128
30136
30129
30110
30252
30269
30268
30266
30267
30089
30079
30262
30066
30270
30070
30101
30265
30275
30261
30262
30261
30259
30273
30255
30236
30215
30179
30188
30167
30164
30166
30199
30183
30195
30158
30174
30204
30226
30240
30250
30244
30262
30260
30268
30267
30271
30265
30258
30247
30247
30237
30240
30249
30264
30253
30253
30119
30207
30252
30256
30244
30247
30247
30255
30073
30119
30142
30185
30199
30230
30231
30246
30221
30244
30251
30223
30228
30238
30239
30239
30234
30035
30081
30137
30170
30199
30188
30196
30215
30215
30207
30207
30198
30198
30197
30201
30215
30215
30215
30202
30196
30202
30199
30200
30039
30055
30101
30154
30190
30196
30211
30187
30185
30185
30183
30180
30191
30181
30183
30111
30029
30016
30000
30022
30093
30146
30188
30151
30169
30157
30154
30159
30171
30163
30158
30159
30175
30165
30162
30157
30158
30165
30163
30159
30154
30153
30154
30150
30151
30151
30145
30148
30138
29952
29981
30014
29994
29957
30022
30077
30092
30110
30125
30127
30132
30137
30118
30126
30119
30140
29976
30056
30095
30117
30094
30115
30119
30114
30121
30114
29978
30074
30103
30111
30124
30108
30087
30100
30106
30098
30103
30100
30101
30108
30108
30103
29932
30009
29986
30087
30094
29916
29927
29927
29921
29924
29950
29959
29967
29980
29981
29967
29978
29950
29986
30017
30053
30076
30066
30086
30087
30094
30083
30085
30081
30071
30068
30062
30061
30059
30070
30070
30069
30068
30065
30053
30071
30059
30057
30056
30055
30063
30065
30066
30063
30059
30055
30071
30056
30060
30059
30071
30053
30058
30062
30063
30055
30061
30055
30055
30061
30054
30053
30054
30051
30061
30049
30055
30049
30052
29908
29948
29994
30023
30024
30028
30029
30047
30040
30062
30042
30035
30056
30054
30049
30055
30051
30055
30047
30041
30028
30044
30032
30044
30049
30045
30039
30035
30045
30039
30033
30036
30042
30027
30046
30038
30039
29866
30031
29876
29918
29950
29927
29959
29959
29991
29989
29992
29989
30000
30006
30018
30022
30022
30044
30039
30045
30043
30036
30038
30034
30035
30036
30047
30044
30046
30028
30013
30006
30010
29995
30001
30020
30025
29991
30013
30006
30012
30015
30018
30023
30023
30020
29993
30011
30027
30034
30052
30029
30002
29985
29891
30034
29871
29951
29994
29995
29989
30002
30014
30034
30041
30045
30031
30022
30031
30030
30030
30031
30034
30023
30028
30030
30036
30032
30028
29923
29943
29978
30021
30001
30001
30019
30026
30039
30039
30022
30042
30028
30039
30039
30035
29925
29946
29987
29997
29986
29987
29999
30018
30039
30044
30044
30045
30037
30043
30046
30050
30031
29967
30027
30059
30026
30044
30039
30052
30047
30041
30042
30045
29937
29969
30019
30046
30059
30050
30062
30043
30043
30050
30050
30052
30054
30053
30056
30052
30057
30044
30055
30042
30054
30054
30055
30054
30057
30052
30058
30058
30066
30066
30071
30080
30058
30055
30047
30027
30067
30065
30071
30047
29936
30062
30059
30079
30068
30079
30076
30063
30066
30076
30076
30073
30078
30093
30087
30081
30087
30092
30083
30093
30085
30073
30084
30078
30087
30092
30087
30084
30087
30087
30100
29970
29999
30011
30050
30076
30077
30063
30081
30087
30085
30075
30094
30101
30102
30116
30108
30100
30110
30103
30108
30103
30103
30105
30107
30109
30108
30118
30098
30116
30103
30098
30103
30097
30103
30093
30087
30092
30069
30085
30077
30055
30023
30004
30116
30119
30121
30120
30125
30126
30112
30121
30121
30127
30118
30127
30125
30129
30135
30138
30132
30132
30125
30112
30109
30099
30110
30116
30103
30085
30076
30087
30042
30143
30143
30147
30154
30144
30147
30143
30142
30148
30150
30149
30149
30143
30123
30105
30094
30096
30103
30111
30093
30081
30085
30081
30076
30069
30165
30162
30163
30161
30164
30170
30158
30163
30169
30167
30175
30167
30171
30168
30170
30181
30189
30189
30187
30191
30180
30183
30187
30194
30178
30187
30183
30172
30183
30176
30180
30185
30198
30196
30189
30207
30199
30197
30189
30181
30173
30183
30177
30142
30149
30164
30154
30133
30148
30132
30116
30127
30140
30123
30122
30159
30141
30114
30204
30210
30215
30231
30212
30215
30226
30236
30223
30214
30233
30226
30233
30231
30228
30233
30231
30238
30231
30238
30246
30237
30245
30245
30247
30247
30251
30245
30227
30236
30235
30239
30235
30238
30239
30247
30254
30267
30263
30259
30262
30271
30285
30269
30263
30278
30268
30276
30283
30266
30266
30262
30276
30285
30276
30278
30279
30285
30283
30291
30288
30292
30292
30290
30286
30292
30276
30295
30215
30259
30255
30260
30251
30300
30293
30295
30300
30294
30298
30305
30308
30308
30308
30286
30299
30311
30311
30297
30255
30311
30303
30303
30326
30317
30314
30314
30325
30310
30300
30284
30270
30263
30248
30252
30255
30209
30317
30317
30319
30324
30309
30327
30327
30324
30335
30327
30321
30318
30335
30335
30343
30327
30327
30316
30293
30286
30263
30277
30284
30294
30270
30271
30354
30332
30351
30353
30343
30359
30355
30353
30343
30351
30348
30371
30361
30356
30377
30367
30372
30355
30372
30374
30366
30369
30360
30348
30336
30334
30333
30316
30282
30382
30380
30383
30388
30397
30380
30386
30382
30386
30377
30388
30394
30391
30389
30392
30398
30411
30392
30396
30406
30379
30388
30388
30374
30335
30413
30415
30404
30407
30405
30413
30408
30407
30415
30417
30409
30420
30410
30414
30413
30419
30422
30421
30423
30429
30419
30428
30422
30426
30433
30430
30438
30337
30331
30317
30431
30430
30434
30445
30439
30432
30440
30441
30447
30436
30441
30444
30444
30451
30441
30439
30445
30446
30446
30443
30444
30444
30455
30444
30455
30438
30444
30460
30453
30445
30455
30447
30450
30455
30455
30444
30463
30459
30463
30469
30455
30453
30457
30459
30454
30465
30471
30470
30469
30479
30460
30462
30458
30463
30463
30465
30470
30471
30479
30469
30460
30470
30471
30470
30458
30460
30445
30431
30431
30415
30415
30436
30436
30431
30423
30460
30460
30468
30468
30468
30467
30461
30454
30479
30479
30475
30468
30456
30434
30417
30383
30454
30451
30459
30463
30457
30457
30460
30461
30455
30439
30436
30416
30373
30458
30460
30454
30450
30455
30455
30445
30446
30468
30458
30461
30447
30436
30441
30439
30432
30407
30393
30439
30447
30447
30442
30439
30453
30424
30380
30450
30439
30442
30438
30432
30439
30438
30440
30431
30433
30417
30405
30404
30401
30398
30389
30384
30397
30393
30376
30373
30335
30319
30409
30405
30405
30329
30332
30402
30405
30394
30395
30398
30391
30400
30405
30398
30396
30387
30373
30357
30342
30343
30308
30316
30380
30367
30373
30370
30385
30375
30374
30369
30374
30372
30378
30367
30359
30370
30356
30368
30359
30352
30364
30292
30262
30349
30347
30238
30273
30292
30302
30300
30308
30311
30330
30347
30347
30302
30331
30340
30333
30319
30263
30274
30247
30215
30325
30327
30319
30318
30307
30319
30311
30317
30319
30310
30308
30299
30311
30302
30317
30309
30308
30297
30287
30290
30290
30302
30303
30298
30303
30272
30283
30276
30267
30276
30287
30271
30271
30273
30278
30276
30279
30285
30265
30263
30254
30252
30260
30241
30223
30140
30261
30254
30255
30263
30255
30249
30251
30258
30247
30239
30253
30255
30250
30235
30215
30199
30180
30233
30244
30239
30228
30229
30225
30230
30231
30223
30229
30231
30227
30237
30215
30212
30215
30215
30221
30077
30084
30145
30159
30183
30181
30196
30194
30201
30208
30207
30215
30210
30199
30203
30209
30196
30199
30204
30201
30196
30191
30180
30149
30183
30185
30172
30175
30176
30175
30166
30170
30174
30159
30164
30172
30158
30167
30164
30162
30151
30172
30159
30161
30159
30151
30148
30148
30141
30149
30140
30135
30148
30151
30151
30146
30137
30127
30129
30087
30128
30129
30135
30132
30127
30135
30120
30122
30135
30133
30117
30121
30119
30122
30130
30113
30110
30102
30098
30087
30042
30102
30113
30103
30106
30102
30094
30100
30094
30060
30091
30093
30087
30097
30094
30085
30084
30075
30079
30050
30057
30042
30041
30033
30029
30077
30075
30062
30075
30063
30072
30058
30071
30061
30063
30059
30063
30050
30055
30052
30054
30052
30054
30031
30016
30006
29998
29951
30031
30039
30026
30042
30033
30036
30035
30041
30033
30031
30033
30024
30023
30015
30020
30035
30025
30023
30007
30005
30004
29998
29991
29983
29991
29991
29951
29935
29911
29905
29914
29992
29994
29993
29996
29985
29988
29996
29990
29991
29979
29981
29978
29975
29986
29990
29983
29977
29967
29937
29961
29969
29959
29957
29975
29958
29959
29972
29969
29974
29952
29937
29928
29901
29874
29957
29951
29945
29947
29942
29936
29943
29948
29944
29941
29943
29946
29941
29940
29921
29916
29902
29887
29847
29924
29926
29927
29919
29920
29921
29929
29921
29918
29914
29918
29915
29906
29911
29924
29915
29915
29909
29906
29916
29900
29906
29915
29902
29897
29901
29895
29893
29890
29876
29890
29884
29884
29887
29887
29893
29875
29877
29877
29871
29865
29863
29873
29868
29882
29870
29868
29863
29863
29877
29868
29825
29759
29854
29791
29782
29851
29838
29790
29821
29834
29831
29818
29816
29811
29796
29799
29813
29835
29839
29837
29835
29791
29828
29836
29828
29783
29829
29836
29831
29823
29812
29822
29823
29813
29820
29815
29815
29807
29812
29809
29805
29815
29812
29804
29807
29802
29799
29799
29798
29796
29798
29790
29796
29788
29791
29786
29781
29791
29784
29780
29782
29781
29790
29782
29772
29774
29772
29772
29767
29762
29761
29775
29771
29767
29748
29742
29740
29745
29735
29732
29741
29735
29734
29734
29719
29716
29711
29708
29721
29703
29703
29702
29699
29700
29711
29690
29669
29722
29735
29735
29719
29723
29721
29730
29722
29716
29716
29714
29717
29715
29716
29713
29703
29699
29708
29710
29689
29692
29700
29703
29703
29697
29687
29687
29684
29689
29684
29685
29699
29679
29686
29668
29687
29671
29685
29673
29683
29677
29671
29668
29660
29653
29642
29653
29649
29646
29652
29639
29632
29615
29597
29655
29644
29642
29638
29640
29639
29642
29635
29636
29630
29557
29583
29553
29622
29621
29625
29623
29620
29621
29615
29608
29611
29604
29607
29609
29607
29605
29601
29595
29569
29533
29585
29580
29584
29575
29551
29520
29567
29567
29562
29564
29554
29558
29554
29563
29546
29546
29555
29557
29547
29537
29530
29540
29525
29529
29519
29495
29499
29500
29463
29439
29511
29511
29515
29501
29499
29502
29508
29505
29495
29495
29484
29488
29471
29470
29476
29468
29474
29464
29468
29476
29461
29457
29447
29447
29445
29440
29456
29463
29444
29455
29446
29429
29439
29437
29421
29402
29381
29327
29415
29418
29407
29416
29412
29412
29402
29410
29397
29396
29387
29391
29388
29386
29388
29382
29377
29372
29368
29372
29375
29374
29379
29351
29359
29347
29356
29333
29325
29303
29303
29279
29280
29262
29340
29322
29332
29330
29319
29318
29324
29319
29316
29314
29300
29300
29305
29285
29293
29284
29276
29281
29281
29269
29244
29198
29261
29258
29261
29252
29255
29259
29227
29166
29229
29234
29223
29232
29221
29212
29215
29215
29223
29226
29215
29203
29188
29157
29041
29177
29191
29133
29180
29172
29175
29114
29158
29150
29135
29156
29158
29150
29127
29044
29143
29145
29108
29133
29134
29124
29029
29118
29114
29112
29068
29097
29093
29104
29070
28975
29069
29078
29082
29004
29062
29051
29060
28970
29058
29050
29061
29028
28965
29039
29036
29027
28958
29027
29015
29021
28977
28876
29005
28999
28997
28907
28985
28979
28982
28917
28983
28973
28967
28896
28954
28951
28948
28854
28933
28933
28936
28838
28927
28906
28908
28835
28899
28886
28880
28829
28884
28876
28885
28814
28873
28871
28860
28799
28858
28839
28837
28775
28830
28830
28833
28802
28756
28819
28807
28812
28775
28794
28796
28793
28778
28761
28641
28764
28769
28733
28679
28751
28735
28742
28688
28708
28709
28703
28679
28593
28701
28697
28689
28612
28679
28679
28676
28592
28655
28660
28657
28577
28639
28647
28611
28623
28618
28612
28618
28543
28607
28588
28583
28494
28585
28577
28550
28559
28564
28551
28556
28538
28554
28516
28404
28527
28513
28524
28495
28407
28511
28488
28492
28454
28493
28476
28470
28480
28429
28459
28452
28443
28430
28331
28434
28436
28403
28311
28414
28413
28421
28350
28395
28385
28391
28367
28325
28270
28365
28361
28364
28317
28341
28346
28336
28247
28328
28325
28286
28303
28311
28311
28295
28262
28222
28282
28278
28276
28195
28263
28258
28268
28230
28246
28233
28225
28193
28239
28231
28223
28111
28210
28200
28191
28196
28194
28193
28154
28175
28177
28178
28141
28067
28149
28156
28133
28052
28126
28127
28132
28102
27999
28117
28105
28110
28074
28080
28089
28096
28065
28021
27948
28069
28063
28071
28050
27988
28046
28052
28041
28039
27972
28026
28017
28005
28011
27964
27901
28002
27990
27998
27994
27935
27844
27972
27954
27950
27910
27956
27940
27939
27878
27934
27924
27916
27806
27907
27921
27894
27827
27895
27892
27893
27841
27879
27870
27864
27863
27812
27863
27855
27865
27839
27789
27832
27834
27830
27808
27783
27736
27815
27811
27795
27799
27773
27695
27782
27796
27756
27762
27774
27777
27732
27749
27750
27741
27731
27649
27738
27737
27711
27717
27719
27717
27708
27695
27700
27693
27693
27601
27674
27666
27686
27607
27665
27664
27651
27559
27644
27642
27647
27589
27633
27619
27631
27586
27610
27612
27587
27604
27594
27591
27526
27582
27591
27540
27571
27569
27576
27541
27505
27461
27543
27531
27454
27522
27524
27530
27500
27511
27511
27519
27495
27388
27503
27500
27472
27407
27484
27473
27482
27489
27452
27389
27460
27458
27429
27299
27435
27455
27398
27423
27415
27432
27348
27405
27416
27391
27333
27388
27392
27395
27326
27375
27372
27352
27373
27370
27375
27335
27354
27361
27335
27259
27336
27333
27337
27314
27247
27309
27319
27303
27271
27223
27300
27292
27295
27281
27220
27287
27282
27271
27241
27271
27253
27263
27239
27247
27246
27207
27236
27209
27239
27243
27168
27220
27222
27212
27116
27215
27206
27196
27151
27188
27183
27176
27183
27177
27175
27117
27167
27167
27159
27068
27143
27137
27164
27123
27060
27140
27130
27137
27082
27113
27114
27112
27041
27103
27107
27095
27045
27093
27085
27092
27055
27073
27067
27069
27001
27069
27057
27059
27000
27050
27047
27058
27021
26953
27027
27029
27039
26995
27021
27007
27023
26985
26937
27004
27002
26932
26999
26986
26991
26927
26977
26989
26961
26972
26970
26958
26962
26952
26964
26935
26951
26951
26936
26853
26934
26944
26917
26855
26927
26916
26919
26918
26878
26906
26908
26913
26879
26815
26884
26885
26890
26837
26871
26866
26874
26847
26863
26861
26863
26849
26846
26852
26863
26828
26779
26844
26845
26830
26791
26833
26820
26823
26780
26812
26813
26815
26743
26804
26806
26797
26758
26790
26787
26800
26766
26784
26774
26775
26783
26756
26703
26760
26767
26767
26754
26661
26759
26758
26753
26727
26655
26736
26743
26744
26719
26666
26732
26724
26739
26693
26648
26710
26713
26713
26710
26666
26705
26702
26703
26700
26681
26613
26689
26690
26686
26620
26687
26676
26683
26631
26670
26664
26661
26631
26655
26655
26659
26631
26583
26638
26646
26661
26627
26588
26631
26628
26629
26624
26621
26581
26620
26606
26608
26631
26607
26569
26603
26599
26606
26564
26596
26591
26591
26524
26578
26596
26571
26527
26580
26569
26576
26534
26570
26570
26573
26541
26556
26566
26566
26551
26511
26548
26552
26558
26527
26537
26543
26537
26537
26525
26528
26535
26525
26542
26500
26527
26516
26524
26463
26519
26526
26511
26436
26507
26506
26503
26468
26509
26499
26500
26447
26503
26501
26485
26487
26479
26476
26478
26438
26464
26466
26476
26440
26401
26465
26460
26461
26424
26364
26446
26441
26446
26393
26432
26433
26436
26428
26429
26439
26401
26418
26417
26422
26368
26421
26420
26410
26365
26409
26411
26414
26367
26397
26393
26388
26407
26388
26404
26343
26396
26390
26393
26341
26381
26385
26389
26327
26371
26375
26372
26366
26376
26380
26374
26364
26369
26367
26356
26366
26311
26367
26357
26301
26348
26354
26361
26313
26355
26351
26331
26343
26344
26338
26341
26340
26326
26335
26339
26333
26276
26324
26324
26321
26247
26320
26327
26271
26320
26318
26320
26316
26310
26309
26309
26311
26206
26301
26282
26305
26305
26239
26299
26309
26263
26292
26298
26279
26292
26281
26292
26200
26283
26278
26241
26277
26271
26268
26277
26268
26264
26272
26261
26260
26221
26264
26269
26230
26267
26255
26265
26234
26246
26260
26239
26200
26247
26260
26231
26244
26244
26242
26198
26241
26239
26244
26215
26231
26229
26224
26236
26225
26183
26223
26220
26216
26223
26201
26228
26219
26226
26201
26148
26210
26201
26209
26201
26165
26201
26207
26210
26201
26180
26151
26131
26188
26183
26195
26164
26186
26181
26174
26151
26174
26169
26174
26115
26172
26169
26178
26137
26162
26166
26165
26146
26153
26167
26166
26119
26148
26147
26156
26135
26080
26145
26135
26143
26079
26135
26119
26133
26078
26122
26131
26094
26119
26116
26119
26062
26116
26115
26100
26046
26095
26104
26108
26095
26094
26038
26100
26101
26079
26081
26087
26092
26066
26084
26085
26070
26055
26071
26063
26037
26053
26064
26044
26055
26055
26050
25957
26047
26043
26044
26043
26002
26038
26051
26017
26030
26030
26017
25944
26015
26021
26005
26012
26022
26015
25996
25997
26010
25956
26004
25997
25982
25999
25983
25991
25967
25973
25989
25988
25952
25975
25972
25972
25926
25956
25968
25965
25934
25950
25956
25962
25940
25910
25943
25943
25956
25923
25861
25924
25926
25930
25919
25831
25921
25938
25847
25913
25908
25895
25906
25898
25911
25885
25895
25894
25895
25852
25883
25885
25895
25869
25805
25879
25877
25867
25868
25872
25863
25871
25784
25869
25874
25860
25836
25854
25847
25827
25830
25835
25844
25848
25799
25841
25829
25834
25803
25825
25822
25825
25765
25821
25819
25810
25754
25807
25818
25809
25800
25800
25804
25810
25799
25699
25791
25794
25798
25757
25788
25788
25794
25785
25711
25780
25782
25793
25775
25730
25777
25776
25784
25773
25719
25758
25764
25759
25754
25736
25755
25756
25757
25763
25714
25734
25753
25739
25733
25699
25739
25744
25744
25727
25707
25728
25735
25733
25733
25732
25699
25715
25723
25728
25710
25588
25733
25727
25718
25679
25714
25711
25711
25705
25640
25708
25705
25702
25640
25703
25702
25700
25684
25695
25703
25702
25653
25699
25698
25703
25665
25676
25690
25692
25695
25676
25640
25677
25694
25679
25687
25685
25650
25666
25675
25675
25683
25645
25672
25674
25682
25654
25663
25658
25665
25607
25668
25665
25658
25620
25668
25658
25663
25638
25648
25659
25661
25653
25638
25647
25652
25646
25655
25638
25647
25653
25658
25632
25643
25639
25640
25645
25607
25633
25639
25639
25599
25639
25632
25650
25622
25634
25636
25638
25607
25631
25630
25634
25634
25613
25573
25625
25630
25639
25605
25636
25631
25638
25607
25628
25623
25621
25619
25614
25631
25619
25620
25621
25634
25607
25613
25631
25618
25584
25614
25618
25616
25619
25591
25615
25621
25625
25598
25609
25617
25620
25588
25607
25615
25614
25606
25559
25616
25617
25619
25607
25552
25596
25607
25607
25595
25605
25594
25607
25619
25583
25600
25604
25604
25606
25598
25607
25599
25591
25598
25607
25605
25588
25518
25606
25607
25604
25578
25596
25603
25601
25607
25601
25597
25604
25605
25616
25597
25525
25598
25599
25612
25591
25559
25604
25602
25604
25595
25594
25607
25607
25599
25567
25594
25601
25606
25582
25590
25607
25596
25615
25603
25596
25607
25607
25591
25607
25604
25606
25598
25588
25607
25607
25607
25581
25611
25607
25623
25607
25574
25602
25614
25618
25593
25607
25617
25612
25597
25617
25617
25607
25599
25615
25607
25607
25607
25613
25614
25620
25607
25607
25594
25619
25607
25627
25600
25607
25623
25615
25625
25591
25607
25626
25630
25617
25621
25620
25626
25628
25602
25627
25629
25626
25607
25629
25625
25631
25617
25629
25637
25634
25626
25614
25631
25638
25640
25637
25636
25630
25633
25631
25635
25641
25643
25630
25594
25641
25645
25649
25646
25641
25648
25642
25636
25638
25649
25652
25648
25642
25650
25652
25654
25654
25626
25652
25654
25656
25639
25655
25668
25660
25668
25652
25655
25671
25675
25666
25670
25650
25665
25671
25670
25666
25670
25634
25657
25670
25681
25682
25644
25667
25675
25690
25665
25679
25683
25690
25673
25681
25687
25682
25683
25689
25686
25691
25695
25644
25694
25691
25698
25689
25684
25702
25703
25705
25682
25704
25698
25701
25700
25705
25710
25719
25727
25718
25697
25710
25719
25717
25734
25716
25696
25733
25717
25726
25716
25732
25719
25725
25742
25727
25735
25734
25731
25735
25738
25739
25709
25740
25740
25740
25735
25738
25746
25748
25756
25732
25751
25764
25764
25745
25755
25764
25767
25740
25764
25764
25773
25766
25774
25766
25771
25783
25773
25775
25766
25777
25790
25780
25790
25762
25783
25794
25796
25794
25796
25784
25792
25790
25798
25803
25806
25803
25807
25810
25815
25804
25812
25818
25815
25820
25759
25830
25822
25829
25817
25825
25830
25830
25836
25820
25836
25841
25834
25785
25839
25853
25839
25821
25852
25860
25849
25855
25861
25853
25863
25878
25881
25852
25866
25875
25886
25874
25868
25869
25879
25877
25863
25879
25890
25906
25893
25887
25895
25890
25892
25892
25888
25894
25894
25897
25910
25894
25903
25911
25913
25886
25912
25911
25902
25904
25919
25916
25903
25925
25927
25898
25922
25918
25941
25913
25923
25932
25943
25921
25940
25935
25948
25927
25939
25951
25943
25948
25953
25958
25951
25957
25932
25956
25958
25975
25966
25973
25980
25972
25980
25975
25998
25983
25973
25991
25987
25988
25986
25995
26002
26001
25982
25997
26004
26015
25996
26014
26010
26012
26015
26024
26024
26036
26029
26023
26033
26028
26037
26020
26023
26008
25996
25980
26042
26055
26023
26023
26043
26045
26052
26031
26057
26061
26068
26071
26077
26069
26055
26084
26085
26078
26084
26090
26095
26092
26093
26097
26097
26093
26093
26103
26087
26106
26087
26111
26117
26117
26102
26108
26103
26126
26119
26132
26126
26143
26147
26140
26150
26155
26148
26152
26150
26159
26154
26169
26175
26167
26175
26177
26182
26186
26178
26179
26183
26175
26149
26188
26192
26187
26200
26204
26198
26206
26199
26211
26209
26206
26195
26207
26210
26207
26212
26219
26226
26231
26237
26235
26229
26234
26246
26252
26244
26247
26250
26255
26262
26247
26258
26223
26254
26260
26265
26271
26268
26278
26279
26271
26279
26279
26289
26281
26287
26292
26286
26293
26303
26301
26306
26306
26307
26316
26314
26307
26311
26316
26330
26327
26330
26326
26329
26327
26332
26341
26342
26358
26341
26348
26346
26341
26349
26351
26356
26357
26356
26359
26359
26349
26356
26372
26357
26367
26378
26387
26381
26367
26368
26374
26377
26382
26381
26388
26387
26397
26388
26391
26391
26394
26403
26400
26397
26406
26417
26420
26415
26420
26426
26414
26412
26425
26412
26423
26408
26434
26441
26423
26431
26403
26424
26434
26432
26431
26440
26435
26453
26442
26450
26454
26455
26465
26467
26470
26468
26460
26471
26471
26479
26479
26470
26481
26474
26492
26492
26500
26495
26501
26495
26507
26493
26505
26505
26509
26494
26497
26509
26516
26517
26515
26513
26518
26517
26532
26511
26520
26541
26529
26538
26537
26535
26535
26551
26549
26561
26556
26560
26561
26567
26556
26571
26566
26572
26575
26568
26573
26583
26582
26590
26591
26591
26595
26595
26593
26597
26598
26596
26601
26603
26607
26611
26612
26619
26610
26624
26629
26622
26639
26631
26631
26652
26638
26639
26651
26658
26670
26660
26668
26671
26681
26678
26683
26684
26675
26675
26681
26680
26701
26695
26695
26700
26708
26713
26716
26721
26722
26726
26726
26719
26721
26731
26732
26733
26751
26749
26753
26745
26770
26770
26789
26790
26790
26789
26793
26793
26789
26812
26791
26820
26823
26809
26821
26829
26831
26836
26836
26845
26845
26860
26849
26847
26862
26850
26861
26866
26872
26879
26885
26883
26884
26895
26901
26900
26911
26911
26908
26921
26919
26927
26929
26939
26929
26945
26941
26956
26951
26964
26973
26959
26977
26995
26994
26996
27005
26998
27014
27017
27022
27021
27029
27023
27036
27041
27044
27050
27034
27039
27039
27047
27046
27070
27087
27085
27087
27057
27101
27023
27092
27095
27103
27101
27111
27116
27122
27127
27132
27140
27141
27151
27151
27153
27154
27160
27166
27179
27143
27190
27189
27189
27207
27206
27195
27212
27222
27219
27226
27232
27247
27247
27252
27263
27271
27276
27287
27287
27292
27297
27300
27303
27309
27308
27327
27327
27329
27340
27348
27350
27354
27363
27364
27372
27371
27374
27371
27377
27390
27393
27399
27419
27429
27431
27423
27420
27434
27430
27439
27449
27460
27458
27475
27479
27471
27478
27494
27501
27495
27514
27517
27527
27528
27527
27533
27538
27546
27548
27556
27559
27562
27581
27581
27595
27596
27598
27620
27620
27621
27616
27631
27631
27637
27647
27647
27663
27671
27685
27685
27672
27655
27690
27691
27702
27711
27722
27719
27738
27742
27743
27751
27762
27770
27772
27764
27770
27783
27789
27807
27815
27807
27814
27815
27828
27837
27834
27857
27849
27855
27855
27875
27879
27887
27892
27906
27889
27900
27921
27920
27935
27946
27951
27939
27948
27956
27968
27975
27983
27988
27994
27981
27948
28007
28022
28023
28020
28047
28039
28055
28071
28063
28069
28071
28092
28092
28092
28100
28111
28122
28125
28118
28130
28135
28139
28159
28156
28151
28173
28177
28183
28176
28188
28195
28214
28225
28212
28242
28242
28250
28247
28261
28266
28277
28286
28294
28295
28297
28308
28319
28333
28318
28326
28342
28350
28340
28351
28366
28320
28361
28364
28374
28390
28396
28400
28423
28436
28439
28447
28452
28455
28470
28467
28476
28474
28492
28494
28500
28513
28524
28515
28525
28535
28546
28549
28559
28559
28564
28567
28573
28578
28594
28602
28615
28623
28625
28631
28639
28644
28654
28665
28677
28666
28689
28679
28693
28711
28717
28726
28732
28724
28743
28721
28692
28754
28757
28769
28772
28790
28781
28801
28810
28817
28814
28823
28815
28825
28822
28814
28837
28831
28755
28887
28890
28890
28902
28909
28917
28918
28935
28938
28957
28958
28964
28972
28981
28980
28986
28996
29000
29015
29023
29028
29035
29034
29036
29053
29055
29053
29068
29090
29079
29091
29103
29111
29119
29116
29121
29128
29141
29042
29131
29151
29170
29172
29171
29180
29191
29216
29214
29225
29237
29225
29247
29247
29257
29262
29262
29271
29286
29284
29306
29307
29316
29330
29341
29332
29332
29319
29301
29362
29371
29381
29389
29388
29398
29413
29394
29370
29420
29431
29447
29446
29454
29471
29471
29468
29465
29446
29396
29503
29511
29522
29520
29530
29537
29551
29559
29561
29575
29585
29587
29602
29602
29623
29621
29639
29631
29647
29651
29650
29666
29668
29673
29671
29684
29697
29700
29703
29718
29721
29734
29726
29722
29731
29735
29743
29748
29754
29740
29741
29758
29751
29748
29703
29807
29749
29758
29774
29787
29816
29811
29807
29809
29773
29864
29872
29881
29881
29886
29886
29914
29927
29931
29927
29935
29927
29936
29948
29956
29971
29847
29941
29978
29999
29999
30012
30015
30018
30021
30023
30028
30047
30055
30073
30069
30073
30079
30096
30090
30097
30109
30110
30118
30127
30131
30132
30146
30151
30174
30077
30103
30103
30151
30173
30187
30205
30215
30215
30220
30236
30242
30241
30246
30254
30258
30272
30266
30280
30295
30287
30300
30311
30316
30319
30323
30332
30342
30350
30345
30369
30367
30367
30390
30386
30383
30380
30373
30385
30366
30372
30372
30380
30399
30399
30410
30424
30460
30455
30458
30447
30439
30407
30410
30506
30500
30527
30528
30530
30536
30548
30560
30563
30558
30567
30571
30581
30587
30593
30599
30598
30615
30610
30558
30597
30615
30630
30620
30648
30670
30679
30663
30669
30674
30684
30698
30693
30709
30703
30716
30715
30727
30727
30742
30741
30763
30767
30772
30679
30719
30723
30750
30775
30781
30810
30818
30830
30825
30836
30842
30850
30844
30851
30855
30872
30877
30884
30889
30887
30895
30903
30923
30919
30935
30916
30916
30934
30932
30940
30945
30944
30955
30975
30977
30974
30970
30989
30980
30999
31019
31015
31023
31029
31027
31029
31043
31029
31042
31044
31054
31055
31068
31069
31079
31083
31092
31091
31093
31095
31101
31111
31111
31117
31130
31118
31131
31133
31028
31046
31089
31134
31147
31148
31159
31162
31186
31187
31191
31193
31191
31191
31175
31193
31166
31149
31142
31135
31167
31151
31175
31180
31219
31220
31238
31239
31266
31269
31287
31303
31292
31300
31299
31309
31305
31303
31316
31311
31305
31319
31319
31337
31340
31348
31335
31351
31357
31346
31344
31367
31372
31367
31374
31376
31389
31374
31397
31398
31396
31399
31407
31408
31423
31417
31423
31430
31444
31455
31438
31444
31431
31417
31407
31434
31447
31463
31474
31476
31468
31482
31491
31503
31495
31503
31503
31516
31511
31489
31507
31505
31527
31507
31490
31495
31504
31507
31517
31511
31530
31541
31562
31581
31573
31597
31595
31594
31580
31583
31599
31612
31604
31613
31597
31597
31591
31593
31600
31604
31612
31599
31591
31590
31567
31565
31542
31655
31527
31516
31530
31668
31675
31686
31559
31503
31693
31702
31698
31543
31700
31708
31712
31593
31587
31572
31732
31567
31745
31740
31639
31674
31678
31663
31662
31694
31719
31703
31751
31748
31780
31787
31790
31815
31820
31808
31815
31817
31821
31826
31821
31820
31827
31826
31847
31859
31862
31872
31863
31871
31878
31887
31875
31892
31893
31870
31892
31888
31905
31909
31918
31925
31923
31917
31750
31751
31791
31820
31839
31817
31937
31948
31946
31956
31959
31794
31783
31807
31871
31901
31932
31954
31959
31995
32004
32007
31981
32007
32025
32028
32031
32027
32033
32038
32039
32047
32063
32070
32063
32077
32062
32085
32101
32077
32090
32100
32108
32109
32103
32101
32108
32121
32119
32131
32111
32142
32119
32130
32140
32150
32159
32167
32165
32159
32175
32170
32170
32180
32187
32194
32181
32194
32198
32207
32196
32209
32214
32223
32237
32222
32222
32236
32263
32263
32263
32263
32262
32271
32278
32292
32291
32275
32279
32285
32283
32316
32311
32323
32304
32302
32285
32303
32293
32255
32247
32263
32275
32247
32207
32204
32231
32218
32263
32293
32332
32356
32392
32396
32380
32358
32326
32239
32252
32253
32423
32445
32441
32434
32447
32308
32391
32439
32481
32467
32471
32486
32484
32343
32492
32489
32332
32351
32385
32385
32350
32519
32524
32530
32538
32538
32533
32574
32555
32573
32548
32540
32481
32449
32398
32584
32596
32607
32611
32612
32599
32615
32620
32623
32634
32647
32655
32647
32647
32664
32653
32671
32487
32516
32503
32571
32642
32670
32700
32711
32716
32719
32724
32729
32719
32729
32737
32747
32743
32751
32611
32693
32727
32741
32767
32785
32791
32805
32807
32815
32823
32813
32816
32837
32833
32845
32838
32839
32859
32852
32855
32858
32855
32857
32857
32865
32887
32879
32902
32895
32895
32903
32900
32910
32922
32949
32934
32940
32951
32983
32970
32983
32975
32975
32989
33007
32997
32995
33015
32987
33021
32997
32903
32951
33019
33004
33015
33038
33068
33076
33051
33071
33079
33090
33088
32941
32996
33047
33079
33095
33111
33125
33125
33152
33148
33150
33146
33153
33167
33167
33159
33185
33183
33165
33095
33071
33100
33092
33118
33118
33058
33111
33095
33135
33132
33139
33161
33187
33135
33190
33159
33095
33295
33287
33311
33308
33306
33300
33306
33316
33330
33349
33367
33372
33375
33363
33377
33379
33399
33399
33397
33399
33412
33413
33420
33427
33415
33402
33415
33420
33431
33438
33453
33460
33473
33477
33261
33349
33431
33487
33497
33484
33415
33517
33527
33524
33516
33450
33367
33391
33405
33447
33471
33498
33522
33516
33499
33559
33555
33597
33612
33628
33623
33629
33639
33642
33678
33671
33645
33642
33668
33687
33696
33684
33689
33702
33707
33717
33717
33723
33729
33561
33750
33749
33756
33764
33767
33779
33780
33777
33782
33805
33806
33810
33813
33588
33615
33690
33671
33727
33782
33822
33796
33828
33863
33887
33903
33901
33875
33892
33901
33884
33895
33922
33919
33934
33943
33951
33967
33965
33973
33989
33973
33978
33975
33972
33972
33983
34003
34013
34012
34010
34018
34048
34048
34049
34052
34052
34062
34081
34076
34087
34087
34096
34106
34102
34108
34103
34095
34110
34134
34143
34135
34143
34142
34148
34148
34151
34159
34169
34178
34183
34167
34182
34203
34212
34225
34222
34223
34228
34229
34227
34246
34261
34285
34239
34055
34294
34280
34263
34047
34300
34324
34239
34311
34332
34356
34341
34244
34348
34367
34335
34361
34140
34374
34367
34392
34241
34415
34407
34434
34399
34199
34431
34406
34447
34310
34453
34426
34479
34400
34477
34472
34485
34470
34293
34512
34481
34525
34455
34535
34538
34532
34524
34546
34490
34301
34575
34563
34588
34516
34594
34601
34588
34594
34507
34622
34605
34644
34557
34647
34657
34623
34670
34637
34540
34684
34692
34651
34703
34665
34524
34719
34703
34722
34615
34737
34740
34755
34679
34759
34750
34779
34760
34673
34783
34786
34749
34799
34655
34799
34823
34812
34823
34699
34823
34823
34850
34823
34710
34852
34864
34839
34886
34839
34655
34893
34889
34919
34886
34911
34929
34892
34925
34890
34805
34651
34958
34956
34919
34981
34927
34723
34989
34965
35004
34964
34819
35015
35015
34999
34753
35016
34997
35031
34999
34796
35047
35044
35071
35051
35063
35065
35047
35093
35014
35095
35103
35067
35123
34956
35119
35090
35134
35063
35140
35109
35156
35121
35151
35165
35117
35172
35060
35187
35169
35196
35172
35189
35206
35212
35159
35213
35194
35220
35226
35206
35236
34951
35212
35247
35087
35257
35261
35079
35273
35292
35175
35285
35239
35295
35268
35127
35295
35294
35296
35287
35320
35325
35284
35319
35228
35046
35332
35328
35331
35174
35351
35348
35365
35361
35175
35374
35366
35381
35356
35141
35391
35353
35419
35354
35404
35403
35391
35415
35377
35235
35428
35429
35424
35415
35215
35431
35394
35458
35348
35451
35430
35463
35423
35167
35463
35435
35463
35478
35361
35471
35472
35485
35495
35437
35503
35459
35508
35412
35361
35516
35527
35511
35233
35537
35483
35532
35433
35546
35513
35559
35535
35405
35565
35553
35559
35557
35426
35565
35567
35543
35606
35547
35590
35555
35607
35468
35591
35584
35617
35528
35615
35615
35615
35612
35419
35650
35599
35628
35489
35653
35607
35642
35583
35667
35644
35666
35559
35673
35671
35692
35654
35383
35693
35647
35706
35661
35508
35719
35713
35709
35627
35719
35692
35726
35661
35732
35719
35743
35703
35455
35745
35740
35775
35746
35655
35763
35757
35763
35720
35764
35703
35783
35727
35787
35711
35804
35805
35735
35796
35765
35806
35701
35804
35791
35826
35741
35831
35785
35828
35655
35847
35847
35771
35847
35804
35847
35641
35868
35879
35842
35877
35878
35886
35766
35892
35908
35863
35906
35845
35903
35716
35925
35918
35877
35935
35887
35915
35940
35903
35942
35703
35947
35949
35935
35778
35959
35906
35962
35808
35969
35948
35983
35927
35991
35939
36001
35956
35999
36004
35999
36001
35951
36017
36023
36031
35863
36034
36013
36049
36010
36045
36047
36069
36015
36066
36073
36015
36055
35780
36087
36102
36032
36093
36102
35985
36095
36103
36077
36101
36103
36132
36069
36127
36077
36119
36125
36097
36150
35972
36151
36129
36135
36167
36113
36119
36171
36111
36153
36189
36149
36176
36194
36195
36120
36213
36215
36207
36151
36199
36214
36175
36188
36229
36214
36207
35943
36194
36231
36246
36244
36183
36263
36277
36239
36278
36214
36283
36142
36290
36248
36303
35988
36279
36308
36037
36324
36327
36308
36099
36327
36340
36333
36342
36340
36359
36284
36354
36319
36367
36211
36380
36331
36377
36388
36358
36399
36229
36398
36343
36403
36255
36410
36438
36388
36421
36382
36433
36402
36450
36430
36442
36454
36470
36300
36442
36422
36476
36423
36461
36470
36482
36495
36476
36503
36503
36471
36527
36487
36216
36517
36485
36551
36495
36276
36550
36508
36541
36280
36559
36502
36571
36264
36579
36527
36572
36308
36583
36551
36580
36359
36613
36556
36614
36447
36615
36556
36622
36470
36639
36609
36626
36648
36639
36667
36559
36668
36673
36693
36668
36359
36687
36700
36414
36649
36692
36707
36670
36683
36713
36662
36706
36739
36701
36725
36754
36757
36699
36752
36708
36766
36779
36717
36759
36791
36768
36733
36804
36793
36760
36806
36783
36758
36826
36837
36694
36837
36799
36837
36615
36833
36855
36815
36868
36871
36838
36887
36796
36880
36881
36890
36871
36615
36891
36930
36844
36908
36850
36929
36787
36927
36893
36957
36887
36756
36949
36908
36967
36868
36966
36983
36933
36997
36997
36941
36996
36983
36996
37010
36975
36871
37021
37025
37017
37031
36924
37041
37050
37006
37069
37052
36971
37071
37074
37015
37095
37019
37086
37094
37062
37112
36962
37118
37095
37098
37127
37139
37147
37138
37115
37159
37159
37156
37015
37162
37173
37151
37154
37190
37180
37132
36999
37209
37213
37206
37220
37219
37189
37223
37212
37056
37236
37238
37252
37230
37213
37268
37258
37047
37284
37265
37282
37229
37303
37295
37108
37311
37300
37249
37332
37325
37253
37023
37351
37330
37287
37290
37290
37343
37308
37337
37372
37380
37383
37375
37397
37399
37402
37405
37417
37405
37112
37255
37337
37356
37394
37428
37455
37452
37383
37415
37453
37478
37463
37479
37484
37485
37492
37495
37310
37437
37437
37435
37487
37499
37502
37512
37518
37525
37527
37543
37547
37568
37570
37575
37587
37584
37561
37524
37529
37580
37600
37602
37615
37617
37623
37622
37630
37299
37634
37364
37335
37419
37655
37452
37562
37637
37665
37687
37676
37609
37671
37687
37695
37704
37465
37611
37708
37717
37728
37735
37751
37731
37678
37715
37753
37750
37716
37708
37764
37761
37733
37764
37789
37785
37788
37791
37799
37501
37677
37767
37775
37771
37736
37789
37789
37832
37849
37844
37855
37868
37871
37802
37802
37860
37865
37886
37877
37879
37873
37560
37663
37823
37887
37895
37927
37931
37861
37889
37922
37931
37687
37921
37959
37962
37972
37969
37979
37915
37927
37928
37983
37982
37991
37994
37991
38007
38004
38013
38013
37685
37712
37838
37839
37916
37956
37944
37941
38006
38047
38047
38071
38087
38015
38015
38018
38053
38090
38037
38039
38053
38093
38095
38108
38103
38122
38132
38140
38142
38140
38145
37806
37827
37895
37940
37907
37817
38023
37833
37837
38184
38199
38196
38207
38205
37880
37938
38028
38142
38195
38181
38215
38244
38247
38263
38233
38046
38263
38206
38263
38215
37950
38292
38290
38263
38220
38309
38312
38292
38215
38029
38316
38319
38317
38319
38332
38057
38340
38312
38342
38144
38356
38353
38319
38374
38332
38020
38378
38361
38393
38353
38394
38359
38407
38311
38399
38394
38417
38402
38088
38423
38420
38451
38407
38444
38439
38389
38465
38422
38107
38468
38395
38474
38452
38167
38479
38459
38471
38125
38494
38489
38495
38380
38497
38473
38525
38492
38515
38511
38543
38527
38367
38543
38472
38545
38418
38556
38481
38561
38384
38561
38543
38580
38559
38237
38579
38606
38556
38586
38583
38607
38541
38250
38599
38571
38621
38475
38607
38547
38624
38567
38373
38625
38629
38559
38644
38631
38420
38645
38588
38660
38608
38663
38663
38601
38663
38622
38306
38682
38618
38691
38660
38375
38681
38687
38663
38685
38575
38690
38693
38719
38683
38490
38708
38705
38699
38709
38396
38721
38655
38715
38462
38729
38656
38669
38596
38660
38729
38415
38735
38678
38765
38711
38754
38749
38751
38709
38751
38706
38773
38634
38772
38764
38775
38759
38436
38773
38701
38783
38732
38770
38786
38775
38786
38543
38791
38735
38804
38742
38791
38789
38815
38771
38801
38767
38799
38577
38807
38774
38815
38593
38818
38772
38809
38831
38807
38829
38689
38833
38845
38732
38843
38790
38844
38695
38841
38806
38839
38842
38806
38854
38580
38862
38874
38855
38863
38878
38602
38881
38875
38847
38879
38887
38819
38894
38632
38889
38866
38916
38846
38902
38859
38911
38787
38905
38891
38926
38847
38919
38855
38935
38887
38618
38919
38909
38937
38935
38887
38641
38950
38878
38949
38783
38951
38951
38929
38953
38857
38976
38977
38919
38980
38961
38675
38977
38956
38959
38999
38990
38893
38999
38996
38979
39015
39007
38909
39004
39020
39020
39001
38982
39038
39039
38905
39043
39040
38974
39050
39044
38819
39054
39054
38993
39069
39050
38972
38752
39072
39068
39012
39084
39076
38852
39087
39082
39085
39071
39103
39051
38775
39103
39108
39084
39061
39129
39103
38812
39117
39068
39142
39120
38882
39147
39087
39163
39100
39166
39119
39172
39023
39175
39149
39197
39155
38859
39183
39137
39199
38991
39200
39175
39200
38919
39214
39155
39225
38988
39213
39167
39230
39079
39224
39231
39266
39223
38985
39259
39219
39265
39257
39158
39265
39279
39235
39287
39257
39130
39290
39288
39284
39294
39303
39303
39287
39308
39322
39245
39332
39278
39343
39311
39090
39351
39297
39354
39271
39350
39349
39372
39351
39134
39380
39327
39383
39086
39391
39405
39383
39076
39396
39361
39420
39414
39340
39423
39421
39405
39428
39396
39110
39431
39406
39463
39381
39466
39455
39479
39471
39288
39478
39477
39457
39478
39175
39491
39476
39527
39511
39421
39518
39519
39475
39551
39532
39535
39530
39550
39311
39549
39516
39567
39351
39573
39533
39592
39535
39584
39585
39581
39591
39395
39609
39595
39591
39611
39343
39624
39583
39638
39509
39644
39614
39663
39582
39661
39663
39623
39687
39683
39682
39477
39684
39684
39646
39719
39716
39607
39719
39716
39703
39684
39732
39645
39746
39741
39686
39756
39735
39769
39757
39763
39783
39761
39555
39783
39780
39811
39793
39604
39812
39812
39804
39803
39623
39839
39786
39821
39844
39850
39791
39836
39599
39853
39857
39892
39774
39882
39836
39894
39717
39903
39879
39913
39915
39788
39921
39924
39920
39906
39937
39823
39967
39943
39953
39958
39883
39983
39978
39933
39996
39962
39995
39998
39943
40022
40007
39815
40021
40012
40031
40030
39807
40039
39995
40059
40053
39967
40060
40085
40001
40095
40043
40087
40094
40054
40104
39911
40111
40111
40060
40135
39943
40135
40142
40025
40144
40119
40136
40156
40172
40079
40163
40182
40119
40190
40199
40043
40188
40175
40221
40081
40215
40163
40231
39973
40253
40244
40240
40255
40245
40228
40286
40276
40196
40279
40284
40240
40294
39961
40295
40324
40291
40317
40319
40333
40258
40327
40311
40355
40245
40351
40347
40381
40332
40380
40359
40398
40384
40084
40396
40373
40421
40420
40365
40193
40423
40416
40447
40227
40455
40442
40438
40468
40348
40467
40471
40418
40495
40453
40495
40490
40455
40522
40507
40267
40518
40524
40482
40543
40529
40399
40551
40508
40571
40455
40569
40559
40506
40595
40545
40242
40593
40543
40607
40595
40615
40606
40630
40619
40469
40644
40613
40654
40655
40556
40333
40659
40668
40622
40687
40673
40412
40682
40663
40711
40685
40506
40711
40695
40726
40730
40731
40749
40739
40399
40751
40725
40740
40772
40591
40773
40711
40805
40778
40422
40799
40749
40814
40811
40615
40812
40775
40838
40763
40841
40781
40863
40855
40793
40846
40879
40811
40879
40893
40891
40823
40900
40906
40766
40905
40940
40601
40920
40941
40921
40913
40959
40628
40949
40967
40927
40967
40980
40967
40967
40618
40997
40985
41010
40967
41007
41023
40964
41030
40915
41027
40985
41055
40999
41055
41053
41012
41077
40687
41074
41023
41099
41036
41082
41092
41127
41001
41131
41095
41119
41095
40831
41119
41061
41127
40753
41127
41147
41145
41149
40804
41159
40966
41158
41191
41145
41164
41177
41182
41135
41184
41143
41195
41207
41158
41204
40830
41207
41236
41188
41230
41169
41234
40834
41249
41255
41247
40870
41255
41182
41275
41106
41276
41245
41290
41143
41301
41213
41298
40959
41316
41325
41068
41324
41311
41303
41333
41271
41343
41141
41351
41271
41374
41277
41365
41338
41381
41295
41375
41319
41390
41347
41391
41380
41414
41391
41421
41357
41426
41410
41362
41420
41431
41405
41461
41271
41451
41459
41417
41447
41426
41429
41466
41467
41467
41479
41447
41501
41212
41492
41509
41479
41492
41440
41527
41156
41517
41479
41531
41143
41527
41541
41534
41148
41540
41523
41563
41246
41571
41479
41575
41527
41575
41529
41604
41181
41583
41572
41604
41260
41610
41532
41623
41383
41614
41582
41638
41231
41629
41607
41654
41639
41638
41645
41655
41597
41669
41607
41671
41527
41660
41652
41672
41643
41351
41685
41636
41701
41583
41687
41703
41693
41703
41374
41719
41655
41722
41686
41292
41721
41652
41733
41636
41735
41665
41761
41655
41756
41746
41761
41756
41755
41721
41771
41758
41752
41795
41463
41780
41785
41543
41789
41799
41735
41799
41782
41803
41799
41783
41807
41703
41809
41764
41790
41806
41831
41819
41796
41783
41823
41818
41822
41775
41832
41829
41748
41847
41839
41839
41837
41792
41415
41863
41847
41841
41863
41719
41847
41797
41879
41732
41881
41853
41860
41870
41798
41876
41495
41871
41841
41844
41882
41823
41895
41471
41875
41903
41895
41861
41863
41899
41900
41808
41900
41912
41836
41895
41927
41697
41907
41916
41844
41905
41831
41903
41913
41876
41932
41799
41927
41926
41759
41918
41927
41932
41748
41923
41853
41935
41887
41914
41911
41932
41927
41518
41926
41837
41951
41830
41924
41860
41943
41540
41930
41943
41911
41935
41935
41939
41927
41934
41920
41952
41910
41701
41918
41948
41935
41860
41948
41514
41927
41958
41655
41935
41958
41612
41941
41964
41782
41943
41952
41948
41935
41885
41959
41795
41951
41868
41971
41653
41887
41957
41525
41920
41977
41650
41955
41967
41949
41958
41933
41975
41807
41959
41908
41972
41967
41956
41973
41839
41967
41922
41932
41965
41927
41952
41963
41959
41919
41959
41959
41916
41967
41943
41986
41747
41975
41885
41981
41824
41975
41917
41972
41979
41922
41983
41535
41956
41991
41940
41985
41910
41991
41607
41983
41987
41879
41991
41900
41991
41983
41956
41975
41982
41897
41991
41551
41983
41988
41961
41991
41952
42004
42004
41911
42009
41650
41991
41991
41823
41991
42009
41960
41986
41940
42000
41623
41991
41991
42006
41863
42004
41927
42012
41567
41991
41972
42020
41559
42012
41987
42015
42011
41574
41991
41934
42013
41909
42006
41951
42020
42015
41588
42023
41935
42023
41991
42017
42013
42015
42015
41679
42013
41934
42031
41823
42012
42023
41967
42016
41954
42032
42024
42004
42031
41775
42013
41975
42031
41663
42023
41980
42023
41572
42022
41951
42036
41887
42022
42031
42028
42039
42021
42030
41687
42027
42013
42023
41588
42023
42036
42028
41790
42026
41944
42045
41671
42028
42044
41863
42031
41951
42041
41572
42031
42039
41856
42032
42039
42031
42031
42010
42054
41917
42033
41981
42035
42039
42012
42050
41639
42031
42060
41918
42039
42020
42055
41991
42037
42043
42045
42037
42039
42029
42062
42020
42045
42023
42060
42041
41963
42034
42041
41980
42065
42053
42007
42057
41653
42047
42031
42028
42030
41979
42059
41798
42043
42061
42023
42046
42004
42055
41770
42055
41991
42068
41668
42044
42059
41977
42052
41969
42062
42061
42020
42069
42031
42053
42038
42063
41746
42047
42055
42022
42055
42023
42058
42044
42042
42067
41972
42065
42060
42028
42066
41988
42068
41891
42054
41978
42085
41804
42064
42066
41895
42063
41983
42069
41645
42046
42069
41815
42029
42074
41607
42069
42082
42031
42055
41983
42077
41735
42061
42062
42044
42071
42039
42079
41595
42046
42079
41981
42071
41981
42087
41990
42087
41978
42087
41652
41983
42021
42068
41981
42083
42079
41988
42087
42065
42063
42087
41729
42074
42085
41930
42071
42071
42025
42074
42084
41946
42079
42087
41767
42051
42087
42058
42022
42077
41632
42063
42083
41677
42063
42084
41863
42059
42092
41700
42050
42095
41583
41990
42085
41852
42087
41988
42090
42077
41979
42086
41710
42071
42095
42061
42087
41991
42095
41967
42081
41990
42088
41935
42076
41991
42086
41798
42078
42030
42074
41602
42085
42054
42087
41749
42087
41991
42095
41684
42084
42063
42087
41636
42095
42093
42047
42087
42103
41831
42064
42092
41692
42078
42111
41804
42069
42109
41823
42084
42111
41919
42087
42092
41955
42081
42101
41938
42043
42103
42084
42054
41977
42079
42094
41903
42099
42101
42044
42087
42020
42103
41951
42086
41991
42111
41853
42103
41991
42118
41620
42073
41980
42108
42007
42095
42051
42071
42087
41991
42093
42103
42039
42113
41791
42085
42023
42117
41761
42100
42000
42088
42100
42078
42118
41952
42084
42062
42097
42052
42111
41988
42107
41670
42051
42107
42095
42012
42063
42108
41916
42081
42047
42101
41732
42100
42007
42117
41990
42089
42039
42065
42095
42014
42113
41819
42093
42031
42109
41620
42094
42101
42052
42101
42087
42052
42103
42055
42110
41724
42092
42110
41959
42100
42095
41988
42103
42081
42095
42097
42081
42105
41694
42084
42108
42024
42102
41991
42103
42106
42074
42106
42107
42077
42103
41774
42095
42101
41607
42043
42100
41702
42103
42097
42049
42092
42007
42087
42085
42012
42084
41884
42067
42089
42086
41990
42089
42039
42077
42039
42095
41878
42080
42031
42102
41975
42085
42072
42076
42060
41990
42082
41775
42068
41989
42083
41607
42059
42087
41969
42068
41975
42071
42028
42068
42050
42086
42035
42075
42029
42079
41956
42073
41991
42082
41956
42071
42012
42084
41722
42057
42095
42028
42077
41991
42063
42058
42039
42076
41935
42068
41991
42071
42058
42071
41991
42083
41583
42054
42073
42040
42061
42012
42082
41967
42068
41966
42084
41836
42061
41991
42069
42062
41991
42050
42061
41959
42054
42052
41967
42052
41847
42057
41991
41991
42059
42060
41854
42054
42063
42015
42049
42043
42028
42054
41943
42052
41588
42047
42055
41981
42033
42046
42015
42031
42052
42004
42037
41987
42030
42040
42047
42034
42054
41570
41991
42055
41687
42011
42039
42017
41926
41991
42020
42039
41655
41978
42025
42012
41923
42017
42015
41921
41991
42025
42004
41988
42019
41927
42028
41733
42012
42015
41958
42011
42012
41912
42011
42014
41959
41990
41902
42012
41543
41978
42015
41640
41962
42009
41701
41991
42001
41582
41887
41756
41990
41900
41966
41987
41966
41985
41479
41957
41976
41957
41927
41972
41913
41957
41840
41972
41460
41893
41967
41807
41951
41943
41947
41946
41940
41937
41953
41885
41932
41954
41923
41935
41831
41927
41926
41836
41906
41905
41809
41932
41732
41922
41827
41921
41723
41893
41810
41900
41890
41824
41900
41627
41879
41894
41407
41883
41892
41593
41791
41863
41862
41777
41863
41857
41825
41857
41759
41840
41735
41852
41364
41844
41787
41799
41825
41713
41828
41498
41815
41764
41806
41327
41796
41823
41532
41796
41711
41808
41389
41791
41699
41775
41287
41781
41695
41759
41751
41656
41783
41292
41748
41767
41386
41759
41749
41669
41735
41735
41733
41735
41639
41677
41729
41679
41724
41439
41699
41703
41706
41709
41701
41695
41679
41697
41687
41232
41682
41615
41671
41543
41656
41564
41679
41422
41659
41564
41658
41412
41628
41575
41639
41631
41607
41638
41166
41582
41639
41506
41607
41505
41629
41479
41606
41503
41601
41479
41591
41607
41447
41580
41599
41543
41583
41479
41583
41463
41569
41479
41555
41553
41511
41575
41540
41479
41549
41534
41482
41536
41516
41495
41549
41512
41502
41526
41102
41473
41519
41495
41410
41511
41023
41474
41503
41095
41497
41479
41479
41479
41383
41479
41470
41456
41479
41423
41446
41363
41476
41222
41461
41351
41445
41445
41405
41453
41436
40967
41430
41327
41444
41191
41419
41413
41293
41412
41402
41303
41391
41351
41400
41071
41391
41402
41255
41389
41284
41370
41366
41322
41366
41372
41281
41380
41361
41301
41372
40894
41283
41358
41345
41263
41343
41087
41290
41341
41149
41324
41244
41311
41315
41228
41319
40889
41292
41325
40877
41295
41305
40815
41261
41313
41013
41285
41287
41241
41279
41270
41285
41275
41175
41285
41258
41215
41276
41187
41252
41155
41252
41013
41263
41150
41255
41001
41231
41147
41236
41222
41205
41234
41171
41223
41167
41223
41183
41207
41210
41220
41188
40762
41204
41165
41191
40727
41188
41124
41186
40711
41180
41153
41178
40959
41169
41156
41185
40919
41171
41169
40934
41152
41156
41095
41148
41149
41153
41020
41147
41101
41143
41150
41127
41143
41042
41122
41090
41100
41118
41129
40999
41118
41095
41124
41051
41127
41100
41090
41107
40804
41106
41076
41100
41100
40997
41100
40641
41083
41004
41095
40668
41074
41095
40893
41082
41086
41071
40750
41048
41067
41029
41052
40953
41069
40591
41049
41062
41010
41048
41003
41060
40743
41028
41045
40645
41011
41044
40567
41002
41040
40716
41025
41031
40985
41015
40966
41012
41011
41021
40948
40580
40959
40911
41006
41009
40598
40938
40983
40997
41013
40926
40996
40908
40988
40967
40900
40980
40976
40916
40963
40963
40893
40983
40964
40877
40967
40967
40959
40884
40956
40967
40847
40959
40967
40955
40895
40967
40742
40940
40844
40951
40924
40860
40940
40807
40927
40913
40908
40935
40835
40928
40934
40903
40932
40597
40915
40928
40783
40910
40837
40919
40455
40916
40921
40889
40912
40855
40919
40887
40905
40899
40905
40785
40909
40803
40904
40439
40884
40908
40829
40893
40901
40495
40839
40893
40899
40788
40898
40839
40879
40868
40892
40844
40881
40774
40886
40646
40877
40821
40880
40876
40455
40869
40884
40745
40861
40801
40861
40845
40812
40868
40758
40855
40809
40862
40708
40839
40750
40868
40590
40839
40839
40772
40849
40860
40812
40604
40833
40820
40775
40831
40764
40846
40725
40820
40735
40839
40468
40813
40839
40717
40820
40758
40842
40616
40820
40730
40830
40639
40812
40711
40821
40661
40817
40711
40812
40817
40724
40804
40801
40791
40823
40771
40806
40807
40817
40775
40814
40757
40808
40508
40786
40801
40751
40796
40746
40798
40792
40743
40807
40430
40797
40741
40789
40789
40795
40804
40727
40780
40728
40787
40780
40711
40802
40469
40739
40795
40365
40789
40768
40778
40327
40739
40785
40412
40759
40783
40676
40769
40668
40782
40673
40775
40679
40757
40772
40682
40781
40479
40750
40775
40535
40763
40775
40635
40751
40718
40769
40765
40749
40764
40748
40762
40743
40755
40762
40313
40711
40772
40372
40765
40766
40623
40755
40725
40724
40737
40657
40751
40384
40705
40751
40286
40735
40668
40727
40748
40677
40742
40287
40743
40756
40639
40744
40663
40763
40367
40725
40750
40744
40684
40752
40289
40733
40756
40431
40727
40740
40735
40673
40743
40404
40727
40748
40659
40559
40439
40323
40734
40727
40718
40631
40655
40711
40743
40743
40739
40737
40673
40511
40362
40297
40727
40719
40647
40747
40731
40711
40724
40708
40622
40708
40737
40710
40374
40724
40695
40739
40733
40642
40384
40711
40727
40627
40736
40724
40658
40304
40708
40689
40708
40730
40671
40343
40711
40694
40606
40710
40719
40660
40527
40700
40694
40689
40614
40711
40709
40678
40495
40412
40348
40693
40710
40612
40698
40706
40706
40572
40695
40692
40654
40700
40695
40316
40702
40687
40604
40708
40710
40705
40649
40606
40299
40695
40700
40700
40660
40682
40620
40693
40711
40711
40703
40575
40483
40700
40695
40628
40618
40711
40705
40690
40647
40473
40567
40526
40262
40698
40695
40703
40693
40703
40693
40599
40647
40702
40711
40708
40609
40703
40703
40527
40695
40687
40597
40698
40692
40679
40655
40565
40392
40687
40695
40695
40677
40630
40701
40708
40693
40516
40687
40689
40683
40683
40597
40702
40670
40447
40700
40676
40686
40691
40620
40599
40679
40695
40660
40687
40685
40596
40702
40682
40636
40516
40316
40210
40676
40683
40690
40586
40687
40700
40676
40575
40351
40685
40670
40667
40604
40664
40693
40654
40509
40279
40693
40687
40679
40679
40667
40590
40669
40689
40582
40679
40652
40618
40687
40668
40625
40286
40664
40663
40578
40650
40679
40684
40679
40636
40215
40663
40669
40575
40583
40677
40679
40676
40668
40576
40199
40668
40661
40615
40599
40577
40671
40675
40668
40663
40640
40484
40190
40654
40636
40639
40555
40662
40659
40644
40639
40252
40655
40650
40636
40591
40607
40647
40575
40628
40639
40548
40652
40639
40364
40621
40570
40646
40638
40583
40169
40629
40548
40582
40631
40632
40599
40183
40612
40599
40615
40514
40628
40616
40599
40557
40236
40599
40597
40596
40508
40539
40602
40604
40580
40516
40399
40583
40578
40473
40600
40584
40580
40567
40292
40575
40497
40583
40574
40565
40567
40512
40255
40554
40554
40534
40451
40564
40568
40488
40234
40532
40551
40529
40514
40431
40553
40543
40539
40495
40102
40535
40524
40523
40431
40530
40526
40487
40375
40082
40502
40500
40447
40427
40516
40510
40455
40084
40495
40494
40397
40501
40497
40325
40038
40487
40475
40466
40385
40467
40481
40455
40287
40465
40455
40455
40455
40442
40422
40382
40406
40380
40361
40447
40453
40431
40327
40165
40435
40439
40429
40335
40439
40431
40419
40266
40149
40408
40423
40418
40362
40355
40367
40428
40389
40195
40399
40404
40383
40301
40411
40406
40367
40219
40394
40389
40391
40361
40295
40383
40396
40383
40380
40391
40332
40047
40386
40377
40367
40362
40327
40303
40375
40384
40381
40343
39973
40361
40359
40358
40367
40356
40311
40271
40308
40373
40333
40367
40367
40367
40362
40350
40314
40207
40011
40355
40340
40337
40279
40320
40350
40351
40351
40358
40353
40341
40343
40318
40322
40313
40270
40215
40291
40253
40277
40227
40225
40001
40327
40318
40326
40314
40278
40327
40321
40243
39895
40310
40316
40223
40322
40333
40327
40311
40266
40011
39932
40317
40311
40308
40232
40242
40319
40319
40316
40219
40001
40318
40295
40255
40250
40319
40304
40300
40054
40295
40309
40299
40264
40236
40231
40257
40313
40308
40293
40292
40302
40322
40295
40311
40301
40301
40311
40295
40286
40166
39967
40042
39999
39889
40303
40304
40299
40303
40295
40301
40302
40252
40244
40271
40309
40311
40303
40255
40213
39974
40301
40295
40231
40242
40309
40311
40309
40292
40211
40166
40016
40083
40112
39972
40311
40300
40300
40315
40303
40285
40246
40303
40319
40335
40318
40238
40092
39974
40308
40308
40316
40231
40319
40325
40290
40119
40311
40325
40303
40311
40263
40257
40319
40341
40327
40320
40319
40245
40133
40127
40339
40327
40324
40324
40265
40300
40351
40347
40343
40221
40343
40340
40343
40349
40327
40300
40291
40270
40327
40358
40359
40356
40308
40282
40291
40305
40191
40106
40349
40359
40359
40348
40305
40318
40375
40287
40356
40356
40351
40372
40321
40055
40369
40373
40300
40388
40388
40399
40376
40234
40380
40387
40382
40354
40380
40397
40403
40371
40229
40005
40404
40409
40397
40399
40374
40335
40391
40412
40362
40406
40426
40416
40383
40310
40190
40432
40423
40431
40429
40426
40380
40430
40448
40443
40447
40434
40412
40403
40366
40322
40221
40455
40454
40384
40468
40455
40310
40465
40479
40455
40418
40480
40478
40474
40247
40486
40487
40495
40471
40439
40452
40494
40506
40502
40492
40511
40519
40527
40516
40486
40465
40301
40177
40163
40525
40530
40527
40519
40468
40479
40527
40557
40557
40565
40552
40559
40561
40551
40517
40393
40308
40215
40410
40567
40567
40577
40579
40526
40607
40593
40571
40550
40423
40240
40593
40604
40607
40557
40623
40620
40615
40607
40385
40620
40623
40637
40618
40612
40583
40643
40655
40628
40535
40263
40661
40645
40655
40621
40609
40660
40679
40678
40681
40678
40676
40623
40615
40606
40555
40327
40695
40698
40691
40702
40711
40709
40676
40679
40685
40689
40693
40697
40681
40647
40749
40744
40726
40516
40742
40735
40743
40700
40757
40767
40735
40407
40760
40774
40765
40764
40722
40792
40778
40519
40778
40789
40780
40735
40799
40807
40823
40805
40711
40476
40812
40815
40783
40849
40803
40551
40455
40834
40849
40845
40796
40860
40866
40671
40862
40879
40863
40836
40839
40878
40874
40848
40679
40879
40899
40871
40892
40910
40891
40677
40903
40914
40911
40891
40935
40921
40811
40928
40935
40943
40938
40931
40932
40900
40892
40967
40967
40820
40964
40962
40955
40967
40991
40989
40950
40839
40779
41004
41005
41002
40967
40940
41023
41039
41031
41039
41035
41023
41023
40967
40720
41045
41052
41055
41055
40989
41039
41068
41063
41056
40996
40733
41084
41079
41064
41092
41103
40988
41095
41110
41031
41095
41127
41082
40855
41122
41125
41127
41063
41142
41151
41113
40855
41158
41155
41159
41141
41175
41095
41085
41191
41175
41139
41196
41087
41192
41191
41146
41161
41219
41195
41052
41215
41212
41191
41251
41243
41214
41156
40861
41246
41239
41212
41199
41259
41284
41284
41256
41216
41103
41044
41006
40919
40903
40903
41005
41215
41285
41301
41316
41319
41324
41335
41339
41332
41335
41335
41295
41292
41295
41348
41367
41376
41364
41380
41373
41351
41383
41381
41383
41396
41391
41381
41318
41375
41397
41407
41406
41396
41413
41415
41335
41436
41428
41262
41043
41435
41434
41444
41421
41367
41451
41463
41463
41455
41415
41189
41453
41446
41442
41412
41407
41404
41457
41447
41415
41447
41450
41415
41429
41446
41518
41539
41527
41521
41514
41479
41390
41244
41542
41538
41551
41540
41465
41575
41577
41574
41506
41174
41578
41558
41596
41571
41583
41587
41525
41607
41615
41575
41327
41607
41593
41620
41634
41543
41236
41632
41617
41645
41649
41564
41655
41655
41583
41669
41668
41479
41671
41669
41695
41684
41638
41668
41703
41681
41265
41702
41635
41711
41727
41559
41725
41702
41687
41727
41649
41735
41735
41702
41741
41751
41677
41343
41746
41735
41735
41775
41636
41772
41764
41767
41700
41796
41791
41735
41455
41803
41801
41735
41813
41748
41567
41811
41786
41839
41845
41607
41828
41823
41814
41778
41855
41860
41845
41524
41855
41844
41802
41877
41876
41783
41885
41882
41876
41825
41851
41910
41902
41898
41844
41895
41911
41898
41839
41911
41935
41926
41882
41614
41911
41916
41932
41902
41871
41911
41931
41935
41948
41965
41943
41965
41967
41943
41934
41924
41847
41670
41598
41979
41975
41975
41972
41903
41978
41988
41991
42012
41950
41902
41863
41633
41614
42015
42004
42015
41997
42009
42007
42027
41991
42034
42041
42045
42012
41948
41799
41757
41680
41671
41647
42044
42047
42039
41991
42063
42037
41727
42054
42054
42007
42068
42050
41903
42060
42071
42013
42080
42055
41745
42072
42063
42076
42095
42073
42035
41847
42071
42078
42064
42013
42094
42095
42015
42091
42053
42110
42100
42061
41824
42087
42095
42056
42089
42083
42012
41767
42089
42101
42023
42119
42111
42093
41790
42116
42108
42060
42122
42071
41674
42111
42071
42127
41789
42106
42027
42116
42117
42104
41845
42103
42108
42061
42111
42134
42103
41757
42135
42118
42068
42132
42113
42013
42119
42119
42100
42055
42140
42031
42135
42111
42112
42051
42129
42123
42030
42124
42119
42052
42133
42127
42009
42124
42135
42119
42134
42135
42071
41805
42116
42119
42110
42068
42116
42135
42149
42137
42042
41798
42135
42116
42132
42112
42060
42116
42147
42125
42079
41938
42124
42119
42127
42119
42127
42119
42135
42111
42086
42129
42151
42140
42133
42132
42007
41711
42135
42109
42063
42140
42133
42141
42140
42087
41833
41709
42119
42127
42132
42132
42124
42111
42105
42146
42085
41791
42142
42135
42106
42076
42127
42143
42137
42014
41806
42119
42119
42053
42149
42134
42084
41846
41724
41698
42133
42119
42135
42119
42103
42046
42141
42137
42149
42112
41956
41868
42119
42118
42126
42116
42049
42068
42135
42151
42137
42140
42087
41927
41802
41735
41693
41685
42116
42119
42119
42084
42057
42135
42135
42137
42109
42078
42103
42043
41930
41766
41703
42127
42118
42124
42054
42135
42135
42116
42054
41799
41692
42106
42119
42111
42126
42108
42065
42036
42055
42079
42120
42116
42063
42039
41808
42118
42109
42116
42108
42103
42039
42028
42062
42127
42119
42110
41972
41771
42115
42101
42103
42031
42116
42109
42093
41879
42094
42103
42101
42017
42119
42103
42073
41696
42087
42084
42087
42039
42106
42095
42100
42018
41722
42082
42097
42079
42094
42092
42079
42087
42078
42088
42062
42015
42037
42017
42095
42093
42060
41927
41851
41691
42087
42071
42092
42076
42063
42007
42095
41831
42078
42071
42072
42068
41991
42063
42081
42076
42063
41991
41871
41671
42071
42065
42069
42074
42068
42054
42052
41991
42073
42063
41620
42044
42052
41671
42047
42068
41919
42055
41972
42058
41668
42031
42046
42015
42037
41988
42063
41654
42039
42055
41862
42045
42013
42038
42039
42045
42043
41917
42033
42036
42036
42031
42045
41953
42031
42044
41958
42021
42010
41991
42015
41935
42014
42021
41991
42029
41625
41988
42019
42023
41949
41991
42016
41933
42026
41587
42012
41951
42023
41844
42022
41998
42017
41972
41999
41957
41986
42007
41927
42013
41749
41991
41961
42007
41967
41953
41983
41991
41981
41991
41988
41943
41989
41885
41967
41953
41991
41935
41983
41895
41975
41975
41948
41988
41660
41967
41895
41985
41605
41967
41913
41976
41925
41957
41927
41987
41527
41966
41961
41844
41959
41916
41969
41892
41943
41863
41959
41615
41950
41959
41717
41938
41945
41695
41932
41952
41491
41935
41924
41940
41926
41926
41936
41916
41927
41907
41938
41911
41924
41908
41944
41680
41923
41830
41926
41519
41908
41925
41686
41915
41906
41852
41908
41890
41905
41690
41895
41902
41879
41901
41861
41910
41796
41903
41830
41895
41774
41884
41788
41863
41879
41829
41877
41870
41831
41855
41863
41888
41871
41778
41856
41860
41859
41838
41869
41804
41866
41863
41860
41844
41853
41812
41836
41799
41852
41617
41837
41851
41775
41824
41838
41756
41836
41802
41775
41815
41753
41826
41812
41821
41805
41794
41728
41796
41759
41798
41796
41793
41763
41807
41594
41784
41703
41799
41479
41782
41695
41795
41774
41700
41780
41767
41708
41790
41780
41780
41756
41479
41335
41765
41750
41764
41751
41716
41676
41763
41756
41733
41727
41430
41745
41735
41735
41649
41740
41735
41703
41664
41441
41724
41719
41680
41692
41721
41716
41710
41655
41711
41711
41635
41636
41708
41706
41644
41231
41697
41692
41674
41674
41672
41655
41590
41586
41579
41580
41580
41605
41635
41674
41671
41650
41428
41647
41637
41612
41636
41649
41644
41615
41587
41630
41599
41636
41607
41479
41607
41605
41604
41599
41591
41604
41575
41503
41553
41604
41583
41380
41580
41567
41503
41572
41558
41508
41267
41077
41536
41551
41521
41479
41543
41540
41500
41191
41532
41514
41517
41423
41522
41521
41497
41175
41479
41496
41479
41500
41476
41414
41479
41496
41479
41385
41172
41462
41460
41453
41463
41383
41420
41456
41450
41318
40992
41446
41419
41351
41445
41431
41421
41257
41417
41410
41364
41431
41419
41388
41314
41121
41388
41395
41373
41294
41391
41382
41350
40938
41367
41288
41375
41346
41018
41367
41348
41290
41363
41256
40958
41340
41340
41257
41334
41318
41162
41319
41305
41315
41240
41324
41289
40855
41311
41303
41218
41304
41292
41279
40991
40829
41287
41273
41259
41151
41260
41262
41179
40951
41241
41247
41241
41155
41226
41235
40915
41223
41228
41124
41223
41220
41221
40995
41201
41189
41128
41199
41193
41158
41047
40735
41169
41166
41163
41167
41122
41055
41158
41159
41156
41130
41055
41023
40808
40721
41122
41099
41013
41135
41116
41055
40881
40652
41079
41095
40988
41092
41087
41090
41079
41071
41037
40815
41068
41058
41047
41047
40949
40967
41018
41039
41035
41033
41035
41023
40967
40911
40681
40556
40991
40991
40985
40892
40912
40999
40583
40958
40960
40951
40921
40839
40949
40959
40943
40932
40809
40923
40909
40801
40920
40911
40711
40486
40895
40887
40772
40889
40879
40850
40766
40413
40855
40861
40751
40795
40852
40812
40749
40548
40805
40803
40805
40695
40820
40796
40796
40756
40687
40438
40759
40764
40735
40631
40709
40745
40751
40739
40711
40604
40353
40716
40726
40683
40698
40676
40568
40583
40670
40684
40668
40636
40479
40335
40639
40647
40615
40524
40532
40583
40590
40618
40607
40595
40583
40537
40512
40343
40134
40555
40577
40543
40534
40436
40503
40532
40527
40500
40504
40515
40500
40500
40473
40343
40292
40213
39986
40454
40439
40452
40439
40445
40423
40322
40391
40415
40380
40156
39943
40391
40379
40375
40265
40367
40378
40366
40303
40060
39851
40334
40327
40317
40220
40327
40319
40318
40309
40132
39839
40271
40282
40276
40260
40150
40219
40262
40245
40253
40212
39783
40199
40236
40124
40198
40163
40207
40192
40127
40031
39776
40167
40163
40144
40045
40157
40150
40138
40037
39922
39887
39837
39758
40100
40095
40093
40068
40006
40093
40071
39900
40063
40062
40055
40052
40005
39924
40048
40028
40026
39869
39815
39622
39529
39992
39997
39990
39871
39996
39979
39956
39943
39925
39755
39648
39934
39940
39932
39884
39887
39925
39925
39904
39823
39609
39895
39883
39887
39839
39757
39870
39870
39836
39702
39847
39838
39844
39716
39727
39839
39836
39815
39687
39333
39792
39783
39788
39799
39791
39759
39674
39415
39768
39756
39750
39731
39676
39684
39747
39748
39711
39636
39431
39727
39708
39604
39711
39705
39696
39489
39684
39679
39572
39682
39639
39295
39666
39562
39655
39652
39639
39583
39317
39635
39623
39535
39618
39609
39581
39366
39591
39569
39490
39595
39596
39574
39492
39559
39565
39471
39543
39573
39461
39190
39527
39532
39532
39532
39455
39423
39527
39526
39527
39506
39447
39183
39125
39495
39489
39481
39455
39393
39492
39484
39415
39247
39159
39042
39436
39445
39341
39447
39431
39427
39050
39415
39412
39380
39319
39315
39367
39407
39405
39404
39374
39279
39130
39097
39364
39379
39351
39341
39290
39269
39287
39260
39303
39344
39335
39281
39271
39311
39327
39325
39327
39046
38901
39228
39255
39303
39307
39309
39301
39284
39309
39239
39199
39268
39284
39265
39255
38964
39141
39229
39262
39270
39204
39188
39229
39239
39235
38976
38860
38892
38956
39095
39201
39207
39212
39229
39231
39141
39135
39123
39166
39189
39175
39187
39127
39095
39089
39084
39095
39091
39076
39063
39076
39129
39159
39147
39148
38753
39060
39142
39153
39146
39046
39084
39123
39125
39114
39118
39111
39116
39109
38775
38994
39103
39108
39111
39002
39015
39045
39087
39089
39075
39079
39066
39076
39063
39064
38695
38967
39031
39066
39071
39056
39039
38959
39046
39045
39039
39039
39037
39023
39037
39020
39025
39013
39020
39002
39021
39007
39005
39007
38997
38999
39000
38983
38983
38981
38991
38975
38983
38975
38974
38965
38972
38964
38965
38958
38964
38948
38950
38949
38945
38935
38943
38936
38935
38935
38887
38935
38817
38919
38909
38909
38889
38822
38887
38823
38893
38887
38885
38890
38895
38889
38876
38883
38876
38867
38863
38879
38860
38871
38869
38864
38855
38858
38847
38847
38767
38791
38836
38831
38806
38823
38831
38828
38823
38825
38823
38833
38804
38815
38807
38808
38793
38799
38791
38791
38788
38783
38775
38790
38404
38479
38636
38735
38748
38766
38767
38779
38780
38773
38748
38711
38668
38721
38741
38724
38749
38391
38363
38719
38722
38716
38576
38653
38708
38724
38708
38663
38631
38702
38687
38371
38567
38623
38676
38699
38633
38695
38683
38676
38663
38670
38652
38604
38559
38647
38647
38641
38638
38639
38639
38587
38567
38563
38631
38631
38623
38623
38615
38592
38599
38603
38593
38498
38495
38460
38374
38309
38279
38314
38407
38438
38516
38516
38500
38527
38541
38543
38545
38535
38557
38544
38520
38517
38503
38461
38503
38507
38506
38495
38495
38497
38487
38492
38478
38471
38461
38407
38401
38431
38407
38418
38423
38431
38383
38399
38403
38389
38407
38402
38402
38407
38401
38407
38398
38398
38382
38361
38232
38137
38151
38017
38378
38367
38375
38366
38364
38351
38351
38343
38343
38340
38342
38335
38327
38322
38319
38319
38319
38311
38314
38301
38300
38286
38297
38290
38284
38279
38278
38272
37895
38093
38169
38201
38231
38211
38135
38007
37876
38238
38236
38223
38207
38159
38223
38230
38219
38209
38218
38214
38205
38209
38188
38193
38188
38181
38172
38167
38147
38084
38060
37976
38151
38149
38135
38112
38107
38118
38137
38135
38124
38103
38105
38093
38085
38043
37773
38076
38093
38079
38079
38059
38060
38028
38009
37988
38009
38033
38015
38023
38021
38014
38018
38023
38023
37991
37998
37998
37999
37973
37972
37933
37972
37966
37975
37958
37959
37924
37885
37879
37925
37954
37940
37949
37929
37932
37935
37918
37918
37895
37846
37788
37559
37887
37876
37877
37863
37831
37789
37775
37788
37767
37772
37774
37819
37850
37832
37839
37831
37816
37780
37659
37523
37432
37785
37774
37772
37767
37747
37695
37679
37673
37700
37666
37753
37744
37716
37716
37710
37679
37639
37567
37506
37347
37677
37690
37679
37663
37653
37663
37626
37623
37604
37558
37621
37631
37622
37615
37585
37557
37508
37359
37571
37575
37571
37551
37495
37519
37559
37547
37540
37516
37455
37295
37239
37332
37351
37381
37351
37279
37142
37467
37463
37468
37452
37433
37369
37367
37365
37349
37364
37407
37413
37335
37195
37368
37375
37355
37328
37289
37359
37354
37327
37285
37201
37323
37319
37303
37246
37255
37289
37303
37293
37271
37251
37247
37239
37239
37245
37190
37101
36927
36884
36866
37204
37197
37191
37147
37138
37172
37160
37151
37085
36980
37127
37138
37118
37123
37108
37062
37029
37044
37088
37095
37071
37051
37022
37007
36959
36745
37026
37022
37009
36955
36974
37014
37004
36989
36975
36911
36970
36932
36969
36814
36949
36943
36936
36919
36923
36907
36934
36903
36835
36891
36887
36871
36791
36732
36516
36860
36783
36850
36838
36823
36813
36738
36510
36807
36804
36795
36797
36756
36655
36507
36754
36759
36735
36749
36743
36705
36615
36717
36711
36702
36703
36691
36647
36687
36676
36680
36559
36667
36663
36654
36625
36583
36580
36555
36593
36571
36585
36580
36609
36603
36583
36567
36518
36383
36293
36551
36546
36546
36538
36518
36506
36506
36444
36445
36444
36447
36500
36487
36473
36465
36454
36469
36468
36453
36453
36450
36442
36433
36436
36382
36341
36344
36342
36334
36327
36356
36332
36340
36310
36327
36295
36293
36351
36348
36347
36335
36319
36278
36240
36239
36241
36239
36262
36246
36215
36039
36260
36253
36249
36259
36243
36220
36203
36209
36213
36191
36183
36141
36191
36183
36184
36175
36180
36175
36150
36164
36144
36142
36134
36135
36135
36132
36126
36119
36098
36095
36087
35812
35888
35831
35847
35871
36066
36052
36046
36044
36042
36028
35991
35974
36031
36007
36006
36003
35967
35975
35964
35956
35956
35949
35967
35963
35959
35957
35951
35926
35927
35900
35871
35871
35873
35871
35844
35841
35822
35782
35693
35862
35854
35863
35843
35838
35799
35813
35839
35836
35847
35827
35817
35803
35753
35711
35778
35781
35767
35783
35786
35778
35759
35745
35751
35759
35768
35749
35692
35687
35675
35708
35716
35701
35703
35684
35661
35637
35631
35668
35670
35665
35663
35654
35647
35639
35647
35639
35628
35623
35623
35607
35611
35597
35591
35589
35538
35541
35524
35543
35532
35581
35565
35544
35521
35499
35463
35430
35335
35327
35319
35278
35503
35508
35494
35495
35485
35493
35479
35477
35463
35462
35431
35404
35400
35463
35431
35419
35375
35326
35157
35396
35409
35404
35394
35351
35359
35403
35375
35207
35367
35367
35367
35354
35335
35295
35309
35310
35300
35324
35303
35308
35279
35257
35267
35243
35251
35303
35298
35299
35294
35286
35279
35284
35271
35249
35239
35087
35235
35236
35183
35245
35229
35229
35200
35164
35129
35076
34897
34951
35180
35183
35172
35186
35168
35167
35158
35125
35169
35110
34931
34847
35135
35133
35111
35071
35079
35076
35088
35111
35109
35097
35076
35052
35033
35020
35026
35016
34949
34951
34910
34898
34919
34983
34983
34991
34942
34987
34975
34983
34991
34983
