EGG
24327
24340
24301
24302
24300
24308
24307
24319
24396
24999
24298
24306
24315
24362
24312
24301
24316
24292
24335
24317
24403
24308
24348
24377
24305
24316
24319
24315
24351
24863
24297
24348
24367
24322
24324
24379
24548
24943
24308
24310
24323
24332
24351
24351
24356
24327
24324
24455
25036
24311
24348
24365
24335
24341
24533
24317
24319
24331
24335
24367
24380
24339
24350
24346
24391
24641
24314
24335
24350
24380
24403
24370
24351
24380
24590
24327
24357
24381
24394
24364
24394
24638
24344
24350
24391
24365
24392
24886
24359
24396
24372
24393
24668
24355
24391
24390
24377
24562
24359
24364
24415
24382
24401
24947
24357
24403
24382
24397
24681
24364
24431
24388
24423
24371
24398
24395
24391
24438
24370
24388
24433
24391
24406
24551
24371
24398
24447
24404
24409
24691
24398
24446
24407
24454
25012
24403
24438
24417
24425
24805
24400
24447
24413
24612
24391
24433
24417
24419
24487
24773
24403
24421
24467
24423
24435
24894
24416
24465
24421
24580
24418
24426
24441
24431
25159
24427
24461
24436
24783
24412
24468
24433
24487
24838
24413
24465
24431
24500
25095
24413
24476
24437
24961
24428
24485
24447
24629
24424
24445
24490
24454
24465
25076
24436
24485
24463
24455
24614
24441
24435
24486
24473
24486
25051
24450
24503
24463
24517
24408
24458
24516
24474
24495
24774
24455
24471
24527
24480
24524
24469
24484
24517
24487
24615
24457
24524
24491
24616
24484
24492
24492
24509
24470
24517
24515
24511
25215
24481
24550
24503
24815
24493
24521
24521
24629
24489
24535
24542
24549
25183
24501
24550
24519
24596
24505
24530
24533
24534
24947
24515
24580
24569
24521
24551
24547
24541
24711
24522
24578
24565
24535
24543
24551
24711
24519
24594
24560
24901
24548
24605
24571
25188
24577
24579
25033
24567
24575
24635
24554
24614
24578
24724
24571
24615
24591
24706
24565
24630
24591
24754
24580
24642
24599
24803
24579
24621
24607
24734
24594
24626
24606
24706
24599
24627
24763
24611
24621
24678
24607
24647
24617
24816
24624
24676
24652
24631
24660
24641
24679
24631
24674
24659
24783
24631
24687
24663
24772
24641
24673
24671
24671
25095
24662
24715
24673
24897
24663
24682
24719
24685
24732
25066
24676
24727
24687
24895
24687
24727
24715
24780
24686
24722
24721
24772
24711
24746
24723
24978
24702
24767
24724
24963
24713
24769
24725
24779
24727
24751
24783
24746
25127
24733
24767
24764
24864
24742
24775
24772
24750
24818
24793
24765
24791
24774
25071
24757
24803
24847
24768
24802
24782
25079
24779
24839
24811
25258
24787
24839
24800
24863
24803
24831
24830
24823
24799
24836
24817
25143
24835
24836
24909
24813
24874
24844
25503
24854
24849
25487
24855
24839
25408
24846
24874
24937
24847
24886
24881
25159
24865
24902
24871
24948
24851
24894
24903
24883
25159
24877
24925
24887
25307
24901
24936
24905
25404
24902
24913
25084
24903
24917
24953
24892
24931
24957
24924
24998
24920
24944
24936
24942
25220
24935
24945
24987
24951
24951
25031
25037
24965
24962
24964
24967
25001
25006
24996
24959
24967
24951
24962
24998
24989
24999
24993
24999
25012
25039
25121
25145
25102
25159
25250
25345
25231
25004
24998
25008
25007
25021
25030
25040
25084
25076
25089
25057
25045
25055
25053
25063
25074
25076
25078
25083
25117
25199
25442
25212
25254
25239
25342
25724
25076
25075
25089
25085
25101
25087
25095
25105
25149
25139
25132
25127
25130
25135
25167
25132
25138
25137
25131
25177
25266
25689
25130
25137
25136
25146
25143
25156
25134
25162
25643
25396
25303
25301
25377
25681
25581
25375
25180
25191
25181
25191
25197
25764
25613
25390
25367
25287
25245
25231
25233
25234
25238
25236
25239
25248
25279
25295
25288
25274
25255
25251
25257
25267
25280
25270
25272
25279
25287
25319
25525
25268
25317
25295
25331
25348
25350
25383
25371
25371
25413
25444
25479
25830
25316
25309
25323
25324
25351
25375
25383
25351
25351
25366
25402
25394
25459
25444
25446
25446
25617
25890
25364
25379
25365
25380
25386
25415
25423
25434
25405
25413
25420
25501
25759
25390
25422
25458
25441
25444
25486
25799
25433
25434
25443
25479
25450
25514
26069
25447
25471
25495
25503
25471
25487
25511
25628
26086
25466
25495
25532
25501
25513
25556
25916
25487
25519
25543
25543
25522
25541
25852
25524
25525
25564
25574
25548
25551
25573
25617
25692
25886
25543
25543
25591
25612
25588
25582
25580
25621
25569
25636
25612
25572
25599
25598
25621
25624
25644
25659
25660
25631
25628
25635
25691
25749
25928
25964
26009
25647
25641
25655
25701
25677
25682
25703
25766
25863
25675
25670
25682
25680
25707
25727
25717
25708
25800
25926
26190
25702
25711
25756
25739
25740
25759
25861
25951
26321
25743
25740
25761
25775
25791
25774
25778
25807
25837
25893
26039
26190
25772
25781
25809
25833
25810
25804
25847
25908
26027
26213
26276
25820
25815
25843
25863
25871
25844
25847
25863
25893
25999
26323
25838
25858
25891
25886
25881
25883
25943
26271
25863
25858
25876
25875
25897
25907
25927
25900
25917
25967
26356
25905
25892
25918
25911
25927
25941
25967
25957
25967
25988
25959
25956
25959
25967
25983
26080
26375
25953
25950
25975
25998
25997
26021
25985
25997
26043
26276
25986
25997
26033
26010
26098
26010
26020
26031
26065
26022
26036
26096
26028
26046
26080
26048
26092
26351
26040
26050
26069
26073
26101
26084
26083
26106
26169
26321
26577
26087
26100
26132
26148
26110
26203
26474
26116
26145
26132
26145
26341
26130
26167
26156
26501
26139
26172
26159
26196
26411
26159
26169
26187
26212
26185
26212
26359
26202
26187
26203
26231
26209
26228
26338
26261
26219
26229
26247
26233
26276
26419
26628
26240
26235
26264
26287
26270
26265
26279
26293
26343
26543
26278
26278
26284
26299
26311
26326
26343
26338
26349
26347
26319
26332
26335
26357
26389
26468
26466
26530
26802
26329
26340
26348
26359
26358
26375
26391
26409
26380
26391
26395
26406
26429
26460
26567
26631
26738
26404
26410
26405
26444
26457
26438
26435
26451
26559
26735
26925
26439
26461
26469
26487
26492
26475
26487
26483
26503
26623
26862
26495
26488
26490
26523
26519
26548
26548
26556
26528
26529
26539
26540
26542
26546
26554
26549
26558
26651
26694
26722
26844
26871
26834
26876
26569
26567
26573
26582
26589
26596
26628
26645
26625
26615
26615
26625
26625
26628
26631
26663
26670
26719
26863
27078
26647
26655
26662
26679
26665
26687
26713
26854
26674
26671
26681
26684
26715
26724
26696
26722
26799
27109
26706
26726
26727
26753
26759
26756
26762
26739
26743
26847
26748
26743
26775
26766
26814
27095
26757
26799
26786
26782
26815
26813
26846
26962
27166
27170
26799
26815
26829
26842
26810
26825
26887
27039
27231
26824
26834
26863
26847
26916
27225
26844
26861
26887
26866
26869
26875
26882
26903
27094
27247
27271
26884
26901
26914
26934
26941
26919
26908
26908
26930
26964
27099
26909
26918
26935
26946
26967
26938
27023
26933
26967
26974
26990
26982
26970
26975
26983
26983
27015
27191
26972
26988
26980
26997
27004
27029
27010
27285
26998
27029
27042
27053
27028
27074
27143
27375
27030
27054
27079
27063
27053
27083
27233
27069
27085
27097
27108
27089
27096
27159
27262
27087
27095
27109
27134
27107
27111
27163
27324
27111
27120
27127
27151
27157
27143
27156
27207
27501
27143
27161
27189
27180
27175
27191
27319
27163
27174
27189
27203
27207
27204
27221
27428
27543
27203
27217
27239
27223
27236
27335
27594
27222
27239
27263
27271
27243
27251
27268
27303
27419
27583
27203
27253
27269
27279
27294
27282
27298
27324
27454
27583
27668
27290
27300
27326
27347
27316
27325
27327
27355
27450
27686
27314
27332
27338
27359
27372
27343
27366
27467
27724
27351
27351
27359
27375
27389
27401
27407
27420
27396
27399
27409
27482
27686
27395
27420
27427
27441
27436
27426
27436
27449
27647
27439
27451
27473
27495
27617
27449
27461
27476
27485
27471
27479
27557
27841
27483
27519
27495
27505
27558
27611
27807
27511
27509
27536
27553
27524
27534
27534
27547
27591
27679
27687
27500
27549
27565
27587
27581
27564
27567
27591
27613
27599
27587
27596
27612
27634
27662
27710
27765
27900
27608
27614
27647
27622
27639
27655
27664
27671
27708
27764
27798
27951
27655
27662
27669
27688
27696
27679
27681
27706
27740
27794
27847
27911
28039
27692
27707
27713
27744
27724
27726
27748
27804
27727
27732
27743
27779
27774
27773
27759
27761
27772
27789
27834
27932
27769
27774
27781
27786
27801
27818
27820
27824
27833
27837
27807
27839
27957
28125
27823
27828
27835
27867
27842
27852
27860
27908
27980
27951
27982
28112
27860
27877
27871
27875
27888
27887
27898
27903
27919
27933
27922
27915
27911
27942
28227
27921
27935
27979
27924
27963
27945
28265
27949
27955
28115
27959
27982
27959
28151
27981
27977
28205
27988
28003
28281
27982
28017
28062
27991
28033
28063
27991
28021
28068
28020
28039
28194
28038
28035
28128
28039
28071
28101
28045
28075
28083
28051
28073
28079
28056
28089
28098
28063
28104
28109
28076
28108
28110
28080
28110
28109
28102
28132
28167
28106
28135
28156
28117
28126
28271
28156
28261
28163
28262
28162
28362
28180
28167
28157
28182
28186
28150
28196
28183
28389
28185
28190
28366
28190
28191
28231
28193
28225
28215
28474
28223
28207
28311
28204
28230
28242
28463
28240
28236
28401
28250
28263
28247
28269
28294
28251
28268
28367
28273
28262
28551
28293
28287
28279
28307
28295
28286
28310
28304
28455
28294
28305
28437
28309
28311
28557
28327
28341
28316
28363
28381
28324
28364
28396
28341
28355
28621
28361
28358
28371
28357
28391
28378
28383
28649
28387
28391
28670
28404
28401
28671
28409
28414
28518
28399
28429
28455
28410
28444
28428
28615
28423
28431
28497
28423
28455
28452
28679
28447
28447
28583
28458
28487
28484
28462
28487
28474
28539
28471
28479
28559
28482
28503
28493
28653
28499
28513
28719
28515
28532
28565
28788
28521
28524
28627
28522
28559
28554
28652
28545
28553
28551
28572
28486
28559
28583
28575
28647
28561
28583
28570
28637
28583
28599
28605
28579
28612
28607
28671
28593
28613
28631
28628
28748
28614
28636
28625
28732
28623
28647
28650
28752
28647
28662
28654
28651
28647
28662
28759
28662
28679
28692
28892
28678
28695
28697
28917
28694
28708
28702
28927
28689
28707
28738
28921
28703
28720
28721
28723
28726
28742
28746
28748
28748
28751
28735
28742
28750
28783
28847
28899
28817
28748
28754
28767
28761
28766
28775
28796
28793
28774
28794
28802
28807
28820
28833
28852
28868
28887
28927
28973
29007
28815
28801
28822
28823
28820
28821
28829
28828
28839
28837
28847
28850
28858
28869
28860
28882
28916
28991
28854
28868
28879
28963
28875
28895
29045
28895
28885
28956
28891
28899
28889
28902
29063
28916
28959
28905
28927
28927
28924
28942
28935
28929
28935
28953
28929
28935
28955
29035
28935
28966
28965
29105
28954
28959
29071
28967
28973
29020
28973
28980
28983
29079
28977
29000
29002
29191
28998
28999
29103
29006
29020
29012
29091
29004
29026
29030
29078
29019
29042
29045
29212
29039
29039
29060
29037
29063
29071
29230
29059
29072
29079
29249
29057
29087
29098
29077
29094
29181
29078
29083
29119
29084
29101
29090
29215
29095
29119
29114
29303
29117
29133
29148
29279
29118
29150
29141
29331
29127
29151
29158
29245
29156
29170
29187
29151
29175
29167
29220
29159
29188
29191
29325
29181
29196
29208
29370
29191
29191
29239
29190
29215
29229
29229
29349
29208
29223
29231
29242
29349
29231
29244
29259
29407
29255
29249
29310
29246
29255
29391
29276
29357
29279
29342
29285
29325
29286
29313
29292
29301
29291
29311
29297
29309
29292
29315
29309
29377
29319
29329
29335
29487
29335
29325
29388
29333
29335
29354
29350
29437
29341
29362
29359
29391
29518
29356
29371
29367
29377
29466
29366
29382
29386
29409
29484
29385
29404
29398
29442
29399
29414
29420
29583
29412
29423
29458
29415
29434
29455
29575
29432
29455
29460
29607
29455
29455
29503
29563
29460
29453
29477
29476
29487
29625
29478
29479
29497
29543
29479
29495
29508
29519
29623
29489
29519
29534
29689
29511
29516
29626
29523
29530
29557
29503
29527
29540
29559
29716
29545
29562
29562
29624
29553
29565
29566
29683
29559
29588
29591
29699
29588
29597
29599
29731
29605
29603
29684
29596
29619
29618
29719
29620
29620
29692
29623
29639
29623
29647
29701
29635
29654
29813
29655
29690
29652
29671
29790
29671
29686
29667
29676
29721
29671
29680
29844
29703
29726
29695
29716
29695
29703
29719
29698
29717
29730
29703
29713
29717
29799
29723
29741
29775
29735
29753
29767
29740
29759
29754
29749
29759
29754
29770
29863
29787
29847
29788
29836
29791
29790
29860
29788
29807
29815
29948
29798
29820
29823
29951
29828
29827
29951
29828
29831
29887
29835
29844
29842
29919
29836
29863
29872
29999
29867
29855
29974
29863
29882
29899
29866
29862
29889
29900
29892
29895
29887
29897
29905
29919
29946
29973
30002
30014
30051
29915
29927
29919
29937
29945
29932
29957
30004
29935
29943
29945
29973
29943
29959
29975
30028
30112
29965
29959
29996
29980
29986
30037
30084
30135
29990
29991
30006
30004
30015
30030
30060
30103
30153
30015
30015
30020
30035
30035
30032
30057
30107
30151
30036
30037
30044
30059
30045
30073
30111
30186
30055
30076
30074
30066
30077
30105
30143
30167
30071
30101
30098
30126
30171
30076
30092
30091
30100
30109
30110
30140
30164
30215
30114
30114
30131
30127
30133
30146
30181
30215
30135
30135
30146
30159
30155
30183
30230
30155
30164
30165
30175
30193
30278
30167
30169
30183
30177
30197
30207
30231
30287
30190
30191
30212
30197
30218
30196
30223
30266
30327
30221
30215
30229
30226
30239
30252
30246
30251
30244
30269
30303
30383
30255
30265
30268
30277
30278
30281
30287
30300
30345
30374
30285
30278
30299
30289
30303
30319
30306
30314
30325
30356
30361
30394
30438
30406
30321
30329
30339
30337
30338
30339
30358
30366
30405
30468
30357
30359
30365
30368
30373
30380
30415
30503
30373
30382
30389
30390
30395
30406
30446
30391
30407
30421
30407
30407
30431
30471
30519
30482
30421
30422
30439
30439
30439
30464
30503
30524
30454
30455
30463
30462
30471
30488
30537
30468
30471
30484
30503
30493
30488
30509
30516
30551
30572
30612
30511
30509
30518
30522
30531
30535
30534
30534
30535
30538
30555
30564
30593
30631
30662
30653
30561
30551
30575
30575
30580
30578
30577
30599
30615
30655
30588
30591
30586
30607
30591
30623
30671
30599
30603
30613
30621
30606
30622
30644
30671
30693
30725
30633
30634
30643
30660
30656
30655
30660
30663
30679
30695
30711
30763
30667
30674
30676
30684
30692
30686
30696
30727
30779
30700
30701
30710
30711
30721
30756
30783
30751
30723
30718
30722
30727
30727
30727
30751
30757
30796
30751
30746
30754
30751
30762
30767
30761
30783
30819
30827
30769
30780
30775
30783
30776
30793
30827
30794
30797
30811
30810
30813
30823
30851
30892
30823
30819
30815
30819
30823
30827
30836
30850
30882
30916
30837
30845
30851
30852
30863
30852
30862
30860
30869
30868
30895
30926
30903
30879
30887
30881
30901
30909
30927
30967
30895
30899
30907
30903
30908
30928
30942
30967
30990
30922
30920
30919
30922
30927
30948
30967
31031
30939
30942
30950
30951
30953
30967
31013
31046
30950
30949
30964
30973
30980
30975
31007
31015
30967
30974
30983
31006
31035
31092
31001
31004
31004
31006
31030
31103
31017
31015
31020
31027
31047
31067
31023
31029
31041
31035
31041
31077
31115
31039
31052
31063
31055
31060
31086
31103
31133
31060
31065
31069
31085
31073
31095
31101
31193
31095
31103
31191
31101
31115
31097
31108
31132
31114
31108
31149
31117
31124
31165
31124
31119
31173
31118
31138
31143
31231
31143
31151
31223
31149
31160
31263
31151
31172
31279
31165
31169
31244
31191
31186
31228
31183
31184
31259
31191
31197
31271
31188
31209
31325
31206
31255
31210
31214
31300
31223
31217
31312
31229
31227
31281
31235
31239
31281
31233
31260
31271
31239
31263
31280
31391
31261
31275
31399
31271
31266
31327
31268
31276
31301
31278
31302
31310
31427
31302
31298
31415
31318
31327
31308
31301
31421
31317
31311
31452
31322
31335
31439
31332
31330
31454
31363
31363
31342
31345
31364
31468
31366
31367
31351
31364
31428
31367
31364
31465
31379
31383
31511
31383
31391
31471
31399
31399
31540
31402
31417
31401
31402
31383
31414
31482
31428
31431
31579
31431
31470
31433
31439
31573
31439
31466
31449
31436
31535
31453
31462
31537
31463
31461
31567
31463
31471
31571
31468
31483
31583
31479
31494
31597
31495
31503
31541
31502
31514
31597
31503
31514
31630
31511
31530
31574
31534
31531
31613
31534
31529
31679
31542
31541
31661
31549
31551
31631
31559
31570
31623
31581
31583
31634
31577
31593
31644
31583
31604
31628
31591
31600
31751
31611
31614
31711
31621
31750
31631
31655
31619
31642
31638
31634
31641
31751
31644
31655
31664
31646
31731
31651
31651
31722
31663
31692
31722
31668
31684
31679
31839
31695
31686
31782
31685
31693
31743
31707
31723
31735
31710
31725
31791
31719
31727
31861
31735
31738
31839
31759
31779
31743
31759
31767
31764
31759
31783
31767
31783
31799
31770
31785
31836
31780
31781
31923
31790
31791
31879
31791
31812
31828
31796
31804
31868
31814
31829
31851
31819
31849
31839
31941
31836
31847
31882
31834
31836
31941
31834
31853
32018
31863
31871
32039
31887
31911
31883
31895
31911
32021
31902
31892
31958
31892
31908
31969
31894
31915
32063
31919
31911
32031
31931
31916
32048
31940
31933
32070
31940
31939
32015
31942
31943
32023
31947
31978
31988
32151
31962
31980
31978
32150
31972
31986
32013
32185
31972
31999
32039
32179
31999
31975
32055
31988
32015
32007
32049
32007
32023
32019
32042
32031
32031
32145
32036
32037
32151
32039
32033
32084
32047
32067
32047
32111
32071
32052
32166
32063
32079
32069
32182
32079
32079
32295
32093
32109
32087
32102
32109
32095
32119
32115
32319
32113
32109
32199
32109
32134
32143
32111
32129
32135
32214
32135
32141
32146
32263
32142
32159
32185
32148
32162
32173
32311
32172
32167
32253
32178
32197
32199
32364
32196
32189
32342
32197
32207
32341
32199
32219
32293
32217
32219
32325
32218
32228
32389
32231
32238
32324
32256
32322
32252
32274
32451
32252
32277
32472
32255
32263
32309
32287
32282
32279
32351
32287
32303
32331
32291
32292
32430
32301
32311
32389
32311
32323
32479
32335
32335
32331
32343
32379
32336
32348
32358
32564
32347
32358
32372
32454
32359
32388
32367
32564
32389
32372
32431
32375
32391
32431
32391
32415
32430
32404
32427
32426
32455
32431
32454
32411
32437
32460
32425
32444
32452
32652
32460
32450
32565
32457
32471
32503
32459
32485
32498
32471
32487
32493
32687
32495
32508
32487
32511
32519
32536
32518
32519
32645
32517
32519
32727
32535
32551
32527
32551
32557
32532
32558
32619
32548
32551
32635
32567
32575
32668
32567
32577
32734
32588
32603
32794
32590
32589
32654
32599
32615
32658
32605
32623
32631
32799
32625
32629
32631
32637
32682
32636
32639
32762
32639
32646
32853
32661
32663
32663
32669
32697
32654
32662
32797
32682
32697
32682
32708
32748
32699
32692
32863
32705
32716
32710
32726
32767
32708
32733
32740
32727
32730
32750
32695
32749
32762
32739
32757
32746
32868
32756
32743
32847
32754
32775
32805
32765
32786
32767
32836
32775
32791
32802
32959
32795
32788
32892
32807
32797
32857
32807
32835
32836
32821
32832
32887
32831
32833
32894
32838
32863
32860
32839
32868
32861
33000
32863
32855
32961
32867
32871
32912
33095
32894
32871
32965
32895
32915
32903
33114
32903
32903
32943
33031
32919
32923
33031
32921
32947
32933
33059
32922
32947
32970
33164
32951
32942
33023
32959
32956
32967
33007
32964
32975
32969
33094
32973
32995
33052
32991
32998
33017
33003
32995
32996
33060
33012
33031
33044
33199
33031
33023
33092
33028
33047
33052
33046
33062
33141
33058
33046
33204
33063
33085
33102
33287
33071
33083
33205
33071
33099
33087
33143
33099
33117
33111
33308
33115
33109
33189
33116
33130
33159
33117
33146
33172
33127
33151
33151
33303
33159
33141
33219
33157
33171
33159
33274
33172
33173
33247
33173
33187
33191
33263
33187
33199
33206
33255
33192
33221
33287
33231
33308
33223
33227
33446
33238
33253
33236
33249
33335
33238
33247
33417
33255
33279
33443
33269
33271
33278
33260
33287
33311
33447
33505
33285
33294
33316
33305
33311
33372
33543
33317
33321
33317
33335
33439
33321
33329
33335
33365
33583
33346
33361
33394
33355
33369
33359
33407
33615
33369
33377
33390
33382
33444
33391
33395
33406
33398
33415
33439
33500
33665
33415
33425
33438
33441
33437
33473
33517
33655
33447
33445
33455
33466
33455
33476
33511
33525
33575
33721
33475
33476
33476
33505
33494
33511
33583
33749
33508
33516
33524
33539
33523
33611
33758
33535
33543
33559
33543
33572
33719
33559
33557
33561
33684
33576
33565
33591
33687
33588
33603
33602
33621
33791
33590
33606
33636
33611
33659
33860
33633
33629
33652
33649
33685
33844
33644
33655
33678
33652
33701
33843
33664
33671
33679
33703
33682
33716
33903
33707
33718
33719
33724
33700
33727
33748
33799
33917
33989
33737
33739
33759
33751
33761
33895
33759
33757
33783
33786
33766
33786
33838
33970
33775
33799
33807
33799
33827
33892
34043
33815
33827
33839
33837
33827
33871
33948
33846
33845
33849
33863
33875
33879
33865
33876
33895
33943
34011
33884
33887
33886
33903
33918
33911
33920
33943
34004
34173
33925
33927
33948
33935
34023
33936
33952
33959
33964
34022
34200
33951
33975
33995
33986
34055
34229
33998
34007
34004
33999
34023
34095
34190
34023
34022
34036
34039
34046
34112
34255
34039
34055
34055
34070
34175
34295
34077
34076
34089
34060
34085
34119
34143
34199
34375
34106
34127
34135
34118
34149
34220
34140
34129
34151
34163
34158
34149
34164
34207
34337
34446
34167
34178
34196
34197
34216
34183
34229
34293
34455
34213
34209
34239
34215
34253
34253
34412
34234
34242
34260
34247
34268
34324
34443
34516
34271
34276
34279
34266
34319
34455
34287
34299
34311
34301
34311
34346
34412
34565
34327
34325
34343
34334
34355
34335
34364
34404
34519
34351
34351
34366
34390
34356
34412
34461
34495
34589
34652
34575
34383
34393
34410
34417
34410
34431
34460
34623
34415
34422
34452
34427
34487
34564
34439
34439
34460
34471
34458
34515
34658
34458
34471
34479
34487
34477
34491
34533
34612
34734
34495
34494
34516
34525
34501
34542
34648
34524
34534
34545
34540
34537
34565
34587
34612
34667
34559
34567
34575
34572
34601
34717
34580
34580
34592
34604
34599
34647
34823
34607
34611
34623
34609
34639
34736
34633
34653
34651
34651
34773
34651
34665
34650
34708
34844
34669
34669
34686
34670
34688
34703
34711
34778
34949
34692
34698
34715
34724
34756
34879
34719
34719
34737
34733
34748
34797
34916
34756
34758
34767
34745
34791
34879
34764
34777
34783
34778
34789
34821
34892
34940
34781
34818
34802
34872
35067
34821
34823
34817
34846
34903
34836
34848
34842
34862
34881
34855
34893
34951
34867
34872
34891
34902
34883
34896
34999
35164
34895
34911
34919
34919
34974
34927
34927
34943
34927
34977
35039
35212
34951
34951
34975
34950
34987
35070
35199
34979
34986
34981
35006
34986
34999
35031
35184
35007
35031
35030
35020
35052
35150
35028
35031
35053
35053
35075
35044
35068
35079
35111
35179
35239
35268
35079
35079
35079
35095
35079
35099
35111
35108
35127
35111
35117
35174
35231
35367
35119
35138
35141
35142
35143
35173
35223
35311
35415
35165
35171
35179
35185
35185
35196
35189
35183
35214
35266
35412
35199
35219
35215
35231
35227
35261
35399
35221
35239
35250
35233
35271
35329
35481
35253
35268
35277
35275
35272
35313
35409
35442
35303
35291
35311
35296
35439
35311
35331
35399
35311
35322
35335
35319
35359
35455
35332
35341
35365
35352
35382
35447
35568
35360
35373
35382
35400
35495
35383
35393
35379
35402
35460
35543
35404
35421
35406
35463
35639
35417
35439
35442
35427
35426
35489
35627
35445
35450
35463
35474
35508
35471
35454
35477
35469
35503
35647
35477
35479
35514
35498
35515
35581
35684
35541
35510
35527
35516
35535
35558
35662
35540
35546
35550
35558
35543
35553
35590
35771
35568
35583
35567
35604
35711
35586
35591
35599
35607
35665
35804
35605
35612
35634
35612
35637
35627
35652
35679
35743
35845
35655
35657
35658
35669
35644
35668
35687
35687
35751
35773
35837
35690
35693
35693
35706
35719
35717
35783
35904
35719
35716
35725
35731
35735
35751
35748
35811
35751
35765
35772
35884
35764
35780
35823
35782
35843
35797
35860
35796
35793
35927
35799
35799
35893
35815
35833
35847
36011
35828
35833
35878
36011
35839
35844
35906
35847
35875
35878
35947
35874
35887
35871
35966
35892
35909
35907
36031
35907
35925
35959
36036
35924
35924
35999
35940
35948
35972
35941
35962
35980
36071
35969
35982
35983
36134
35986
35983
36127
35983
35989
36119
35993
36007
36187
36020
36020
36090
36017
36037
36059
36040
36047
36047
36168
36049
36068
36143
36207
36071
36073
36120
36084
36090
36099
36197
36103
36122
36131
36306
36123
36103
36222
36118
36151
36171
36142
36151
36157
36226
36151
36180
36162
36279
36170
36183
36180
36192
36247
36188
36201
36266
36214
36212
36279
36220
36239
36238
36379
36247
36237
36319
36255
36249
36279
36263
36266
36290
36455
36279
36292
36285
36292
36390
36298
36302
36482
36324
36348
36327
36319
36501
36319
36351
36511
36350
36375
36495
36350
36370
36359
36370
36478
36383
36394
36559
36398
36391
36484
36407
36413
36495
36426
36429
36492
36432
36439
36484
36446
36468
36471
36469
36465
36503
36469
36479
36498
36637
36487
36493
36541
36511
36516
36519
36647
36531
36547
36525
36545
36566
36663
36554
36582
36709
36575
36565
36650
36571
36575
36615
36586
36596
36660
36597
36599
36687
36607
36615
36775
36631
36728
36635
36668
36644
36655
36766
36671
36687
36669
36671
36779
36693
36771
36691
36787
36706
36798
36709
36735
36863
36719
36772
36743
36738
36791
36741
36743
36783
36768
36773
36774
36847
36774
36780
36869
36791
36804
36919
36804
36819
36902
36815
36824
36828
36927
36839
36844
36902
36846
36863
36860
36991
36871
36881
36988
36871
36881
36937
36892
36909
36956
36898
36910
36949
36913
36927
36954
36943
36943
36990
36947
36948
37037
36959
36975
37009
37023
36983
36987
37055
36989
36998
37019
37125
37019
37012
37087
37028
37045
37141
37046
37071
37045
37058
37063
37158
37060
37095
37076
37074
37115
37094
37089
37105
37210
37100
37109
37186
37118
37127
37150
37221
37135
37169
37215
37157
37166
37255
37172
37183
37255
37182
37196
37268
37191
37205
37255
37206
37220
37237
37307
37222
37241
37292
37244
37240
37279
37240
37263
37281
37254
37257
37299
37263
37279
37374
37278
37316
37295
37305
37351
37313
37314
37359
37311
37327
37397
37333
37349
37383
37355
37336
37383
37351
37366
37415
37364
37372
37411
37367
37383
37405
37397
37401
37407
37446
37421
37447
37408
37428
37476
37423
37453
37442
37445
37463
37438
37459
37493
37449
37474
37479
37493
37474
37495
37479
37494
37526
37499
37508
37542
37503
37503
37541
37511
37533
37551
37578
37535
37541
37565
37554
37559
37583
37559
37567
37570
37599
37577
37588
37610
37588
37598
37630
37596
37620
37648
37615
37636
37639
37636
37639
37661
37669
37638
37660
37661
37685
37663
37665
37686
37685
37683
37697
37687
37696
37714
37716
37709
37719
37717
37723
37735
37733
37724
37741
37758
37740
37751
37767
37759
37774
37775
37767
37767
37773
37791
37783
37795
37802
37797
37799
37823
37802
37812
37831
37815
37833
37834
37844
37747
37853
37855
37852
37854
37862
37881
37863
37874
37881
37895
37879
37890
37895
37895
37887
37895
37924
37888
37909
37927
37917
37931
37927
37945
37895
37941
37956
37885
37951
37964
37895
37979
37967
37962
37981
37991
37982
37993
37997
38004
37999
38013
37974
38029
38031
37975
38023
38023
38036
38047
37995
38045
38074
38027
38053
38074
38038
38076
38086
38044
38077
38092
38005
38091
38079
38103
38119
38063
38108
38124
38039
38119
38130
38124
38129
38143
38140
38147
38158
38100
38163
38156
38165
38044
38176
38178
38177
38176
38188
38190
38191
38187
38215
38164
38207
38224
38199
38207
38215
38200
38223
38239
38161
38236
38235
38244
38236
38217
38246
38245
38271
38163
38266
38279
38167
38264
38267
38277
38287
38279
38279
38199
38295
38315
38243
38306
38324
38207
38319
38317
38311
38313
38311
38337
38324
38340
38333
38333
38321
38345
38336
38352
38252
38351
38354
38364
38379
38334
38381
38370
38359
38379
38383
38374
38391
38407
38334
38400
38417
38276
38407
38423
38253
38407
38430
38427
38407
38444
38331
38442
38463
38397
38453
38437
38423
38444
38446
38446
38469
38463
38427
38478
38485
38473
38468
38479
38495
38469
38495
38497
38471
38492
38497
38495
38527
38503
38495
38509
38519
38503
38473
38534
38545
38495
38531
38543
38421
38549
38553
38335
38546
38550
38572
38580
38468
38581
38583
38400
38579
38599
38535
38591
38599
38439
38596
38605
38605
38588
38605
38541
38599
38613
38614
38622
38608
38619
38639
38606
38625
38631
38648
38586
38647
38622
38655
38639
38637
38660
38470
38659
38679
38585
38663
38636
38620
38674
38695
38588
38694
38711
38681
38691
38687
38705
38535
38713
38709
38546
38713
38729
38567
38724
38738
38585
38722
38740
38727
38719
38740
38535
38746
38756
38687
38743
38725
38756
38603
38759
38734
38754
38763
38762
38787
38663
38783
38767
38782
38761
38787
38783
38788
38563
38804
38815
38731
38810
38791
38791
38812
38839
38796
38815
38815
38844
38726
38831
38815
38822
38837
38843
38855
38679
38839
38863
38682
38858
38867
38629
38847
38868
38865
38831
38878
38876
38838
38863
38866
38876
38843
38894
38842
38876
38671
38887
38918
38807
38889
38879
38892
38900
38895
38885
38903
38917
38893
38914
38892
38901
38915
38919
38949
38807
38933
38947
38829
38940
38903
38919
38951
38907
38951
38700
38948
38967
38868
38964
38943
38935
38964
38933
38956
38966
38973
38989
38929
38982
38965
38940
38987
38980
38967
39004
38954
39001
38737
38998
39018
38846
39007
39022
38951
39015
38964
39015
39013
39022
38919
39020
39023
39027
38995
39035
38885
39021
39047
38964
39031
39047
38919
39059
39070
38951
39038
39057
38804
39047
39067
39057
39013
39029
39060
39095
38807
39036
39047
39077
39039
39083
39076
39037
39079
39075
39031
39051
39096
39100
38919
39082
39111
39100
39082
39119
38829
39081
39100
39108
39115
39004
39107
39119
38935
39122
39087
39111
39124
39111
39127
39005
39127
39143
39093
39118
39095
39144
39039
39139
39162
39132
39124
39167
38983
39141
39103
39159
38911
39159
39110
39165
39002
39161
39147
39140
39162
39135
39167
39175
39142
39163
39167
39125
39189
38943
39175
39161
39193
39175
39141
39191
38946
39199
39207
39104
39195
39183
39192
39192
39207
39209
39190
39198
39175
39235
39118
39220
39235
39162
39220
39215
39239
39231
38944
39227
39212
39226
39091
39231
39249
39221
39231
39228
39255
39236
38991
39236
39261
39171
39237
39199
39263
39235
39255
39247
39186
39254
39114
39256
39267
39205
39263
39200
39260
39260
39231
39271
39159
39263
39245
39257
39228
39263
39159
39271
39275
39009
39287
39294
39215
39287
39247
39284
39290
39276
39302
39164
39281
39252
39302
39061
39288
39236
39292
39068
39294
39276
39308
39303
39323
39303
39292
39298
39311
39254
39311
39316
39291
39327
39325
39279
39311
39311
39311
39293
39324
39332
39129
39316
39337
39327
39279
39287
39318
39340
39079
39303
39335
39015
39310
39323
39327
39273
39315
39319
39335
39066
39303
39335
39329
39351
39271
39324
39351
39335
39270
39325
39332
39349
39169
39348
39335
39301
39335
39298
39319
39343
39347
39105
39338
39359
39058
39335
39338
39039
39343
39353
39143
39343
39353
39039
39349
39349
39343
39271
39303
39346
39364
39225
39348
39356
39116
39335
39350
39079
39303
39358
39357
39284
39351
39351
39319
39302
39348
39355
39349
39304
39291
39364
39355
39156
39348
39375
39228
39346
39362
39067
39335
39364
39364
39319
39364
39373
39327
39229
39311
39361
39375
39381
39190
39303
39332
39374
39375
39359
39318
39365
39372
39286
39375
39054
39369
39383
39350
39379
39353
39386
39259
39364
39333
39377
39066
39319
39371
39367
39391
39093
39374
39375
39372
39315
39366
39368
39338
39335
39376
39398
39287
39383
39393
39268
39389
39362
39379
39381
39327
39391
39077
39377
39399
39343
39383
39335
39396
39054
39379
39397
39295
39389
39390
39376
39383
39338
39399
39269
39391
39319
39380
39399
39319
39370
39396
39389
39403
39220
39391
39415
39343
39397
39335
39399
39077
39391
39413
39372
39393
39366
39399
39388
39351
39415
39103
39391
39406
39397
39335
39399
39390
39341
39410
39399
39390
39429
39348
39396
39337
39391
39405
39343
39397
39407
39355
39404
39210
39389
39404
39286
39391
39407
39365
39399
39333
39375
39391
39422
39215
39394
39406
39131
39369
39399
39249
39388
39405
39405
39396
39351
39421
39207
39393
39420
39302
39403
39415
39374
39399
39373
39396
39420
39367
39340
39411
39407
39247
39399
39417
39399
39335
39399
39401
39412
39044
39323
39313
39397
39416
39393
39349
39237
39333
39381
39396
39413
39047
39374
39415
39047
39350
39387
39407
39414
39236
39375
39399
39401
39364
39276
39390
39404
39382
39345
39333
39399
39399
39072
39381
39396
39399
39407
39146
39375
39395
39375
39391
39393
39303
39380
39383
39407
39119
39374
39383
39383
39391
39235
39335
39371
39383
39382
39373
39385
39381
39380
39019
39383
39251
39375
39394
39079
39362
39380
39377
39387
39219
39381
39391
39069
39355
39375
39365
39391
39286
39367
39381
39381
39292
39356
39375
39388
39303
39375
39383
39239
39368
39383
39085
39327
39376
39111
39287
39381
39068
39311
39377
39238
39372
39303
39359
39380
39377
39018
39359
39039
39380
39365
39378
39367
39375
39354
39367
39370
39367
39354
39359
39363
39368
39315
39365
39295
39367
39211
39357
39303
39364
39351
39290
39348
39354
39370
39302
39357
39300
39332
39361
39364
39170
39295
39237
39327
39350
39347
39370
39351
39285
39287
39343
39370
39345
39351
39303
39342
39365
39359
39295
39342
39365
39271
39353
39345
39287
39331
39355
39284
39311
39349
39318
39148
39271
39247
39291
39189
39351
39368
39319
39355
39295
39349
39329
39303
39362
39047
39359
39361
39214
39348
39367
39019
39336
39367
39231
39341
39361
38999
39327
39357
39343
39287
39352
39354
39321
39356
39260
39341
39265
39350
39105
39348
39365
39231
39349
39362
39335
39345
39333
39333
39357
39301
39357
39341
39319
39274
39347
39361
39319
39351
39303
39351
39199
39341
39357
39295
39348
39295
39358
39143
39343
39367
39286
39347
39351
39231
39341
39363
39324
39351
39275
39349
39343
39329
39363
39229
39340
39359
39359
39351
39340
39343
39085
39343
39363
39135
39340
39270
39358
39274
39331
39326
39363
39171
39351
39361
39321
39343
39342
39323
39335
39332
39271
39356
39139
39338
39367
39279
39343
39274
39351
39351
39319
39363
39349
39335
39366
39159
39343
39367
39075
39343
39363
39223
39367
39334
39338
39348
39359
39367
39335
39359
39295
39353
39359
39330
39355
39143
39349
39366
39223
39365
39367
39324
39365
39294
39357
39020
39359
39375
39349
39324
39351
39357
39303
39365
39361
39335
39345
39364
39343
39383
39116
39357
39379
39287
39356
39342
39383
39311
39357
39375
39301
39351
39372
39212
39367
39372
39075
39351
39382
39175
39359
39335
39365
39373
39347
39365
39134
39372
39378
39343
39387
39324
39395
39111
39373
39390
39217
39375
39389
39279
39366
39399
39159
39359
39383
39380
39364
39300
39388
39385
39063
39351
39381
39393
39398
39319
39388
39407
39159
39389
39396
39397
39327
39391
39399
39342
39385
39391
39357
39290
39391
39407
39405
39403
39222
39399
39367
39410
39317
39396
39407
39345
39413
39379
39084
39405
39348
39417
39357
39415
39399
39421
39404
39259
39423
39415
39355
39424
39423
39346
39423
39418
39363
39431
39335
39415
39381
39441
39431
39407
39285
39425
39425
39351
39447
39405
39096
39421
39374
39447
39431
39420
39119
39447
39431
39415
39431
39293
39447
39431
39431
39450
39318
39431
39431
39414
39404
39463
39454
39431
39296
39443
39431
39445
39397
39479
39455
39362
39463
39470
39399
39479
39451
39233
39466
39471
39407
39473
39491
39474
39405
39249
39473
39463
39467
39404
39495
39485
39233
39476
39476
39495
39498
39487
39453
39217
39484
39425
39495
39497
39398
39479
39490
39465
39509
39494
39454
39504
39503
39503
39303
39498
39505
39486
39485
39515
39183
39471
39490
39495
39513
39511
39427
39483
39508
39518
39239
39503
39508
39511
39451
39500
39507
39449
39485
39527
39526
39495
39451
39523
39518
39527
39330
39521
39527
39516
39479
39526
39523
39453
39495
39535
39467
39471
39521
39540
39335
39523
39535
39356
39527
39493
39525
39221
39533
39479
39535
39532
39491
39549
39265
39534
39559
39502
39559
39533
39531
39548
39327
39535
39558
39295
39551
39508
39551
39399
39559
39519
39566
39463
39559
39516
39582
39517
39567
39531
39572
39557
39570
39570
39588
39491
39575
39591
39518
39595
39495
39559
39577
39527
39575
39572
39533
39580
39587
39538
39610
39277
39583
39604
39546
39590
39608
39535
39595
39543
39607
39599
39535
39589
39604
39567
39540
39607
39626
39559
39619
39633
39503
39615
39638
39479
39623
39643
39301
39621
39639
39460
39636
39650
39582
39639
39575
39623
39639
39598
39645
39650
39611
39652
39653
39654
39662
39590
39655
39614
39633
39659
39621
39577
39653
39681
39369
39646
39668
39407
39677
39639
39662
39671
39648
39692
39335
39678
39695
39380
39669
39699
39557
39701
39631
39710
39687
39663
39719
39367
39683
39723
39601
39717
39719
39558
39709
39729
39709
39654
39729
39486
39735
39737
39687
39727
39727
39747
39701
39735
39687
39751
39653
39751
39669
39751
39740
39723
39754
39746
39721
39767
39423
39747
39771
39623
39775
39751
39759
39754
39701
39751
39758
39785
39647
39773
39734
39788
39780
39719
39781
39783
39727
39782
39778
39814
39500
39773
39807
39807
39815
39484
39743
39790
39799
39815
39763
39805
39821
39582
39807
39826
39823
39756
39735
39804
39833
39815
39761
39822
39823
39757
39821
39829
39767
39825
39823
39756
39844
39499
39844
39842
39505
39783
39836
39855
39809
39797
39839
39856
39743
39854
39871
39511
39807
39862
39869
39796
39867
39871
39892
39766
39879
39884
39874
39873
39855
39899
39599
39876
39899
39531
39876
39903
39548
39855
39903
39903
39823
39815
39903
39918
39855
39921
39925
39557
39834
39923
39615
39911
39937
39775
39927
39916
39799
39934
39943
39773
39943
39959
39847
39935
39895
39943
39943
39877
39943
39954
39916
39857
39971
39973
39782
39957
39969
39969
39943
39973
39972
39889
39959
39975
39908
39964
39980
39999
39921
39981
39943
39942
39991
39989
40014
39889
40002
39959
39991
40005
39943
40016
40012
39998
40033
39772
40015
40037
39831
40023
40045
39954
40028
40034
40039
39975
40063
39673
40035
40068
39783
40045
40063
39974
40060
39996
40059
40071
40027
40039
40076
40094
39985
40077
40103
39940
40079
40084
39966
40079
40099
40081
40087
40015
40102
40103
40099
40121
39978
40103
40129
40071
40111
40102
40132
40015
40105
40141
39779
40090
40135
39787
40135
40164
39999
40140
40147
40093
40152
40083
40180
40162
40086
40169
40170
40089
40159
40159
40166
40084
40182
40190
40175
40190
40190
40197
40196
40213
39973
40194
40219
39943
40193
40228
40207
40170
40234
40231
40191
40236
40135
40239
40245
40223
40185
40237
40239
40263
40097
40251
40261
39925
40231
40268
40254
40263
40229
40271
40291
39967
40251
40295
39994
40266
40292
40276
40308
40288
40230
40224
40280
40314
40324
40310
40136
40319
40327
40319
40295
40343
40343
40284
40295
40327
40330
40317
40348
40327
40367
40302
40355
40359
40300
40351
40322
40380
40045
40367
40389
40373
40357
40375
40375
40315
40389
40398
40397
40409
40231
40399
40423
40243
40391
40418
40407
40343
40413
40423
40391
40348
40437
40443
40091
40391
40441
40446
40447
40327
40447
40455
40219
40436
40455
40455
40455
40455
40455
40487
40343
40469
40492
40407
40479
40450
40501
40495
40439
40455
40501
40447
40508
40515
40455
40494
40511
40455
40531
40527
40483
40535
40178
40547
40565
40487
40551
40478
40567
40225
40538
40558
40316
40519
40570
40571
40538
40583
40583
40547
40560
40582
40599
40559
40597
40611
40591
40607
40607
40493
40547
40269
40604
40471
40593
40627
40631
40631
40515
40628
40645
40455
40655
40647
40378
40647
40661
40625
40668
40652
40650
40669
40687
40556
40686
40695
40665
40687
40635
40700
40343
40679
40711
40453
40704
40722
40601
40711
40733
40560
40711
40743
40506
40727
40748
40535
40711
40747
40748
40682
40765
40740
40724
40746
40764
40711
40748
40775
40783
40606
40774
40795
40791
40711
40788
40783
40739
40802
40497
40807
40807
40810
40823
40813
40839
40647
40767
40835
40831
40836
40771
40815
40845
40860
40500
40823
40871
40518
40839
40883
40549
40839
40879
40877
40862
40895
40527
40892
40893
40789
40891
40837
40900
40549
40899
40922
40879
40911
40858
40901
40926
40939
40924
40913
40942
40935
40879
40935
40943
40899
40941
40959
40907
40820
40928
40981
40981
40897
40967
40887
40815
40983
40999
40943
41015
40967
40687
41001
40985
41023
41005
40650
41029
40958
41033
41001
40676
41037
41026
41017
41057
40948
41052
41050
41057
41063
40711
41062
41002
41076
41031
40782
41062
41069
41095
41044
41079
41077
41100
41085
41077
41077
41103
41079
40759
41109
41095
41107
41119
40887
41111
41127
41101
41127
41095
41124
41127
40807
41122
41135
41132
40783
41143
41095
41147
41044
41158
41155
41080
41167
41166
41108
40839
41157
41159
41158
41191
41052
41183
41149
41167
41191
41015
41190
41183
41119
41220
41121
41205
41203
41177
41141
41223
41198
41031
41215
41218
41157
41086
41220
41234
41148
41236
41250
41164
41239
41260
40899
41183
41240
41258
41258
40893
41239
41255
41271
41246
41197
41258
41285
41283
41221
41279
41284
41263
41188
41290
41323
40924
41287
41326
40980
41287
41317
41095
41327
41327
41321
41258
41311
41319
41343
41334
41263
41337
41343
41351
41345
41287
41343
41363
41341
41295
41351
41303
41318
41365
41380
41204
41374
41383
41380
41321
41375
41387
41402
41275
41385
41427
41412
41333
41335
41410
41423
41038
41409
41431
41069
41434
41419
41439
41119
41424
41443
41434
41391
41431
41446
41370
41428
41449
41463
41381
41463
41476
41421
41457
41479
41442
41463
41467
41455
41479
41423
41479
41479
41415
41492
41501
41436
41435
41501
41511
41143
41479
41516
41521
41527
41286
41520
41532
41300
41535
41549
41270
41526
41557
41507
41551
41549
41531
41562
41567
41312
41565
41581
41561
41479
41577
41572
41598
41447
41573
41583
41586
41575
41508
41599
41607
41242
41545
41607
41604
41619
41447
41591
41607
41615
41621
41569
41630
41635
41629
41559
41620
41631
41567
41623
41636
41647
41319
41583
41621
41655
41670
41655
41575
41663
41655
41663
41563
41659
41692
41404
41639
41673
41677
41668
41639
41687
41691
41306
41639
41692
41692
41635
41683
41703
41716
41323
41630
41722
41727
41727
41708
41725
41722
41740
41506
41730
41751
41332
41663
41735
41735
41767
41546
41734
41759
41751
41671
41771
41764
41735
41646
41766
41767
41655
41761
41787
41766
41735
41671
41767
41788
41677
41777
41799
41583
41735
41724
41711
41783
41795
41809
41687
41812
41813
41575
41803
41831
41829
41753
41766
41822
41839
41830
41755
41804
41831
41845
41658
41823
41853
41836
41855
41534
41780
41845
41847
41846
41799
41860
41878
41479
41829
41863
41871
41878
41452
41795
41871
41866
41863
41831
41868
41891
41871
41831
41895
41885
41813
41879
41892
41850
41825
41895
41911
41911
41819
41853
41900
41917
41916
41892
41774
41906
41924
41935
41851
41852
41914
41941
41663
41923
41950
41941
41957
41785
41938
41954
41949
41961
41585
41879
41863
41943
41963
41955
41871
41978
41967
41891
41967
41974
41885
41975
41974
41991
41764
41986
41991
41972
41956
41556
41986
42007
42019
41991
42016
42004
41972
41855
41926
42023
42014
42013
41886
42023
42033
42031
41956
42036
42039
42044
41855
42030
42052
42029
42051
42007
42019
42052
41967
42061
42051
41991
42055
42063
42079
42043
41991
41989
42079
42078
42026
42089
42071
42068
42055
42079
42061
42054
42086
42079
42059
42095
41991
42098
42094
42031
42109
42110
42085
42135
41852
42119
42127
41869
42107
42127
42119
42047
42132
42125
42084
42117
42135
42063
42132
42129
42071
42140
42142
42076
42127
42151
42162
42074
42148
42165
41983
42159
42175
42158
42086
42103
42179
42183
41936
42170
42188
42180
42198
41845
42127
42180
42188
42212
42199
42159
42203
42201
42212
41991
42185
42228
42197
42133
42215
42211
42175
42095
42219
42247
41899
42159
42206
42221
42239
42023
42218
42235
42039
42239
42260
42239
42151
42247
42259
42178
42212
42255
42215
42236
42263
42279
41844
42180
42255
42260
42295
42007
42263
42299
42284
42223
42189
42275
42294
42293
42203
42293
42291
42300
41950
42275
42311
42310
42223
42308
42307
42257
42326
42318
42266
42318
42311
42335
42055
42323
42343
42324
42273
42351
41970
42338
42357
42343
42351
42149
42343
42367
41943
42275
42359
42359
42343
42209
42355
42380
42360
42308
42390
41947
42362
42386
41983
42375
42407
42191
42380
42394
42269
42399
42404
42119
42399
42412
42353
42402
42406
42254
42410
42420
42335
42421
42333
42428
42427
42412
42429
42343
42412
42439
42374
42425
42367
42447
42367
42437
42430
42439
42404
42439
42436
42458
42432
42455
42439
42462
42247
42458
42478
42316
42467
42476
42325
42463
42477
42373
42477
42391
42493
42310
42485
42499
42357
42495
42503
42325
42503
42516
42415
42503
42503
42439
42495
42503
42411
42519
42487
42516
42522
42428
42532
42522
42455
42435
42527
42534
42519
42535
42111
42458
42487
42535
42554
42540
42551
42439
42551
42567
42563
42575
42299
42551
42580
42146
42503
42572
42571
42489
42494
42564
42519
42567
42565
42503
42589
42223
42501
42591
42580
42532
42603
42591
42503
42567
42595
42607
42234
42543
42565
42593
42620
42598
42626
42613
42622
42607
42631
42631
42571
42503
42575
42574
42591
42599
42631
42631
42607
42580
42592
42589
42615
42598
42631
42638
42647
42656
42279
42588
42637
42652
42653
42661
42679
42669
42686
42263
42583
42645
42661
42677
42685
42694
42671
42631
42471
42629
42663
42692
42693
42687
42661
42439
42655
42703
42701
42702
42359
42663
42711
42701
42645
42623
42707
42719
42702
42727
42703
42669
42527
42695
42741
42710
42707
42735
42714
42647
42719
42717
42644
42662
42724
42738
42724
42700
42403
42644
42620
42724
42745
42565
42705
42735
42725
42740
42735
42683
42670
42743
42753
42732
42675
42692
42742
42755
42746
42706
42709
42757
42759
42391
42748
42772
42750
42756
42604
42755
42783
42578
42759
42759
42747
42684
42759
42759
42678
42775
42772
42703
42735
42783
42759
42767
42774
42791
42775
42695
42759
42772
42775
42649
42780
42788
42554
42778
42781
42780
42768
42807
42739
42789
42711
42799
42798
42783
42780
42796
42819
42799
42756
42733
42479
42791
42803
42820
42803
42749
42572
42737
42650
42735
42669
42750
42603
42743
42730
42804
42724
42735
42759
42820
42846
42823
42847
42468
42773
42720
42813
42788
42823
42845
42826
42844
42437
42819
42741
42845
42855
42833
42847
42724
42837
42854
42839
42860
42428
42790
42851
42847
42838
42631
42836
42879
42848
42870
42735
42868
42871
42677
42844
42858
42855
42866
42698
42852
42876
42863
42879
42643
42866
42877
42863
42855
42812
42858
42885
42887
42886
42534
42845
42868
42880
42861
42681
42887
42900
42887
42806
42887
42885
42903
42818
42887
42895
42751
42893
42903
42555
42862
42852
42893
42907
42909
42841
42815
42903
42879
42791
42919
42924
42503
42863
42924
42911
42919
42869
42902
42924
42903
42924
42919
42847
42868
42911
42919
42751
42905
42932
42914
42831
42917
42927
42930
42748
42915
42935
42924
42932
42503
42854
42918
42927
42943
42645
42855
42935
42916
42932
42861
42919
42943
42932
42852
42909
42935
42943
42639
42919
42951
42597
42927
42932
42521
42843
42865
42911
42951
42947
42948
42925
42943
42516
42853
42943
42924
42849
42911
42943
42951
42503
42831
42932
42922
42951
42498
42932
42943
42567
42921
42948
42927
42942
42503
42879
42887
42935
42948
42727
42935
42951
42951
42868
42877
42943
42951
42655
42951
42963
42572
42887
42951
42945
42939
42868
42943
42951
42935
42965
42935
42915
42658
42903
42945
42951
42940
42525
42871
42871
42927
42943
42953
42943
42944
42884
42778
42943
42937
42940
42949
42932
42949
42779
42927
42942
42948
42899
42713
42872
42903
42942
42957
42956
42959
42503
42842
42933
42935
42949
42943
42963
42943
42958
42943
42884
42783
42933
42956
42943
42951
42953
42942
42551
42911
42935
42942
42955
42941
42862
42868
42916
42941
42951
42957
42943
42949
42519
42877
42942
42931
42940
42951
42937
42876
42937
42948
42695
42932
42959
42932
42943
42702
42913
42945
42949
42962
42950
42871
42903
42949
42943
42759
42919
42959
42948
42957
42503
42919
42780
42874
42865
42922
42959
42935
42932
42823
42938
42964
42951
42959
42947
42863
42940
42941
42955
42519
42938
42959
42954
42913
42795
42887
42935
42934
42943
42525
42843
42895
42949
42950
42948
42935
42653
42857
42871
42911
42916
42933
42948
42933
42959
42940
42867
42807
42935
42943
42948
42948
42940
42935
42643
42877
42887
42927
42951
42943
42917
42852
42923
42937
42935
42951
42933
42927
42756
42925
42959
42935
42885
42948
42949
42855
42525
42887
42967
42959
42870
42882
42939
42953
42951
42869
42907
42942
42959
42820
42951
42951
42815
42943
42956
42871
42936
42951
42621
42871
42879
42951
42959
42658
42909
42943
42940
42939
42912
42950
42943
42874
42956
42959
42851
42935
42936
42946
42887
42942
42945
42951
42631
42935
42823
42934
42951
42615
42908
42951
42926
42863
42853
42935
42959
42668
42943
42953
42808
42943
42950
42860
42927
42956
42577
42927
42948
42949
42927
42955
42940
42917
42823
42943
42951
42549
42869
42948
42935
42941
42568
42927
42942
42947
42876
42809
42946
42950
42547
42908
42959
42935
42927
42541
42887
42943
42949
42957
42805
42934
42951
42540
42932
42948
42567
42901
42929
42935
42956
42934
42895
42887
42947
42962
42930
42892
42860
42943
42951
42687
42935
42955
42769
42919
42958
42693
42916
42951
42951
42951
42939
42863
42923
42938
42958
42565
42895
42942
42933
42959
42694
42923
42952
42820
42951
42947
42687
42895
42911
42938
42949
42575
42934
42958
42565
42871
42943
42951
42932
42895
42935
42940
42937
42903
42724
42901
42929
42951
42951
42876
42937
42960
42833
42940
42956
42834
42940
42954
42941
42943
42829
42928
42951
42630
42923
42935
42941
42882
42922
42932
42951
42844
42941
42956
42943
42912
42873
42943
42963
42939
42922
42853
42935
42969
42941
42919
42923
42940
42959
42938
42884
42927
42951
42943
42943
42951
42715
42935
42961
42938
42951
42843
42940
42951
42589
42926
42959
42589
42933
42943
42951
42959
42717
42932
42951
42956
42954
42623
42908
42852
42945
42948
42957
42935
42938
42950
42953
42955
42932
42926
42663
42887
42861
42941
42951
42940
42954
42658
42912
42853
42951
42972
42951
42911
42948
42948
42951
42883
42943
42968
42627
42900
42897
42951
42965
42951
42936
42835
42938
42959
42948
42939
42807
42956
42941
42933
42958
42919
42933
42951
42958
42852
42959
42959
42879
42956
42973
42959
42932
42957
42950
42952
42933
42952
42956
42965
42953
42952
42945
42971
42951
42903
42885
42951
42958
42695
42927
42956
42951
42926
42862
42947
42951
42944
42943
42668
42932
42951
42951
42910
42887
42932
42943
42935
42951
42679
42900
42871
42933
42933
42951
42941
42949
42914
42935
42925
42951
42934
42903
42884
42935
42951
42935
42901
42842
42919
42911
42933
42951
42927
42922
42845
42922
42926
42922
42940
42935
42943
42943
42955
42941
42948
42927
42954
42941
42943
42935
42951
42929
42948
42949
42911
42726
42901
42887
42933
42940
42935
42942
42937
42943
42933
42945
42726
42943
42743
42908
42831
42915
42879
42932
42920
42935
42948
42930
42901
42789
42911
42678
42911
42935
42950
42709
42901
42900
42914
42911
42942
42934
42939
42900
42929
42927
42934
42943
42935
42911
42876
42941
42951
42684
42903
42884
42931
42922
42932
42950
42935
42948
42716
42903
42836
42935
42951
42724
42908
42845
42929
42935
42932
42948
42791
42919
42925
42934
42943
42876
42935
42919
42937
42939
42935
42948
42713
42927
42927
42943
42927
42866
42932
42940
42927
42919
42847
42927
42931
42939
42946
42919
42928
42840
42927
42932
42954
42943
42940
42931
42951
42929
42943
42716
42927
42935
42927
42948
42719
42916
42932
42946
42937
42872
42927
42937
42939
42915
42903
42929
42943
42950
42948
42869
42935
42948
42935
42945
42747
42916
42919
42935
42946
42935
42927
42921
42935
42929
42839
42929
42929
42927
42948
42941
42943
42748
42926
42767
42919
42908
42934
42908
42943
42941
42924
42948
42929
42939
42935
42916
42855
42919
42938
42923
42943
42935
42935
42799
42919
42759
42916
42899
42940
42951
42935
42930
42796
42922
42798
42921
42922
42924
42932
42917
42927
42759
42922
42855
42919
42911
42927
42910
42931
42925
42923
42943
42927
42935
42921
42919
42796
42915
42877
42914
42925
42925
42933
42935
42927
42815
42911
42918
42916
42921
42916
42927
42810
42908
42896
42913
42931
42911
42906
42876
42903
42924
42911
42916
42795
42908
42890
42911
42911
42790
42904
42849
42916
42908
42902
42933
42895
42901
42863
42909
42909
42908
42911
42807
42894
42914
42899
42887
42874
42905
42900
42887
42901
42916
42905
42919
42800
42900
42901
42897
42900
42843
42911
42919
42759
42903
42873
42914
42905
42901
42908
42839
42902
42908
42916
42907
42885
42907
42917
42817
42903
42903
42902
42919
42823
42905
42901
42887
42900
42887
42895
42908
42811
42895
42899
42894
42906
42871
42887
42900
42782
42887
42844
42900
42887
42903
42906
42896
42895
42868
42895
42915
42887
42884
42848
42902
42887
42894
42911
42901
42894
42866
42895
42887
42902
42894
42829
42887
42866
42903
42900
42901
42895
42895
42887
42830
42887
42863
42878
42878
42887
42895
42886
42897
42829
42877
42823
42889
42860
42895
42906
42887
42900
42895
42911
42885
42903
42887
42885
42844
42892
42860
42887
42898
42893
42906
42863
42881
42898
42887
42893
42839
42879
42871
42909
42903
42891
42895
42872
42903
42887
42887
42898
42892
42908
42759
42878
42880
42883
42902
42895
42894
42797
42887
42884
42895
42900
42815
42887
42873
42887
42903
42890
42887
42902
42898
42884
42901
42887
42899
42863
42892
42878
42901
42903
42903
42907
42887
42915
42869
42905
42895
42903
42913
42887
42913
42911
42894
42881
42900
42879
42897
42915
42903
42898
42911
42918
42892
42903
42868
42908
42896
42908
42915
42917
42894
42903
42903
42930
42902
42911
42901
42919
42876
42895
42910
42887
42909
42904
42906
42909
42908
42908
42871
42905
42887
42908
42917
42900
42925
42908
42927
42887
42898
42921
42908
42925
42919
42909
42919
42908
42915
42877
42917
42919
42909
42911
42895
42919
42934
42895
42910
42927
42897
42919
42935
42910
42941
42852
42929
42916
42919
42932
42895
42924
42943
42932
42943
42921
42932
42915
42925
42924
42924
42923
42919
42937
42919
42935
42922
42924
42923
42927
42935
42933
42933
42911
42932
42943
42911
42929
42947
42941
42933
42941
42931
42943
42912
42940
42936
42938
42951
42932
42941
42958
42919
42942
42948
42933
42959
42932
42934
42949
42949
42959
42946
42941
42943
42951
42933
42937
42951
42950
42938
42955
42941
42940
42959
42947
42952
42951
42944
42951
42949
42959
42940
42956
42958
42952
42951
42956
42951
42963
42947
42959
42972
42935
42949
42964
42951
42964
42974
42961
42979
42967
42975
42956
42978
42963
42959
42959
42966
42983
42962
42978
42975
42956
42977
42951
42972
42987
42972
42961
42967
42982
42982
42964
42983
42955
42975
42991
42980
42983
42944
42976
42989
42981
42972
42972
42976
42982
42997
42950
42983
42989
42967
42983
42980
42988
42991
42982
43002
42972
42977
42983
42994
42997
42981
42988
42991
42991
43002
42961
42988
42996
42991
43003
42992
43004
43009
42983
43003
43012
42991
43004
42983
42999
42996
43007
43012
43004
43012
42999
43003
42951
42995
42983
42991
42998
42989
42991
42982
42980
42996
42898
43002
42989
42999
43002
42963
43002
42996
42996
42983
42999
42983
42991
42999
42999
43003
42981
43007
42941
42991
42987
42998
43015
42996
43005
42983
43015
43003
42996
42997
42990
42999
42998
43007
42983
43002
42985
43002
42999
42998
43003
42991
43004
42933
42998
42997
43015
43007
42991
42999
42983
42999
43012
42989
42999
42983
42997
43012
42999
42993
42996
42952
43001
43003
42996
43015
42904
42999
43005
42991
42991
43007
43007
43015
42999
43013
42978
43002
42977
43012
42996
43015
43015
43004
43015
43012
43015
42997
43015
43015
43015
42991
43015
42966
43015
43015
43009
43013
42940
43015
43004
42991
43013
43012
43028
43013
43015
42979
43004
43015
43011
43026
43015
43015
42988
43028
43029
43007
43015
43011
43030
43014
43028
43038
42957
43015
43015
43015
43029
43015
43047
43015
43028
43010
43015
43015
43015
43012
43012
43015
43015
43031
43045
43015
43014
43028
43013
43015
43043
42915
43039
43032
43015
43015
43005
43039
43015
43039
43051
42981
43039
43044
43035
43039
43031
43043
43014
43031
43033
43041
43023
43015
43039
43015
43015
43011
43033
43015
43047
43033
43036
43015
43044
43034
43046
43053
42948
43035
43006
43049
43046
43046
43046
43015
43049
42971
43034
42997
43047
43012
43044
43045
43045
43043
43044
43036
43029
43063
43047
43041
43061
43055
43041
43047
43039
43044
43043
43043
43063
42980
43043
43030
43047
43049
43013
43059
43055
42983
43039
43015
43047
43050
43047
43060
43040
43038
43005
43045
43031
43045
43053
43036
43039
43038
43037
43034
43031
43039
43046
43060
42980
43035
43052
43038
43055
42932
43037
43039
43033
43052
43015
43050
43056
42974
43031
43054
43037
43036
43015
43025
43047
42895
43020
43047
43031
43039
43039
43042
43034
43033
43025
42938
43031
43037
43015
43044
43015
43042
43028
43026
43034
42981
43033
43031
43030
43029
43015
43026
43042
43042
43015
43015
42903
43028
42976
43015
42991
43036
42993
43015
42983
43015
42996
43028
43015
43015
43031
43015
43015
42983
43015
43015
43002
43031
43015
43009
42983
43015
43015
43006
43037
43015
43015
43015
43031
43015
43027
43012
43015
43015
43031
43012
43034
43012
43023
43014
43031
43007
43007
42997
43012
43010
43012
43015
43004
43015
43015
43004
43012
43013
43008
43001
43015
43015
42995
42999
43004
43015
42997
43015
42995
43003
42939
43002
42924
42999
42970
43009
42997
43005
43004
42999
43011
43003
43001
42935
42996
42983
42997
43004
42997
43012
42924
42987
42940
42999
42991
42989
43013
42983
43015
42991
43012
42932
42991
42919
42991
42959
42994
42996
42997
42999
42899
42988
42970
42999
42996
43006
43015
42937
42991
42963
42996
42945
42988
42991
42988
43006
42991
42990
42989
42982
42947
42980
42976
42983
42993
42919
42991
42988
43010
42991
42924
42980
42977
42987
42980
42979
42999
42983
42881
42983
42980
42984
42951
42983
42974
42982
42983
42855
42983
42991
42991
42901
42972
42982
42981
42908
42974
42969
42987
42967
42850
42975
42974
42976
42913
42975
42967
42967
42933
42959
42960
42970
42975
42911
42972
42959
42979
42887
42964
42990
42966
42842
42965
42964
42972
42961
42927
42962
42965
42963
42967
42955
42899
42951
42964
42954
42971
42964
42932
42956
42951
42943
42959
42887
42954
42943
42951
42886
42941
42943
42965
42927
42823
42939
42932
42966
42959
42924
42876
42942
42933
42948
42957
42956
42900
42949
42935
42947
42946
42961
42918
42884
42948
42947
42946
42954
42949
42941
42935
42938
42925
42943
42883
42940
42949
42937
42927
42941
42951
42911
42935
42931
42935
42903
42927
42927
42927
42927
42882
42924
42935
42924
42935
42923
42919
42940
42949
42919
42919
42932
42940
42917
42925
42917
42951
42927
42844
42921
42913
42927
42916
42855
42919
42918
42918
42791
42919
42919
42927
42884
42916
42916
42921
42923
42829
42919
42919
42926
42923
42882
42906
42919
42910
42909
42865
42893
42903
42911
42885
42922
42894
42907
42815
42919
42916
42879
42887
42909
42919
42887
42917
42910
42919
42876
42909
42903
42925
42863
42895
42909
42894
42908
42893
42909
42892
42887
42887
42907
42817
42887
42879
42911
42845
42901
42900
42899
42849
42892
42887
42907
42902
42837
42887
42884
42887
42878
42759
42885
42887
42899
42830
42887
42887
42895
42858
42887
42885
42881
42811
42883
42875
42879
42841
42879
42883
42885
42887
42871
42876
42881
42847
42871
42870
42868
42887
42855
42860
42871
42886
42863
42714
42876
42864
42876
42822
42863
42869
42871
42807
42874
42849
42879
42862
42868
42863
42871
42855
42730
42847
42863
42858
42852
42805
42855
42852
42857
42839
42830
42839
42852
42855
42863
42832
42833
42811
42849
42849
42728
42834
42827
42831
42833
42830
42836
42815
42823
42748
42836
42820
42820
42823
42718
42815
42804
42817
42813
42722
42812
42811
42799
42824
42727
42791
42796
42804
42816
42743
42804
42804
42807
42823
42698
42797
42807
42791
42799
42794
42794
42791
42791
42787
42774
42687
42791
42687
42775
42668
42759
42757
42773
42759
42756
42680
42771
42740
42772
42777
42775
42787
42767
42770
42770
42788
42775
42773
42671
42759
42747
42758
42767
42759
42767
42759
42759
42759
42740
42695
42741
42705
42748
42743
42756
42751
42751
42737
42757
42755
42654
42759
42748
42736
42740
42751
42738
42735
42736
42724
42743
42727
42747
42735
42732
42724
42696
42726
42667
42714
42580
42725
42731
42728
42730
42734
42715
42725
42717
42567
42711
42590
42727
42719
42731
42719
42724
42716
42719
42708
42691
42700
42687
42713
42691
42711
42727
42708
42718
42701
42711
42689
42717
42695
42692
42691
42690
42700
42698
42698
42694
42695
42693
42692
42671
42663
42692
42680
42676
42665
42674
42581
42670
42647
42679
42655
42671
42691
42677
42671
42580
42673
42639
42667
42671
42675
42677
42663
42655
42567
42658
42663
42660
42667
42661
42663
42661
42669
42493
42639
42559
42639
42495
42631
42561
42631
42657
42639
42628
42650
42555
42639
42647
42599
42631
42631
42663
42597
42623
42623
42628
42631
42625
42631
42607
42631
42612
42631
42567
42631
42605
42625
42541
42631
42620
42543
42623
42596
42617
42605
42607
42618
42419
42613
42623
42602
42588
42593
42383
42599
42599
42542
42591
42612
42439
42590
42599
42575
42590
42567
42585
42503
42591
42559
42599
42490
42574
42591
42463
42567
42596
42439
42575
42545
42566
42559
42556
42557
42415
42551
42567
42426
42541
42547
42542
42535
42534
42532
42551
42524
42559
42455
42542
42503
42554
42415
42535
42548
42535
42407
42532
42535
42530
42526
42311
42519
42537
42465
42527
42518
42503
42519
42335
42525
42522
42461
42503
42499
42522
42364
42503
42512
42497
42495
42493
42503
42500
42468
42503
42321
42483
42479
42499
42491
42479
42498
42482
42479
42487
42492
42493
42287
42471
42445
42495
42333
42476
42470
42479
42419
42476
42437
42468
42239
42463
42433
42467
42309
42447
42430
42467
42324
42463
42436
42439
42455
42431
42409
42436
42405
42435
42404
42439
42434
42439
42413
42411
42447
42434
42421
42445
42439
42421
42426
42431
42423
42293
42427
42431
42247
42438
42421
42371
42437
42439
42236
42407
42407
42404
42399
42415
42415
42391
42389
42412
42431
42366
42405
42391
42423
42343
42388
42375
42397
42391
42400
42407
42269
42405
42407
42375
42375
42365
42394
42215
42396
42347
42391
42167
42372
42393
42243
42388
42399
42343
42385
42343
42381
42234
42375
42327
42363
42375
42367
42375
42303
42375
42374
42348
42373
42363
42370
42327
42352
42335
42343
42367
42327
42364
42362
42359
42350
42093
42343
42351
42336
42335
42351
42208
42351
42343
42343
42181
42339
42343
42343
42326
42325
42349
42293
42334
42301
42343
42165
42339
42299
42343
42247
42335
42312
42326
42319
42247
42324
42323
42279
42324
42148
42316
42335
42315
42157
42311
42266
42324
42226
42318
42303
42295
42308
42087
42295
42295
42322
42039
42300
42311
42276
42295
42279
42315
42276
42292
42289
42263
42301
42113
42292
42261
42295
42279
42279
42285
42289
42215
42287
42245
42277
42271
42269
42292
42111
42268
42295
42239
42255
42247
42286
42185
42269
42247
42285
42131
42260
42235
42247
42261
42269
42271
42247
42245
42255
42234
42266
42079
42247
42220
42247
41978
42247
42215
42258
42185
42247
42244
42264
42229
41959
42244
42231
42247
42131
42246
42223
42258
42100
42242
42199
42246
41967
42247
42217
42258
42079
42232
42233
42206
42237
42103
42239
42191
42239
41932
42218
42245
42187
42226
42219
42236
42207
41943
42219
42215
42239
42228
41991
42216
42191
42238
42223
41922
42215
42159
42229
42213
41892
42210
42163
42212
42005
42199
42183
42194
42220
42079
42211
42203
42152
42210
42168
42207
42183
42204
42188
42204
42164
42204
41887
42197
42159
42198
42071
42191
42159
42187
41970
42196
42199
42055
42196
42207
42167
42191
42143
42156
42180
42137
42202
41967
42175
42182
42175
42143
42197
42085
42171
42175
42155
42173
42191
41979
42174
42184
42119
42173
42153
42188
42170
42173
42119
42173
42172
42119
42181
41839
42163
42175
42132
42173
42156
42175
42007
42174
42180
42154
42173
42140
42165
41949
42162
42158
41828
42119
42154
42155
42154
42179
42157
41882
42146
42158
42140
42151
42154
42157
42103
42150
42133
42111
42140
42143
42106
42143
42159
41990
42137
42140
42143
42133
42119
42136
41789
42100
42134
42119
42109
42140
41871
42115
42095
42127
41877
42126
42111
42135
42068
42119
42061
42129
41767
42111
42116
41943
42098
42109
41794
42091
42125
42051
42095
42055
42117
42097
42063
42059
42087
42035
42095
42079
42079
42095
41877
42093
42085
42084
42077
42034
42078
42084
42045
41972
42075
42095
41991
42076
42091
41811
42070
42095
42063
42018
42082
42075
42017
42081
41741
42063
42084
41991
42078
42039
42061
42061
42054
42071
41763
42071
42070
42018
42055
41991
42085
41767
42055
42022
42039
42068
42045
41964
42053
42063
42023
41991
42052
41759
42058
41991
42054
41771
42041
42069
41991
42049
42055
42039
41679
42053
42043
42047
42036
42033
41980
42053
41886
42047
41967
42045
41885
42036
42037
42007
42047
41886
42022
41980
42031
42029
41966
41965
42021
42021
42017
42031
41975
42029
41969
42026
41991
42043
41671
42030
42015
42015
42015
42016
42035
42014
42028
41974
42043
41831
42023
41949
42033
41637
41991
42029
41783
42009
42043
41837
42008
42028
41956
42023
42029
41991
42015
41991
42007
41991
42004
41991
42005
41685
42012
42023
41957
42019
41983
42023
41726
42001
42012
41980
41991
41935
41991
42000
41990
42014
41869
42007
42019
41830
42007
42007
41980
42012
41967
42010
41926
42009
41954
41991
41933
41991
41983
42004
41764
41990
41991
41966
41607
41990
41967
41972
41991
41983
41948
41991
41795
41991
41911
41991
41730
41983
41985
41862
41975
41954
41973
41606
41991
41911
41990
41637
41967
41972
41978
41589
41983
41975
41972
41836
41968
41972
41927
41968
41899
41951
41963
41894
41973
41972
41886
41965
41945
41972
41863
41963
41963
41931
41943
41919
41959
41954
41895
41966
41941
41892
41944
41953
41943
41967
41844
41956
41958
41902
41940
41895
41967
41831
41935
41879
41943
41934
41884
41950
41830
41943
41874
41955
41617
41913
41940
41935
41946
41839
41938
41945
41681
41915
41941
41788
41932
41845
41943
41815
41919
41909
41932
41911
41919
41919
41910
41927
41871
41924
41911
41919
41893
41910
41863
41927
41796
41923
41870
41927
41876
41909
41903
41860
41919
41719
41901
41875
41907
41868
41910
41895
41918
41895
41893
41901
41914
41886
41903
41887
41916
41663
41895
41915
41807
41892
41807
41895
41818
41888
41831
41885
41895
41887
41895
41906
41703
41889
41837
41895
41861
41887
41881
41807
41903
41863
41479
41878
41809
41885
41640
41863
41805
41887
41583
41874
41779
41871
41871
41831
41885
41821
41863
41777
41870
41863
41834
41885
41799
41860
41812
41871
41837
41853
41830
41878
41598
41855
41877
41743
41853
41871
41783
41844
41863
41551
41845
41862
41813
41847
41829
41863
41623
41839
41860
41831
41844
41786
41863
41797
41855
41751
41855
41635
41845
41767
41847
41757
41839
41758
41853
41663
41833
41775
41836
41845
41735
41852
41823
41830
41837
41757
41839
41799
41835
41829
41828
41847
41735
41828
41844
41415
41791
41851
41703
41828
41836
41717
41831
41755
41847
41392
41829
41749
41821
41821
41793
41847
41779
41813
41808
41825
41421
41823
41829
41831
41817
41734
41831
41607
41815
41787
41815
41812
41812
41805
41821
41816
41761
41830
41727
41799
41735
41831
41735
41791
41827
41598
41799
41823
41446
41815
41745
41819
41799
41797
41739
41812
41799
41804
41807
41788
41799
41761
41812
41706
41798
41707
41811
41798
41735
41806
41389
41795
41812
41678
41796
41703
41799
41796
41695
41781
41796
41798
41799
41804
41804
41801
41791
41807
41782
41806
41799
41709
41798
41790
41703
41799
41790
41697
41765
41788
41799
41684
41783
41796
41375
41759
41799
41791
41767
41571
41785
41803
41783
41798
41791
41780
41799
41607
41782
41791
41799
41682
41789
41796
41695
41781
41790
41780
41700
41791
41785
41695
41784
41732
41735
41790
41732
41783
41787
41682
41730
41782
41796
41780
41693
41783
41790
41781
41726
41772
41796
41780
41797
41345
41705
41807
41773
41698
41727
41783
41796
41623
41780
41788
41799
41709
41779
41782
41783
41781
41793
41791
41791
41775
41791
41791
41799
41773
41794
41785
41725
41364
41735
41531
41686
41431
41797
41793
41799
41780
41796
41785
41757
41683
41388
41798
41791
41792
41767
41735
41679
41437
41750
41340
41779
41453
41767
41379
41704
41406
41711
41565
41735
41786
41799
41788
41716
41751
41759
41759
41770
41766
41783
41779
41802
41796
41771
41793
41780
41756
41798
41797
41799
41787
41783
41525
41720
41519
41680
41574
41679
41559
41715
41703
41700
41733
41797
41805
41787
41796
41796
41796
41787
41799
41471
41695
41679
41760
41783
41782
41803
41795
41813
41799
41798
41798
41805
41797
41799
41780
41810
41796
41788
41791
41797
41789
41807
41795
41796
41771
41777
41754
41689
41727
41447
41765
41362
41797
41799
41760
41802
41815
41802
41806
41815
41815
41795
41810
41804
41808
41380
41735
41535
41727
41783
41792
41799
41780
41779
41796
41788
41793
41798
41807
41805
41326
41734
41589
41686
41751
41708
41679
41781
41790
41791
41808
41799
41799
41533
41769
41799
41797
41815
41795
41807
41806
41805
41788
41730
41577
41711
41788
41806
41799
41812
41789
41791
41383
41727
41782
41756
41331
41814
41375
41773
41644
41735
41775
41784
41811
41786
41815
41795
41807
41781
41804
41797
41757
41647
41710
41759
41756
41799
41799
41809
41794
41799
41792
41796
41787
41793
41394
41711
41407
41711
41348
41767
41719
41788
41438
41679
41612
41727
41789
41802
41798
41807
41791
41735
41687
41436
41807
41319
41729
41591
41695
41777
41787
41805
41794
41756
41748
41732
41780
41764
41779
41804
41803
41812
41795
41827
41455
41693
41780
41782
41812
41795
41814
41804
41807
41434
41703
41612
41716
41756
41807
41822
41803
41807
41807
41820
41807
41724
41776
41799
41812
41367
41711
41638
41724
41763
41796
41805
41796
41821
41802
41822
41692
41799
41829
41815
41732
41700
41787
41810
41807
41827
41815
41798
41343
41711
41633
41700
41575
41765
41439
41717
41711
41725
41727
41737
41815
41805
41829
41800
41755
41692
41709
41756
41818
41819
41804
41825
41823
41844
41821
41829
41815
41815
41406
41775
41814
41820
41831
41701
41807
41824
41830
41823
41541
41751
41823
41815
41831
41831
41781
41711
41813
41844
41807
41823
41827
41847
41823
41844
41826
41841
41818
41703
41799
41821
41831
41620
41751
41836
41841
41838
41827
41836
41820
41839
41820
41762
41567
41704
41615
41775
41781
41799
41847
41822
41831
41815
41830
41453
41727
41676
41701
41767
41820
41820
41781
41735
41727
41791
41751
41811
41831
41835
41825
41844
41811
41839
41634
41733
41524
41703
41742
41706
41597
41710
41751
41765
41788
41799
41829
41823
41823
41349
41693
41799
41823
41823
41815
41825
41623
41702
41808
41820
41831
41825
41787
41581
41821
41821
41831
41807
41823
41295
41695
41773
41810
41831
41819
41733
41639
41703
41807
41799
41837
41817
41815
41311
41709
41803
41815
41828
41821
41821
41313
41812
41414
41743
41583
41683
41761
41807
41812
41808
41684
41717
41799
41820
41790
41812
41535
41695
41719
41799
41815
41789
41675
41807
41805
41807
41308
41687
41799
41798
41807
41284
41676
41807
41783
41785
41742
41791
41818
41703
41783
41818
41781
41799
41607
41671
41779
41786
41799
41802
41822
41796
41807
41796
41817
41425
41703
41801
41783
41721
41580
41724
41795
41796
41805
41287
41654
41692
41679
41669
41771
41783
41783
41812
41781
41796
41785
41791
41287
41652
41697
41687
41771
41791
41807
41775
41807
41785
41794
41783
41793
41775
41804
41799
41799
41783
41798
41791
41746
41477
41671
41653
41735
41791
41780
41805
41275
41661
41670
41726
41772
41792
41793
41303
41683
41797
41780
41786
41343
41695
41628
41755
41794
41783
41796
41783
41805
41783
41771
41471
41796
41778
41751
41655
41775
41794
41785
41798
41767
41779
41343
41668
41709
41772
41795
41780
41792
41788
41795
41780
41797
41791
41797
41310
41655
41673
41755
41803
41784
41783
41294
41796
41790
41790
41332
41663
41759
41774
41791
41791
41775
41479
41661
41747
41775
41799
41567
41702
41799
41783
41788
41293
41679
41790
41761
41795
41787
41699
41748
41783
41799
41311
41655
41733
41772
41791
41786
41690
41746
41792
41789
41735
41773
41787
41709
41719
41779
41774
41799
41800
41793
41797
41797
41297
41650
41543
41655
41684
41755
41782
41789
41805
41772
41799
41783
41797
41775
41791
41275
41719
41391
41723
41311
41796
41271
41702
41711
41775
41799
41799
41791
41479
41774
41790
41786
41794
41517
41766
41804
41786
41794
41532
41727
41796
41777
41795
41287
41668
41794
41799
41799
41549
41735
41781
41798
41815
41795
41683
41699
41783
41806
41791
41804
41793
41799
41287
41758
41511
41765
41823
41799
41684
41694
41687
41543
41671
41532
41671
41638
41663
41539
41677
41644
41721
41524
41735
41549
41713
41347
41673
41428
41818
41805
41809
41809
41820
41799
41702
41604
41728
41767
41804
41831
41804
41735
41532
41687
41764
41781
41815
41813
41813
41559
41758
41823
41803
41831
41812
41830
41821
41809
41812
41775
41735
41780
41831
41822
41829
41812
41834
41805
41831
41823
41831
41825
41836
41815
41828
41839
41831
41818
41845
41807
41839
41823
41774
41607
41771
41837
41828
41847
41708
41829
41783
41830
41838
41767
41839
41822
41823
41763
41829
41820
41764
41831
41836
41809
41844
41826
41851
41836
41717
41789
41860
41839
41479
41765
41847
41836
41711
41791
41836
41861
41841
41813
41766
41845
41863
41439
41719
41775
41844
41863
41339
41704
41852
41860
41863
41860
41854
41850
41859
41455
41749
41807
41855
41876
41315
41719
41803
41863
41879
41858
41861
41479
41716
41863
41863
41873
41607
41831
41874
41313
41785
41879
41862
41873
41870
41863
41314
41711
41848
41847
41870
41511
41709
41834
41853
41871
41844
41847
41391
41719
41820
41852
41855
41855
41886
41863
41711
41855
41856
41863
41729
41860
41887
41855
41745
41855
41850
41879
41854
41716
41867
41348
41753
41882
41332
41831
41887
41874
41743
41898
41871
41828
41887
41335
41735
41877
41877
41783
41414
41749
41591
41772
41832
41876
41887
41343
41711
41857
41861
41897
41863
41756
41755
41828
41887
41863
41882
41874
41883
41842
41748
41727
41855
41893
41882
41893
41878
41731
41881
41872
41879
41674
41863
41892
41883
41775
41837
41871
41901
41477
41829
41889
41879
41889
41359
41766
41895
41891
41863
41667
41798
41911
41882
41903
41887
41902
41871
41895
41892
41895
41582
41783
41863
41885
41910
41892
41879
41583
41758
41775
41891
41907
41895
41901
41903
41903
41901
41911
41905
41804
41795
41876
41892
41907
41908
41901
41916
41543
41772
41919
41915
41911
41902
41767
41898
41899
41911
41801
41895
41916
41711
41829
41898
41908
41916
41401
41807
41906
41906
41879
41826
41888
41925
41910
41814
41778
41915
41927
41910
41846
41848
41902
41925
41919
41837
41815
41917
41927
41919
41793
41799
41903
41939
41921
41935
41811
41923
41940
41365
41799
41924
41909
41935
41545
41908
41935
41396
41772
41905
41925
41943
41913
41818
41846
41922
41935
41927
41903
41815
41927
41950
41923
41791
41951
41921
41791
41930
41911
41943
41673
41925
41948
41927
41943
41467
41787
41927
41926
41947
41927
41948
41924
41955
41934
41950
41927
41871
41587
41786
41876
41895
41927
41911
41911
41844
41895
41799
41815
41818
41919
41927
41936
41824
41924
41948
41373
41797
41947
41934
41876
41903
41924
41950
41543
41855
41946
41934
41919
41735
41863
41951
41929
41788
41951
41935
41781
41940
41941
41935
41445
41911
41948
41929
41927
41588
41900
41943
41924
41941
41803
41921
41955
41375
41875
41942
41927
41935
41619
41914
41947
41923
41934
41823
41922
41943
41919
41830
41847
41919
41930
41919
41924
41456
41780
41804
41903
41941
41917
41882
41719
41918
41937
41383
41795
41935
41909
41940
41557
41812
41943
41936
41942
41915
41823
41769
41906
41932
41927
41919
41916
41847
41749
41895
41937
41926
41924
41390
41759
41908
41914
41931
41391
41795
41551
41763
41763
41785
41900
41914
41927
41907
41923
41916
41820
41531
41772
41799
41759
41657
41757
41844
41871
41919
41922
41927
41902
41921
41908
41903
41627
41815
41903
41903
41931
41908
41895
41551
41796
41903
41900
41926
41903
41923
41895
41919
41905
41922
41863
41895
41903
41916
41901
41351
41924
41847
41766
41774
41863
41837
41883
41863
41915
41916
41915
41914
41911
41901
41919
41911
41783
41623
41759
41569
41777
41872
41894
41919
41887
41815
41759
41627
41751
41738
41756
41615
41775
41364
41911
41899
41914
41894
41906
41911
41900
41415
41788
41902
41886
41918
41892
41909
41884
41915
41908
41905
41556
41863
41913
41903
41907
41447
41844
41918
41890
41811
41766
41860
41887
41903
41887
41775
41900
41906
41831
41479
41903
41900
41860
41799
41887
41899
41909
41373
41799
41899
41893
41839
41633
41843
41894
41899
41884
41495
41833
41908
41891
41789
41898
41884
41758
41901
41885
41757
41860
41895
41899
41583
41748
41894
41895
41895
41363
41749
41839
41884
41909
41391
41749
41887
41881
41743
41887
41886
41903
41335
41777
41899
41319
41829
41892
41877
41863
41803
41863
41906
41412
41799
41908
41876
41735
41891
41887
41735
41896
41890
41767
41893
41893
41860
41901
41573
41876
41884
41735
41885
41898
41514
41860
41900
41455
41861
41899
41887
41733
41900
41895
41735
41900
41892
41758
41894
41885
41895
41679
41863
41901
41878
41807
41892
41620
41892
41892
41676
41806
41901
41892
41897
41453
41769
41894
41885
41901
41887
41735
41908
41902
41894
41687
41876
41911
41895
41743
41890
41895
41895
41854
41903
41897
41413
41844
41905
41887
41852
41847
41895
41900
41517
41859
41900
41895
41911
41876
41767
41902
41889
41900
41887
41735
41852
41887
41908
41902
41907
41895
41895
41767
41789
41895
41884
41908
41887
41901
41887
41813
41703
41781
41892
41895
41889
41887
41890
41674
41862
41895
41887
41796
41847
41890
41908
41370
41849
41900
41663
41883
41903
41831
41887
41897
41826
41895
41875
41445
41735
41855
41887
41911
41583
41838
41902
41889
41894
41636
41882
41909
41892
41903
41406
41761
41884
41831
41822
41879
41903
41881
41890
41886
41887
41895
41895
41798
41906
41775
41884
41767
41910
41412
41899
41756
41917
41525
41879
41759
41895
41895
41545
41881
41860
41750
41909
41897
41526
41886
41845
41900
41877
41879
41894
41753
41916
41851
41887
41887
41896
41873
41887
41802
41879
41886
41878
41903
41876
41900
41757
41908
41787
41903
41863
41895
41846
41879
41892
41767
41893
41839
41902
41326
41887
41892
41877
41889
41804
41899
41842
41895
41799
41898
41821
41884
41751
41908
41780
41884
41769
41891
41876
41890
41759
41897
41717
41863
41813
41890
41803
41879
41887
41875
41399
41875
41811
41885
41369
41870
41874
41799
41875
41731
41879
41723
41871
41787
41599
41733
41661
41735
41799
41852
41863
41799
41839
41885
41799
41863
41807
41863
41862
41850
41851
41722
41870
41804
41845
41855
41731
41863
41479
41855
41773
41860
41805
41852
41807
41863
41833
41583
41847
41786
41847
41844
41327
41845
41814
41852
41374
41831
41847
41771
41831
41735
41846
41751
41835
41827
41844
41844
41527
41835
41830
41828
41823
41719
41846
41684
41828
41703
41835
41839
41423
41819
41715
41825
41839
41807
41293
41829
41675
41823
41821
41803
41838
41710
41814
41791
41802
41838
41333
41807
41767
41799
41823
41728
41812
41828
41719
41820
41803
41804
41820
41671
41828
41799
41335
41821
41701
41823
41823
41716
41271
41810
41667
41812
41828
41788
41439
41790
41803
41807
41703
41689
41806
41812
41807
41773
41348
41797
41767
41676
41761
41807
41795
41716
41291
41788
41788
41735
41671
41791
41807
41804
41735
41389
41788
41783
41658
41788
41799
41769
41783
41782
41703
41795
41735
41772
41773
41791
41799
41473
41783
41651
41791
41678
41783
41663
41784
41271
41764
41783
41349
41679
41261
41780
41772
41783
41762
41781
41775
41780
41762
41784
41763
41783
41760
41772
41764
41767
41238
41629
41759
41756
41764
41556
41671
41767
41756
41735
41573
41735
41767
41663
41748
41777
41747
41659
41735
41750
41757
41572
41732
41767
41749
41607
41735
41750
41757
41735
41661
41551
41641
41723
41735
41762
41725
41744
41381
41642
41751
41735
41622
41517
41703
41730
41727
41735
41732
41716
41327
41594
41538
41583
41620
41711
41734
41722
41735
41537
41670
41725
41699
41727
41711
41703
41580
41687
41717
41706
41727
41699
41677
41509
41622
41711
41708
41711
41148
41559
41620
41652
41702
41684
41545
41669
41692
41690
41415
41667
41686
41237
41620
41687
41671
41655
41690
41151
41531
41677
41668
41551
41599
41659
41671
41495
41662
41679
41149
41617
41671
41654
41629
41319
41532
41639
41647
41652
41421
41639
41652
41175
41524
41647
41639
41651
41636
41644
41636
41566
41631
41645
41633
41503
41623
41615
41494
41614
41623
41629
41622
41639
41312
41597
41639
41607
41603
41540
41599
41623
41607
41575
41479
41479
41591
41575
41618
41597
41615
41604
41599
41603
41583
41323
41523
41606
41591
41607
41596
41605
41589
41604
41167
41503
41541
41583
41585
41579
41591
41567
41569
41271
41479
41519
41558
41575
41572
41564
41573
41575
41082
41471
41391
41463
41567
41556
41500
41391
41535
41561
41540
41531
41281
41511
41564
41535
41545
41539
41467
41271
41434
41542
41533
41455
41511
41532
41532
41073
41507
41527
41527
41535
41510
41477
41429
41503
41522
41509
41527
41059
41410
41293
41396
41453
41507
41519
41501
41508
41503
41512
41479
41503
41111
41427
41422
41495
41505
41479
41469
41057
41391
41471
41479
41501
41471
41447
41415
41465
41479
41479
41471
41468
41478
41181
41407
41417
41448
41468
41450
41479
41458
41479
41463
41471
41040
41361
41436
41441
41456
41444
41359
41445
41439
41456
41351
41440
41447
41447
41460
41428
41407
41319
41417
41431
41377
41380
41436
41438
41423
41447
41427
41434
41418
41426
41173
41350
41141
41367
41249
41343
41015
41418
41418
41415
41415
41414
41407
41404
41415
41409
41399
41413
41407
41287
41391
41415
41389
41411
41382
41403
41397
41391
41263
41359
41399
41383
41348
41356
41375
41405
41391
41396
41375
41359
41132
41350
41383
41356
41389
41359
41300
41373
41367
41340
41307
41351
41340
41373
41375
41029
41332
41351
41367
41365
41164
41351
41357
41347
41351
41039
41295
41221
41267
41205
41268
41317
41333
41346
41341
41348
41332
41343
41333
41343
41324
41332
41330
41339
41318
41339
41330
41333
41319
41319
41308
41275
41302
41335
41309
41290
41263
41181
41255
41171
41254
41086
41254
40967
41274
41316
41323
41300
41314
41295
41319
41302
41243
41212
41302
41302
41294
41314
41295
41278
41146
41239
41151
41311
41279
41278
41286
41217
41082
41218
41079
41221
41223
41243
41237
41289
41271
41278
41271
41191
41255
41249
41271
41279
40960
41209
41222
41263
41260
41269
41282
41261
41198
41247
41253
41271
40959
41223
41207
41249
41265
41250
41257
41013
41203
41174
41242
41245
41223
41247
41238
41223
41246
41223
41223
41220
41223
41239
41223
41223
41220
41242
41222
41181
41180
41233
41223
41207
41199
41109
41207
41237
41204
41223
41215
41197
40999
41169
41159
41204
41201
41207
41159
41177
41199
41219
41205
41220
41191
41157
41183
41199
41204
41190
41204
40898
41159
41170
41195
41196
41004
41175
41191
41193
41147
41167
41173
41191
40999
41168
41191
40967
41153
41151
41158
41189
40964
41142
41143
41167
41167
41158
41175
40951
41145
41149
41163
41124
41106
41152
41153
41073
41151
41141
41140
41149
40951
41107
41083
41135
41167
41007
41135
41143
41135
41101
41125
41126
41111
41045
41127
41095
41127
41117
41134
41132
40994
41109
41117
41116
41119
41119
41109
41111
41126
40951
41094
41093
41100
41101
41103
41114
40836
41057
40991
41076
41092
41095
41095
41084
41079
41013
41082
41095
40943
41076
41063
41076
41071
41059
41066
40966
41055
41062
41052
41034
41033
41061
41063
40807
41014
41015
41053
41049
41055
41039
40967
41035
41055
40917
41027
41044
40823
41023
41020
41022
41028
40919
41011
41030
41007
40983
40967
41007
41021
40991
40983
40934
40999
41007
40992
40999
40820
40967
40999
40983
40964
40967
40983
40935
40967
40967
40990
40821
40967
40983
40763
40948
40952
40949
40965
40791
40933
40901
40939
40941
40947
40951
40807
40919
40941
40935
40938
40863
40924
40927
40921
40903
40922
40915
40901
40845
40903
40892
40893
40874
40901
40872
40895
40884
40900
40875
40899
40902
40895
40876
40791
40861
40775
40865
40854
40884
40862
40879
40884
40863
40872
40863
40876
40869
40863
40858
40863
40700
40839
40743
40836
40790
40854
40846
40839
40844
40836
40847
40835
40835
40820
40839
40807
40823
40818
40725
40815
40812
40812
40822
40807
40804
40807
40775
40788
40631
40807
40795
40785
40769
40786
40783
40788
40793
40775
40789
40788
40790
40771
40778
40761
40759
40749
40769
40756
40775
40758
40763
40770
40759
40738
40688
40735
40683
40751
40730
40738
40741
40743
40743
40731
40734
40655
40726
40727
40708
40735
40719
40735
40711
40707
40639
40692
40660
40695
40708
40687
40711
40693
40711
40692
40679
40593
40671
40674
40678
40685
40575
40673
40644
40666
40661
40676
40669
40655
40665
40511
40636
40564
40639
40588
40651
40614
40647
40644
40631
40650
40493
40615
40564
40617
40607
40623
40630
40618
40630
40617
40590
40572
40611
40599
40599
40611
40487
40594
40567
40591
40596
40487
40589
40594
40455
40575
40583
40569
40583
40455
40566
40567
40558
40581
40423
40549
40527
40541
40553
40543
40532
40513
40530
40532
40535
40546
40420
40511
40519
40511
40540
40406
40508
40490
40496
40519
40442
40495
40500
40493
40492
40479
40319
40487
40471
40490
40423
40455
40462
40455
40455
40455
40474
40447
40452
40455
40443
40454
40442
40408
40434
40427
40431
40439
40375
40431
40428
40419
40412
40387
40415
40391
40407
40399
40407
40415
40357
40408
40391
40383
40404
40277
40374
40380
40383
40380
40333
40372
40374
40318
40367
40375
40357
40363
40318
40345
40372
40299
40351
40367
40239
40329
40335
40335
40327
40325
40326
40324
40250
40319
40311
40319
40327
40264
40311
40321
40271
40301
40308
40269
40295
40308
40302
40280
40254
40278
40269
40271
40291
40190
40271
40275
40278
40279
40199
40257
40268
40143
40247
40247
40255
40243
40219
40245
40261
40228
40239
40164
40215
40217
40228
40239
40231
40221
40158
40219
40239
40096
40195
40186
40196
40210
40130
40207
40199
40190
40140
40199
40135
40180
40199
40183
40161
40177
40169
40180
40116
40167
40174
40092
40148
40143
40151
40152
40161
40087
40147
40143
40144
40139
40090
40135
40131
40129
40132
40124
40069
40117
40110
40124
40116
40079
40027
40095
40111
40095
40117
40107
40060
40095
40091
40087
40103
40095
40081
40038
40083
40085
40071
40084
40071
40015
40063
40062
40071
40070
40031
40062
40059
40042
40053
39987
40037
40039
40063
40041
39956
40024
40031
40015
40047
40012
40028
40020
40012
40037
39978
39997
40019
40021
39991
39899
40006
40017
40009
39977
39999
39983
40001
39997
39943
39991
39979
39999
39981
39975
39971
39982
39971
39975
39969
39917
39975
39962
39970
39957
39942
39943
39943
39943
39963
39943
39903
39935
39940
39936
39839
39935
39909
39930
39940
39911
39918
39914
39919
39902
39903
39919
39875
39916
39902
39911
39908
39897
39911
39853
39886
39895
39889
39874
39895
39895
39882
39884
39892
39860
39861
39879
39867
39865
39875
39847
39865
39871
39875
39857
39863
39848
39858
39844
39857
39846
39852
39855
39859
39836
39841
39807
39835
39838
39825
39844
39815
39842
39823
39829
39811
39832
39807
39821
39796
39804
39814
39812
39807
39796
39810
39807
39815
39797
39790
39797
39807
39791
39801
39781
39796
39787
39750
39790
39790
39781
39778
39791
39775
39775
39783
39773
39775
39783
39767
39756
39751
39764
39766
39754
39764
39723
39757
39753
39751
39759
39726
39748
39751
39735
39751
39727
39735
39743
39722
39741
39738
39731
39733
39740
39730
39720
39723
39720
39735
39712
39717
39729
39703
39719
39599
39708
39687
39715
39703
39639
39697
39711
39699
39708
39695
39687
39687
39679
39687
39702
39677
39686
39684
39663
39681
39687
39664
39681
39663
39679
39676
39663
39668
39655
39668
39665
39663
39662
39645
39660
39645
39647
39651
39644
39651
39638
39648
39648
39646
39639
39631
39638
39631
39634
39641
39570
39636
39622
39628
39642
39618
39636
39599
39621
39630
39596
39639
39605
39623
39543
39617
39601
39607
39620
39607
39622
39583
39601
39614
39599
39615
39508
39590
39583
39589
39598
39580
39591
39571
39583
39581
39583
39583
39571
39570
39583
39559
39570
39578
39559
39559
39570
39573
39566
39559
39559
39581
39559
39558
39527
39550
39552
39555
39548
39554
39547
39559
39529
39548
39552
39540
39552
39527
39543
39550
39532
39537
39519
39523
39527
39514
39524
39532
39519
39535
39445
39527
39519
39510
39524
39503
39502
39508
39501
39493
39504
39487
39502
39486
39495
39478
39487
39463
39476
39477
39487
39485
39468
39487
39471
39476
39455
39471
39461
39468
39471
39463
39460
39463
39462
39431
39463
39455
39453
39460
39431
39451
39431
39459
39431
39445
39431
39431
39431
39428
39431
39431
39412
39446
39415
39431
39411
39429
39415
39423
39429
39415
39428
39415
39423
39412
39407
39414
39395
39420
39411
39399
39388
39423
39395
39378
39404
39399
39397
39407
39400
39395
39396
39325
39397
39375
39399
39395
39389
39395
39367
39375
39391
39356
39381
39399
39367
39380
39357
39372
39381
39364
39367
39366
39375
39342
39361
39367
39380
39359
39367
39357
39366
39351
39367
39356
39375
39351
39365
39333
39353
39351
39348
39366
39341
39351
39332
39335
39343
39343
39335
39340
39343
39270
39327
39328
39335
39335
39326
39335
39326
39319
39322
39327
39324
39310
39335
39317
39327
39326
39318
39325
39315
39335
39303
39319
39316
39311
39313
39303
39303
39303
39297
39310
39303
39301
39309
39300
39311
39285
39295
39287
39299
39265
39295
39292
39303
39319
39284
39294
39284
39297
39273
39292
39268
39287
39284
39287
39295
39276
39300
39276
39284
39279
39277
39290
39276
39284
39271
39269
39272
39287
39268
39259
39271
39277
39253
39267
39279
39268
39257
39271
39276
39263
39246
39259
39262
39254
39175
39267
39271
39262
39245
39253
39247
39252
39242
39239
39261
39207
39247
39253
39239
39262
39243
39241
39244
39239
39223
39244
39239
39230
39244
39223
39242
39207
39239
39225
39228
39226
39223
39231
39222
39233
39204
39229
39226
39228
39223
39215
39207
39175
39224
39207
39207
39220
39204
39221
39175
39215
39196
39197
39221
39213
39213
39126
39206
39207
39199
39199
39198
39207
39191
39208
39185
39204
39182
39187
39175
39175
39199
39175
39185
39172
39175
39196
39175
39172
39159
39172
39175
39159
39165
39175
39164
39175
39175
39156
39174
39159
39169
39140
39151
39167
39156
39166
39167
39142
39171
39086
39172
39143
39148
39159
39141
39155
39133
39151
39154
39132
39152
39134
39143
39147
39145
39148
39119
39142
39137
39129
39136
39139
39157
39121
39132
39135
39130
39143
39127
39130
39119
39127
39134
39131
39124
39108
39127
39127
39114
39130
39125
39119
39127
39135
39115
39119
39111
39114
39122
39111
39127
39109
39109
39127
39093
39103
39116
39089
39111
39119
39109
39123
39083
39107
39114
39095
39106
39103
39054
39094
39096
39091
39096
39087
39089
39103
39093
39087
39087
39095
39084
39092
39058
39083
39076
39078
39078
39087
39079
39092
39098
39087
39081
39087
39087
39086
39076
39087
39065
39081
39079
39079
39076
39090
39076
39093
39070
39079
39078
39079
39086
39071
39071
39078
39077
39071
39087
39068
39084
39071
39063
39074
39055
39075
39069
39059
39066
39064
39070
39073
39068
39079
39060
39066
39071
39065
39058
39087
39054
39071
39060
39055
39039
39062
39061
39059
39061
39057
39055
39052
39057
39044
39058
39047
39047
39069
39031
38995
39060
39050
39047
39058
39052
39044
39047
39029
39063
39047
39047
39059
39042
39041
39036
39033
39060
39039
39046
39029
39047
38919
39039
39063
39036
39057
39023
39041
39047
39039
39050
39029
39034
39031
39032
39031
39039
39068
39026
39063
39033
39053
39017
39047
39029
39023
39047
39027
39046
39058
39036
39047
39028
39043
39060
39022
39044
39031
39028
39058
39032
39047
39021
39031
38998
39028
39047
39026
39028
39021
39024
39040
39015
39035
39023
39028
39013
39021
39018
39016
39041
39015
39053
39019
39045
39021
39039
39007
39030
39015
39035
39015
39043
39008
39051
39031
39077
39016
39042
39009
39039
39015
39031
39023
39031
39013
39025
39014
39025
39047
39021
39031
39015
39014
39044
39022
39047
39009
39027
39012
39031
39069
39015
39029
39011
39039
39015
39010
39018
39012
39063
39015
39047
39012
39030
39015
39015
39005
39013
39075
39015
39062
39014
39038
39014
39021
39070
39019
39044
39020
39039
39073
39014
39028
39015
39063
39019
39055
39019
39047
39009
39029
39018
39028
39008
39020
39015
39010
39077
39023
39068
39020
39041
39028
39047
39010
39047
39007
39034
39004
39034
39079
39013
39028
39023
39060
39007
39020
39037
39063
38997
39013
39021
39047
39069
39007
39007
39023
39047
39012
39007
39027
39060
39013
39021
39023
39054
39022
39017
39026
39022
39038
39086
39009
39010
39028
39063
39006
39015
39020
39047
39070
39014
39023
39023
39047
39015
39012
39013
39047
39095
39009
39020
39015
39038
39063
39007
39015
39028
39061
39018
39015
39030
39063
39036
39013
39020
39060
39076
39009
39028
39023
39055
39105
39013
39031
39044
39075
39019
39027
39037
39068
39027
39023
39027
39039
39099
39011
39016
39039
39082
39005
39021
39039
39065
39014
39012
39012
39026
39059
39015
39004
39018
39017
39070
39015
39012
39007
39022
39047
39083
39006
38994
39015
39004
39041
39084
39001
39004
39015
39037
38981
38999
39012
39027
39081
39003
39004
39011
39021
39079
38996
38995
38997
39007
39021
39060
39003
38999
39007
39002
39029
39044
38996
38983
38996
39026
39056
38998
38982
39003
39020
39023
39039
38989
39006
39004
39021
39055
38999
38999
38983
39014
39061
38983
38988
38999
39022
38990
38999
38986
39047
39078
38987
38996
38993
39017
39055
38986
38999
39004
39031
39057
38990
38999
39047
38989
38982
38999
38982
39025
39079
38983
38989
38980
39005
39036
39078
38988
38992
38981
38993
39039
39062
38980
38994
38998
39007
39044
38967
38984
38989
39009
39034
38988
38983
38983
38985
39017
39078
38992
38975
38997
39014
39077
38996
38982
38991
39039
38986
38988
38990
39007
39040
38983
38984
39004
39047
39026
38987
38991
38977
39009
39020
39058
38981
38993
38993
38988
39014
39062
38991
38983
38997
38988
39036
38983
38985
38994
39034
38972
38991
38996
39023
38974
38987
38995
39034
39063
38983
38982
38997
39047
38983
38975
38990
39055
38971
38980
39036
38980
38982
39009
39068
38989
38974
39004
39076
38976
38988
38987
39039
38959
38982
38971
38983
39044
38974
38982
38981
39002
38971
38959
38979
39004
39047
38979
38972
38972
38988
39018
38965
38975
38975
38975
39023
38963
38977
38974
38980
39004
39038
38962
38953
38967
38974
39007
39029
38956
38970
38958
38991
39028
38959
38963
38981
39055
38963
38958
38999
39034
38934
38956
38973
39031
38943
38954
38959
39009
38948
38967
38949
39007
38948
38948
38951
39005
38938
38943
38939
38933
38943
38973
39012
38938
38919
38943
38927
38938
38973
39023
38935
38941
38940
38932
38938
38967
38919
38919
38935
38919
38940
38945
38983
38919
38919
38919
38934
38962
38903
38911
38919
38979
38911
38911
38910
38911
38949
38898
38912
38911
38919
38975
38894
38911
38912
38965
38900
38903
38887
38919
38949
38959
38887
38889
38888
38900
38885
38926
38943
38894
38874
38885
38894
38890
38938
38907
38881
38875
38879
38878
38868
38903
38933
38871
38873
38869
38869
38887
38910
38940
38867
38860
38863
38859
38916
38951
38858
38863
38863
38871
38894
38935
38853
38848
38844
38870
38853
38855
38895
38943
38836
38852
38855
38867
38892
38919
38847
38844
38839
38886
38908
38836
38834
38844
38878
38831
38836
38852
38863
38909
38831
38828
38851
38877
38834
38817
38831
38870
38899
38829
38823
38839
38901
38820
38816
38847
38877
38818
38801
38828
38812
38827
38883
38812
38820
38823
38823
38831
38879
38815
38807
38831
38821
38868
38819
38809
38806
38823
38890
38799
38797
38804
38807
38846
38791
38788
38791
38807
38823
38856
38754
38785
38797
38796
38808
38852
38788
38780
38791
38799
38819
38858
38781
38779
38783
38804
38821
38772
38767
38783
38781
38820
38855
38759
38773
38780
38807
38845
38770
38775
38773
38806
38862
38771
38767
38805
38765
38772
38768
38815
38759
38759
38758
38791
38860
38751
38751
38815
38756
38765
38775
38823
38754
38778
38822
38756
38758
38782
38746
38755
38751
38827
38754
38755
38823
38753
38747
38844
38746
38745
38798
38748
38746
38795
38743
38740
38791
38732
38735
38782
38734
38737
38751
38811
38724
38743
38739
38776
38814
38733
38727
38720
38761
38813
38717
38735
38731
38767
38828
38735
38733
38738
38806
38713
38734
38735
38774
38722
38719
38729
38757
38727
38713
38715
38767
38770
38710
38708
38732
38780
38706
38715
38703
38751
38749
38724
38711
38737
38782
38699
38703
38715
38751
38711
38697
38708
38727
38763
38717
38715
38727
38783
38702
38712
38703
38724
38804
38703
38695
38708
38775
38695
38691
38703
38740
38695
38697
38705
38717
38779
38700
38695
38710
38764
38691
38699
38709
38766
38701
38691
38693
38701
38724
38778
38693
38695
38684
38685
38705
38743
38757
38684
38687
38685
38715
38769
38686
38687
38699
38709
38743
38692
38694
38695
38691
38727
38631
38684
38683
38714
38689
38671
38687
38695
38749
38679
38678
38695
38740
38668
38679
38676
38679
38687
38718
38734
38675
38676
38679
38732
38679
38701
38656
38676
38743
38682
38690
38729
38678
38663
38681
38672
38688
38710
38727
38663
38650
38663
38670
38663
38708
38652
38674
38671
38663
38684
38721
38661
38657
38676
38683
38714
38663
38663
38660
38672
38693
38685
38718
38725
38663
38663
38665
38702
38660
38663
38660
38690
38715
38660
38662
38668
38733
38654
38653
38653
38694
38694
38650
38655
38655
38684
38709
38641
38638
38646
38641
38663
38698
38636
38637
38652
38686
38636
38629
38643
38662
38663
38625
38625
38631
38655
38623
38622
38623
38627
38661
38673
38609
38613
38620
38654
38603
38607
38609
38635
38654
38624
38604
38615
38611
38640
38655
38599
38607
38615
38599
38623
38639
38615
38594
38599
38615
38623
38642
38595
38596
38599
38614
38613
38631
38599
38599
38597
38600
38612
38615
38586
38588
38595
38588
38599
38627
38569
38575
38582
38581
38588
38594
38604
38585
38581
38572
38572
38578
38579
38588
38606
38567
38575
38571
38565
38578
38597
38597
38555
38567
38557
38558
38583
38589
38490
38549
38551
38568
38551
38567
38576
38567
38548
38564
38558
38549
38553
38564
38572
38533
38547
38535
38551
38551
38543
38551
38561
38583
38535
38535
38535
38535
38543
38551
38563
38527
38522
38524
38535
38540
38567
38527
38532
38535
38535
38535
38540
38562
38518
38527
38527
38535
38543
38519
38522
38519
38535
38538
38516
38516
38511
38531
38542
38519
38519
38519
38534
38513
38510
38519
38535
38503
38501
38516
38535
38503
38507
38509
38524
38503
38503
38508
38526
38508
38496
38511
38513
38495
38492
38509
38508
38497
38490
38493
38500
38503
38471
38471
38492
38480
38501
38496
38495
38469
38475
38484
38484
38482
38468
38468
38471
38487
38478
38473
38453
38473
38471
38492
38477
38471
38386
38454
38463
38462
38476
38471
38453
38463
38455
38455
38468
38462
38356
38441
38439
38452
38460
38436
38445
38450
38453
38443
38431
38426
38455
38445
38423
38431
38445
38407
38407
38423
38431
38426
38404
38422
38423
38428
38438
38407
38399
38416
38407
38407
38407
38407
38394
38394
38397
38407
38407
38390
38404
38391
38407
38391
38388
38388
38380
38391
38373
38362
38381
38383
38383
38361
38335
38369
38363
38365
38381
38373
38367
38315
38359
38361
38348
38368
38367
38343
38298
38343
38347
38342
38344
38348
38331
38308
38327
38335
38335
38343
38332
38330
38311
38295
38327
38324
38306
38332
38313
38316
38317
38303
38311
38317
38311
38311
38292
38291
38292
38293
38301
38311
38314
38279
38287
38287
38293
38285
38302
38279
38287
38254
38224
38267
38266
38277
38279
38277
38263
38253
38271
38260
38268
38258
38263
38271
38261
38217
38245
38246
38247
38242
38254
38263
38247
38202
38178
38231
38239
38237
38237
38247
38217
38151
38220
38223
38231
38221
38151
38219
38215
38212
38220
38210
38151
38210
38203
38201
38222
38207
38180
38203
38205
38194
38213
38205
38151
38189
38199
38183
38196
38180
38181
38174
38189
38172
38183
38177
38183
38179
38158
38151
38175
38055
38166
38117
38172
38162
38160
38172
38101
38148
38166
38095
38143
38148
38031
38151
38151
38071
38134
38125
38134
38151
38036
38133
38132
38119
38126
38077
38135
38131
38039
38127
38119
38109
38124
38110
38106
38107
38119
38115
38078
38103
38114
38086
38090
38119
38093
38095
38060
38087
38095
38091
38103
37991
38075
38069
38079
38067
38076
38075
38033
38064
38073
38068
38086
38023
38068
38083
38007
38063
38063
38060
38047
38023
38054
38071
38047
38046
38052
38053
38055
37998
38047
38059
37987
38039
38042
38036
38023
38007
38023
38042
37938
38031
38021
38022
38031
37975
38006
38022
38013
38004
37959
38005
38004
38015
38006
37947
38013
38009
37997
38007
37943
37999
37983
37994
38000
37943
37999
37991
37908
37989
37989
37981
37975
37959
37978
37994
37937
37970
37988
37860
37958
37935
37959
37987
37826
37962
37959
37958
37959
37919
37959
37958
37956
37935
37923
37956
37956
37940
37951
37938
37950
37935
37932
37871
37919
37895
37933
37948
37819
37922
37910
37921
37924
37911
37921
37873
37916
37934
37919
37919
37895
37911
37908
37876
37909
37911
37775
37910
37915
37853
37895
37911
37883
37895
37877
37851
37879
37901
37788
37875
37876
37879
37885
37787
37877
37860
37867
37875
37812
37859
37875
37875
37844
37826
37844
37844
37839
37852
37858
37836
37861
37839
37822
37847
37827
37823
37845
37855
37767
37834
37861
37715
37837
37810
37822
37815
37818
37821
37839
37684
37802
37817
37733
37804
37815
37799
37817
37804
37733
37811
37799
37789
37815
37767
37673
37799
37780
37807
37783
37740
37783
37799
37783
37792
37782
37699
37783
37781
37767
37791
37767
37695
37626
37767
37759
37775
37767
37733
37653
37762
37767
37751
37767
37735
37662
37735
37754
37734
37756
37724
37622
37739
37710
37759
37716
37620
37732
37710
37737
37663
37719
37726
37709
37735
37718
37612
37715
37713
37735
37704
37599
37719
37697
37695
37615
37705
37699
37703
37703
37582
37687
37694
37703
37668
37564
37674
37684
37681
37687
37614
37487
37663
37669
37663
37680
37655
37591
37652
37660
37627
37660
37639
37604
37535
37639
37615
37636
37596
37615
37620
37609
37639
37577
37607
37623
37629
37591
37609
37607
37629
37563
37599
37583
37600
37559
37403
37589
37583
37557
37610
37573
37503
37410
37566
37566
37541
37579
37559
37541
37495
37375
37551
37551
37546
37553
37545
37485
37325
37534
37527
37519
37543
37527
37447
37383
37518
37508
37516
37511
37465
37311
37505
37503
37486
37511
37508
37487
37428
37350
37495
37479
37492
37467
37476
37495
37487
37461
37355
37479
37471
37453
37477
37468
37413
37447
37462
37428
37463
37436
37377
37446
37441
37423
37458
37431
37383
37295
37426
37430
37439
37393
37424
37405
37287
37417
37405
37431
37372
37404
37396
37415
37383
37277
37396
37383
37383
37383
37405
37381
37271
37370
37375
37345
37378
37383
37357
37278
37354
37359
37333
37373
37367
37344
37333
37183
37351
37321
37359
37329
37213
37335
37324
37327
37311
37317
37335
37337
37277
37173
37098
37303
37310
37282
37327
37308
37268
37125
37305
37309
37277
37287
37295
37164
37277
37285
37283
37266
37095
37279
37241
37295
37255
37073
37269
37252
37283
37255
37220
37121
37239
37221
37267
37255
37111
37247
37191
37252
37229
37167
37231
37224
37191
37234
37181
37211
37216
37211
37223
37182
37077
37204
37202
37172
37208
37160
37009
37191
37159
37196
37192
37119
36923
37177
37127
37159
36951
37161
37140
37177
37099
37159
37157
37127
37143
36905
37151
37108
37159
37117
36975
37127
37125
37095
37139
37100
37055
37119
37095
37127
37108
37047
36991
37095
37077
37074
37106
37068
36930
37077
37079
37039
37087
37057
36902
37052
37028
37060
37061
36911
37060
37025
37058
37036
36942
37031
37009
37004
37042
36967
36869
37015
36999
37023
36999
36918
36764
36999
36985
36989
36977
36991
36932
36783
36967
36966
36943
36927
36977
36967
36941
36868
36767
36951
36935
36935
36903
36950
36895
36779
36919
36919
36871
36897
36923
36904
36828
36909
36871
36923
36890
36718
36880
36863
36899
36863
36650
36871
36827
36866
36791
36660
36845
36843
36823
36868
36836
36740
36822
36829
36796
36845
36796
36663
36823
36796
36832
36758
36805
36798
36815
36682
36780
36797
36791
36785
36733
36548
36763
36766
36774
36674
36764
36759
36730
36764
36733
36561
36743
36741
36695
36751
36732
36711
36551
36707
36674
36704
36615
36695
36690
36700
36663
36706
36687
36597
36681
36695
36660
36479
36663
36653
36646
36675
36655
36540
36450
36639
36615
36647
36621
36455
36629
36614
36615
36615
36538
36373
36602
36582
36613
36572
36439
36589
36583
36575
36596
36567
36455
36564
36570
36316
36529
36551
36549
36514
36551
36383
36541
36543
36383
36519
36510
36443
36519
36519
36292
36495
36516
36250
36481
36469
36506
36487
36469
36447
36430
36339
36231
36457
36463
36449
36422
36476
36461
36463
36438
36437
36415
36353
36414
36430
36431
36383
36407
36409
36404
36394
36421
36323
36388
36391
36381
36347
36308
36359
36337
36386
36346
36359
36350
36359
36357
36326
36323
36207
36116
36325
36103
36094
36324
36323
36321
36316
36295
36291
36327
36308
36205
36068
36294
36283
36253
36254
36287
36267
36253
36207
36124
36255
36253
36228
36250
36231
36156
36231
36243
36205
36215
36231
36218
36167
36215
36215
36180
36215
36213
36175
36055
36187
36172
36194
36172
36007
36174
36140
36175
36103
36159
36167
36124
36154
36115
35919
36139
36115
36154
36133
36039
36124
36103
36128
36096
35943
36111
36075
36074
36071
36087
36100
36061
35877
36071
36063
36039
36079
36063
35975
36055
36047
36009
36055
36038
35955
36031
36020
36043
36021
35772
36023
35991
36022
35975
35998
35991
35989
35951
35974
36007
35975
35893
35738
35972
35924
35959
35766
35951
35974
35807
35943
35903
35937
35823
35925
35904
35935
35899
35914
35893
35927
35870
35895
35879
35903
35804
35879
35839
35860
35661
35863
35887
35815
35854
35847
35812
35847
35719
35839
35815
35859
35815
35829
35839
35814
35795
35692
35631
35806
35807
35771
35778
35803
35757
35607
35782
35767
35775
35778
35753
35682
35755
35759
35738
35767
35756
35733
35683
35503
35719
35730
35683
35730
35719
35650
35469
35695
35687
35667
35695
35709
35667
35452
35679
35639
35678
35591
35655
35639
35676
35631
35636
35644
35599
35644
35577
35625
35623
35585
35615
35503
35610
35559
35591
35471
35588
35599
35552
35604
35548
35341
35572
35534
35559
35436
35559
35556
35543
35551
35540
35501
35539
35359
35523
35511
35527
35383
35505
35501
35533
35495
35351
35495
35463
35509
35470
35482
35471
35454
35500
35471
35437
35383
35460
35456
35412
35471
35455
35410
35204
35445
35435
35396
35444
35402
35271
35412
35419
35388
35420
35389
35253
35399
35381
35387
35394
35259
35379
35367
35388
35365
35297
35131
35363
35319
35367
35316
35128
35344
35335
35305
35357
35335
35206
35311
35315
35309
35311
35204
35306
35300
35318
35266
35079
35298
35303
35268
35293
35264
35302
35163
35263
35215
35267
35164
35255
35245
35207
35239
35131
35227
35231
35178
35244
35168
35032
35204
35164
35219
35023
35207
35188
35206
35167
34925
35172
35138
35175
35092
35154
35156
35149
35173
35127
35141
35141
35150
35118
35125
35116
35099
35145
35098
34951
35110
35104
35071
35121
35071
34866
35072
35079
35044
35094
35057
34935
35058
35044
35047
35052
35030
34935
35034
35034
34991
35039
34967
35010
35007
34975
35005
34852
35007
34972
34989
34858
34983
34957
35006
34941
34933
34963
34927
34977
34942
34773
34950
34943
34915
34951
34924
34892
34833
34707
34910
34883
34927
34873
34708
34903
34877
34890
34823
34876
34876
34857
34871
34835
34848
34861
34836
34855
34691
34823
34801
34842
34790
34818
34821
34797
34836
34810
34773
34583
34791
34804
34759
34651
34777
34782
34789
34790
34759
34646
34767
34750
34756
34756
34711
34503
34740
34695
34748
34727
34675
34558
34717
34695
34695
34726
34683
34559
34681
34687
34682
34636
34687
34669
34637
34533
34663
34652
34647
34621
34639
34606
34527
34630
34622
34599
34639
34604
34389
34607
34567
34604
34462
34588
34593
34567
34580
34547
34366
34567
34522
34583
34562
34428
34311
34539
34540
34484
34540
34503
34300
34519
34517
34509
34495
34364
34502
34489
34455
34506
34466
34371
34470
34463
34466
34432
34468
34439
34283
34450
34439
34403
34447
34387
34429
34423
34407
34375
34383
34430
34399
34311
34207
34397
34363
34407
34366
34225
34378
34371
34311
34382
34364
34287
34095
34343
34332
34298
34335
34279
34126
34311
34311
34295
34310
34303
34212
34022
34284
34223
34280
34229
34277
34255
34271
34155
34250
34199
34135
34207
34153
34232
34247
34215
34140
34210
34209
34167
34215
34171
34031
34191
34183
34180
34183
34097
34155
34165
34125
34175
34143
34069
34138
34141
34150
34111
33861
34119
34054
34113
34047
33813
34103
34023
34110
34050
33812
34063
34055
34073
34055
33990
33769
34052
34035
34044
34042
33815
34031
33977
34007
34007
33938
34006
33791
34003
34015
33830
33985
33912
33978
33799
33967
33909
33975
33751
33946
33910
33935
33741
33940
33876
33948
33917
33703
33926
33909
33917
33852
33895
33876
33895
33877
33687
33877
33804
33895
33843
33549
33869
33833
33839
33519
33849
33783
33836
33599
33831
33815
33789
33813
33812
33791
33791
33655
33791
33786
33799
33769
33598
33761
33775
33687
33767
33719
33535
33751
33717
33765
33739
33647
33397
33719
33727
33655
33683
33727
33701
33621
33374
33700
33606
33713
33687
33662
33484
33665
33668
33644
33574
33625
33675
33639
33484
33639
33559
33655
33609
33287
33617
33529
33637
33605
33312
33607
33574
33617
33564
33219
33586
33506
33591
33487
33559
33511
33574
33487
33543
33523
33563
33495
33166
33532
33463
33543
33505
33296
33511
33423
33526
33415
33492
33492
33452
33511
33455
33188
33483
33479
33469
33471
33335
33469
33453
33397
33388
33451
33374
33420
33429
33423
33433
33363
33440
33413
33383
33206
33396
33407
33303
33423
33381
33335
33044
33375
33383
33287
33390
33315
33087
33355
33324
33339
33341
33012
33342
33245
33350
33287
33126
33319
33323
33221
33338
33287
33126
33302
33266
33319
33257
33023
33283
33223
33287
33204
33007
33275
33222
33287
33263
33201
32887
33241
33143
33254
33199
33221
33239
33135
33231
33159
32939
33212
33133
33229
33185
32956
33198
33181
33095
33211
33159
32855
33169
33207
33103
33159
33115
33151
32933
33140
33079
33159
33047
33138
33102
33094
33134
33054
33112
33099
33127
33075
32743
33095
33073
33078
32876
33091
33083
33084
32950
33067
33067
33090
33047
32978
33054
33060
32986
33069
33026
32658
33039
33045
32851
33031
33052
32947
33021
32993
32934
33021
33029
32852
32973
32987
32987
33007
32695
32906
32949
32983
32999
32599
32893
32951
32585
32927
32963
32634
32962
32962
32935
32852
32911
32943
32951
32706
32838
32891
32922
32935
32859
32932
32885
32759
32903
32918
32741
32895
32894
32878
32789
32789
32878
32871
32867
32877
32495
32770
32839
32844
32873
32572
32765
32751
32838
32853
32839
32854
32823
32844
32456
32747
32551
32731
32770
32810
32821
32799
32805
32487
32729
32751
32775
32729
32719
32627
32723
32734
32756
32783
32769
32759
32421
32683
32478
32659
32607
32736
32732
32727
32751
32725
32762
32380
32655
32708
32454
32640
32687
32695
32730
32351
32612
32647
32696
32686
32679
32660
32548
32671
32667
32662
32591
32647
32671
32685
32497
32663
32662
32660
32581
32567
32641
32661
32427
32622
32647
32539
32623
32646
32609
32564
32601
32606
32623
32308
32519
32550
32601
32605
32323
32583
32585
32263
32515
32574
32572
32583
32483
32567
32548
32486
32560
32582
32423
32559
32584
32484
32551
32546
32354
32534
32532
32199
32515
32510
32150
32519
32519
32177
32506
32510
32199
32450
32486
32484
32381
32409
32463
32446
32487
32494
32303
32467
32464
32157
32452
32441
32084
32358
32405
32436
32451
32068
32357
32151
32359
32396
32404
32436
32211
32404
32399
32391
32354
32332
32399
32396
32055
32340
32335
32375
32390
32369
32370
32135
32340
32307
32358
32299
32351
32358
32181
32335
32343
32318
32349
32321
32295
32106
32241
32263
32303
32249
32211
32281
32211
32263
32279
32285
32279
31949
32278
32294
32259
32277
32263
32263
32261
32142
32173
31942
32222
31881
32210
32239
32252
32214
32196
32199
32175
32183
32124
32188
32172
32207
32167
32188
32167
32189
32178
32183
32195
32178
32167
32182
32175
32154
32156
32165
32135
32151
32135
32027
32139
32139
32089
32117
31934
32125
32039
32116
31951
32119
32109
32095
31909
32101
32061
32113
31991
32092
32027
32095
31975
32070
32052
32082
31919
32081
32048
32039
32063
31973
32034
31703
32039
31999
32015
32022
32031
32046
31956
32029
32001
32020
31943
32007
31989
32027
31943
31626
31991
31914
32009
31932
31719
31975
31961
31994
31942
31723
31958
31910
31963
31907
31943
31936
31946
31639
31910
31914
31925
31933
31575
31837
31807
31908
31879
31900
31867
31901
31844
31821
31782
31814
31780
31839
31831
31866
31847
31858
31869
31850
31863
31532
31761
31682
31790
31770
31830
31803
31823
31843
31715
31812
31804
31807
31823
31467
31780
31767
31784
31815
31556
31767
31751
31764
31764
31572
31751
31663
31751
31765
31732
31676
31710
31734
31663
31735
31567
31727
31739
31566
31710
31714
31482
31658
31659
31679
31655
31476
31671
31679
31459
31661
31676
31511
31655
31663
31583
31631
31586
31575
31623
31631
31261
31533
31511
31599
31628
31553
31255
31579
31575
31524
31551
31590
31588
31565
31508
31363
31538
31551
31535
31543
31542
31492
31412
31210
31511
31508
31444
31535
31471
31387
31494
31495
31485
31449
31479
31482
31386
31137
31454
31445
31380
31461
31398
31174
31431
31425
31405
31426
31383
31133
31410
31403
31332
31405
31382
31311
31207
31053
31362
31371
31367
31303
31330
31363
31347
31285
31047
31324
31324
31283
31311
31259
31042
31303
31297
31319
31253
31279
31299
31025
31213
31108
31223
31166
31239
31210
31255
31255
31234
31198
31087
31209
31237
30983
31157
31159
31207
31205
31183
31140
31117
31172
31181
31166
31189
30983
31119
31063
31154
31111
31140
31154
30891
31063
31103
31111
31077
30980
31099
31117
30916
31076
31092
30907
31069
31054
31013
31061
31036
30951
31057
31046
31041
31060
30839
30983
30990
31007
30983
30919
31004
30991
30983
30947
30919
30982
30959
30804
30963
30972
30687
30909
30901
30950
30956
30812
30919
30935
30746
30919
30926
30636
30887
30869
30889
30910
30751
30871
30852
30874
30846
30764
30867
30867
30839
30812
30743
30836
30855
30587
30831
30833
30687
30807
30807
30801
30747
30691
30784
30751
30785
30775
30613
30759
30766
30743
30709
30631
30742
30712
30725
30685
30655
30719
30733
30535
30688
30709
30644
30687
30653
30633
30687
30637
30628
30661
30687
30534
30647
30643
30359
30598
30587
30620
30580
30585
30615
30564
30543
30591
30563
30566
30580
30556
30487
30575
30595
30351
30530
30507
30551
30543
30379
30538
30503
30530
30539
30455
30503
30479
30507
30359
30495
30491
30231
30470
30455
30468
30484
30254
30459
30468
30196
30438
30449
30186
30447
30444
30326
30415
30426
30331
30389
30343
30367
30375
30354
30383
30199
30367
30385
30176
30356
30338
30070
30314
30284
30331
30335
30234
30311
30327
30143
30309
30319
30231
30279
30243
30253
30273
30244
30268
30271
30255
30214
30215
30247
30200
30203
30230
30191
30155
30203
30180
30194
29968
30210
30215
30107
30185
30165
30102
30167
30185
30163
30151
30071
30151
30161
29948
30115
29966
30103
30015
30119
30127
29979
30103
30094
29850
30079
30082
29882
30081
30087
29970
30060
30066
29869
30032
30015
30039
30051
29859
30023
29978
30009
30028
29843
29991
30004
29735
29959
29911
29981
29968
29954
29935
29871
29953
29927
29939
29943
29743
29900
29860
29919
29935
29695
29898
29895
29884
29863
29765
29871
29862
29863
29891
29727
29863
29846
29594
29821
29787
29831
29825
29735
29815
29831
29656
29812
29814
29551
29775
29731
29787
29775
29701
29766
29741
29699
29750
29727
29726
29522
29732
29735
29519
29703
29700
29472
29700
29677
29684
29691
29703
29536
29679
29692
29539
29667
29685
29570
29655
29642
29557
29643
29656
29436
29625
29607
29615
29606
29557
29596
29606
29597
29566
29495
29591
29583
29358
29575
29568
29319
29551
29524
29541
29532
29532
29329
29528
29535
29340
29509
29503
29309
29492
29503
29290
29479
29485
29311
29475
29474
29383
29454
29469
29215
29423
29399
29423
29447
29309
29414
29372
29415
29420
29286
29400
29399
29380
29348
29293
29373
29359
29371
29342
29333
29351
29324
29279
29351
29311
29262
29327
29339
29175
29313
29326
29121
29287
29278
29063
29281
29279
29087
29261
29230
29259
29239
29191
29244
29249
29114
29239
29223
29220
29217
29095
29191
29127
29206
29205
29137
29181
29161
29132
29182
29191
29083
29167
29172
29028
29151
29163
28975
29130
29143
28993
29122
29127
28951
29099
29109
28991
29091
29055
29052
28831
29074
29077
28909
29053
29055
28843
29031
29000
28792
29023
29031
28804
29004
29018
28887
29001
29012
28852
28981
28962
28783
28958
28956
28741
28945
28935
28942
28922
28897
28916
28922
28932
28805
28905
28895
28853
28884
28870
28814
28879
28901
28726
28863
28869
28736
28852
28821
28820
28839
28824
28780
28819
28797
28763
28814
28774
28767
28789
28785
28788
28597
28778
28783
28703
28767
28743
28678
28741
28733
28693
28734
28749
28695
28719
28706
28679
28490
28700
28692
28700
28668
28669
28469
28674
28686
28467
28671
28648
28655
28625
28632
28639
28619
28620
28399
28606
28607
28613
28588
28535
28591
28594
28586
28569
28492
28575
28563
28565
28547
28523
28555
28526
28486
28539
28532
28437
28522
28533
28397
28515
28529
28412
28503
28474
28431
28484
28484
28287
28468
28447
28463
28446
28398
28443
28423
28411
28432
28423
28351
28423
28423
28359
28409
28391
28295
28401
28396
28231
28377
28394
28253
28365
28389
28281
28346
28351
28258
28345
28351
28236
28330
28335
28127
28300
28275
28310
28301
28123
28295
28293
28113
28271
28274
28089
28262
28276
28166
28246
28258
28068
28223
28196
28232
28218
28211
28221
28203
28159
28188
28167
28150
28177
28191
28097
28182
28174
28158
28147
28101
28144
28133
28057
28126
28133
28004
28116
28114
27887
28104
28070
28098
28078
28033
28084
28102
27935
28058
28058
27835
28055
28031
28047
28022
27995
28031
28013
27937
28018
28029
27819
27991
27942
27999
28012
27759
27963
27887
27968
27967
27952
27956
27943
27935
27884
27935
27909
27869
27927
27940
27698
27905
27847
27895
27911
27746
27872
27892
27694
27868
27823
27850
27863
27679
27836
27839
27618
27809
27768
27817
27821
27693
27806
27810
27583
27783
27767
27775
27766
27692
27771
27758
27757
27749
27610
27734
27700
27740
27713
27655
27706
27718
27530
27702
27671
27688
27690
27583
27683
27689
27486
27671
27655
27487
27645
27655
27546
27630
27623
27611
27420
27620
27623
27544
27590
27594
27604
27414
27580
27593
27535
27567
27551
27568
27447
27548
27551
27397
27527
27545
27399
27517
27530
27460
27510
27489
27479
27493
27471
27407
27479
27455
27425
27452
27446
27424
27454
27429
27415
27431
27451
27244
27415
27365
27406
27419
27398
27386
27357
27384
27391
27196
27364
27333
27367
27374
27303
27366
27340
27317
27345
27357
27197
27326
27310
27322
27339
27164
27307
27285
27300
27312
27140
27285
27269
27290
27292
27269
27250
27211
27255
27262
27042
27234
27187
27221
27246
27143
27220
27229
27076
27215
27205
27018
27195
27178
27185
27177
27156
27177
27158
27125
27164
27157
27105
27143
27143
27071
27127
27143
27009
27119
27125
27013
27111
27122
26985
27093
27071
27086
27093
26900
27074
27031
27071
27046
27007
27061
27052
26955
27039
27031
27031
27027
26901
27015
26988
27015
27031
27004
27015
26826
26995
26966
26982
27004
26863
26983
26953
26968
26975
26966
26959
26827
26949
26916
26942
26902
26941
26948
26751
26908
26902
26918
26893
26855
26901
26907
26765
26891
26870
26879
26892
26733
26866
26875
26864
26882
26717
26852
26825
26839
26827
26811
26835
26844
26647
26807
26737
26815
26805
26819
26812
26691
26796
26775
26795
26798
26783
26785
26626
26759
26730
26767
26749
26748
26776
26648
26749
26737
26750
26735
26674
26731
26731
26722
26718
26618
26701
26682
26710
26695
26705
26693
26691
26700
26548
26683
26639
26673
26693
26663
26652
26551
26651
26586
26650
26581
26635
26611
26631
26606
26631
26631
26631
26628
26615
26617
26532
26607
26511
26599
26603
26588
26604
26460
26591
26530
26578
26594
26575
26563
26543
26572
26571
26418
26564
26524
26549
26553
26446
26538
26537
26389
26535
26537
26391
26524
26513
26487
26521
26501
26471
26503
26515
26348
26487
26429
26497
26505
26423
26473
26469
26430
26469
26457
26443
26460
26447
26415
26453
26467
26332
26444
26415
26447
26437
26366
26436
26446
26278
26413
26382
26420
26427
26285
26404
26389
26399
26402
26351
26396
26391
26372
26392
26372
26375
26372
26372
26385
26247
26375
26349
26359
26356
26339
26355
26359
26201
26343
26303
26337
26355
26186
26341
26335
26334
26317
26315
26157
26318
26306
26174
26309
26322
26279
26302
26306
26223
26302
26299
26136
26294
26293
26283
26278
26266
26285
26294
26119
26268
26220
26271
26234
26273
26276
26111
26246
26231
26247
26250
26194
26246
26261
26159
26231
26229
26203
26223
26215
26212
26055
26231
26218
26044
26210
26218
26086
26215
26213
26065
26203
26213
26039
26195
26196
26203
26191
26184
26185
26179
26161
26182
26175
26119
26183
26167
26183
26173
26164
26011
26166
26183
26052
26160
26151
26151
26148
26139
25981
26136
26140
26145
26137
26135
26013
26133
26127
25978
26119
26079
26119
26137
25990
26119
26110
25989
26109
26116
25957
26101
26119
26045
26111
26118
26007
26096
26092
26087
26082
26100
25943
26088
26105
26013
26082
26095
25927
26079
26072
25948
26068
26071
26072
26068
26036
26062
26078
25945
26051
26037
26060
26064
25959
26055
26054
26059
26044
26015
26041
26033
26047
25888
26041
26049
25893
26023
26039
25868
26023
26031
25881
26009
25988
26017
26004
25933
25999
26031
25953
26005
26007
25870
25988
26005
25861
25990
25965
25991
25988
25934
25991
26007
25862
25980
25950
25972
25989
25828
25965
25934
25972
25990
25875
25959
25951
25978
25955
25926
25959
25961
25893
25951
25956
25963
25956
25885
25941
25959
25874
25946
25948
25887
25948
25941
25940
25932
25826
25932
25937
25939
25874
25942
25927
25913
25930
25910
25811
25925
25930
25924
25924
25912
25784
25919
25919
25933
25894
25883
25842
25911
25910
25900
25922
25895
25830
25907
25903
25902
25925
25874
25765
25895
25903
25894
25912
25905
25875
25796
25901
25895
25898
25903
25895
25903
25879
25821
25759
25877
25881
25874
25895
25858
25812
25871
25879
25879
25894
25863
25879
25869
25875
25889
25828
25868
25871
25876
25881
25859
25798
25876
25879
25876
25867
25852
25791
25863
25859
25871
25857
25836
25857
25867
25871
25855
25798
25857
25855
25865
25816
25854
25859
25870
25850
25852
25858
25845
25862
25863
25871
25860
25862
25815
25854
25830
25845
25863
25838
25850
25857
25854
25852
25831
25844
25850
25809
25842
25860
25826
25850
25846
25787
25854
25854
25838
25846
25845
25843
25834
25843
25836
25847
25845
25834
25846
25838
25842
25856
25839
25845
25839
25841
25835
25842
25832
25841
25837
25836
25839
25835
25844
25850
25825
25837
25853
25814
25835
25846
25832
25823
25839
25842
25827
25839
25841
25837
25835
25836
25831
25826
25846
25836
25829
25839
25825
25832
25847
25825
25829
25835
25780
25834
25839
25844
25836
25831
25819
25829
25838
25826
25837
25827
25825
25834
25831
25827
25834
25842
25830
25844
25819
25831
25833
25823
25825
25819
25820
25842
25823
25829
25825
25828
25839
25831
25825
25842
25825
