EGG
33360
33342
33355
33359
33237
33321
33351
33366
33379
33356
33351
33372
33364
33371
33364
33228
33287
33350
33372
33343
33375
33367
33371
33375
33190
33215
33287
33333
33382
33391
33389
33357
33370
33383
33383
33311
33379
33391
33357
33383
33383
33386
33383
33220
33303
33366
33415
33367
33396
33391
33396
33396
33393
33229
33342
33383
33411
33411
33423
33391
33391
33415
33405
33190
33331
33391
33415
33428
33397
33407
33409
33413
33258
33340
33383
33404
33436
33396
33415
33415
33414
33422
33415
33227
33327
33375
33406
33431
33447
33407
33415
33429
33443
33431
33430
33420
33437
33327
33372
33420
33439
33447
33455
33435
33437
33441
33439
33439
33379
33447
33427
33439
33439
33449
33431
33465
33465
33455
33415
33383
33387
33406
33439
33439
33359
33269
33469
33455
33463
33463
33287
33375
33446
33469
33485
33439
33466
33465
33461
33311
33417
33468
33487
33495
33458
33470
33484
33436
33482
33454
33483
33479
33302
33410
33479
33494
33487
33479
33482
33477
33311
33415
33478
33495
33513
33478
33496
33486
33285
33356
33415
33484
33499
33481
33479
33493
33492
33308
33348
33370
33457
33509
33524
33499
33493
33511
33303
33411
33491
33515
33479
33506
33295
33455
33511
33501
33511
33526
33513
33431
33485
33529
33499
33519
33519
33504
33375
33483
33532
33543
33499
33514
33534
33476
33535
33535
33508
33519
33532
33529
33415
33479
33517
33562
33510
33527
33540
33535
33535
33383
33486
33535
33551
33519
33543
33535
33415
33519
33565
33543
33543
33499
33543
33535
33543
33539
33549
33431
33507
33517
33557
33573
33527
33543
33553
33477
33543
33575
33548
33566
33561
33351
33447
33541
33569
33543
33573
33575
33564
33482
33559
33594
33551
33572
33569
33573
33511
33569
33599
33543
33573
33589
33455
33555
33593
33567
33583
33586
33421
33511
33561
33596
33611
33569
33597
33598
33471
33579
33611
33569
33591
33412
33519
33579
33615
33585
33602
33585
33415
33551
33589
33583
33593
33591
33599
33474
33574
33613
33582
33591
33411
33559
33619
33579
33604
33443
33588
33596
33589
33563
33615
33588
33593
33507
33610
33578
33591
33455
33567
33602
33613
33589
33603
33407
33599
33606
33596
33575
33607
33618
33615
33607
33579
33567
33578
33598
33583
33608
33615
33617
33583
33494
33606
33607
33607
33620
33607
33615
33603
33607
33605
33607
33411
33478
33525
33543
33575
33567
33582
33621
33617
33631
33626
33618
33627
33627
33623
33631
33631
33631
33632
33631
33631
33637
33624
33613
33615
33614
33590
33603
33604
33602
33607
33625
33615
33617
33628
33631
33618
33623
33612
33623
33614
33610
33607
33621
33607
33593
33591
33592
33589
33605
33631
33633
33634
33631
33623
33622
33593
33599
33620
33610
33606
33620
33623
33615
33612
33610
33602
33617
33614
33615
33607
33607
33595
33605
33607
33620
33607
33602
33599
33635
33615
33607
33591
33596
33599
33626
33623
33631
33633
33626
33626
33628
33607
33638
33620
33607
33615
33543
33637
33607
33615
33517
33615
33596
33601
33439
33588
33624
33615
33601
33565
33617
33599
33583
33506
33604
33598
33588
33568
33593
33596
33491
33395
33583
33553
33607
33574
33525
33585
33604
33591
33583
33485
33575
33571
33597
33590
33586
33535
33590
33574
33592
33576
33513
33599
33564
33578
33403
33583
33563
33569
33574
33508
33583
33556
33565
33567
33451
33539
33585
33554
33574
33567
33511
33559
33535
33564
33351
33487
33559
33543
33543
33543
33503
33575
33543
33543
33415
33517
33562
33535
33535
33535
33449
33543
33519
33535
33415
33519
33501
33527
33351
33541
33513
33527
33367
33508
33516
33509
33362
33493
33522
33510
33342
33491
33487
33508
33421
33495
33492
33495
33502
33340
33475
33518
33493
33498
33407
33506
33467
33485
33446
33493
33489
33348
33492
33454
33479
33391
33487
33452
33475
33383
33475
33459
33454
33388
33469
33439
33447
33278
33435
33447
33451
33450
33366
33469
33447
33305
33433
33438
33439
33425
33367
33434
33443
33314
33437
33435
33241
33404
33396
33411
33442
33311
33428
33430
33268
33412
33391
33407
33383
33390
33411
33421
33242
33381
33345
33404
33324
33391
33395
33399
33393
33348
33396
33378
33381
33383
33333
33383
33391
33375
33367
33318
33397
33371
33375
33277
33367
33382
33343
33367
33351
33230
33341
33367
33351
33357
33365
33150
33270
33347
33365
33331
33351
33335
33187
33305
33349
33361
33324
33337
33210
33307
33355
33323
33333
33327
33197
33287
33335
33335
33325
33311
33311
33319
33143
33277
33323
33339
33311
33324
33308
33196
33254
33319
33316
33286
33296
33287
33159
33252
33287
33311
33275
33287
33287
33278
33287
33135
33255
33300
33283
33263
33278
33268
33116
33207
33253
33282
33268
33268
33263
33141
33231
33262
33268
33247
33260
33244
33251
33157
33255
33263
33239
33239
33243
33077
33211
33261
33243
33239
33159
33255
33220
33229
33059
33191
33236
33221
33231
33077
33216
33196
33220
33142
33219
33231
33209
33207
33167
33218
33207
33206
33165
33227
33207
33201
33028
33167
33219
33203
33191
33085
33181
33218
33183
33191
33188
33126
33190
33159
33188
33167
33114
33183
33199
33172
33175
32989
33139
33189
33157
33166
32980
33131
33179
33159
33159
33151
33155
33159
33047
33127
33141
33151
33143
33149
32991
33114
33158
33126
33132
33131
33063
33103
33145
33111
33120
33115
33077
33132
33103
33118
32942
33011
33079
33116
33127
33124
33108
33108
33106
32999
33079
33125
33087
33101
33094
33031
33103
33084
33095
33086
32899
33063
33095
33085
33084
32935
33063
33111
33087
33071
33063
33071
33063
33029
33081
33046
33063
33063
32919
33061
33046
33063
32871
32999
33062
33031
33045
32869
33031
33031
33046
33047
33007
33060
33031
33029
32980
33050
33023
33031
33021
32951
33022
33013
33023
32891
33017
33007
33018
33014
32839
32911
32999
33028
32981
33007
32996
32949
33013
32989
32993
32960
32999
32975
32990
32807
32949
32998
32975
32975
32809
32927
32997
32982
32821
32967
32987
32962
32959
32875
32948
32977
32957
32956
32903
32966
32928
32946
32943
32943
32823
32903
32933
32957
32938
32926
32935
32828
32911
32940
32922
32919
32771
32895
32931
32903
32919
32803
32895
32927
32903
32903
32815
32901
32887
32900
32897
32861
32917
32887
32887
32885
32775
32821
32871
32887
32866
32876
32883
32805
32861
32859
32862
32740
32855
32883
32855
32865
32706
32831
32874
32847
32855
32862
32791
32846
32868
32846
32847
32703
32817
32847
32831
32834
32837
32831
32718
32809
32839
32839
32820
32831
32815
32815
32728
32806
32844
32815
32811
32807
32805
32805
32703
32791
32813
32788
32796
32796
32644
32767
32782
32788
32795
32710
32786
32767
32775
32770
32740
32783
32758
32775
32766
32703
32711
32695
32749
32749
32750
32732
32571
32684
32753
32719
32730
32583
32707
32748
32709
32723
32567
32652
32735
32701
32719
32718
32621
32711
32710
32702
32697
32607
32679
32715
32701
32691
32564
32679
32692
32675
32687
32676
32679
32602
32679
32695
32659
32670
32663
32563
32639
32663
32631
32657
32495
32625
32675
32647
32633
32564
32646
32652
32632
32639
32527
32630
32644
32619
32623
32622
32625
32615
32611
32601
32607
32621
32605
32532
32580
32614
32588
32604
32606
32500
32579
32607
32587
32593
32587
32590
32478
32551
32597
32581
32564
32579
32571
32487
32534
32557
32581
32554
32559
32547
32391
32510
32550
32569
32547
32543
32542
32455
32539
32551
32535
32542
32531
32381
32487
32532
32506
32514
32406
32495
32531
32510
32515
32436
32477
32519
32493
32494
32495
32439
32498
32501
32479
32477
32481
32359
32475
32488
32483
32476
32478
32399
32469
32455
32461
32346
32439
32475
32454
32451
32351
32423
32466
32449
32437
32275
32414
32445
32426
32437
32435
32374
32423
32431
32403
32423
32404
32245
32316
32381
32405
32391
32401
32287
32382
32412
32391
32399
32227
32349
32397
32381
32365
32226
32350
32380
32359
32359
32212
32323
32373
32347
32359
32346
32191
32263
32325
32357
32327
32340
32327
32162
32263
32308
32324
32332
32309
32310
32310
32235
32298
32316
32287
32302
32294
32231
32290
32284
32280
32282
32263
32271
32106
32202
32263
32255
32263
32253
32247
32199
32239
32250
32227
32239
32230
32125
32199
32215
32239
32225
32223
32127
32204
32212
32201
32194
32100
32182
32211
32174
32199
32189
32063
32164
32195
32170
32175
32164
32063
32127
32172
32146
32161
32151
31979
32071
32098
32135
32143
32134
32135
32119
32124
32126
32111
32127
32133
32119
32103
32107
32106
31996
32071
32111
32096
32079
31935
32039
32077
32087
32068
32070
31895
31995
32047
32068
32050
32059
31919
32049
32039
32038
32031
31991
32043
32020
32016
31943
31994
32030
32007
31999
31933
31991
32007
31983
31991
31848
31916
31990
31962
31981
31978
31879
31956
31966
31952
31956
31951
31900
31965
31933
31937
31932
31869
31942
31930
31932
31775
31909
31941
31923
31918
31913
31799
31849
31911
31927
31879
31903
31751
31838
31881
31901
31886
31885
31879
31879
31751
31831
31878
31854
31858
31740
31797
31851
31855
31855
31837
31684
31774
31831
31833
31835
31829
31747
31823
31820
31818
31669
31791
31821
31806
31811
31676
31751
31790
31795
31800
31790
31764
31807
31775
31775
31695
31774
31768
31771
31772
31645
31735
31775
31748
31751
31629
31735
31751
31735
31747
31677
31732
31722
31721
31728
31600
31691
31735
31719
31714
31556
31663
31707
31703
31687
31701
31606
31675
31703
31679
31689
31683
31673
31555
31639
31687
31691
31677
31666
31663
31575
31661
31663
31647
31653
31517
31622
31657
31645
31642
31641
31483
31598
31631
31637
31629
31623
31505
31583
31629
31607
31613
31607
31508
31581
31616
31615
31601
31595
31489
31562
31602
31583
31577
31503
31548
31583
31581
31574
31569
31575
31493
31554
31585
31543
31553
31553
31502
31541
31567
31538
31549
31537
31402
31447
31508
31540
31519
31531
31527
31457
31527
31537
31520
31520
31505
31421
31470
31507
31495
31501
31491
31502
31399
31462
31503
31495
31487
31486
31374
31457
31485
31471
31484
31471
31367
31434
31463
31468
31481
31467
31456
31462
31458
31453
31378
31449
31458
31455
31447
31375
31417
31446
31447
31431
31438
31426
31363
31406
31434
31437
31427
31421
31413
31413
31295
31383
31411
31385
31382
31382
31343
31339
31402
31415
31397
31399
31388
31311
31367
31404
31391
31383
31386
31386
31326
31383
31370
31372
31365
31303
31343
31375
31361
31364
31270
31366
31363
31354
31191
31314
31367
31342
31350
31213
31319
31335
31333
31330
31319
31255
31321
31326
31326
31180
31297
31321
31316
31315
31239
31313
31315
31309
31310
31283
31316
31306
31309
31197
31295
31296
31295
31279
31162
31254
31302
31289
31285
31250
31287
31271
31278
31270
31207
31254
31279
31271
31270
31175
31250
31263
31261
31255
31119
31220
31248
31263
31239
31239
31239
31231
31214
31236
31237
31236
31223
31235
31174
31231
31223
31236
31151
31215
31222
31220
31095
31187
31235
31207
31209
31124
31199
31199
31211
31200
31146
31186
31214
31191
31191
31103
31175
31191
31179
31182
31175
31135
31175
31195
31173
31175
31172
31087
31143
31173
31169
31172
31023
31119
31177
31162
31164
31063
31153
31150
31156
31150
31007
31111
31151
31137
31141
31132
31083
31134
31132
31131
31126
30980
31095
31135
31123
31108
31021
31110
31108
31126
31110
31103
31133
31111
31099
31047
31103
31111
31103
31103
31095
31099
31017
31075
31095
31078
31077
31079
31020
31063
31087
31071
31077
31068
31076
31059
30991
31018
31055
31067
31062
31053
31061
31044
31041
31034
30994
31039
31055
31030
31034
31021
30954
31031
31055
31027
31015
31008
30967
31021
31020
31009
30917
30983
31014
30990
31009
30899
30970
31004
30983
30991
30899
30959
30999
30973
30969
30975
30919
30991
30982
30975
30867
30939
30965
30965
30973
30972
30890
30931
30951
30965
30946
30942
30943
30944
30877
30932
30959
30948
30937
30858
30922
30949
30934
30922
30823
30897
30924
30934
30915
30914
30855
30911
30921
30926
30911
30826
30888
30907
30911
30770
30887
30909
30885
30894
30886
30853
30887
30898
30893
30886
30887
30887
30828
30871
30887
30870
30887
30875
30818
30864
30883
30859
30855
30855
30758
30804
30846
30868
30855
30855
30847
30711
30821
30868
30847
30839
30719
30818
30849
30826
30831
30831
30783
30829
30820
30823
30700
30817
30815
30822
30814
30679
30775
30820
30815
30807
30667
30759
30794
30797
30802
30793
30721
30792
30791
30791
30740
30787
30767
30775
30790
30784
30783
30690
30779
30711
30770
30764
30759
30762
30727
30758
30765
30689
30752
30754
30753
30759
30707
30747
30727
30727
30753
30644
30727
30727
30736
30758
30639
30721
30692
30727
30717
30711
30737
30589
30724
30615
30708
30647
30703
30650
30643
30693
30700
30695
30693
30687
30575
30668
30706
30679
30689
30670
30552
30620
30594
30671
30670
30669
30668
30666
30679
30663
30671
30655
30654
30660
30595
30639
30670
30639
30647
30629
30565
30621
30635
30631
30631
30628
30622
30616
30623
30623
30555
30628
30615
30599
30615
30607
30596
30471
30581
30606
30599
30597
30521
30565
30599
30583
30597
30582
30511
30572
30588
30570
30571
30572
30471
30554
30572
30567
30557
30564
30471
30523
30535
30564
30565
30541
30553
30545
30459
30535
30547
30532
30539
30457
30534
30538
30511
30524
30449
30502
30530
30515
30515
30438
30493
30511
30503
30493
30463
30497
30490
30492
30484
30399
30463
30485
30494
30471
30471
30483
30420
30439
30477
30471
30482
30463
30463
30455
30457
30395
30447
30467
30462
30444
30349
30420
30466
30439
30444
30445
30315
30403
30438
30426
30441
30343
30415
30442
30431
30396
30365
30413
30439
30425
30426
30413
30351
30397
30419
30413
30404
30403
30287
30378
30407
30396
30403
30396
30343
30383
30408
30393
30391
30396
30281
30343
30381
30375
30381
30386
30319
30358
30395
30375
30375
30375
30318
30367
30375
30366
30366
30367
30285
30347
30359
30375
30365
30357
30274
30335
30370
30351
30356
30348
30315
30341
30363
30351
30347
30343
30299
30340
30341
30338
30332
30272
30332
30356
30334
30340
30334
30303
30334
30327
30315
30267
30310
30327
30319
30207
30303
30323
30325
30319
30308
30322
30274
30317
30308
30311
30303
30260
30311
30311
30303
30195
30302
30311
30306
30206
30287
30309
30301
30293
30293
30244
30293
30318
30295
30295
30287
30293
30207
30237
30285
30297
30289
30279
30276
30299
30279
30284
30165
30254
30284
30277
30271
30271
30231
30274
30279
30283
30270
30273
30212
30266
30279
30269
30269
30267
30175
30267
30274
30257
30267
30215
30271
30277
30261
30255
30198
30247
30278
30252
30258
30167
30239
30255
30247
30243
30241
30180
30231
30239
30252
30247
30251
30236
30154
30206
30251
30242
30253
30239
30235
30190
30223
30241
30244
30239
30247
30232
30247
30238
30228
30235
30159
30227
30247
30235
30231
30231
30129
30177
30229
30234
30226
30215
30231
30191
30228
30239
30234
30215
30215
30142
30167
30220
30235
30226
30215
30215
30174
30213
30235
30215
30215
30215
30207
30230
30211
30209
30202
30172
30207
30215
30215
30209
30133
30188
30229
30215
30197
30127
30181
30215
30197
30207
30107
30167
30215
30199
30191
30210
30157
30191
30215
30195
30207
30198
30198
30164
30199
30197
30206
30135
30158
30204
30183
30195
30199
30167
30191
30202
30197
30191
30186
30195
30191
30136
30183
30190
30179
30190
30199
30197
30191
30191
30190
30191
30195
30099
30151
30197
30211
30183
30197
30186
30189
30191
30125
30173
30188
30186
30189
30187
30062
30159
30176
30196
30183
30191
30178
30174
30125
30161
30191
30175
30179
30172
30127
30155
30189
30183
30183
30175
30073
30142
30181
30173
30178
30171
30135
30156
30170
30183
30191
30183
30183
30182
30183
30187
30188
30175
30156
30119
30179
30161
30179
30180
30182
30178
30177
30134
30169
30180
30179
30174
30151
30121
30095
30172
30173
30165
30183
30169
30163
30169
30183
30167
30162
30156
30135
30112
30115
30114
30116
30127
30118
30088
30162
30176
30099
30092
30095
30108
30108
30113
30127
30129
30129
30143
30127
30150
30150
30162
30161
30167
30138
30125
30118
30103
30081
30097
30113
30079
30149
30177
30165
30161
30166
30162
30172
30176
30163
30148
30125
30159
30167
30157
30156
30162
30167
30181
30158
30166
30159
30143
30134
30109
30107
30116
30137
30141
30105
30054
30157
30155
30159
30150
30148
30148
30143
30157
30145
30148
30137
30059
30051
30141
30156
30148
30150
30143
30143
30143
30149
30149
30134
30141
30149
30143
30148
30143
30137
30144
30138
30143
30149
30143
30150
30134
30140
30087
30069
30037
30069
30136
30139
30061
30127
30140
30133
30137
30135
30141
30135
30139
30147
30146
30134
30140
30135
30133
30142
30140
30140
30139
30137
30135
30134
30134
30133
30134
30122
30114
30119
30124
30133
30124
30119
30134
30132
30125
30140
30135
30135
30142
30122
30131
30137
30138
30124
30129
30121
30114
30119
30114
30124
30117
30117
30092
30087
30087
30083
30075
30079
30076
30073
30075
30084
30083
30056
30064
30077
30071
30070
30083
30098
30086
30108
30098
30095
30088
30085
30087
30095
30097
30095
30079
30087
30055
30060
30050
30060
30059
30059
30060
30055
30047
30037
30024
30031
30021
30039
30044
30052
30047
30068
30012
30079
30086
30085
30073
30076
30087
30078
30079
30085
30079
30079
30087
30087
30085
30067
30053
30044
30041
29997
30068
29986
30071
30069
30066
30063
30065
30074
30069
30028
30071
30060
30063
30071
30065
30053
30062
30055
30059
30063
30071
30059
30049
30034
30023
29999
30047
30046
30047
30047
30050
30041
30039
30040
30055
30041
30026
30029
30002
29985
30034
30021
30029
30026
30025
30035
30025
30037
30019
29991
30020
30023
30025
30019
30027
30012
29975
30013
30013
30004
30014
30010
30013
30007
30007
30006
30003
30003
30002
29991
29997
29991
29990
29991
29991
29991
30005
29990
29989
29980
29990
29984
29983
29999
29990
29980
29973
29975
29973
29967
29982
29959
29962
29974
29975
29970
29959
29959
29967
29951
29925
29928
29912
29892
29866
29951
29943
29945
29943
29938
29946
29941
29946
29943
29939
29941
29935
29942
29927
29923
29939
29914
29878
29847
29927
29927
29927
29922
29922
29924
29927
29916
29921
29911
29903
29898
29911
29893
29911
29901
29908
29909
29909
29915
29916
29906
29909
29889
29873
29844
29855
29847
29815
29885
29894
29895
29890
29893
29887
29895
29890
29887
29889
29887
29887
29873
29881
29865
29777
29785
29733
29867
29801
29813
29879
29863
29873
29871
29869
29869
29863
29863
29871
29861
29870
29855
29860
29863
29847
29847
29860
29868
29853
29863
29852
29855
29847
29867
29855
29853
29846
29807
29796
29725
29847
29854
29847
29858
29858
29861
29859
29844
29858
29850
29845
29832
29805
29804
29780
29719
29846
29838
29843
29838
29837
29839
29831
29847
29844
29845
29839
29831
29795
29805
29831
29836
29838
29830
29837
29831
29831
29826
29823
29813
29792
29783
29823
29829
29823
29814
29819
29830
29826
29831
29811
29823
29813
29825
29821
29828
29829
29811
29784
29759
29819
29817
29812
29828
29818
29820
29830
29837
29804
29806
29759
29726
29823
29826
29822
29815
29818
29821
29831
29823
29798
29771
29767
29740
29809
29810
29819
29815
29810
29807
29827
29817
29821
29796
29743
29822
29815
29813
29815
29815
29821
29817
29805
29763
29804
29818
29815
29822
29819
29817
29791
29778
29758
29741
29717
29817
29815
29819
29815
29820
29828
29829
29815
29821
29805
29815
29831
29830
29838
29831
29826
29828
29822
29823
29788
29767
29746
29703
29821
29823
29828
29815
29831
29842
29773
29814
29827
29815
29831
29823
29821
29828
29818
29826
29831
29827
29823
29839
29823
29830
29837
29831
29831
29831
29831
29849
29841
29834
29852
29853
29833
29839
29852
29831
29846
29843
29847
29829
29847
29819
29814
29810
29811
29801
29796
29793
29759
29841
29851
29852
29846
29861
29847
29857
29850
29861
29853
29871
29867
29863
29853
29843
29799
29812
29774
29787
29763
29759
29775
29759
29871
29870
29864
29877
29862
29869
29876
29871
29885
29878
29878
29869
29853
29863
29831
29783
29887
29878
29886
29893
29898
29890
29887
29895
29895
29871
29817
29891
29900
29895
29891
29892
29887
29908
29895
29875
29844
29800
29756
29903
29903
29910
29900
29911
29924
29903
29922
29891
29851
29807
29922
29919
29921
29926
29919
29918
29916
29927
29927
29931
29919
29935
29948
29929
29916
29905
29831
29931
29945
29929
29943
29946
29943
29949
29948
29959
29946
29919
29845
29951
29959
29957
29959
29983
29949
29923
29871
29965
29967
29971
29956
29985
29979
29958
29919
29876
29854
29879
29859
29990
29991
29987
29988
29979
29998
29999
30004
29997
29991
29990
29974
29947
29902
30001
30006
30011
30015
30021
30010
30028
30033
30011
29983
29951
29944
29919
30020
30026
30031
30027
30031
30008
29997
29911
30036
30038
30037
30058
30049
30045
29994
29891
30044
30037
30046
30037
30043
30032
30049
30055
30060
30003
30047
30042
30045
30067
30063
30039
30014
29989
30062
30060
30054
30068
30069
30049
30014
30075
30076
30066
30075
30077
30087
30095
30087
30055
30021
29999
29940
30087
30084
30078
30085
30106
30103
30071
30052
29959
30100
30087
30095
30115
30083
30055
30007
29967
30097
30115
30119
30116
30119
30119
30131
30135
30137
30124
30119
30076
30050
30014
30127
30123
30137
30133
30135
30141
30151
30156
30140
30087
30015
30148
30149
30144
30167
30166
30157
30151
30135
30099
30084
30068
30045
30165
30154
30170
30167
30174
30170
30173
30166
30204
30186
30181
30177
30178
30171
30158
30135
30116
30097
30037
30198
30194
30196
30197
30194
30194
30075
30075
30197
30207
30199
30204
30199
30203
30215
30215
30210
30204
30237
30215
30222
30195
30179
30159
30119
30215
30215
30225
30228
30237
30237
30236
30235
30239
30258
30255
30253
30244
30245
30229
30215
30165
30250
30247
30255
30255
30266
30247
30262
30275
30261
30255
30247
30253
30256
30255
30215
30154
30269
30269
30263
30275
30276
30279
30277
30274
30293
30276
30207
30276
30279
30278
30298
30303
30283
30276
30247
30211
30162
30285
30298
30295
30293
30300
30299
30289
30288
30303
30299
30316
30317
30316
30311
30307
30290
30287
30276
30247
30247
30225
30215
30234
30215
30206
30311
30319
30316
30309
30319
30313
30314
30314
30317
30309
30310
30323
30341
30331
30334
30334
30326
30325
30319
30316
30305
30308
30299
30299
30324
30330
30334
30324
30333
30340
30343
30339
30340
30335
30331
30319
30340
30343
30351
30341
30326
30322
30323
30325
30327
30332
30341
30343
30343
30330
30270
30335
30343
30331
30343
30339
30327
30327
30337
30332
30332
30359
30343
30367
30359
30341
30319
30287
30229
30202
30343
30354
30349
30353
30343
30340
30348
30364
30365
30354
30348
30343
30339
30306
30290
30292
30224
30356
30351
30351
30350
30354
30348
30343
30347
30358
30373
30357
30327
30287
30270
30268
30239
30359
30367
30365
30367
30389
30353
30311
30237
30369
30369
30367
30375
30369
30353
30358
30364
30387
30383
30391
30388
30375
30358
30364
30355
30335
30343
30343
30343
30343
30337
30326
30319
30244
30375
30375
30375
30385
30384
30384
30395
30383
30387
30372
30400
30397
30395
30373
30374
30359
30351
30307
30299
30239
30395
30402
30394
30396
30397
30399
30396
30413
30383
30366
30337
30301
30399
30399
30415
30407
30398
30418
30420
30383
30382
30375
30332
30275
30413
30412
30415
30423
30411
30422
30420
30420
30426
30421
30439
30431
30407
30355
30287
30421
30426
30431
30431
30423
30423
30439
30447
30431
30422
30407
30346
30431
30442
30435
30434
30439
30439
30447
30448
30450
30438
30445
30439
30424
30406
30398
30333
30279
30436
30447
30445
30460
30446
30441
30468
30436
30418
30351
30327
30450
30441
30457
30461
30457
30478
30453
30385
30327
30463
30469
30484
30461
30406
30339
30471
30491
30471
30471
30469
30494
30484
30477
30461
30446
30447
30412
30385
30388
30331
30314
30319
30487
30489
30491
30489
30486
30487
30517
30513
30506
30503
30495
30511
30517
30510
30503
30514
30500
30471
30426
30383
30371
30388
30367
30372
30517
30511
30507
30512
30516
30509
30509
30519
30519
30535
30523
30525
30519
30519
30525
30516
30524
30522
30527
30503
30530
30543
30529
30537
30517
30519
30502
30491
30503
30493
30485
30498
30481
30497
30467
30436
30541
30556
30566
30525
30542
30557
30555
30560
30563
30559
30534
30508
30485
30395
30560
30560
30562
30575
30575
30564
30559
30535
30523
30516
30534
30509
30484
30436
30577
30599
30587
30580
30601
30579
30583
30568
30549
30558
30556
30523
30517
30517
30534
30559
30583
30590
30599
30580
30580
30512
30463
30590
30615
30612
30612
30607
30609
30613
30599
30611
30606
30623
30638
30628
30612
30599
30596
30567
30568
30550
30567
30580
30599
30593
30581
30586
30599
30591
30561
30563
30558
30575
30530
30561
30534
30547
30538
30500
30483
30500
30524
30518
30506
30489
30655
30658
30657
30665
30670
30647
30656
30659
30670
30667
30660
30629
30599
30539
30676
30673
30670
30682
30685
30679
30674
30683
30683
30678
30695
30710
30700
30695
30719
30674
30651
30612
30583
30540
30545
30559
30545
30700
30707
30710
30711
30718
30716
30716
30711
30717
30725
30719
30727
30711
30722
30575
30585
30621
30647
30686
30661
30670
30647
30639
30594
30596
30605
30743
30727
30748
30756
30762
30753
30746
30766
30749
30757
30753
30761
30764
30757
30758
30766
30759
30766
30775
30781
30785
30759
30742
30674
30769
30772
30739
30767
30775
30764
30774
30772
30780
30775
30781
30775
30783
30776
30772
30783
30788
30639
30687
30697
30695
30710
30685
30652
30791
30788
30794
30793
30797
30670
30796
30796
30811
30797
30786
30804
30818
30822
30799
30797
30787
30780
30765
30725
30669
30639
30815
30807
30819
30806
30815
30823
30813
30825
30822
30831
30815
30819
30828
30827
30822
30852
30823
30834
30814
30823
30817
30753
30671
30833
30829
30825
30828
30821
30820
30861
30853
30836
30833
30814
30799
30783
30736
30697
30828
30839
30831
30842
30853
30853
30847
30844
30844
30862
30866
30853
30845
30817
30804
30726
30861
30855
30850
30871
30861
30868
30852
30875
30876
30850
30850
30842
30852
30850
30751
30870
30855
30873
30879
30871
30855
30852
30858
30823
30812
30823
30807
30874
30879
30873
30877
30871
30874
30867
30871
30893
30890
30884
30860
30855
30836
30847
30823
30814
30790
30791
30760
30742
30885
30879
30878
30887
30886
30887
30886
30882
30895
30906
30897
30909
30886
30853
30822
30793
30766
30895
30903
30895
30895
30891
30882
30887
30903
30892
30897
30908
30887
30908
30901
30911
30910
30908
30900
30892
30887
30902
30911
30924
30911
30909
30903
30902
30909
30919
30902
30909
30897
30896
30901
30864
30793
30898
30903
30903
30903
30911
30892
30911
30915
30881
30866
30815
30815
30891
30895
30903
30899
30895
30897
30892
30886
30899
30906
30907
30895
30900
30895
30907
30903
30892
30892
30895
30890
30894
30894
30893
30887
30890
30909
30896
30895
30895
30887
30895
30903
30888
30895
30895
30886
30886
30892
30881
30887
30885
30890
30883
30879
30895
30893
30874
30908
30886
30881
30887
30879
30894
30870
30862
30815
30878
30887
30740
30878
30871
30772
30887
30873
30869
30895
30871
30851
30780
30874
30862
30871
30876
30855
30887
30868
30843
30799
30779
30719
30862
30860
30876
30859
30865
30864
30855
30847
30859
30869
30855
30869
30865
30863
30871
30860
30870
30861
30863
30860
30855
30869
30871
30868
30870
30863
30859
30855
30867
30853
30867
30855
30863
30863
30863
30847
30834
30853
30845
30838
30855
30843
30839
30836
30839
30838
30839
30823
30700
30692
30843
30836
30727
30727
30727
30727
30753
30761
30799
30814
30839
30847
30836
30855
30835
30850
30836
30828
30828
30818
30820
30817
30827
30821
30827
30828
30822
30828
30831
30821
30820
30823
30819
30825
30815
30822
30823
30817
30821
30823
30812
30823
30815
30821
30822
30823
30812
30804
30802
30819
30811
30684
30679
30679
30695
30708
30710
30763
30786
30804
30794
30808
30815
30815
30823
30828
30815
30825
30805
30821
30811
30743
30701
30724
30670
30803
30798
30805
30799
30647
30671
30695
30799
30682
30701
30717
30727
30718
30722
30727
30727
30735
30727
30692
30702
30709
30704
30702
30706
30735
30737
30777
30780
30654
30815
30799
30795
30801
30724
30791
30798
30783
30798
30741
30796
30661
30802
30783
30781
30791
30797
30791
30798
30797
30737
30799
30799
30797
30794
30759
30791
30658
30807
30799
30820
30799
30782
30782
30788
30791
30787
30791
30643
30695
30716
30727
30758
30764
30790
30798
30799
30804
30798
30793
30805
30811
30819
30807
30809
30797
30797
30805
30798
30791
30767
30725
30644
30784
30784
30793
30786
30791
30791
30777
30791
30786
30797
30784
30790
30793
30794
30783
30783
30793
30791
30791
30798
30796
30790
30786
30781
30783
30791
30798
30635
30703
30709
30724
30714
30756
30750
30754
30727
30703
30774
30783
30662
30679
30655
30787
30791
30791
30781
30805
30780
30796
30790
30795
30791
30781
30788
30790
30799
30805
30791
30790
30791
30806
30807
30808
30786
30749
30751
30759
30719
30655
30797
30786
30658
30645
30655
30791
30791
30790
30799
30783
30807
30807
30791
30775
30746
30709
30660
30783
30793
30793
30791
30782
30791
30791
30789
30786
30795
30785
30785
30784
30791
30782
30795
30787
30789
30803
30811
30783
30767
30706
30647
30783
30799
30788
30795
30791
30793
30789
30799
30742
30791
30795
30783
30788
30783
30789
30796
30796
30804
30801
30799
30806
30800
30805
30799
30790
30789
30796
30783
30775
30751
30691
30689
30674
30783
30785
30781
30788
30787
30796
30788
30785
30675
30695
30693
30668
30663
30647
30783
30660
30795
30788
30791
30781
30786
30787
30786
30783
30791
30785
30781
30663
30702
30716
30723
30724
30711
30685
30679
30719
30742
30749
30783
30775
30775
30769
30769
30724
30655
30783
30631
30786
30789
30628
30666
30656
30673
30655
30713
30781
30789
30783
30785
30652
30657
30783
30785
30785
30788
30788
30786
30791
30782
30781
30804
30799
30791
30788
30772
30775
30791
30783
30799
30807
30807
30799
30801
30807
30785
30782
30783
30788
30795
30784
30790
30781
30783
30782
30784
30779
30783
30779
30783
30774
30785
30779
30785
30637
30694
30686
30719
30708
30663
30772
30778
30765
30633
30694
30716
30743
30735
30738
30763
30775
30785
30759
30775
30655
30777
30769
30689
30768
30765
30762
30775
30709
30767
30767
30767
30762
30671
30756
30759
30764
30767
30767
30757
30756
30749
30756
30775
30775
30775
30759
30761
30736
30711
30726
30714
30700
30682
30650
30657
30655
30684
30677
30637
30635
30749
30749
30755
30741
30751
30746
30758
30745
30757
30745
30743
30739
30740
30751
30741
30751
30755
30739
30743
30737
30676
30727
30738
30749
30727
30702
30739
30742
30742
30727
30711
30740
30727
30727
30727
30639
30718
30743
30724
30726
30737
30661
30750
30719
30727
30611
30694
30736
30727
30727
30717
30717
30727
30724
30647
30684
30727
30740
30717
30722
30725
30610
30687
30719
30745
30719
30721
30711
30644
30677
30705
30727
30716
30724
30719
30591
30689
30709
30724
30709
30711
30711
30709
30599
30662
30687
30703
30719
30717
30703
30708
30710
30703
30596
30674
30699
30705
30718
30694
30701
30707
30554
30655
30709
30711
30685
30698
30695
30591
30681
30694
30694
30652
30660
30697
30685
30687
30691
30652
30695
30681
30683
30663
30689
30687
30675
30655
30696
30685
30668
30668
30659
30699
30671
30671
30619
30669
30668
30668
30589
30669
30674
30668
30669
30599
30659
30667
30669
30645
30624
30671
30636
30653
30553
30630
30655
30659
30654
30647
30562
30631
30655
30636
30645
30571
30643
30634
30643
30552
30643
30641
30635
30531
30594
30638
30618
30630
30607
30541
30613
30629
30627
30611
30561
30619
30604
30621
30516
30603
30616
30613
30599
30575
30623
30599
30595
30603
30566
30613
30591
30593
30523
30585
30590
30582
30584
30544
30580
30575
30581
30567
30575
30514
30588
30573
30557
30553
30582
30567
30572
30562
30500
30561
30565
30535
30569
30549
30547
30469
30531
30561
30551
30541
30540
30503
30545
30535
30530
30439
30533
30532
30533
30447
30527
30543
30543
30507
30491
30421
30509
30521
30518
30517
30511
30509
30503
30522
30517
30512
30508
30495
30471
30452
30433
30376
30500
30501
30489
30489
30492
30501
30482
30423
30415
30484
30471
30488
30407
30484
30471
30471
30358
30463
30489
30462
30471
30458
30445
30468
30471
30372
30463
30434
30458
30463
30324
30447
30418
30452
30455
30326
30453
30447
30447
30423
30442
30465
30327
30439
30431
30436
30447
30327
30441
30437
30316
30438
30445
30305
30423
30423
30428
30423
30383
30423
30431
30385
30423
30431
30323
30419
30395
30415
30423
30326
30419
30400
30403
30398
30405
30416
30421
30371
30403
30412
30402
30415
30335
30404
30413
30391
30399
30356
30399
30413
30276
30390
30334
30401
30378
30383
30399
30295
30391
30369
30391
30399
30299
30382
30377
30261
30389
30369
30389
30370
30368
30250
30382
30382
30373
30375
30353
30375
30385
30309
30374
30373
30375
30364
30363
30384
30253
30372
30335
30367
30353
30367
30375
30286
30358
30328
30360
30343
30359
30357
30360
30359
30353
30361
30295
30350
30351
30351
30349
30319
30346
30359
30299
30350
30345
30343
30335
30317
30343
30363
30294
30347
30347
30345
30343
30301
30349
30343
30270
30340
30343
30221
30335
30327
30343
30351
30306
30335
30345
30255
30341
30343
30343
30356
30249
30334
30324
30316
30324
30301
30319
30351
30283
30333
30333
30330
30245
30317
30329
30327
30335
30284
30324
30316
30323
30252
30323
30331
30311
30302
30329
30316
30267
30319
30287
30324
30324
30327
30268
30330
30212
30319
30310
30311
30307
30287
30307
30327
30212
30304
30292
30326
30327
30234
30311
30325
30316
30323
30310
30311
30319
30285
30311
30315
30275
30309
30321
30261
30313
30319
30156
30309
30295
30306
30333
30321
30316
30225
30311
30311
30301
30279
30319
30311
30311
30309
30306
30302
30302
30215
30278
30323
30311
30317
30303
30282
30315
30311
30307
30255
30315
30298
30305
30300
30159
30279
30315
30317
30303
30295
30295
30248
30308
30307
30303
30299
30210
30283
30311
30291
30295
30207
30279
30307
30293
30301
30294
30261
30309
30316
30298
30299
30303
30207
30230
30287
30305
30293
30298
30301
30287
30299
30215
30297
30301
30294
30291
30183
30278
30308
30299
30293
30287
30167
30271
30294
30295
30287
30290
30183
30234
30279
30303
30293
30284
30166
30276
30296
30291
30278
30287
30244
30298
30300
30300
30295
30192
30279
30300
30286
30287
30215
30283
30292
30285
30180
30247
30303
30279
30290
30215
30273
30300
30290
30279
30271
30295
30303
30293
30315
30293
30206
30275
30286
30295
30214
30293
30309
30287
30285
30246
30303
30308
30289
30274
30295
30295
30214
30298
30295
30278
30308
30297
30291
30294
30285
30279
30281
30295
30295
30226
30274
30206
30291
30302
30189
30303
30261
30285
30294
30182
30282
30278
30285
30310
30260
30285
30305
30258
30294
30306
30194
30295
30291
30292
30300
30229
30287
30302
30182
30295
30285
30284
30289
30285
30287
30278
30279
30284
30285
30262
30278
30297
30207
30283
30287
30199
30279
30276
30282
30284
30243
30284
30289
30279
30282
30239
30271
30287
30285
30265
30279
30277
30279
30263
30257
30271
30269
30277
30273
30269
30263
30268
30271
30255
30242
30252
30282
30273
30276
30279
30279
30287
30294
30274
30275
30215
30268
30271
30260
30161
30271
30279
30247
30281
30271
30274
30264
30265
30263
30279
30199
30268
30271
30274
30269
30266
30259
30188
30204
30223
30271
30212
30263
30268
30257
30257
30183
30285
30262
30215
30279
30255
30251
30269
30229
30260
30253
30277
30263
30255
30257
30215
30263
30255
30247
30247
30181
30268
30204
30255
30259
30264
30252
30231
30255
30255
30253
30255
30212
30252
30150
30263
30254
30198
30260
30255
30185
30159
30239
30254
30251
30247
30245
30238
30239
30247
30239
30255
30247
30255
30239
30247
30247
30244
30246
30247
30245
30244
30250
30239
30239
30247
30237
30242
30237
30243
30215
30238
30238
30237
30244
30245
30242
30237
30234
30235
30229
30224
30229
30239
30235
30215
30156
30160
30152
30135
30136
30117
30227
30224
30102
30215
30228
30135
30143
30234
30215
30215
30215
30225
30215
30215
30225
30207
30208
30215
30223
30191
30139
30207
30214
30214
30206
30215
30187
30171
30134
30110
30087
30199
30199
30201
30196
30193
30199
30199
30199
30195
30193
30205
30196
30204
30190
30199
30188
30098
30125
30135
30130
30127
30141
30173
30179
30183
30181
30182
30127
30181
30169
30167
30176
30175
30178
30168
30138
30165
30081
30179
30169
30159
30170
30148
30164
30079
30173
30164
30092
30167
30156
30135
30145
30149
30098
30151
30148
30052
30158
30145
30115
30143
30028
30143
30135
30093
30130
30139
30121
30117
30130
30108
30118
30119
30119
30075
30081
30081
30055
30108
30109
30116
30112
30111
30109
30115
30109
30087
30110
30115
30116
30108
30108
30109
30111
30098
30087
30079
30006
29991
29959
30087
30095
30076
30084
30085
30075
30087
30079
30080
30084
30086
30063
30070
30069
30002
30062
30087
30066
30068
29959
30046
30054
30071
30067
30078
30054
30071
29919
30057
30042
30047
30071
30051
30054
29967
30049
30015
30046
30036
30044
30047
29956
30053
30051
30039
30047
30023
30041
30053
29983
30035
30003
29982
30033
30039
30029
30030
29892
30008
30042
30028
30019
29942
30007
30034
30031
30023
29972
30018
30036
30012
30012
29922
30011
30014
30015
30023
29974
30023
30012
30010
30005
29956
30011
30007
30005
29990
30002
29965
30007
30014
30007
29999
29949
30004
30021
29991
29909
29991
30017
29997
29988
29925
29975
30005
29992
30005
29919
29981
29990
29995
29941
29997
29998
29979
29980
29877
29989
29991
29974
29982
29927
29964
29983
29991
29993
29998
29986
29987
29995
29985
29966
29976
29969
29934
29916
29970
29973
29979
29977
29971
29975
29982
29971
29967
29985
29978
29980
29983
29980
29974
29977
29959
29966
29959
29956
29959
29959
29933
29900
29877
29959
29959
29957
29959
29956
29947
29956
29953
29956
29958
29959
29943
29951
29947
29947
29934
29957
29951
29942
29950
29958
29948
29959
29951
29935
29941
29944
29957
29956
29948
29951
29940
29945
29947
29947
29945
29948
29951
29965
29959
29943
29957
29959
29951
29950
29958
29944
29947
29934
29917
29930
29919
29935
29910
29915
29905
29910
29910
29911
29919
29916
29935
29924
29934
29919
29907
29892
29871
29943
29943
29879
29901
29919
29895
29919
29898
29897
29903
29887
29903
29882
29873
29935
29939
29940
29940
29944
29933
29932
29939
29935
29946
29943
29945
29937
29943
29943
29948
29950
29948
29947
29940
29936
29935
29935
29955
29943
29939
29942
29940
29941
29935
29940
29940
29933
29943
29943
29946
29946
29863
29860
29934
29943
29948
29940
29941
29934
29935
29936
29943
29939
29939
29933
29939
29941
29941
29947
29959
29951
29938
29945
29950
29943
29951
29954
29943
29950
29945
29940
29951
29959
29955
29943
29945
29947
29943
29940
29945
29959
29969
29946
29955
29951
29947
29941
29927
29895
29875
29894
29888
29879
29887
29861
29951
29958
29949
29958
29954
29948
29955
29959
29964
29959
29967
29948
29955
29959
29950
29957
29949
29956
29954
29942
29948
29959
29971
29959
29971
29975
29961
29970
29959
29971
29972
29959
29959
29951
29959
29974
29962
29974
29958
29970
29950
29959
29959
29959
29860
29889
29964
29975
29959
29951
29972
29887
29983
29966
29941
29971
29959
29959
29977
29927
29983
29958
29983
29979
29988
29986
29979
29977
29978
29969
29980
29982
29982
29975
29981
29971
29979
29911
29975
29909
29999
29977
29990
29969
29947
29983
29916
29995
29979
29971
29977
29980
29979
29988
29968
29981
29972
29974
29977
29966
29970
29975
29838
29895
29935
29958
29973
29975
29979
29983
29988
29987
29971
29959
29918
29967
29985
29966
29985
29955
29987
29972
29980
29917
29978
29982
29873
29977
29959
29975
29972
29941
29975
29981
29886
29959
29971
29970
29966
29921
29884
29978
29976
29959
29959
29990
29982
29971
29951
29983
29965
29910
29967
29973
29971
29889
29976
29970
29959
29914
29976
29967
29972
29914
29986
29977
29975
29972
29934
29959
29975
29965
29966
29892
29977
29971
29971
29959
29930
29980
29975
29959
29871
29959
29985
29971
29975
29903
29972
29983
29969
29973
29972
29943
29983
29978
29975
29855
29943
29989
29965
29969
29928
29976
29974
29970
29893
29959
29959
29959
29894
29983
29972
29972
29863
29957
29988
29975
29966
29926
29983
29959
29981
29981
29979
29968
29933
29979
29964
29903
29980
29974
29959
29895
29959
29981
29959
29975
29884
29953
29978
29975
29965
29959
29967
29971
29919
29959
29959
29970
29927
29978
29971
29865
29974
29959
29972
29977
29948
29973
29974
29967
29943
29986
29959
29973
29943
29971
29972
29841
29950
29975
29967
29879
29959
29965
29969
29909
29971
29959
29953
29972
29973
29831
29959
29927
29959
29959
29865
29959
29930
29959
29975
29948
29975
29869
29956
29954
29951
29863
29946
29959
29958
29959
29893
29932
29948
29958
29941
29948
29855
29951
29948
29958
29945
29911
29952
29951
29847
29943
29951
29822
29940
29914
29945
29940
29935
29955
29946
29959
29934
29937
29892
29951
29940
29937
29938
29909
29943
29927
29934
29935
29854
29906
29955
29919
29931
29930
29876
29940
29923
29921
29919
29838
29913
29926
29911
29916
29807
29900
29915
29911
29847
29907
29913
29915
29915
29858
29908
29907
29913
29911
29831
29898
29915
29894
29909
29909
29844
29897
29908
29898
29907
29781
29876
29903
29895
29892
29892
29861
29911
29892
29885
29884
29827
29886
29887
29881
29882
29884
29748
29818
29851
29871
29891
29893
29883
29875
29879
29876
29869
29812
29871
29880
29867
29875
29868
29874
29865
29738
29812
29863
29879
29874
29876
29877
29862
29860
29863
29821
29871
29861
29855
29862
29770
29820
29847
29865
29861
29863
29852
29857
29863
29729
29836
29843
29875
29859
29847
29861
29727
29775
29828
29853
29847
29847
29841
29779
29828
29831
29847
29735
29843
29847
29839
29831
29781
29839
29847
29839
29845
29838
29764
29828
29844
29838
29831
29839
29719
29735
29823
29843
29831
29831
29721
29768
29831
29847
29831
29834
29750
29823
29839
29836
29822
29762
29817
29817
29831
29782
29848
29829
29703
29789
29831
29829
29820
29772
29837
29831
29726
29818
29820
29823
29721
29811
29823
29823
29820
29761
29796
29836
29815
29714
29818
29807
29814
29762
29829
29827
29819
29773
29833
29807
29819
29774
29821
29823
29813
29790
29813
29811
29807
29759
29812
29804
29811
29703
29803
29819
29818
29679
29785
29823
29809
29679
29807
29815
29813
29807
29743
29806
29803
29804
29806
29754
29795
29820
29805
29797
29805
29734
29789
29815
29803
29806
29718
29788
29813
29793
29807
29802
29805
29807
29793
29802
29733
29815
29807
29794
29762
29813
29799
29807
29727
29788
29804
29799
29791
29788
29813
29799
29799
29743
29812
29806
29785
29763
29805
29792
29797
29691
29794
29799
29796
29786
29767
29807
29781
29799
29662
29767
29784
29798
29793
29675
29778
29797
29799
29801
29687
29781
29791
29794
29797
29745
29780
29807
29783
29788
29796
29727
29787
29803
29795
29798
29767
29796
29796
29695
29781
29807
29795
29790
29770
29812
29786
29793
29713
29796
29813
29791
29802
29727
29788
29799
29783
29787
29783
29739
29799
29799
29795
29703
29775
29813
29790
29790
29678
29775
29798
29791
29795
29677
29719
29779
29799
29788
29792
29799
29797
29733
29796
29792
29803
29798
29736
29786
29809
29798
29802
29796
29767
29799
29790
29798
29794
29695
29783
29807
29805
29799
29690
29771
29793
29813
29796
29807
29799
29659
29731
29793
29805
29815
29804
29802
29801
29694
29798
29825
29805
29805
29797
29759
29798
29801
29804
29807
29694
29751
29797
29820
29807
29809
29807
29695
29779
29807
29829
29807
29811
29807
29723
29797
29825
29810
29809
29817
29809
29821
29823
29814
29805
29799
29803
29788
29781
29765
29715
29671
29823
29813
29810
29823
29813
29816
29812
29823
29823
29819
29823
29836
29831
29810
29802
29796
29782
29774
29751
29711
29831
29820
29818
29703
29828
29844
29791
29831
29829
29837
29781
29687
29828
29830
29839
29831
29835
29828
29847
29845
29847
29830
29831
29815
29823
29786
29761
29719
29847
29847
29846
29831
29839
29853
29839
29839
29847
29858
29854
29839
29828
29821
29799
29767
29727
29850
29851
29847
29858
29862
29857
29826
29797
29719
29853
29844
29849
29845
29860
29860
29847
29814
29759
29845
29861
29852
29839
29847
29859
29853
29839
29831
29796
29780
29742
29851
29847
29843
29852
29854
29847
29842
29845
29869
29860
29845
29823
29797
29757
29852
29845
29838
29842
29844
29862
29847
29828
29807
29804
29783
29755
29839
29850
29861
29842
29847
29851
29853
29850
29839
29856
29847
29846
29844
29871
29862
29864
29858
29846
29828
29815
29820
29807
29774
29750
29714
29854
29852
29853
29851
29845
29847
29863
29861
29867
29865
29863
29859
29868
29877
29857
29863
29855
29862
29865
29855
29856
29863
29853
29839
29827
29807
29782
29847
29850
29847
29855
29843
29852
29844
29853
29850
29859
29849
29855
29853
29843
29853
29858
29863
29861
29856
29859
29863
29869
29857
29851
29855
29849
29855
29857
29869
29849
29850
29839
29838
29823
29770
29841
29843
29844
29849
29846
29845
29852
29855
29831
29814
29799
29770
29732
29855
29839
29832
29839
29827
29859
29839
29805
29785
29780
29767
29750
29761
29763
29770
29727
29839
29827
29845
29828
29831
29828
29830
29823
29829
29843
29830
29829
29831
29844
29835
29837
29830
29821
29818
29827
29827
29829
29817
29825
29831
29772
29828
29827
29811
29820
29787
29831
29817
29793
29807
29815
29818
29821
29754
29831
29703
29727
29746
29734
29745
29759
29733
29738
29747
29738
29742
29743
29757
29759
29767
29789
29782
29778
29771
29766
29759
29743
29748
29733
29733
29717
29702
29662
29788
29779
29783
29779
29782
29789
29780
29777
29780
29783
29775
29764
29794
29787
29771
29773
29762
29747
29751
29767
29762
29767
29668
29755
29767
29751
29765
29748
29748
29703
29751
29767
29755
29751
29742
29638
29703
29739
29757
29730
29734
29731
29627
29719
29750
29726
29731
29626
29710
29736
29721
29735
29716
29693
29718
29717
29719
29645
29703
29703
29703
29703
29610
29681
29718
29703
29700
29623
29695
29687
29704
29703
29687
29597
29677
29695
29691
29695
29559
29666
29687
29684
29679
29562
29655
29695
29663
29673
29667
29638
29671
29671
29665
29661
29607
29659
29665
29662
29658
29591
29662
29643
29658
29606
29655
29651
29653
29595
29643
29642
29642
29543
29621
29652
29638
29639
29570
29639
29630
29628
29588
29639
29622
29630
29599
29629
29611
29629
29527
29605
29633
29615
29607
29569
29619
29623
29609
29606
29529
29604
29599
29596
29528
29583
29603
29599
29518
29582
29607
29596
29495
29575
29600
29591
29575
29549
29599
29578
29582
29534
29559
29590
29571
29569
29575
29525
29566
29578
29588
29575
29556
29560
29494
29535
29564
29567
29567
29562
29552
29511
29554
29567
29543
29550
29489
29535
29557
29542
29430
29526
29553
29535
29543
29431
29525
29548
29535
29546
29535
29453
29504
29542
29549
29531
29539
29525
29415
29495
29518
29527
29535
29519
29517
29528
29503
29522
29521
29516
29531
29506
29444
29495
29512
29514
29509
29447
29514
29510
29511
29515
29476
29508
29503
29495
29452
29518
29495
29501
29492
29492
29420
29479
29505
29479
29495
29487
29415
29468
29492
29476
29493
29474
29470
29438
29484
29490
29477
29474
29477
29414
29455
29484
29469
29469
29467
29426
29476
29460
29462
29463
29439
29471
29447
29447
29382
29422
29444
29470
29447
29445
29447
29358
29399
29446
29455
29447
29444
29445
29359
29399
29431
29447
29434
29429
29428
29431
29346
29436
29445
29435
29431
29340
29419
29431
29423
29415
29340
29415
29438
29426
29419
29415
29418
29391
29417
29414
29414
29420
29416
29371
29415
29407
29414
29327
29397
29399
29397
29306
29390
29406
29404
29403
29371
29396
29397
29383
29325
29390
29393
29391
29319
29333
29383
29397
29379
29383
29319
29375
29388
29383
29316
29370
29383
29379
29375
29343
29382
29367
29372
29301
29359
29367
29365
29247
29335
29363
29370
29365
29356
29319
29355
29367
29363
29343
29284
29355
29367
29351
29351
29343
29335
29353
29351
29263
29324
29351
29335
29335
29311
29351
29335
29331
29321
29340
29325
29324
29303
29343
29324
29327
29277
29319
29322
29327
29317
29275
29319
29317
29311
29226
29315
29319
29309
29256
29314
29299
29316
29303
29278
29323
29303
29220
29300
29303
29292
29295
29241
29295
29303
29292
29287
29271
29294
29287
29279
29244
29285
29292
29287
29279
29283
29255
29295
29268
29269
29263
29284
29292
29284
29271
29226
29275
29279
29271
29275
29214
29270
29263
29271
29258
29271
29257
29253
29255
29269
29259
29191
29263
29257
29254
29191
29252
29263
29245
29250
29238
29247
29240
29244
29232
29252
29239
29242
29161
29230
29239
29234
29183
29238
29247
29229
29217
29219
29230
29225
29097
29226
29230
29229
29217
29167
29218
29239
29223
29217
29175
29223
29218
29212
29191
29207
29207
29151
29205
29212
29191
29164
29191
29212
29199
29124
29198
29191
29191
29084
29174
29191
29183
29186
29184
29149
29179
29185
29171
29178
29126
29175
29188
29158
29164
29114
29151
29167
29162
29155
29095
29143
29159
29151
29156
29156
29155
29154
29170
29143
29147
29148
29146
29074
29111
29133
29158
29133
29135
29129
29135
29093
29129
29140
29125
29132
29120
29116
29070
29119
29127
29111
29111
29108
29079
29119
29119
29107
29054
29099
29118
29101
29100
29039
29084
29103
29103
29103
29063
29102
29095
29087
29095
29055
29089
29097
29076
29093
29079
29071
29037
29079
29086
29070
29077
29083
29033
29063
29090
29063
29075
29066
29015
29039
29057
29063
29059
29063
29046
29007
29037
29063
29055
29052
29060
29009
29051
29061
29050
29036
28990
29004
29047
29038
29036
29028
28991
29031
29031
29031
29031
29023
28978
29015
29031
29038
29037
29023
29014
28979
29011
29022
29010
29010
29015
28983
29023
29005
28999
28951
28999
29013
29002
28990
28969
29003
29005
28999
28999
28995
28961
28991
28988
28985
28978
28839
28949
28980
28995
28978
28987
28955
28977
28971
28981
28972
28967
28954
28911
28964
28964
28967
28948
28964
28953
28967
28871
28950
28967
28946
28949
28948
28946
28902
28947
28951
28935
28934
28942
28894
28921
28935
28950
28934
28929
28927
28931
28914
28856
28876
28909
28918
28925
28910
28911
28908
28919
28911
28909
28859
28870
28895
28915
28893
28903
28885
28836
28885
28897
28877
28873
28871
28829
28879
28875
28879
28869
28876
28823
28842
28879
28855
28856
28863
28807
28836
28855
28856
28839
28847
28827
28844
28847
28833
28839
28836
28805
28841
28829
28827
28833
28813
28829
28821
28823
28802
28807
28815
28807
28743
28805
28820
28801
28783
28802
28709
28771
28794
28795
28789
28783
28735
28757
28774
28778
28774
28769
28773
28775
28756
28757
28775
28769
28759
28745
28710
28747
28758
28753
28757
28743
28730
28719
28679
28659
28741
28725
28723
28735
28732
28727
28725
28729
28726
28722
28715
28711
28679
28706
28719
28711
28698
28708
28707
28703
28653
28679
28702
28706
28679
28679
28676
28625
28678
28679
28691
28661
28679
28668
28671
28629
28642
28669
28667
28670
28669
28661
28614
28649
28667
28644
28647
28647
28639
28647
28661
28637
28612
28641
28653
28639
28635
28612
28628
28639
28631
28623
28607
28621
28637
28622
28610
28565
28589
28627
28624
28615
28603
28614
28599
28598
28603
28607
28607
28613
28581
28612
28593
28586
28591
28580
28591
28599
28583
28558
28591
28587
28580
28571
28563
28587
28580
28581
28562
28535
28579
28570
28573
28562
28527
28559
28568
28559
28551
28566
28551
28532
28549
28559
28551
28550
28551
28545
28516
28540
28547
28550
28549
28549
28537
28473
28515
28547
28551
28537
28522
28525
28509
28532
28533
28526
28518
28529
28502
28535
28535
28514
28511
28502
28514
28470
28512
28518
28503
28516
28506
28378
28495
28511
28503
28511
28511
28480
28502
28507
28493
28500
28434
28487
28500
28485
28487
28471
28431
28485
28484
28472
28471
28439
28487
28474
28473
28485
28479
28445
28477
28487
28471
28468
28428
28469
28478
28465
28466
28460
28466
28431
28455
28475
28459
28456
28455
28431
28454
28464
28463
28455
28431
28460
28460
28452
28432
28451
28453
28444
28447
28423
28452
28451
28449
28415
28455
28446
28439
28423
28450
28448
28437
28391
28447
28433
28434
28431
28402
28430
28441
28423
28431
28437
28407
28437
28423
28433
28423
28391
28421
28432
28420
28423
28412
28433
28417
28411
28409
28358
28415
28418
28420
28404
28401
28412
28414
28415
28415
28407
28406
28407
28401
28348
28373
28395
28402
28407
28411
28415
28407
28399
28399
28403
28391
28406
28398
28391
28407
28401
28327
28367
28382
28389
28390
28404
28394
28404
28405
28403
28407
28402
28409
28410
28391
28409
28404
28399
28391
28396
28377
28388
28395
28390
28382
28379
28375
28371
28350
28357
28348
28354
28358
28330
28380
28370
28375
28375
28376
28371
28383
28374
28379
28383
28380
28358
28351
28325
28372
28375
28364
28372
28372
28374
28386
28365
28369
28356
28363
28369
28363
28359
28375
28364
28356
28359
28350
28341
28351
28359
28359
28359
28367
28348
28345
28331
28298
28353
28355
28351
28348
28358
28358
28352
28294
28334
28349
28343
28338
28335
28348
28339
28343
28350
28344
28350
28347
28348
28348
28340
28341
28315
28295
28276
28339
28342
28339
28334
28334
28343
28346
28342
28335
28333
28315
28303
28341
28295
28298
28273
28263
28338
28330
28335
28333
28327
28334
28333
28330
28321
28327
28331
28341
28335
28330
28332
28331
28332
28327
28335
28335
28329
28316
28329
28343
28338
28347
28332
28333
28333
28319
28343
28335
28333
28322
28313
28294
28321
28318
28331
28317
28299
28181
28317
28318
28311
28313
28315
28320
28322
28310
28310
28311
28316
28323
28314
28313
28319
28322
28310
28316
28317
28314
28308
28298
28298
28295
28279
28282
28263
28239
28285
28291
28302
28295
28295
28292
28303
28291
28295
28292
28298
28287
28285
28308
28294
28279
28263
28255
28222
28285
28278
28279
28279
28279
28287
28279
28292
28279
28281
28279
28272
28249
28279
28274
28267
28276
28271
28263
28279
28274
28287
28282
28276
28277
28282
28269
28267
28253
28279
28263
28258
28233
28266
28254
28258
28263
28263
28267
28263
28260
28259
28255
28254
28263
28260
28256
28248
28258
28262
28267
28255
28263
28243
28228
28219
28161
28253
28252
28251
28247
28246
28263
28255
28238
28255
28258
28247
28247
28261
28247
28223
28244
28234
28231
28245
28247
28235
28245
28238
28225
28230
28231
28235
28234
28239
28239
28234
28227
28228
28232
28235
28241
28236
28233
28236
28218
28207
28194
28226
28213
28227
28221
28220
28236
28234
28222
28223
28218
28164
28205
28219
28226
28219
28215
28219
28221
28215
28220
28206
28180
28187
28193
28175
28161
28204
28203
28204
28199
28205
28199
28199
28194
28191
28205
28204
28215
28205
28197
28175
28163
28163
28151
28143
28159
28166
28164
28156
28101
28147
28149
28161
28164
28148
28143
28167
28134
28126
28131
28126
28174
28124
28091
28138
28142
28146
28150
28128
28167
28164
28166
28167
28153
28174
28159
28159
28139
28159
28167
28156
28143
28156
28127
28150
28151
28143
28157
28141
28135
28142
28135
28127
28149
28150
28142
28135
28134
28134
28118
28123
28124
28103
28119
28126
28126
28112
28116
28098
28118
28128
28117
28111
28095
28116
28109
28107
28103
28097
28087
28094
28108
28100
28094
28103
28015
28068
28079
28094
28076
28078
28081
28063
28077
28087
28074
28005
28071
28080
28067
28067
28037
28073
28076
28063
28052
28054
28068
28063
28049
28059
28052
28050
28065
28070
28044
28052
27985
28043
28047
28061
28039
28031
28011
28030
28030
28038
28034
28035
28027
27996
28015
28024
28023
28020
28015
28002
28016
28020
28013
28008
27985
28023
28014
28004
28004
27959
27999
28007
28014
27999
27998
27999
28001
27992
27989
27990
27943
27988
27996
27989
27989
27938
27989
27986
27983
27974
27957
27988
27986
27975
27980
27963
27948
27975
27977
27965
27975
27971
27965
27959
27947
27973
27964
27958
27960
27951
27949
27950
27963
27959
27943
27944
27950
27950
27945
27919
27949
27954
27947
27935
27926
27947
27942
27930
27929
27930
27939
27943
27919
27926
27932
27928
27916
27842
27911
27919
27923
27925
27924
27926
27925
27922
27919
27923
27887
27922
27919
27924
27922
27919
27925
27911
27906
27925
27885
27917
27924
27916
27903
27911
27902
27879
27903
27900
27908
27911
27907
27894
27890
27911
27898
27892
27853
27887
27907
27911
27903
27895
27895
27871
27885
27898
27908
27894
27883
27884
27815
27879
27900
27886
27887
27881
27868
27887
27899
27884
27870
27873
27871
27880
27887
27887
27883
27863
27815
27875
27879
27873
27879
27871
27865
27847
27860
27870
27871
27867
27865
27871
27885
27870
27868
27865
27876
27870
27877
27873
27863
27826
27863
27876
27863
27863
27857
27855
27879
27863
27855
27856
27844
27863
27862
27859
27857
27831
27844
27865
27870
27863
27857
27847
27839
27846
27855
27855
27837
27841
27845
27847
27830
27858
27855
27853
27859
27847
27794
27847
27850
27855
27852
27850
27844
27847
27831
27849
27858
27846
27841
27843
27840
27827
27844
27857
27857
27839
27847
27811
27837
27850
27844
27847
27835
27799
27847
27854
27841
27831
27845
27841
27853
27837
27839
27827
27840
27839
27847
27836
27818
27844
27844
27826
27838
27844
27833
27846
27836
27814
27831
27839
27849
27828
27699
27799
27719
27828
27832
27835
27833
27800
27836
27836
27835
27828
27843
27839
27823
27814
27839
27837
27831
27781
27814
27844
27835
27828
27827
27811
27820
27838
27829
27830
27758
27837
27823
27827
27711
27813
27835
27823
27820
27823
27788
27806
27832
27831
27823
27819
27814
27806
27839
27828
27820
27821
27823
27828
27821
27834
27821
27823
27817
27829
27817
27830
27814
27831
27821
27828
27829
27794
27843
27829
27825
27823
27797
27831
27829
27805
27829
27823
27830
27806
27783
27790
27781
27828
27820
27821
27823
27822
27823
27820
27815
27829
27814
27823
27821
27823
27819
27817
27825
27829
27821
27817
27821
27823
27821
27823
27819
27827
27823
27831
27828
27825
27823
27813
27817
27814
27803
27807
27795
27783
27734
27818
27821
27826
27827
27825
27820
27825
27822
27817
27828
27822
27839
27842
27823
27815
27834
27820
27820
27820
27803
27807
27791
27803
27767
27823
27831
27823
27756
27830
27815
27821
27820
27831
27826
27843
27815
27826
27807
27797
27819
27813
27814
27828
27821
27821
27826
27819
27815
27828
27820
27823
27818
27815
27819
27815
27814
27809
27810
27809
27814
27796
27785
27770
27817
27813
27803
27810
27807
27815
27815
27807
27814
27807
27807
27812
27809
27815
27813
27806
27806
27815
27811
27813
27807
27815
27823
27820
27820
27823
27815
27820
27818
27815
27815
27794
27788
27767
27811
27807
27818
27807
27817
27806
27795
27774
27759
27775
27765
27759
27753
27751
27810
27812
27807
27734
27777
27755
27751
27809
27806
27740
27756
27753
27782
27788
27812
27820
27812
27804
27807
27817
27818
27807
27810
27803
27807
27813
27807
27813
27811
27819
27807
27803
27813
27809
27805
27776
27815
27814
27799
27812
27735
27826
27802
27823
27814
27761
27828
27807
27817
27805
27750
27816
27812
27783
27822
27815
27809
27815
27774
27816
27812
27799
27815
27753
27829
27805
27812
27810
27711
27815
27815
27767
27827
27811
27803
27813
27757
27807
27804
27804
27791
27815
27810
27805
27813
27814
27823
27818
27815
27819
27821
27806
27811
27811
27807
27809
27803
27743
27753
27769
27750
27746
27764
27786
27783
27783
27799
27811
27813
27815
27820
27809
27817
27813
27817
27819
27802
27815
27820
27810
27810
27815
27802
27799
27809
27813
27819
27812
27823
27813
27814
27805
27809
27804
27790
27781
27762
27747
27759
27796
27794
27803
27799
27800
27811
27804
27812
27801
27804
27807
27793
27788
27791
27795
27791
27797
27805
27799
27791
27762
27688
27783
27795
27804
27796
27805
27797
27799
27799
27797
27787
27803
27791
27798
27789
27783
27791
27791
27793
27793
27796
27791
27783
27779
27783
27783
27793
27783
27791
27748
27772
27769
27775
27780
27733
27771
27769
27771
27769
27759
27768
27769
27775
27759
27751
27757
27621
27779
27770
27757
27759
27686
27769
27759
27727
27770
27763
27766
27751
27700
27764
27765
27740
27744
27685
27756
27750
27741
27751
27751
27730
27748
27755
27743
27746
27748
27745
27748
27747
27617
27685
27708
27695
27671
27663
27685
27644
27679
27693
27676
27741
27727
27739
27745
27735
27741
27743
27741
27747
27734
27731
27741
27735
27740
27728
27740
27732
27732
27739
27735
27739
27734
27733
27734
27735
27739
27733
27739
27740
27747
27743
27750
27748
27734
27732
27735
27703
27709
27704
27712
27705
27714
27708
27726
27718
27726
27749
27743
27737
27743
27713
27738
27692
27729
27725
27735
27730
27727
27735
27731
27679
27735
27737
27727
27639
27687
27697
27707
27714
27700
27702
27709
27698
27671
27691
27669
27695
27687
27707
27719
27719
27721
27732
27739
27749
27749
27746
27751
27738
27732
27735
27743
27737
27741
27733
27747
27739
27749
27675
27719
27718
27719
27722
27743
27742
27759
27751
27732
27743
27748
27741
27750
27751
27748
27748
27748
27746
27751
27687
27711
27741
27753
27766
27749
27762
27747
27758
27751
27745
27702
27739
27753
27759
27749
27757
27765
27767
27767
27764
27759
27759
27764
27764
27765
27758
27757
27767
27759
27762
27764
27761
27767
27759
27762
27759
27764
27764
27762
27764
27767
27770
27767
27759
27767
27762
27765
27770
27776
27775
27775
27771
27773
27771
27794
27783
27788
27781
27783
27788
27774
27786
27782
27794
27791
27774
27782
27788
27802
27794
27798
27803
27789
27797
27804
27804
27799
27797
27791
27795
27783
27794
27783
27778
27777
27748
27788
27796
27801
27796
27807
27799
27799
27807
27798
27806
27812
27807
27814
27821
27778
27811
27820
27799
27823
27819
27819
27825
27818
27812
27829
27821
27818
27793
27780
27824
27818
27817
27829
27820
27834
27825
27819
27817
27847
27847
27846
27842
27841
27839
27831
27799
27839
27847
27844
27843
27782
27839
27847
27855
27838
27851
27844
27815
27853
27850
27843
27771
27830
27847
27866
27871
27861
27852
27855
27751
27837
27868
27867
27860
27853
27839
27862
27865
27870
27871
27823
27876
27874
27873
27874
27849
27872
27892
27879
27873
27810
27868
27900
27879
27881
27823
27883
27885
27879
27890
27885
27885
27883
27846
27887
27893
27891
27897
27890
27811
27885
27905
27886
27898
27903
27871
27899
27911
27900
27902
27902
27829
27893
27918
27905
27908
27911
27879
27903
27909
27911
27908
27909
27911
27903
27920
27911
27909
27912
27917
27911
27911
27919
27911
27884
27927
27942
27924
27932
27918
27926
27924
27933
27926
27932
27846
27908
27935
27932
27937
27943
27889
27932
27940
27942
27939
27940
27943
27846
27934
27954
27946
27940
27930
27950
27947
27951
27943
27884
27926
27941
27953
27941
27951
27940
27941
27937
27938
27963
27959
27965
27967
27967
27958
27951
27938
27951
27964
27975
27965
27967
27959
27921
27956
27975
27970
27956
27904
27962
27977
27959
27969
27838
27967
27965
27962
27966
27962
27958
27972
27979
27973
27969
27967
27955
27975
27980
27971
27972
27973
27970
27959
27970
27973
27964
27933
27966
27979
27969
27966
27967
27961
27972
27973
27967
27967
27951
27975
27980
27967
27959
27937
27972
27984
27970
27943
27983
27975
27973
27943
27973
27972
27971
27943
27973
27964
27974
27974
27974
27975
27969
27965
27967
27981
27972
27973
27964
27965
27975
27979
27921
27974
27973
27964
27976
27974
27978
27932
27978
27958
27967
27964
27975
27969
27968
27985
27924
27974
27979
27975
27985
27975
27978
27972
27977
27972
27980
27972
27980
27975
27981
27927
27965
27986
27859
27963
27981
27975
27969
27975
27957
27980
27975
27972
27941
27983
27985
27962
27943
27975
27970
27963
27961
27983
27983
27960
27965
27975
27975
27981
27959
27979
27968
27953
27959
27979
27975
27963
27950
27970
27973
27960
27957
27979
27967
27969
27971
27917
27970
27975
27959
27960
27966
27947
27974
27970
27969
27967
27930
27967
27967
27964
27971
27973
27969
27968
27970
27967
27958
27975
27975
27959
27920
27975
27964
27958
27958
27942
27971
27957
27967
27956
27946
27950
27964
27956
27967
27959
27967
27951
27962
27918
27963
27943
27941
27957
27930
27961
27958
27955
27947
27917
27935
27956
27949
27943
27908
27956
27957
27937
27938
27911
27944
27951
27943
27943
27935
27943
27934
27938
27927
27923
27940
27942
27928
27857
27903
27943
27937
27924
27924
27921
27890
27917
27933
27917
27911
27911
27893
27919
27926
27917
27911
27908
27871
27908
27916
27905
27892
27901
27905
27909
27911
27908
27903
27898
27830
27892
27908
27886
27880
27886
27892
27893
27884
27875
27885
27893
27883
27878
27875
27879
27834
27855
27879
27885
27871
27860
27839
27857
27862
27867
27858
27808
27787
27774
27815
27810
27799
27811
27847
27862
27852
27836
27841
27831
27810
27847
27844
27839
27817
27791
27831
27837
27847
27820
27823
27823
27807
27821
27831
27808
27815
27751
27791
27807
27822
27815
27801
27803
27771
27797
27808
27789
27799
27794
27767
27793
27785
27807
27779
27782
27788
27758
27781
27783
27780
27775
27775
27772
27767
27688
27751
27753
27780
27776
27767
27765
27756
27758
27759
27756
27747
27751
27762
27743
27700
27727
27749
27754
27751
27749
27745
27727
27703
27732
27745
27748
27733
27730
27735
27715
27731
27735
27733
27723
27727
27725
27654
27715
27719
27714
27711
27705
27700
27710
27711
27707
27701
27678
27702
27703
27702
27702
27628
27693
27698
27687
27679
27686
27606
27655
27677
27687
27698
27682
27677
27671
27673
27627
27644
27652
27663
27674
27677
27675
27676
27655
27653
27637
27670
27671
27655
27655
27569
27647
27655
27648
27640
27649
27636
27639
27635
27655
27649
27638
27641
27635
27628
27623
27636
27650
27626
27635
27631
27599
27623
27631
27625
27625
27615
27617
27610
27617
27615
27565
27607
27609
27607
27613
27605
27603
27558
27598
27611
27596
27599
27590
27567
27587
27604
27588
27586
27543
27589
27591
27590
27580
27577
27587
27570
27575
27561
27550
27583
27569
27558
27561
27495
27554
27579
27559
27557
27540
27566
27559
27555
27551
27540
27554
27550
27537
27558
27553
27535
27548
27539
27540
27527
27527
27538
27535
27540
27524
27508
27524
27525
27514
27458
27516
27527
27515
27510
27491
27526
27521
27514
27507
27511
27494
27521
27508
27511
27500
27495
27497
27510
27494
27495
27490
27487
27489
27491
27490
27447
27383
27479
27481
27479
27481
27471
27458
27476
27478
27481
27468
27454
27476
27463
27463
27448
27430
27466
27465
27446
27458
27420
27437
27454
27446
27455
27444
27442
27447
27399
27424
27446
27444
27447
27441
27434
27426
27399
27434
27438
27434
27425
27423
27407
27426
27435
27426
27424
27410
27409
27367
27377
27412
27399
27400
27399
27405
27403
27396
27407
27398
27399
27399
27397
27397
27390
27396
27402
27396
27391
27389
27377
27391
27389
27388
27365
27352
27383
27381
27367
27373
27334
27372
27374
27365
27363
27363
27356
27357
27367
27367
27351
27348
27355
27345
27329
27351
27347
27346
27338
27337
27333
27337
27329
27326
27319
27316
27335
27331
27327
27322
27308
27319
27294
27323
27319
27311
27311
27303
27305
27293
27302
27311
27307
27300
27292
27287
27300
27308
27299
27300
27287
27285
27295
27292
27295
27289
27279
27277
27276
27277
27290
27278
27275
27263
27275
27271
27278
27268
27261
27263
27254
27267
27271
27253
27255
27249
27254
27255
27255
27245
27247
27247
27239
27239
27241
27236
27239
27229
27223
27221
27227
27231
27236
27222
27213
27215
27207
27218
27227
27223
27214
27200
27209
27204
27206
27220
27218
27197
27197
27203
27199
27194
27201
27207
27187
27190
27183
27179
27198
27199
27175
27182
27184
27175
27178
27173
27162
27164
27173
27174
27169
27161
27156
27159
27164
27158
27158
27151
27122
27151
27159
27140
27121
27143
27140
27135
27135
27119
27119
27126
27127
27117
27110
27113
27121
27113
27106
27103
27111
27117
27092
27092
27080
27103
27100
27091
27087
27079
27073
27095
27091
27086
27079
27061
27068
27070
27076
27077
27065
27054
27059
27061
27044
27057
27050
27055
27050
27047
27047
27052
27047
27036
27038
27025
27032
27043
27028
27031
27028
27019
27020
27010
27015
27023
27015
27007
27006
27004
26983
27005
27015
26996
26999
26997
26958
27005
26999
26989
26993
26970
26970
26985
26983
26979
26976
26965
26963
26961
26954
26930
26961
26971
26958
26951
26949
26941
26948
26935
26943
26946
26951
26945
26937
26938
26931
26923
26924
26923
26925
26926
26932
26925
26916
26916
26923
26909
26915
26917
26910
26900
26906
26901
26895
26887
26900
26891
26876
26881
26876
26865
26868
26879
26872
26869
26879
26871
26874
26864
26868
26869
26855
26861
26847
26851
26855
26849
26855
26844
26853
26845
26852
26839
26836
26833
26830
26815
26820
26815
26807
26781
26805
26803
26797
26802
26805
26807
26804
26797
26794
26777
26796
26799
26791
26785
26786
26783
26779
26768
26783
26767
26770
26764
26763
26753
26726
26749
26750
26733
26749
26740
26737
26740
26734
26732
26735
26738
26732
26722
26727
26725
26723
26723
26725
26711
26718
26703
26692
26693
26663
26670
26691
26688
26689
26678
26673
26683
26682
26676
26677
26664
26667
26657
26663
26652
26658
26654
26661
26658
26654
26655
26652
26649
26631
26631
26614
26622
26612
26603
26603
26598
26599
26607
26607
26601
26587
26599
26591
26591
26591
26591
26575
26583
26574
26572
26571
26570
26565
26557
26559
26559
26557
26548
26540
26540
26543
26535
26535
26530
26532
26525
26530
26519
26509
26514
26510
26507
26511
26503
26503
26495
26478
26487
26477
26484
26478
26472
26468
26460
26470
26471
26471
26463
26465
26459
26463
26446
26449
26447
26443
26439
26439
26439
26426
26436
26426
26427
26415
26410
26413
26399
26398
26406
26402
26403
26410
26396
26391
26385
26394
26383
26375
26357
26363
26356
26363
26351
26358
26359
26351
26355
26348
26347
26334
26343
26345
26343
26332
26343
26323
26327
26319
26315
26311
26302
26311
26311
26308
26300
26313
26271
26279
26270
26275
26279
26277
26271
26275
26269
26272
26271
26259
26263
26262
26258
26232
26238
26242
26242
26239
26244
26241
26242
26226
26225
26219
26226
26231
26215
26229
26204
26219
26209
26215
26199
26202
26188
26180
26169
26180
26181
26167
26166
26165
26156
26158
26156
26165
26154
26151
26159
26165
26153
26158
26154
26147
26126
26130
26127
26133
26127
26128
26132
26126
26127
26119
26117
26124
26089
26099
26095
26087
26087
26092
26086
26089
26084
26080
26076
26081
26074
26066
26067
26071
26062
26060
26059
26047
26049
26055
26046
26053
26045
26037
26036
26037
26031
26038
26041
26041
26018
26007
26011
26020
26010
26007
26005
26019
25999
26004
26004
25991
26011
25991
26002
25999
25926
25975
25975
25967
25959
25967
25965
25966
25959
25956
25956
25956
25959
25947
25943
25943
25949
25957
25958
25946
25930
25931
25915
25924
25916
25909
25915
25924
25919
25910
25911
25903
25908
25903
25903
25898
25894
25894
25887
25893
25892
25895
25886
25890
25881
25876
25887
25875
25868
25873
25860
25863
25860
25860
25857
25853
25853
25855
25845
25850
25847
25845
25844
25836
25830
25832
25839
25827
25823
25825
25821
25826
25827
25824
25821
25805
25799
25806
25805
25799
25807
25794
25783
25807
25793
25792
25793
25775
25786
25779
25769
25765
25775
25775
25767
25767
25760
25768
25767
25758
25751
25751
25748
25749
25743
25732
25744
25739
25740
25740
25734
25725
25719
25727
25722
25727
25724
25716
25723
25725
25737
25711
25718
25711
25719
25710
25704
25726
25719
25727
25687
25687
25683
25685
25694
25679
25684
25674
25684
25685
25687
25702
25671
25671
25671
25668
25667
25673
25668
25675
25692
25678
25687
25659
25648
25671
25636
25607
25638
25635
25629
25637
25623
25624
25631
25628
25626
25631
25631
25630
25631
25619
25615
25618
25607
25607
25617
25602
25598
25607
25607
25607
25607
25607
25623
25577
25591
25583
25580
25578
25579
25575
25583
25575
25575
25579
25570
25583
25570
25581
25587
25596
25452
25549
25550
25554
25551
25543
25525
25541
25543
25554
25535
25540
25548
25543
25537
25545
25535
25541
25540
25540
25537
25540
25543
25432
25522
25513
25504
25519
25508
25519
25519
25521
25510
25513
25517
25515
25503
25510
25505
25511
25509
25506
25508
25485
25497
25500
25494
25487
25495
25509
25523
25474
25474
25475
25473
25473
25468
25469
25469
25467
25471
25465
25465
25463
25470
25463
25476
25468
25482
25495
25502
25493
25487
25492
25447
25437
25434
25444
25439
25428
25429
25436
25429
25427
25430
25421
25423
25431
25427
25415
25418
25414
25414
25414
25415
25414
25418
25399
25406
25400
25395
25402
25395
25404
25399
25405
25391
25387
25399
25394
25396
25389
25387
25387
25390
25395
25389
25415
25362
25366
25370
25373
25364
25367
25367
25372
25370
25385
25383
25383
25386
25401
25343
25346
25335
25336
25340
25332
25327
25332
25328
25330
25322
25335
25324
25347
25319
25323
25319
25317
25318
25319
25321
25316
25329
25332
25332
25346
25335
25339
25351
25289
25286
25295
25303
25294
25287
25303
25286
25289
25299
25276
25302
25309
25300
25305
25311
25294
25291
25284
25279
25279
25286
25287
25313
25321
25313
25295
25314
25287
25246
25250
25239
25246
25242
25253
25246
25247
25238
25238
25239
25239
25239
25229
25215
25223
25226
25222
25221
25210
25215
25210
25204
25213
25268
25247
25262
25253
25260
25247
25251
25227
25195
25189
25189
25191
25180
25191
25185
25237
25243
25207
25175
25175
25183
25183
25180
25187
25173
25182
25185
25188
25220
25159
25166
25162
25172
25167
25156
25159
25170
25169
25191
25191
25135
25148
25136
25135
25135
25134
25141
25140
25135
25127
25127
25125
25127
25127
25127
25124
25124
25119
25121
25128
25130
25122
25105
25111
25111
25113
25113
25118
25109
25103
25115
25117
25119
25130
25127
25117
25131
25131
25065
25074
25063
25072
25069
25073
25073
25066
25061
25063
25064
25060
25055
25052
25060
25054
25079
25076
25108
25095
25085
25083
25086
25084
25086
25079
25084
25066
25042
25035
25049
25049
25003
25001
25005
25009
24997
25014
25009
25035
24997
24981
24991
24986
25031
24991
24972
25023
24981
24977
25020
24967
24958
25027
25006
24991
24986
24975
24962
24957
24949
24958
24985
24930
24943
24942
24937
24935
24934
24929
24924
24922
24924
24931
24939
24951
24975
24967
24959
24957
24943
24887
24874
24894
24948
24943
24911
24934
24909
24934
24931
24871
24875
24864
24863
24863
24856
24863
24871
24857
24903
24867
24846
24900
24842
24838
24888
24850
24836
24825
24875
24838
24823
24852
24869
24876
24812
24810
24827
24804
24804
24809
24814
24812
24809
24806
24807
24799
24806
24799
24795
24799
24788
24794
24776
24779
24783
24778
24775
24780
24767
24775
24774
24764
24775
24766
24767
24765
24759
24754
24759
24762
24749
24743
24743
24743
24736
24738
24736
24743
24735
24729
24740
24735
24733
24724
24711
24723
24722
24724
24725
24711
24711
24711
24711
24718
24711
24716
24700
24705
24695
24687
24687
24687
24691
24692
24695
24684
24684
24674
24684
24671
24687
24676
24717
24684
24665
24679
24673
24660
24677
24674
24732
24670
24667
24717
24665
24691
24731
24711
24700
24641
24647
24650
24653
24654
24644
24634
24639
24651
24647
24647
24652
24655
24689
24689
24629
24631
24636
24636
24628
24636
24658
24622
24615
24624
24621
24623
24637
24655
24607
24598
24599
24604
24599
24591
24599
24601
24602
24599
24593
24606
24603
24594
24581
24597
24583
24583
24575
24578
24575
24580
24583
24593
24583
24596
24583
24589
24583
24583
24580
24582
24583
24583
24580
24577
24571
24574
24577
24565
24582
24579
24598
24592
24571
24574
24564
24577
24560
24562
24561
24575
24581
24595
24623
24546
24554
24551
24551
24551
24547
24551
24554
24551
24558
24567
24567
24599
24606
24567
24529
24529
24530
24532
24525
24534
24543
24529
24533
24527
24535
24532
24552
24559
24581
24517
24513
24513
24511
24522
24519
24519
24541
24565
24583
24511
24508
24512
24523
24513
24515
24519
24581
24482
24498
24501
24500
24503
24510
24511
24513
24510
24513
24505
24500
24511
24527
24532
24564
24486
24495
24497
24498
24498
24495
24498
24500
24504
24519
24526
24562
24484
24490
24489
24491
24491
24507
24524
24544
24479
24481
24493
24484
24495
24487
24496
24500
24505
24513
24527
24559
24474
24478
24471
24479
24487
24477
24484
24484
24486
24499
24514
24501
24529
24463
24475
24468
24470
24471
24476
24477
24479
24478
24470
24466
24484
24506
24513
24516
24471
24471
24475
24477
24468
24499
24511
24530
24463
24471
24481
24476
24475
24485
24494
24501
24519
24519
24547
24420
24466
24454
24462
24456
24455
24466
24461
24476
24476
24492
24527
24455
24460
24458
24476
24463
24470
24470
24487
24489
24502
24532
24448
24453
24464
24471
24455
24462
24477
24451
24454
24463
24471
24455
24455
24471
24497
24511
24453
24450
24454
24468
24466
24460
24463
24467
24476
24501
24510
24455
24455
24473
24455
24471
24473
24461
24460
24462
24460
24469
24471
24479
24485
24518
24511
24455
24454
24461
24455
24470
24462
24463
24468
24464
24470
24475
24466
24471
24487
24507
24517
24500
24455
24454
24455
24460
24462
24463
24459
24469
24466
24473
24468
24463
24468
24475
24476
24477
24479
24479
24465
24477
24472
24483
24477
24470
24475
24480
24475
24477
24480
24481
24477
24485
24489
24494
24497
24506
24517
24518
24511
24462
24469
24468
24472
24475
24473
24475
24478
24473
24476
24487
24470
24474
24470
24479
24471
24482
24480
24476
24484
24477
24487
24479
24489
24492
24494
24491
24496
24509
24509
24515
24532
24492
24479
24471
24471
24481
24471
24472
24499
24532
24471
24470
24474
24485
24485
24488
24481
24483
24487
24502
24494
24487
24500
24509
24521
24527
24479
24476
24497
24493
24500
24490
24503
24518
24539
24481
24484
24488
24486
24498
24495
24493
24490
24501
24519
24532
24487
24497
24487
24492
24499
24501
24497
24493
24500
24514
24501
24493
24513
24515
24505
24508
24511
24508
24521
24511
24516
24510
24516
24517
24511
24510
24519
24543
24549
24550
24565
24506
24511
24513
24512
24501
24517
24518
24510
24513
24516
24509
24516
24519
24518
24534
24523
24529
24530
24527
24521
24526
24535
24543
24555
24546
24551
24550
24543
24547
24555
24555
24469
24534
24535
24525
24532
24544
24539
24549
24542
24546
24547
24553
24552
24564
24547
24556
24546
24547
24551
24545
24556
24562
24583
24551
24554
24557
24554
24563
24557
24567
24580
24551
24554
24546
24551
24571
24567
24571
24571
24583
24575
24581
24589
24603
24564
24566
24576
24579
24582
24583
24580
24578
24583
24583
24599
24604
24619
24614
24583
24550
24583
24606
24583
24591
24608
24583
24583
24582
24579
24583
24583
24583
24583
24575
24589
24583
24583
24590
24603
24597
24592
24608
24607
24599
24602
24604
24609
24613
24608
24607
24606
24613
24613
24601
24615
24623
24628
24628
24626
24623
24628
24625
24628
24625
24629
24628
24628
24636
24643
24635
24638
24633
24612
24620
24617
24615
24625
24633
24625
24618
24624
24623
24634
24623
24631
24638
24629
24631
24636
24628
24638
24639
24628
24643
24639
24657
24649
24649
24658
24654
24658
24662
24643
24631
24642
24655
24647
24649
24655
24647
24668
24663
24675
24644
24645
24653
24644
24653
24654
24661
24662
24668
24657
24671
24664
24676
24674
24673
24676
24671
24687
24701
24662
24669
24677
24683
24679
24681
24679
24687
24686
24687
24686
24687
24685
24687
24701
24689
24709
24703
24700
24704
24701
24702
24721
24710
24699
24700
24695
24702
24703
24711
24703
24719
24716
24723
24723
24732
24729
24738
24743
24738
24743
24748
24735
24724
24730
24735
24737
24743
24745
24743
24743
24749
24748
24755
24767
24765
24762
24757
24770
24763
24775
24767
24767
24773
24778
24773
24775
24777
24780
24779
24781
24792
24787
24793
24780
24788
24783
24789
24787
24791
24799
24802
24809
24798
24811
24815
24822
24817
24820
24819
24828
24831
24821
24813
24813
24836
24828
24819
24821
24839
24835
24847
24839
24860
24852
24852
24864
24855
24861
24863
24863
24860
24852
24867
24861
24868
24874
24871
24873
24879
24879
24882
24885
24889
24882
24885
24888
24896
24891
24895
24900
24909
24906
24898
24903
24903
24907
24918
24919
24925
24927
24919
24919
24929
24924
24942
24945
24943
24942
24950
24953
24951
24959
24956
24961
24961
24963
24978
24977
24978
24974
24983
24985
24988
24992
24995
24990
24987
24991
25003
24994
25004
24998
25004
25014
25009
25015
25015
25015
25028
25023
25028
25031
25036
25039
25049
25039
25052
25054
25061
25067
25055
25065
25063
25071
25078
25077
25079
25074
25087
25075
25069
25087
25095
25095
25095
25095
25103
25103
25115
25109
25122
25115
25087
25119
25143
25139
25135
25130
25135
25124
25138
25139
25156
25157
25164
25151
25167
25149
25175
25167
25181
25184
25164
25188
25185
25199
25191
25185
25191
25191
25207
25207
25223
25223
25231
25231
25218
25223
25222
25224
25235
25231
25249
25255
25245
25261
25255
25253
25253
25255
25250
25269
25270
25274
25284
25286
25300
25285
25291
25298
25286
25299
25257
25287
25307
25309
25316
25316
25327
25330
25333
25346
25341
25350
25357
25351
25348
25363
25365
25362
25349
25375
25379
25386
25387
25383
25386
25387
25381
25394
25415
25413
25415
25413
25407
25415
25411
25415
25436
25439
25436
25438
25424
25441
25455
25462
25439
25459
25471
25469
25461
25478
25476
25485
25471
25481
25491
25487
25479
25498
25510
25504
25506
25501
25519
25523
25524
25520
25516
25523
25542
25538
25543
25546
25548
25533
25553
25557
25574
25572
25575
25577
25567
25579
25583
25591
25599
25606
25607
25607
25607
25618
25627
25607
25625
25607
25630
25639
25639
25643
25651
25646
25639
25655
25668
25671
25662
25668
25672
25667
25698
25692
25695
25694
25694
25692
25691
25717
25715
25717
25730
25727
25719
25727
25743
25732
25739
25759
25755
25759
25759
25766
25758
25781
25777
25781
25789
25789
25795
25791
25805
25822
25809
25799
25812
25811
25828
25841
25830
25835
25838
25831
25837
25850
25855
25856
25864
25857
25879
25867
25863
25883
25876
25885
25894
25895
25902
25890
25885
25916
25917
25917
25926
25921
25923
25924
25926
25949
25939
25945
25939
25940
25933
25943
25964
25964
25973
25967
25975
25967
25989
25989
25996
25996
25993
25993
26009
26005
26013
26007
26019
26027
26023
26026
26047
26043
26039
26049
26046
26066
26051
26067
26075
26066
26068
26076
26084
26068
26092
26101
26103
26103
26095
26092
26108
26118
26115
26119
26117
26114
26135
26138
26151
26149
26155
26138
26138
26156
26167
26181
26174
26182
26181
26177
26191
26205
26193
26199
26193
26208
26203
26210
26225
26239
26235
26245
26245
26218
26250
26262
26261
26260
26260
26263
26266
26278
26282
26285
26267
26295
26313
26301
26311
26308
26302
26300
26316
26332
26326
26334
26330
26341
26341
26350
26361
26349
26367
26339
26375
26383
26388
26388
26375
26387
26391
26405
26397
26399
26404
26356
26399
26422
26439
26437
26431
26439
26436
26433
26445
26456
26463
26471
26468
26463
26461
26493
26487
26485
26487
26472
26505
26503
26513
26482
26524
26522
26512
26517
26539
26535
26546
26532
26553
26557
26556
26560
26549
26571
26563
26572
26581
26567
26586
26599
26602
26595
26594
26597
26618
26621
26618
26619
26626
26641
26647
26631
26639
26639
26657
26660
26659
26662
26666
26626
26673
26673
26676
26618
26663
26703
26700
26709
26702
26707
26693
26711
26729
26719
26730
26726
26726
26741
26716
26748
26763
26757
26759
26759
26773
26765
26755
26772
26759
26772
26791
26788
26795
26791
26791
26803
26751
26791
26812
26817
26818
26826
26831
26823
26834
26839
26843
26839
26839
26823
26847
26869
26871
26867
26869
26866
26876
26846
26857
26887
26898
26903
26895
26887
26883
26903
26923
26914
26921
26918
26923
26930
26881
26903
26932
26930
26943
26951
26966
26967
26967
26965
26971
26969
26972
26979
26974
26964
26991
26999
26999
27007
27007
26955
26995
27017
27013
27021
27027
27027
27023
27012
27039
27052
27053
27047
27055
27051
27061
27029
27068
27074
27087
27072
27078
27083
27093
27071
27090
27101
27109
27117
27111
27119
27095
27109
27130
27133
27135
27143
27143
27143
27157
27157
27126
27151
27169
27175
27182
27195
27191
27188
27197
27198
27154
27180
27206
27218
27221
27222
27224
27236
27229
27237
27215
27247
27271
27262
27263
27255
27209
27255
27283
27282
27287
27294
27287
27296
27306
27302
27301
27311
27300
27277
27309
27331
27333
27344
27339
27332
27347
27326
27346
27368
27369
27375
27366
27348
27367
27383
27399
27394
27398
27398
27399
27364
27397
27431
27437
27431
27429
27380
27413
27447
27459
27447
27463
27455
27455
27447
27482
27487
27491
27489
27493
27503
27474
27507
27519
27519
27516
27522
27495
27519
27537
27543
27545
27548
27473
27535
27553
27575
27576
27572
27575
27584
27554
27589
27611
27608
27605
27602
27615
27619
27622
27621
27629
27623
27641
27661
27655
27647
27661
27654
27673
27679
27655
27652
27686
27695
27699
27700
27686
27719
27714
27718
27721
27698
27729
27747
27751
27748
27744
27736
27767
27769
27771
27771
27786
27749
27783
27813
27799
27802
27804
27794
27825
27818
27829
27828
27791
27837
27850
27847
27854
27861
27815
27839
27879
27876
27879
27884
27849
27900
27911
27918
27911
27903
27900
27918
27935
27938
27943
27943
27949
27929
27961
27973
27967
27971
27979
27939
27979
28000
28012
28011
28010
28003
28010
27980
28011
28039
28047
28039
28059
28047
27976
28039
28077
28087
28079
28084
28071
27971
28070
28089
28124
28111
28122
28124
28127
28135
28135
28131
28156
28167
28161
28161
28165
28183
28111
28167
28205
28185
28194
28198
28195
28219
28235
28219
28242
28231
28190
28199
28244
28261
28268
28250
28263
28270
28267
28240
28284
28299
28316
28315
28318
28325
28327
28279
28288
28325
28358
28347
28356
28356
28295
28327
28375
28385
28395
28386
28399
28399
28401
28294
28351
28399
28436
28423
28431
28435
28438
28405
28449
28461
28476
28471
28476
28490
28494
28495
28427
28471
28515
28527
28527
28535
28535
28527
28463
28525
28559
28566
28565
28579
28569
28511
28567
28596
28609
28607
28609
28551
28614
28633
28631
28644
28629
28617
28651
28663
28666
28662
28676
28687
28687
28689
28701
28721
28716
28723
28731
28730
28726
28705
28727
28755
28753
28753
28756
28723
28751
28772
28791
28807
28788
28791
28806
28804
28807
28775
28823
28839
28845
28845
28839
28855
28871
28867
28867
28879
28874
28887
28847
28874
28897
28911
28919
28913
28927
28885
28927
28967
28949
28956
28961
28892
28971
28983
28991
28997
28915
28991
29018
29015
29023
29023
29031
28998
29034
29063
29057
29060
29063
28995
29041
29085
29097
29095
29103
29106
29103
29113
29124
29139
29151
29150
29147
29152
29156
29167
29183
29170
29179
29187
29143
29201
29220
29204
29212
29223
29235
29186
29247
29251
29257
29253
29255
29287
29287
29275
29276
29287
29237
29279
29316
29295
29310
29319
29294
29339
29348
29329
29347
29352
29351
29295
29356
29383
29370
29382
29383
29395
29322
29388
29404
29421
29423
29428
29423
29339
29447
29459
29447
29447
29461
29423
29470
29487
29487
29479
29421
29491
29521
29518
29503
29447
29510
29543
29537
29534
29455
29524
29575
29556
29556
29568
29583
29535
29591
29607
29588
29598
29619
29543
29623
29622
29640
29638
29647
29580
29619
29654
29671
29679
29673
29686
29685
29621
29703
29711
29716
29716
29621
29709
29751
29732
29743
29737
29639
29745
29772
29766
29772
29783
29725
29783
29788
29792
29714
29799
29839
29815
29820
29767
29847
29839
29853
29851
29835
29869
29869
29869
29878
29820
29876
29916
29901
29908
29791
29893
29913
29940
29927
29943
29863
29903
29959
29975
29959
29971
29978
29890
29970
29993
29999
29990
30004
29999
29940
30003
30027
30029
30035
29937
30022
30057
30047
30054
30069
30023
30077
30086
30086
30084
30092
30007
30085
30132
30117
30124
30058
30125
30135
30139
30147
30039
30143
30167
30156
30175
30174
30114
30170
30197
30195
30200
30132
30191
30215
30207
30215
30237
30194
30243
30239
30247
30188
30254
30255
30263
30266
30185
30263
30303
30301
30300
30301
30315
30193
30300
30324
30309
30334
30326
30211
30311
30349
30356
30350
30351
30291
30363
30367
30375
30373
30303
30388
30385
30393
30398
30327
30381
30423
30403
30414
30309
30371
30430
30439
30439
30449
30442
30373
30443
30463
30485
30478
30487
30487
30494
30471
30494
30487
30495
30492
30447
30513
30522
30523
30523
30525
30534
30407
30462
30525
30551
30565
30558
30562
30556
30561
30572
30479
30511
30550
30575
30599
30585
30591
30479
30581
30615
30617
30612
30630
30503
30598
30641
30622
30636
30645
30589
30621
30652
30655
30663
30661
30530
30636
30687
30679
30692
30687
30691
30626
30685
30717
30703
30713
30726
30621
30674
30716
30727
30735
30727
30654
30727
30755
30762
30759
30759
30763
30764
30727
30786
30782
30787
30790
30681
30775
30821
30810
30815
30810
30693
30759
30831
30837
30839
30847
30842
30716
30823
30879
30855
30862
30862
30788
30866
30899
30887
30879
30880
30800
30860
30921
30910
30913
30847
30919
30926
30927
30929
30927
30860
30919
30971
30945
30962
30956
30943
30983
30960
30975
30911
30988
30980
30980
30965
31020
31009
31014
30927
31006
31029
31023
31040
31019
30967
31019
31055
31037
31049
31051
31028
31079
31068
31071
31081
31015
31078
31111
31103
31095
31100
31103
31105
31005
31071
31119
31108
31139
31149
31138
31145
31143
31026
31083
31151
31182
31165
31175
31189
31184
31032
31139
31199
31197
31199
31222
31218
31052
31164
31223
31239
31236
31237
31099
31228
31275
31255
31263
31127
31178
31251
31271
31292
31282
31292
31170
31199
31287
31312
31313
31311
31314
31186
31305
31342
31335
31335
31267
31328
31367
31356
31363
31375
31301
31378
31399
31379
31382
31252
31331
31390
31422
31403
31421
31415
31354
31427
31424
31437
31437
31403
31446
31435
31469
31455
31367
31455
31491
31468
31483
31477
31435
31495
31514
31508
31507
31402
31484
31531
31518
31535
31535
31539
31455
31533
31563
31548
31564
31571
31495
31575
31575
31588
31596
31508
31572
31620
31595
31611
31621
31621
31503
31595
31631
31647
31655
31623
31623
31591
31551
31670
31663
31671
31677
31695
31686
31653
31636
31612
31623
31559
31724
31718
31735
31727
31726
31743
31767
31763
31751
31733
31717
31716
31705
31690
31700
31711
31687
31657
31803
31811
31795
31812
31811
31824
31813
31786
31795
31765
31751
31708
31855
31854
31860
31860
31855
31877
31889
31890
31892
31867
31828
31898
31895
31911
31916
31906
31929
31943
31940
31939
31934
31942
31935
31919
31893
31826
31809
31967
31988
31983
31983
31982
31973
31997
31993
32023
32023
32001
31979
31968
31943
31948
31943
31919
31902
32051
32047
32047
32063
32070
32102
32090
32102
32103
32106
32106
32108
32087
32061
32039
32000
32119
32142
32131
32135
32133
32140
32150
32159
32153
32151
32175
32199
32177
32183
32177
32213
32219
32209
32228
32203
32214
32203
32215
32229
32231
32245
32263
32255
32273
32259
32259
32255
32257
32236
32213
32139
32280
32284
32296
32294
32299
32306
32318
32321
32326
32327
32329
32349
32351
32351
32347
32359
32363
32374
32366
32367
32372
32365
32235
32314
32335
32378
32391
32398
32434
32434
32446
32426
32434
32423
32451
32446
32465
32468
32455
32437
32455
32452
32426
32381
32335
32488
32357
32325
32498
32501
32527
32538
32527
32545
32542
32551
32543
32550
32550
32556
32557
32565
32571
32601
32604
32607
32607
32606
32615
32565
32601
32625
32633
32590
32636
32631
32641
32647
32647
32685
32660
32629
32607
32575
32517
32687
32690
32690
32698
32698
32700
32697
32725
32734
32732
32733
32748
32735
32737
32729
32743
32710
32695
32646
32768
32765
32783
32775
32775
32815
32804
32775
32742
32715
32647
32819
32823
32834
32839
32831
32839
32869
32852
32831
32820
32790
32701
32869
32881
32879
32865
32879
32887
32901
32918
32908
32887
32862
32828
32855
32822
32815
32763
32935
32943
32947
32959
32967
32964
32954
32970
32973
32999
32997
32994
33009
33015
33018
33031
33028
33039
33043
33031
33005
33007
32983
32999
32983
32941
32875
33055
33063
33067
33071
33083
33087
33085
33093
33110
33119
33108
33106
33071
33031
33023
32955
33124
33131
33143
33146
33147
33157
33148
33167
33159
33173
33199
33167
33124
33007
33201
33201
33196
33198
33194
33221
33233
33231
33218
33215
33207
33198
33159
33251
33263
33255
33268
33263
33258
33302
33287
33274
33262
33159
33123
33302
33311
33309
33332
33327
33311
33310
33317
33329
33355
33351
33323
33313
33300
33259
33365
33364
33372
33382
33364
33406
33407
33404
33389
33359
33318
33411
33415
33423
33431
33444
33447
33439
33423
33377
33314
33455
33463
33463
33471
33485
33471
33490
33491
33490
33495
33526
33514
33511
33479
33438
33433
33383
33533
33542
33543
33535
33555
33535
33543
33577
33567
33550
33559
33543
33554
33515
33502
33468
33414
33604
33605
33607
33594
33640
33604
33554
33468
33631
33637
33462
33639
33655
33662
33639
33671
33683
33668
33615
33575
33489
33686
33695
33694
33695
33699
33679
33725
33716
33703
33671
33676
33679
33687
33704
33687
33676
33614
33741
33751
33767
33757
33767
33751
33759
33799
33785
33795
33798
33799
33813
33815
33799
33820
33825
33796
33798
33822
33811
33822
33826
33823
33831
33837
33846
33835
33842
33856
33860
33871
33875
33871
33879
33875
33894
33879
33878
33876
33883
33887
33895
33887
33910
33911
33908
33935
33934
33925
33927
33906
33892
33855
33851
33758
33749
33796
33756
33783
33799
33895
33910
33925
33927
33915
33925
33890
33900
33884
33876
33882
33863
33844
33815
33869
33857
33831
33828
33855
33878
33857
34029
34045
34047
34055
34047
34055
34055
34054
34068
34055
34074
33879
33943
33956
33951
33919
33949
33996
34006
33998
34034
34055
34039
34055
34079
34047
34026
33983
34011
33987
33975
33957
33959
33951
33951
33962
34151
33989
34055
34069
34103
34153
34158
34175
34179
34194
34215
34182
34193
34212
34109
34196
34055
34235
34231
34208
34213
34036
34239
34243
34205
34227
34067
34268
34256
34276
34269
34159
34285
34273
34151
34293
34283
34247
34311
34303
34221
34310
34311
34343
34341
34339
34343
34350
34341
34367
34343
34331
34365
34351
34327
34335
34335
34381
34364
34229
34239
34287
34323
34335
34351
34307
34247
34207
34245
34207
34415
34413
34419
34427
34415
34433
34439
34439
34423
34446
34436
34455
34465
34431
34482
34455
34372
34476
34479
34485
34491
34495
34471
34471
34500
34519
34516
34519
34505
34479
34450
34311
34520
34522
34524
34524
34514
34548
34553
34543
34507
34478
34465
34353
34567
34563
34561
34567
34583
34590
34567
34560
34579
34598
34593
34613
34629
34627
34636
34622
34637
34631
34615
34542
34503
34633
34634
34650
34652
34655
34659
34667
34664
34678
34644
34637
34663
34644
34663
34695
34696
34708
34708
34695
34669
34662
34660
34566
34723
34727
34727
34719
34719
34724
34759
34758
34751
34740
34733
34695
34631
34765
34772
34775
34759
34765
34802
34795
34778
34761
34727
34595
34803
34805
34823
34809
34794
34799
34836
34861
34822
34801
34725
34835
34837
34847
34850
34829
34855
34884
34885
34868
34859
34840
34823
34727
34669
34891
34703
34888
34892
34895
34919
34910
34895
34935
34928
34927
34938
34925
34908
34937
34918
34943
34951
34885
34951
34975
34975
34935
34965
34961
34972
34895
34972
34997
35006
34961
34996
34991
34935
34999
35023
34975
35009
35007
35015
34855
34981
35012
35047
35034
35019
35047
35047
34845
34947
35008
35063
35044
35053
35075
34844
35002
35087
35087
35055
35079
35098
34895
34951
35010
35068
35119
35091
35114
35111
35003
35109
35133
35098
35140
35138
34943
35099
35127
35163
35167
35126
35157
35163
35173
34983
35093
35183
35171
35181
35163
35079
35187
35207
35204
35175
35207
35196
35075
35199
35231
35207
35220
35138
35223
35207
35229
35116
35239
35223
35246
35253
35206
35271
35233
35247
35159
35252
35252
35267
35271
35267
35079
35227
35254
35303
35311
35302
35300
35207
35303
35274
35303
35316
35311
35168
35265
35311
35349
35335
35316
35334
35335
35252
35335
35359
35343
35350
35236
35358
35327
35358
35368
35171
35308
35387
35399
35367
35388
35191
35335
35387
35413
35415
35391
35404
35398
35245
35375
35410
35398
35423
35423
35423
35302
35399
35439
35446
35431
35435
35435
35335
35271
35439
35451
35447
35247
35259
35388
35421
35447
35487
35495
35438
35474
35478
35491
35324
35444
35494
35511
35467
35503
35359
35493
35524
35495
35519
35527
35445
35518
35499
35522
35522
35413
35508
35551
35508
35540
35540
35461
35549
35572
35533
35567
35559
35483
35583
35546
35565
35583
35367
35524
35574
35607
35559
35565
35588
35586
35584
35461
35564
35611
35623
35591
35615
35614
35612
35623
35619
35619
35390
35527
35588
35625
35629
35607
35621
35622
35409
35548
35620
35652
35621
35639
35644
35515
35611
35639
35662
35669
35628
35662
35654
35503
35559
35560
35639
35663
35682
35679
35641
35670
35679
35676
35463
35642
35676
35695
35699
35669
35685
35688
35690
35475
35621
35669
35719
35716
35687
35711
35707
35718
35508
35623
35687
35719
35719
35724
35726
35741
35719
35731
35741
35511
35606
35691
35711
35682
35677
35663
35702
35714
35738
35775
35774
35719
35736
35749
35757
35757
35767
35765
35559
35676
35765
35758
35775
35780
35791
35796
35751
35753
35775
35780
35791
35591
35718
35775
35801
35813
35777
35795
35797
35791
35599
35663
35772
35812
35822
35815
35788
35796
35821
35819
35825
35814
35823
35778
35703
35810
35817
35844
35847
35823
35805
35839
35836
35651
35711
35807
35847
35811
35847
35847
35847
35847
35667
35693
35713
35788
35812
35791
35831
35843
35871
35892
35847
35839
35863
35879
35879
35891
35869
35882
35887
35684
35797
35843
35871
35885
35895
35904
35902
35879
35895
35895
35863
35879
35907
35907
35892
35677
35759
35801
35860
35877
35888
35915
35931
35891
35902
35911
35931
35916
35922
35773
35879
35919
35943
35935
35951
35916
35919
35941
35943
35938
35947
35942
35939
35921
35781
35887
35949
35967
35967
35924
35937
35947
35958
35951
35959
35959
35741
35821
35903
35943
35967
35971
35975
35975
35975
35959
35933
35967
35962
35964
35847
35963
35991
35941
35962
35970
35972
35841
35903
35941
35936
35964
35975
35989
35989
35949
35969
35973
35975
35975
35983
35983
35836
35922
35956
35975
35996
35997
35991
36005
35975
35951
35961
35979
35983
35986
35980
35775
35889
35975
35983
36004
35951
35979
35999
35983
35991
35978
35935
35954
36007
36005
35967
36005
35990
35814
35931
35972
35983
36006
35975
35967
35991
35991
35998
35994
35773
35762
35783
35860
35950
36003
36007
35981
35983
36003
36003
35999
35900
35983
36015
36017
36018
35983
35991
36003
35999
36005
35791
35814
35876
35975
35991
35995
36015
36020
35991
35999
36001
36014
35817
35951
36007
36029
35975
36004
36009
35999
35900
35970
35943
35822
36019
36019
36002
36009
35847
35966
36035
35999
36007
36023
36005
35955
36002
36030
36029
36012
36012
36011
36015
35886
35998
36026
36002
35995
36029
36029
35945
35983
36022
36047
35999
36023
36031
36021
36023
35911
36002
36028
36039
35991
36027
36020
36028
36030
36022
35839
35938
36015
36035
36031
36004
36031
36047
36031
36031
36026
36029
35943
36007
36039
36029
36012
36036
36039
36033
35938
36007
36038
36047
36012
36047
36030
36032
35975
36039
36048
36067
36014
36039
36037
36038
36031
36066
36023
36036
36033
35838
35988
36039
36069
36025
36063
36047
35824
35999
36053
36015
36045
36045
35943
36039
36063
36065
36029
36036
36047
35906
36028
36033
36055
36069
36039
36023
36047
36053
36060
36057
36051
36052
36047
35843
35909
35965
36027
36066
36069
36044
36023
36060
36071
35843
35996
36058
36083
36081
36051
36061
36068
36059
35887
36013
36038
36074
36038
36067
36071
35967
36045
36071
36082
36055
36055
36071
36063
36068
35932
36034
36067
36095
36065
36063
36061
36063
36071
35927
36055
36078
36074
36078
36076
35874
36019
36069
36095
36071
36041
36079
36082
36071
36039
35903
36031
36069
36074
36101
36079
36053
36077
36067
36087
36085
36091
35962
36021
36071
36071
36092
36095
36102
36062
36092
36079
36084
35998
36075
36087
36103
36062
36084
36095
36084
36087
36088
35943
36039
36081
36095
36103
36103
36103
36090
36085
36092
36103
36092
36100
35894
35983
36048
36079
36077
36103
36071
36027
35884
36098
36103
36073
36087
36076
36095
36103
36103
36094
35919
36087
36103
36127
36071
36111
36103
36103
36103
35927
35988
36039
36011
36039
36065
36103
36125
36139
36084
36102
36103
36113
36110
36118
36103
36092
36084
36092
36103
36111
36108
36003
36116
36127
36103
36119
36125
35975
36012
36095
36135
36148
36127
36099
36102
36103
36133
36129
36130
36138
36111
36135
36129
36135
36127
36126
36134
36124
36119
36108
36127
36133
36131
36135
36126
35935
36003
36044
36097
36127
36137
36151
36148
36132
36103
36135
36132
36153
36140
36137
36142
36145
36147
36132
35988
35991
35975
35999
36052
36039
36093
36095
36103
36117
36137
36135
36149
36143
36171
36103
36134
36143
36152
36150
36143
36149
36149
36148
36047
36053
36092
36139
36148
36140
36130
36151
36126
36135
36171
36163
36143
36129
36159
36167
36135
36129
36135
36149
36159
36150
36151
36150
35991
36055
36154
36180
36141
36150
36159
36164
36162
35981
35975
36100
36142
36147
36167
36167
36146
36166
36167
35947
36114
36157
36180
36189
36159
36175
36179
36174
36014
36103
36156
36180
36191
36179
36135
36167
36187
36172
36182
36183
36037
36090
36149
36180
36189
36185
36193
36192
36156
36143
36173
36186
36180
36183
36185
35947
36063
36158
36199
36186
36150
36185
36190
36170
36036
36134
36175
36190
36143
36183
36167
36183
36090
36149
36167
36172
36196
36175
36157
36157
36151
36164
36186
36175
36173
36166
36019
36103
36135
36175
36193
36142
36158
36177
36166
36178
36175
36183
36175
36185
36183
35975
36103
36151
36177
36199
36159
36171
36180
35955
36071
36135
36190
36191
36171
36188
36167
36077
36148
36199
36204
36167
36188
36189
36195
36180
36103
36183
36199
36163
36175
36187
36080
36165
36207
36213
36162
36172
36186
36185
36194
36011
36167
36183
36197
36201
36207
36167
36181
36188
36183
36187
36191
36020
36113
36163
36188
36159
36187
36199
36191
35967
36142
36185
36204
36154
36191
36199
36195
36195
36084
36181
36207
36160
36199
36194
36180
36119
36175
36207
36191
36178
36188
36204
36190
36199
36191
35990
36093
36204
36220
36219
36179
36198
36202
36007
36137
36191
36198
36204
36220
36167
36199
36203
36116
36207
36172
36197
36205
35975
36115
36204
36220
36183
36211
36245
36203
36197
36203
36010
36124
36167
36199
36219
36212
36225
36175
36191
36198
36212
36011
36124
36182
36213
36215
36187
36191
36206
36209
36199
36013
36164
36194
36199
36215
36199
36181
36210
36207
36007
36186
36223
36183
36219
36205
36207
36089
36191
36220
36186
36199
36210
35975
36172
36221
36203
36199
36199
36205
36055
36103
36175
36205
36222
36186
36199
36206
36193
36031
36151
36220
36174
36199
36202
36201
35987
36077
36159
36204
36215
36187
36191
36199
35969
36084
36133
36187
36205
36166
36189
36183
36191
35986
36005
36007
36111
36181
36198
36157
36176
36185
36183
36117
36188
36205
36165
36191
36187
36181
36186
35974
36031
36127
36161
36180
36206
36148
36159
36183
36167
36078
36163
36193
36151
36170
36175
36174
36015
36119
36187
36191
36155
36170
36176
36174
35975
36039
36103
36164
36183
36151
36159
36165
36172
36167
36019
36149
36167
36188
36155
36167
36172
36002
36116
36143
36164
36183
36160
36155
36167
36167
36023
36103
36162
36173
36191
36150
36135
36167
36159
36006
36076
36139
36159
36197
36143
36170
36159
35931
36103
36167
36162
36161
36159
36159
36062
36149
36183
36140
36159
36167
35993
36140
36172
36135
36159
36169
36103
36183
36127
36157
36167
35967
36127
36163
36188
36151
36166
36159
36155
36031
36146
36183
36185
36138
36162
36161
36165
36092
36167
36156
36155
36175
36170
36103
36174
36181
36134
36154
36179
36158
35935
36088
36165
36183
36199
36159
36165
36172
36175
36042
36142
36175
36195
36197
36151
36145
36167
36177
36181
36170
36174
35967
35983
35975
36044
36145
36177
36195
36183
36143
36147
36178
36172
36185
36055
36139
36175
36192
36141
36179
36190
36175
36068
36165
36199
36176
36181
36197
35943
36108
36186
36207
36157
36184
36198
36191
36142
36202
36174
36178
36191
36196
36189
36074
36187
36215
36191
36186
36199
36195
35964
36034
36180
36215
36199
36180
36218
36213
36198
35975
36158
36203
36213
36231
36207
36190
36223
36215
35975
36052
36188
36219
36222
36220
36231
36236
36214
36187
36215
36229
36215
35992
36171
36229
36241
36212
36191
36222
36231
36239
36231
36231
36151
36222
36255
36205
36231
36060
36223
36263
36229
36231
36001
36194
36250
36261
36223
36263
36252
36091
36204
36263
36215
36260
36256
36159
36247
36276
36273
36234
36255
36271
36269
36051
36215
36271
36270
36295
36295
36287
36288
36231
36260
36279
36279
36279
36275
36042
36151
36223
36265
36273
36300
36311
36263
36293
36292
36228
36292
36316
36267
36298
36309
36295
36294
36255
36311
36307
36301
36311
36303
36215
36299
36326
36326
36311
36313
36314
36140
36251
36307
36332
36349
36328
36287
36327
36326
36338
36327
36328
36325
36145
36230
36294
36327
36359
36335
36311
36333
36335
36335
36151
36326
36356
36359
36299
36347
36355
36355
36351
36169
36327
36372
36327
36357
36359
36359
36277
36357
36359
36388
36359
36359
36359
36275
36359
36359
36391
36406
36359
36338
36383
36382
36151
36275
36375
36396
36349
36399
36396
36165
36359
36387
36404
36423
36394
36388
36391
36409
36415
36421
36415
36193
36284
36359
36415
36435
36379
36419
36414
36255
36407
36447
36391
36437
36431
36436
36266
36393
36423
36444
36413
36431
36444
36447
36228
36354
36418
36455
36455
36477
36464
36419
36435
36449
36455
36458
36455
36260
36421
36479
36487
36437
36471
36479
36487
36479
36295
36423
36471
36495
36503
36511
36455
36503
36485
36509
36303
36481
36527
36471
36503
36511
36271
36436
36503
36523
36543
36508
36503
36527
36526
36525
36527
36319
36431
36503
36522
36548
36555
36500
36542
36538
36543
36359
36499
36564
36571
36519
36561
36567
36551
36402
36532
36551
36581
36596
36559
36551
36575
36574
36330
36546
36585
36599
36583
36597
36591
36527
36597
36572
36593
36594
36471
36597
36615
36591
36599
36602
36457
36608
36623
36596
36599
36614
36628
36615
36407
36556
36615
36599
36615
36628
36425
36594
36660
36588
36635
36637
36383
36566
36647
36661
36596
36655
36647
36646
36529
36647
36667
36615
36647
36663
36655
36663
36412
36574
36654
36662
36687
36703
36651
36677
36675
36687
36684
36467
36585
36648
36692
36703
36678
36668
36718
36693
36479
36538
36591
36578
36679
36678
36711
36731
36740
36743
36695
36684
36732
36731
36478
36676
36731
36753
36759
36732
36711
36739
36743
36755
36513
36604
36663
36711
36750
36765
36779
36732
36743
36771
36779
36695
36759
36791
36783
36756
36765
36783
36804
36791
36527
36705
36799
36815
36769
36795
36804
36591
36727
36815
36822
36838
36781
36811
36822
36818
36596
36772
36815
36844
36795
36831
36839
36839
36829
36615
36812
36845
36864
36817
36855
36863
36716
36822
36857
36871
36819
36863
36871
36853
36871
36871
36863
36871
36624
36756
36812
36863
36892
36902
36900
36914
36910
36855
36869
36871
36908
36917
36909
36895
36662
36901
36753
36871
36908
36938
36943
36882
36909
36926
36931
36929
36926
36935
36932
36942
36807
36871
36911
36947
36967
36913
36956
36948
36958
36692
36831
36959
36980
36974
36967
36916
36964
36975
36973
36766
36933
36975
36983
36923
36935
36951
36986
36991
36716
36923
36973
36983
37007
37004
36958
36989
36996
37002
36997
36823
36983
37015
37007
36964
37011
37012
37012
36804
36998
37031
36979
36995
37027
37029
37028
36806
36968
37029
37040
37047
37022
37034
37031
36916
37043
37066
37006
37047
37055
36820
36967
37014
37053
37070
37020
37010
37055
37051
37063
37055
37063
37063
37063
37063
36836
36898
36891
37068
37075
37069
37078
36893
37020
36917
37069
37079
37031
37107
37053
36811
37103
37085
37118
37095
37083
36895
37111
37105
36839
36966
37041
37099
37127
37127
37127
37124
37135
37071
37109
37125
37117
37127
37138
37135
37150
37141
37142
37148
37139
36922
37030
37117
37151
37165
37167
37140
37108
37155
37175
37159
37159
37150
37155
37165
37147
37148
37175
37179
37201
37183
37196
37179
37203
37202
37191
37025
37072
37156
37206
37223
37224
37167
37194
37212
37197
36999
37190
37223
37248
37239
37197
37191
37215
37236
37247
37239
37095
37226
37250
37240
37214
37251
37255
37266
37268
37264
37269
37271
37275
37271
36997
37113
37262
37284
37287
37303
37300
37255
37247
37286
37297
37303
37127
37274
37301
37319
37333
37268
37292
37318
37335
37081
37125
37255
37324
37351
37303
37302
37351
37340
37347
37231
37338
37359
37359
37329
37319
37349
37369
37372
37199
37343
37359
37397
37383
37383
37343
37371
37383
37399
37399
37383
37266
37399
37431
37364
37402
37428
37438
37149
37277
37351
37427
37444
37444
37405
37414
37445
37442
37245
37425
37460
37473
37435
37467
37466
37467
37463
37238
37407
37487
37503
37484
37446
37479
37487
37486
37495
37238
37448
37495
37516
37527
37535
37511
37479
37511
37531
37521
37253
37462
37500
37527
37556
37565
37542
37492
37530
37551
37551
37575
37559
37559
37578
37571
37579
37333
37479
37527
37559
37570
37596
37611
37549
37575
37599
37607
37612
37370
37567
37614
37638
37629
37649
37599
37614
37636
37636
37635
37382
37519
37623
37652
37666
37655
37655
37659
37662
37666
37405
37511
37639
37673
37701
37698
37636
37655
37677
37703
37697
37703
37708
37439
37639
37714
37719
37735
37743
37703
37702
37733
37735
37441
37711
37773
37767
37711
37735
37762
37751
37487
37592
37725
37767
37767
37799
37733
37751
37790
37795
37615
37756
37783
37813
37812
37821
37767
37805
37818
37823
37839
37828
37840
37831
37839
37708
37748
37806
37841
37839
37860
37871
37830
37812
37865
37876
37891
37623
37671
37791
37879
37888
37909
37918
37855
37852
37895
37917
37751
37887
37927
37895
37919
37927
37724
37915
37959
37925
37959
37807
37935
37965
37918
37946
37955
37971
37860
37975
37923
37985
37765
38002
37988
37982
37988
37775
37972
38019
37988
37949
37999
38018
38023
37911
38031
38044
37981
38039
38036
37951
38045
38063
37997
38037
38060
37743
37988
38055
38087
38092
38023
38075
38071
37994
38087
38111
38042
38100
37887
38105
38131
38083
38111
37862
38102
38133
38121
38137
38151
37919
38070
38143
38174
38132
38151
38151
38007
38102
38167
38186
38194
38148
38132
38185
38194
38189
38181
38122
38203
38215
38199
38151
38209
38214
38209
38009
38191
38234
38236
38204
38246
38023
38228
38260
38196
38247
37991
38269
38237
38261
38269
37947
38235
38287
38295
38225
38276
38294
38287
38052
38260
38293
38323
38325
38247
38304
38331
38007
38181
38284
38325
38352
38298
38268
38338
38347
38109
38308
38348
38361
38293
38351
38363
38057
38303
38357
38375
38309
38371
38375
38389
38390
38224
38381
38393
38407
38375
38402
38397
38401
38197
38367
38407
38407
38407
38407
38363
38431
38431
38437
38439
38277
38407
38459
38466
38380
38431
38450
38151
38406
38444
38423
38407
38240
38468
38478
38479
38407
38503
38478
38458
38434
38442
38479
38491
38495
38511
38509
38511
38444
38505
38516
38221
38477
38527
38526
38504
38479
38527
38535
38524
38451
38514
38557
38479
38543
38557
38547
38247
38527
38572
38583
38513
38572
38573
38571
38379
38531
38599
38567
38580
38587
38583
38495
38596
38615
38555
38607
38609
38619
38618
38614
38384
38519
38557
38571
38567
38604
38615
38628
38636
38571
38621
38655
38657
38628
38598
38659
38663
38649
38471
38583
38607
38645
38663
38663
38692
38606
38625
38685
38674
38676
38518
38673
38695
38687
38631
38687
38687
38694
38423
38630
38711
38725
38725
38726
38652
38711
38727
38716
38719
38722
38442
38560
38655
38735
38751
38693
38735
38741
38747
38572
38701
38758
38773
38677
38735
38767
38757
38471
38706
38753
38758
38773
38756
38708
38746
38780
38778
38772
38775
38549
38563
38620
38724
38775
38791
38807
38783
38791
38485
38735
38815
38818
38807
38738
38813
38799
38801
38663
38801
38825
38757
38807
38507
38747
38823
38846
38750
38807
38829
38519
38801
38847
38772
38831
38832
38836
38690
38798
38844
38845
38851
38837
38782
38854
38853
38844
38551
38639
38739
38828
38863
38869
38859
38798
38818
38855
38855
38566
38791
38843
38854
38874
38873
38812
38863
38868
38627
38711
38831
38855
38885
38871
38883
38885
38808
38867
38879
38878
38874
38716
38873
38895
38882
38847
38879
38879
38823
38886
38895
38819
38886
38887
38626
38863
38900
38823
38901
38885
38769
38887
38911
38863
38839
38883
38895
38907
38903
38895
38903
38587
38788
38910
38898
38884
38907
38903
38701
38869
38917
38910
38855
38902
38902
38727
38825
38907
38919
38847
38917
38909
38625
38878
38935
38869
38873
38916
38906
38759
38919
38939
38904
38919
38856
38940
38855
38919
38605
38906
38941
38855
38934
38599
38903
38951
38943
38892
38939
38929
38887
38947
38906
38932
38937
38819
38919
38957
38881
38950
38943
38859
38941
38890
38935
38943
38751
38951
38919
38949
38943
38903
38966
38893
38953
38957
38727
38951
38904
38940
38949
38638
38919
38950
38967
38885
38955
38951
38807
38964
38975
38895
38966
38975
38919
38979
38982
38903
38967
38967
38890
38972
38987
38903
38964
38983
38970
38787
38967
38980
38915
38932
38979
38971
38982
38855
38963
38993
38917
38979
38977
38695
38917
38991
38983
38971
39002
38775
38965
38991
38917
38997
38983
38890
38988
39002
38980
38999
38940
39011
38947
38999
38996
38757
38997
39015
38991
39002
38982
39014
38919
39007
38829
38999
38950
38993
39004
38805
38983
39019
38941
39012
39007
38982
39023
38999
39004
38820
39011
38943
39001
39012
38903
39014
39021
38959
39010
39012
38903
39021
39028
38983
39017
38783
39027
38975
39017
38911
39017
39031
38957
39022
38693
39017
39039
38999
39023
39023
38911
39023
39026
39003
39031
38959
38911
39022
39041
38972
39018
39030
38735
39009
39047
38967
39028
38759
39002
39031
39047
38963
39026
39039
38783
39007
39052
39043
38815
38983
39044
39023
38988
39041
39045
38763
39015
39045
39046
38980
39015
39039
39039
38887
39039
39047
39023
38990
39045
39047
39047
39047
38919
39035
39047
39022
39039
39054
38964
39067
38983
39047
39039
38971
39045
39063
39013
39047
38723
39023
39055
39007
39012
39055
39039
39049
39042
38893
39031
39047
39061
39067
39022
38791
39047
39052
38989
39072
39027
39019
39055
39055
38939
39047
39079
39044
39029
39047
39031
38844
39046
39065
39071
38988
39030
39063
39062
39066
38971
39071
38990
38991
39021
39057
39071
38819
38980
39073
39065
39015
39063
39055
38757
39039
39071
38998
39047
39063
39067
38757
39039
39067
38998
39063
39061
38748
39028
39068
39022
39039
39071
39047
39015
39078
39070
39071
39031
39060
39069
38753
38967
39061
39079
39084
39031
39041
39071
39060
39063
38740
38899
39015
39055
39060
39068
39083
39022
39047
39062
39078
38802
38940
39006
39074
39076
39078
39023
39012
39054
39071
39075
39069
38746
38951
39059
39074
39078
38999
39067
39064
39075
39072
39075
39071
38863
39004
39078
39086
39060
39016
39060
39067
39063
38772
39013
39071
39086
39037
39047
39073
39071
38758
39004
39073
39079
39008
39076
39075
39066
38817
39043
39079
39042
39047
39054
39063
38911
39070
39078
39069
39006
39018
39075
39067
39075
39071
38943
39039
39086
39079
38999
39061
39060
39074
39023
39073
39077
39045
39057
38772
38918
39063
39076
39079
38999
39047
39065
39063
38727
38930
39020
39063
39070
39079
39060
39071
39046
38983
38991
39013
39023
39047
39055
39045
38973
39047
39047
38812
38999
39041
39063
38980
39031
39039
39033
39045
38855
38955
39015
39037
39037
39039
38991
39023
39031
39035
38724
38959
39026
39045
39047
38966
39003
39032
39029
38727
38949
39009
39031
39044
38981
38963
39028
39023
39019
38759
38965
39007
39014
39021
39015
38946
38994
39013
39013
39014
38999
38964
38993
39020
39004
38993
38906
39007
39007
38663
38724
38935
38999
39004
38964
38911
38988
39003
39015
38941
38988
38995
38983
38791
38951
38998
38997
39005
38977
38957
38999
38978
38780
38956
39001
38991
38967
38915
38916
38970
38975
38982
38975
38979
38977
38766
38749
38865
38919
38967
38975
38975
38979
38957
38889
38927
38967
38941
38892
38956
38983
38886
38963
38954
38749
38956
38907
38951
38958
38772
38953
38958
38878
38941
38950
38942
38932
38623
38814
38887
38909
38919
38935
38941
38875
38919
38919
38747
38901
38935
38908
38846
38907
38919
38918
38679
38823
38916
38919
38879
38913
38903
38709
38919
38916
38879
38908
38603
38871
38908
38915
38909
38853
38881
38895
38602
38855
38894
38901
38822
38889
38887
38663
38855
38868
38877
38887
38855
38839
38863
38863
38663
38852
38871
38871
38791
38835
38847
38852
38677
38825
38846
38855
38785
38781
38839
38847
38674
38844
38844
38774
38823
38823
38612
38715
38799
38828
38813
38801
38812
38815
38503
38743
38807
38823
38733
38783
38805
38751
38807
38726
38780
38789
38535
38762
38806
38724
38773
38771
38775
38487
38673
38750
38749
38751
38772
38756
38767
38750
38694
38750
38758
38511
38663
38718
38735
38746
38703
38678
38693
38727
38726
38726
38589
38689
38713
38732
38719
38636
38685
38708
38695
38674
38453
38655
38694
38709
38690
38612
38645
38676
38655
38663
38684
38676
38449
38569
38623
38647
38660
38660
38674
38672
38581
38636
38649
38647
38372
38599
38655
38651
38638
38575
38614
38619
38626
38629
38630
38623
38618
38604
38615
38595
38610
38604
38612
38606
38602
38587
38599
38271
38598
38591
38589
38599
38591
38586
38324
38369
38437
38495
38555
38570
38583
38575
38582
38516
38503
38554
38541
38556
38271
38268
38390
38509
38567
38564
38554
38477
38540
38519
38407
38527
38511
38516
38518
38422
38519
38535
38453
38503
38519
38196
38446
38516
38503
38501
38500
38505
38326
38505
38503
38439
38489
38479
38494
38484
38180
38383
38485
38501
38407
38479
38475
38471
38197
38396
38463
38470
38391
38430
38463
38451
38355
38453
38475
38380
38445
38455
38430
38367
38437
38455
38375
38435
38118
38403
38440
38390
38381
38420
38131
38263
38401
38422
38404
38381
38407
38404
38173
38188
38302
38375
38404
38406
38339
38395
38391
38295
38347
38386
38383
38374
38390
38228
38366
38397
38320
38375
38143
38319
38375
38308
38355
38351
38231
38287
38327
38343
38367
38372
38315
38340
38335
38055
38277
38332
38350
38263
38319
38323
38341
38332
38320
38319
38311
38311
38007
38211
38303
38317
38319
38284
38303
38311
38143
38287
38311
38279
38309
38021
38257
38276
38300
38220
38285
38275
38250
38279
38286
38228
38271
38134
38205
38279
38290
38237
38263
38260
38255
38227
38267
38271
38191
38239
38249
38115
38223
38252
38197
38258
38241
38007
37927
37983
38126
38231
38237
38228
38230
38028
38135
38223
38231
38151
38209
38223
38212
37895
38135
38219
38218
38183
38206
38109
38198
38175
38183
38203
38015
38197
38196
38180
38183
38114
38183
38190
38133
38171
38167
37879
38036
38151
38181
38117
38168
38151
38021
38172
38151
38108
38151
38151
38036
38143
38164
38103
38151
37843
38116
38146
38085
38133
38037
38145
38074
38119
37935
37845
38111
38123
38119
38119
38106
38062
38081
38125
38119
38119
38113
38116
38111
38115
38108
38109
38111
38114
38110
38115
38089
38034
38023
38023
38066
38087
38085
38075
38079
38085
38082
38069
38087
38069
38075
38061
38063
37757
37790
37838
37791
37775
38065
38054
37749
37838
37965
37943
37927
37935
37943
37963
37839
37756
37734
38047
38053
38033
37743
37967
38047
38058
37998
38011
38023
38028
37880
37987
38007
38023
38015
37979
38001
38012
38020
37999
38012
37843
37996
38018
38020
37958
38004
38015
37687
37895
37983
37991
38006
37932
37968
37988
37983
37799
37868
37991
37984
37958
37987
37983
37927
37799
37967
37975
37959
37955
37924
37980
37959
37855
37964
37955
37963
37943
37938
37959
37915
37951
37652
37927
37972
37895
37936
37944
37831
37940
37949
37882
37935
37931
37767
37911
37939
37908
37914
37911
37735
37904
37927
37878
37917
37671
37895
37927
37887
37913
37697
37871
37895
37926
37879
37895
37689
37906
37858
37895
37895
37687
37799
37879
37895
37852
37890
37880
37777
37869
37895
37884
37814
37868
37876
37876
37622
37821
37863
37882
37817
37844
37854
37852
37782
37862
37864
37855
37854
37741
37837
37861
37780
37831
37566
37794
37846
37839
37828
37838
37823
37822
37789
37831
37819
37799
37839
37807
37802
37703
37804
37823
37767
37803
37805
37721
37791
37814
37767
37796
37651
37781
37805
37719
37781
37780
37724
37786
37719
37766
37779
37685
37767
37707
37767
37511
37687
37775
37695
37759
37767
37485
37718
37757
37755
37695
37747
37743
37741
37575
37720
37745
37692
37743
37719
37525
37700
37733
37734
37727
37687
37733
37719
37438
37567
37680
37709
37718
37659
37695
37706
37549
37685
37717
37663
37703
37652
37705
37635
37687
37468
37694
37639
37680
37674
37604
37687
37672
37638
37665
37670
37567
37669
37684
37607
37662
37661
37501
37663
37674
37639
37649
37375
37615
37663
37590
37633
37531
37655
37588
37639
37412
37631
37604
37627
37355
37629
37636
37611
37318
37615
37556
37612
37534
37631
37571
37598
37521
37607
37622
37595
37599
37564
37606
37586
37589
37521
37596
37543
37583
37405
37590
37573
37559
37575
37302
37516
37562
37583
37510
37559
37551
37542
37567
37518
37543
37429
37559
37492
37545
37383
37559
37486
37539
37303
37519
37545
37527
37526
37468
37537
37507
37524
37383
37518
37503
37487
37499
37500
37356
37489
37510
37473
37497
37495
37383
37497
37439
37488
37301
37492
37461
37479
37404
37485
37476
37436
37471
37470
37421
37400
37465
37476
37325
37447
37453
37447
37396
37431
37434
37450
37162
37420
37444
37405
37415
37433
37410
37236
37398
37431
37377
37415
37399
37332
37399
37348
37391
37400
37383
37301
37383
37399
37380
37381
37145
37345
37373
37311
37359
37091
37371
37351
37356
37342
37183
37341
37301
37348
37061
37330
37269
37327
37319
37302
37319
37314
37321
37322
37319
37299
37279
37115
37292
37292
37303
37279
37220
37223
37123
37238
36994
37287
37261
37271
37269
37238
37255
37182
37236
37251
37255
37244
37230
37220
37153
37183
36964
37239
37231
37223
37211
37094
37229
37216
37196
37141
37210
37215
37180
37191
37207
37188
36989
37206
36934
37047
37085
37087
37115
37060
37067
37090
37095
37113
37136
37054
36983
36900
36847
36867
36901
36970
36871
37135
37127
37140
37127
37127
37114
37112
37095
37117
37103
37103
37103
37095
37070
37054
37047
37044
37040
37074
37066
37038
37073
37094
37103
37076
37083
37023
37023
37012
37030
37031
37061
37059
37043
37052
37043
37044
37032
37038
37031
37028
37030
37023
36903
36902
36975
36991
36995
37007
36991
36983
36979
36995
36983
36991
36998
36995
36999
36983
36974
36985
36980
36990
36975
36975
36968
36962
36964
36962
36954
36871
36845
36823
36679
36943
36938
36950
36943
36929
36911
36885
36911
36907
36908
36911
36911
36910
36903
36863
36906
36919
36922
36919
36909
36903
36903
36871
36871
36871
36871
36835
36838
36800
36765
36725
36756
36692
36591
36615
36663
36718
36804
36783
36660
36602
36847
36855
36852
36844
36839
36834
36815
36830
36847
36831
36820
36793
36674
36705
36732
36776
36796
36783
36782
36759
36711
36724
36707
36679
36719
36706
36707
36679
36676
36674
36599
36695
36727
36749
36765
36773
36775
36763
36757
36769
36763
36751
36755
36743
36727
36711
36679
36652
36497
36733
36727
36741
36716
36710
36684
36733
36741
36732
36711
36692
36706
36709
36694
36679
36630
36628
36604
36419
36687
36687
36694
36687
36678
36655
36639
36687
36694
36687
36679
36668
36647
36465
36651
36663
36647
36655
36669
36661
36647
36658
36647
36638
36639
36615
36594
36655
36638
36615
36556
36422
36626
36615
36623
36615
36612
36612
36603
36598
36555
36564
36591
36615
36604
36583
36543
36383
36342
36593
36585
36591
36591
36586
36567
36535
36573
36595
36589
36558
36508
36390
36557
36549
36555
36555
36547
36510
36519
36512
36515
36507
36487
36554
36556
36539
36511
36509
36461
36271
36507
36519
36511
36513
36508
36515
36471
36533
36519
36515
36476
36236
36495
36487
36492
36487
36439
36500
36506
36503
36487
36487
36468
36394
36215
36468
36471
36474
36446
36431
36463
36471
36428
36315
36447
36447
36453
36427
36404
36406
36451
36452
36451
36439
36437
36414
36333
36265
36263
36270
36203
36423
36415
36410
36397
36407
36393
36381
36359
36412
36415
36404
36343
36168
36223
36390
36389
36383
36388
36375
36381
36375
36359
36358
36333
36349
36383
36357
36353
36327
36267
36245
36164
36349
36344
36348
36349
36334
36324
36311
36348
36350
36340
36311
36249
36165
36322
36326
36316
36311
36269
36327
36316
36309
36297
36263
36155
36071
36303
36303
36267
36273
36315
36289
36267
36175
36289
36279
36284
36261
36234
36266
36277
36278
36271
36246
36231
36230
36204
36150
36039
36250
36246
36259
36255
36260
36231
36247
36246
36250
36239
36215
36212
36252
36259
36246
36212
36126
36037
36158
36214
36227
36243
36196
36196
36207
36205
36209
35995
36147
36200
36215
36167
36199
36196
35974
36167
36189
36145
36187
36170
36111
36172
36197
36140
36170
36170
35941
36100
36154
36179
36103
36151
36151
36031
36123
36149
36156
36103
36135
36139
36123
36119
36007
36103
36135
36111
36103
36114
36119
35906
36023
36086
36119
36075
36095
36095
35873
36043
36095
36103
36055
36076
36084
35875
36007
36055
36079
36085
36039
36061
36058
35823
35990
36061
36039
36029
36067
36045
35818
36007
36043
36063
36031
36036
36020
35836
35982
35998
36027
