EGG
33975
33991
33893
34001
33999
33813
33972
33956
33997
33806
33938
33978
33996
34011
34017
34008
33991
33739
33980
33956
33998
33967
33958
33999
33919
33997
33989
33995
33971
33943
33998
33973
34012
34002
33987
33983
33838
33983
34007
33927
33990
33956
34003
33834
34020
33989
33999
33943
33959
34022
33983
33994
33799
34013
34009
33784
34001
34006
33862
34006
33991
34011
33986
33959
34007
33963
33999
34012
33909
34023
34018
33986
33963
34015
34015
34003
33812
34013
33983
34023
33722
33975
34033
33997
34020
33727
33962
34017
33975
34022
33725
33899
34019
33989
34023
33860
34013
33975
34023
33734
33991
34031
33977
34023
33845
34022
33991
34031
33741
33983
34015
34023
33735
33999
34043
34014
34036
34027
33927
34031
33999
34030
34028
33969
34031
33994
34031
33884
34031
33983
34034
33853
34021
34006
34039
33876
34023
33989
34030
33861
34039
34020
34035
33927
34039
34018
34046
34047
34022
34055
34047
34042
34027
33990
34036
33959
34023
34046
33985
34055
34047
33890
34045
34023
34043
34015
34013
34055
33869
34047
33999
34048
33919
34052
34014
34038
34017
34063
34055
34041
34021
34047
34060
34055
34055
33775
33788
33775
33934
33935
34001
34030
34055
34071
34063
34023
34023
34004
34012
34031
34055
34062
34055
34053
34021
34031
34071
33809
34053
34026
34066
33858
34067
34028
34070
33981
34063
34020
34055
33831
34055
34055
34069
34045
34025
33809
34055
34029
34065
34055
34044
33831
34075
34063
33903
34070
34037
33764
34044
34017
34081
34003
34055
34067
33766
34023
34055
34055
34063
34010
34076
34062
33985
34032
34071
33980
34079
34055
33919
34068
34053
33780
34048
34054
34060
34055
34022
34055
33927
34044
34010
34071
33942
34067
34076
33941
34075
34065
34069
33991
34077
34077
34071
34033
34085
34083
33855
34075
34034
34079
33847
34075
34039
34071
33903
34072
34037
34087
33980
34094
34087
33825
34055
34093
34092
33984
34101
34092
33965
34100
34078
34090
34055
34100
34083
33927
34081
34068
34091
34095
34063
34095
34068
34053
34096
34042
34045
34101
34075
34050
34106
34095
34095
33877
34106
34115
34103
34102
33868
34120
34100
34015
34063
33871
34118
34108
33911
34100
34109
34055
34087
33828
34103
34119
34005
34055
34123
34105
34103
33925
34127
34116
33919
34127
34109
34071
34076
34122
34109
34100
33886
34119
34116
34087
34097
33959
34119
34119
33967
34135
34113
34079
34107
34049
34076
34117
34119
34127
34043
34103
34115
34114
34121
34023
34103
34111
33937
34093
34093
34119
34094
34075
33901
34114
34122
33934
34135
34120
34037
34055
34110
34121
34116
34097
34101
34001
34086
34111
34020
34106
34123
34091
34093
34107
34055
34066
34108
34014
34118
34103
33998
34117
34103
34015
34114
34095
33974
34111
34103
33974
34103
34092
33957
34113
34090
34094
34014
34100
34089
33860
34111
34080
33991
34095
34085
34081
34041
34038
34086
33999
34087
34069
33838
34055
34055
33827
34071
34046
34068
33959
34055
34044
33815
34055
34002
34055
33972
34040
34052
33954
34055
34039
33825
34043
34031
33780
34043
34013
34034
33902
34029
33993
34023
34028
33975
34039
34008
34005
33936
34023
34018
33775
33998
33975
33998
33879
34010
33991
33999
33983
33955
33991
33948
34001
33991
33991
33951
33943
33982
33854
33972
33935
33988
33799
33957
33932
33972
33845
33974
33959
33967
33871
33956
33935
33951
33853
33954
33907
33949
33734
33919
33919
33927
33687
33927
33925
33647
33914
33900
33919
33751
33903
33866
33911
33908
33908
33900
33901
33903
33901
33830
33868
33891
33811
33855
33895
33844
33862
33882
33831
33863
33880
33799
33887
33878
33725
33870
33867
33635
33854
33828
33863
33694
33853
33847
33855
33822
33831
33853
33611
33814
33799
33853
33762
33855
33839
33789
33782
33827
33788
33837
33819
33654
33827
33815
33678
33827
33799
33799
33791
33772
33814
33655
33799
33775
33799
33737
33798
33772
33799
33713
33813
33787
33777
33756
33740
33783
33613
33769
33740
33773
33517
33740
33725
33764
33606
33759
33751
33765
33726
33747
33759
33614
33767
33743
33743
33703
33734
33751
33660
33754
33740
33671
33727
33735
33683
33695
33727
33657
33729
33735
33533
33724
33703
33715
33697
33681
33703
33703
33676
33708
33671
33693
33703
33700
33671
33705
33665
33671
33703
33652
33701
33694
33532
33687
33676
33696
33663
33669
33693
33619
33676
33691
33511
33671
33657
33682
33644
33639
33671
33643
33638
33666
33663
33663
33517
33678
33665
33513
33669
33663
33612
33627
33497
33667
33657
33621
33631
33658
33645
33641
33492
33647
33639
33412
33638
33647
33387
33628
33613
33631
33539
33623
33594
33639
33575
33627
33635
33575
33593
33632
33598
33607
33626
33543
33598
33632
33575
33594
33612
33583
33575
33617
33540
33619
33612
33514
33618
33597
33396
33591
33586
33605
33475
33621
33607
33505
33611
33598
33493
33605
33594
33351
33597
33597
33399
33605
33597
33455
33599
33593
33367
33566
33573
33591
33588
33575
33583
33559
33559
33574
33549
33564
33579
33533
33543
33570
33567
33543
33575
33524
33541
33573
33533
33550
33567
33443
33588
33567
33389
33583
33574
33428
33565
33559
33351
33543
33552
33383
33570
33558
33326
33543
33543
33303
33543
33559
33481
33541
33540
33495
33556
33543
33508
33519
33535
33521
33527
33511
33541
33517
33533
33511
33514
33543
33428
33555
33543
33407
33538
33532
33532
33513
33511
33527
33391
33532
33502
33534
33527
33382
33487
33509
33534
33478
33535
33527
33391
33534
33513
33323
33527
33521
33524
33522
33497
33511
33461
33530
33519
33471
33502
33514
33494
33500
33519
33497
33487
33516
33351
33495
33482
33519
33287
33485
33487
33504
33455
33524
33523
33316
33480
33496
33503
33497
33511
33487
33511
33494
33506
33341
33511
33511
33438
33492
33509
33503
33503
33341
33511
33508
33367
33495
33479
33497
33319
33495
33482
33508
33277
33475
33484
33499
33287
33463
33511
33497
33503
33461
33502
33484
33495
33415
33502
33479
33493
33372
33500
33495
33507
33429
33489
33502
33391
33487
33476
33501
33465
33502
33287
33498
33487
33499
33463
33509
33492
33331
33494
33487
33493
33458
33479
33500
33436
33498
33495
33282
33487
33499
33287
33486
33494
33314
33484
33473
33487
33467
33478
33262
33471
33487
33358
33493
33488
33287
33503
33493
33287
33470
33462
33493
33327
33459
33477
33499
33471
33449
33463
33477
33367
33484
33467
33487
33271
33431
33482
33460
33492
33352
33472
33452
33483
33260
33423
33454
33474
33452
33452
33481
33415
33489
33473
33469
33406
33482
33471
33458
33413
33467
33471
33357
33476
33463
33463
33423
33449
33466
33415
33474
33462
33353
33485
33459
33461
33460
33487
33463
33356
33470
33452
33469
33412
33479
33470
33294
33479
33478
33284
33463
33479
33480
33468
33468
33474
33447
33471
33481
33466
33461
33485
33370
33497
33493
33271
33464
33467
33492
33469
33455
33492
33477
33477
33255
33445
33504
33492
33347
33499
33484
33479
33433
33465
33507
33457
33481
33311
33487
33477
33493
33376
33493
33483
33487
33375
33481
33503
33466
33471
33258
33487
33498
33364
33517
33495
33441
33474
33511
33450
33479
33494
33467
33495
33303
33503
33498
33253
33478
33469
33499
33439
33480
33493
33430
33508
33506
33287
33500
33495
33503
33447
33479
33492
33323
33492
33484
33495
33447
33495
33503
33393
33511
33505
33389
33511
33500
33423
33511
33511
33415
33506
33503
33283
33466
33511
33504
33287
33470
33479
33498
33483
33492
33271
33499
33497
33401
33511
33486
33269
33484
33503
33415
33490
33497
33309
33478
33460
33495
33404
33492
33467
33483
33484
33439
33475
33485
33346
33464
33487
33487
33287
33468
33476
33487
33447
33455
33474
33357
33479
33468
33468
33377
33486
33452
33476
33369
33479
33447
33468
33385
33467
33447
33463
33402
33468
33445
33467
33310
33438
33447
33455
33453
33351
33461
33415
33447
33303
33455
33447
33263
33453
33444
33433
33407
33415
33439
33381
33445
33435
33255
33396
33405
33420
33397
33402
33412
33274
33389
33413
33412
33358
33419
33405
33209
33387
33418
33404
33391
33397
33387
33178
33175
33210
33354
33380
33389
33361
33382
33374
33189
33372
33359
33372
33241
33359
33348
33367
33213
33359
33350
33156
33333
33338
33354
33327
33339
33191
33365
33346
33279
33354
33333
33236
33347
33316
33204
33332
33324
33149
33323
33319
33159
33266
33317
33311
33287
33311
33311
33152
33300
33287
33094
33271
33275
33287
33124
33268
33287
33287
33095
33276
33260
33285
33195
33276
33281
33271
33223
33270
33255
33271
33223
33286
33255
33084
33243
33239
33254
33174
33269
33255
33060
33260
33253
33103
33241
33252
33107
33247
33246
33090
33239
33231
33226
33107
33196
33236
33230
33188
33221
33227
33116
33215
33210
33071
33213
33199
33214
33186
33195
33209
33167
33198
33207
33149
33214
33211
33020
33152
33209
33191
33023
33188
33205
33092
33191
33187
33135
33172
33179
33127
33185
33183
33132
33179
33172
33079
33194
33178
33097
33159
33167
33146
33159
33167
33150
33172
33027
33178
33167
33078
33173
33167
33040
33183
33173
32996
33150
33155
33154
33095
33162
33140
33154
33119
33141
33152
33055
33156
33143
33145
33068
33142
33126
33145
32964
33094
33151
33135
33140
33036
33124
33127
33148
33079
33148
33140
33131
33107
33143
33125
33135
33109
33114
33143
33043
33139
33127
33127
33049
33126
33124
33132
33006
33133
33119
33132
33031
33106
33125
33118
33055
33132
33122
33127
33059
33135
33117
33122
33119
33089
33128
33127
33119
33078
33131
33127
33004
33127
33110
33120
33128
33036
33116
33111
33108
33076
33123
33118
33076
33109
33127
32980
33119
33102
32943
33099
33114
33111
33103
33107
33123
33063
33124
33111
32967
33109
33114
33127
33015
33107
33108
33104
33076
33110
33115
33067
33111
33103
33116
33066
33123
33123
33011
33129
33119
33022
33127
33119
33087
33103
33111
33084
33108
33119
33031
33127
33119
32991
33119
33108
33114
33119
33119
33117
33078
33114
33105
33117
33066
33118
33119
33118
32960
33109
33117
32943
33124
33131
32963
33127
33122
33031
33122
33115
33125
33087
33111
33117
33019
33119
33110
33123
33022
33129
33131
32956
33119
33123
32955
33110
33128
33132
33060
33142
33132
33123
33063
33135
33136
33049
33143
33127
32996
33137
33141
32997
33127
33135
32966
33129
33143
33148
33110
33113
33137
33030
33151
33134
33135
33111
33151
33147
33004
33119
33159
33140
33065
33137
33146
33127
33142
32967
33140
33140
33141
33109
33132
33138
33133
33127
33159
33134
33146
33159
33150
33159
33022
33151
33165
33007
33161
33171
33061
33169
33159
33076
33180
33164
33087
33166
33158
33070
33175
33169
33171
33160
33179
33173
33167
32999
33031
33124
33159
33187
33148
33154
33159
33172
33181
33173
33179
33182
33175
33175
33029
33031
33132
33159
33173
33204
33165
33189
33183
33187
33187
33180
33184
33181
33014
33044
33135
33157
33164
33190
33199
33175
33196
33191
33191
33047
33135
33188
33205
33199
33183
33203
33197
33199
33204
33207
33020
33145
33196
33188
33185
33204
33209
33214
33207
33085
33119
33173
33196
33191
33227
33225
33201
33205
33213
33220
33223
33223
33041
33130
33201
33206
33228
33235
33205
33222
33227
33229
33246
33079
33153
33181
33206
33229
33231
33249
33247
33214
33231
33247
33239
33071
33159
33194
33222
33228
33259
33222
33213
33235
33247
33253
33241
33253
33044
33246
33031
33067
33116
33179
33212
33215
33201
33242
33230
33249
33250
33257
33263
33243
33217
33243
33236
33261
33254
33251
33085
33205
33249
33238
33247
33257
33247
33261
33135
33217
33223
33253
33246
33244
33263
33269
33271
33255
33261
33271
33285
33119
33095
33211
33229
33255
33252
33268
33282
33287
33239
33285
33287
33284
33300
33268
33195
33104
33101
33106
33151
33199
33231
33247
33239
33258
33259
33275
33277
33287
33317
33287
33324
33300
33327
33315
33326
33120
33255
33285
33321
33332
33319
33317
33325
33330
33340
33333
33231
33286
33316
33342
33340
33334
33321
33327
33338
33321
33334
33329
33332
33354
33343
33348
33347
33144
33297
33351
33327
33350
33364
33367
33132
33250
33327
33357
33372
33338
33359
33362
33369
33348
33357
33186
33207
33281
33335
33372
33346
33364
33372
33367
33301
33371
33351
33381
33380
33372
33282
33351
33357
33379
33375
33268
33351
33391
33358
33391
33374
33382
33319
33367
33383
33367
33373
33166
33341
33403
33367
33375
33383
33391
33380
33167
33247
33318
33358
33399
33357
33391
33391
33381
33240
33362
33402
33388
33389
33230
33357
33372
33378
33375
33391
33398
33218
33327
33383
33396
33365
33375
33396
33397
33397
33383
33325
33383
33405
33381
33387
33386
33159
33306
33366
33381
33343
33383
33389
33179
33300
33356
33391
33354
33375
33397
33296
33375
33388
33372
33380
33372
33367
33237
33329
33343
33377
33340
33374
33368
33364
33181
33250
33279
33279
33287
33338
33372
33351
33361
33130
33275
33335
33369
33324
33355
33135
33287
33337
33327
33337
33343
33343
33247
33339
33340
33311
33335
33339
33135
33229
33268
33319
33327
33331
33319
33325
33319
33311
33140
33255
33300
33319
33287
33310
33310
33306
33159
33237
33287
33309
33311
33281
33273
33283
33287
33287
33287
33110
33121
33215
33263
33285
33281
33260
33274
33277
33270
33278
33117
33156
33203
33223
33231
33233
33243
33251
33260
33223
33229
33241
33239
33245
33236
33243
33052
33135
33148
33159
33208
33203
33204
33199
33207
33235
33213
33204
33228
33209
33207
33198
33199
33207
33204
33210
33215
33189
33195
33015
33095
33150
33183
33190
33207
33167
33170
33182
33185
33177
33173
33031
33079
33065
33113
33110
33134
33134
33159
33164
33174
33141
33149
33164
33160
33159
32974
33055
33096
33134
33138
33143
33159
33142
33137
33147
33143
33007
33055
33095
33119
33133
33151
33115
33137
33139
33134
33018
33087
33105
33116
33147
33135
33114
33124
33124
33119
32934
33010
33052
33103
33111
33130
33095
33106
33111
33103
33115
32926
32977
32998
33039
33082
33102
33111
33108
33098
33086
33086
33093
33089
33093
33089
32912
32996
33051
33053
33062
33083
33092
33101
33059
33082
33087
33085
33087
33079
33092
33078
32885
32959
33041
33061
33060
33047
33047
33061
33081
33087
33056
33076
33065
32959
33054
33043
33070
33063
32943
33036
33070
33053
33060
33063
32974
33055
33053
33063
32889
33003
33031
33067
33049
33055
33061
32957
33044
33063
33036
33047
33062
33051
33041
32895
32999
33030
33056
33031
33057
33047
32895
32983
33029
33055
33031
33031
33047
33047
33059
32871
32896
32961
33021
33042
33050
33045
33039
33031
33049
33039
33045
33050
33046
33042
32893
32967
33015
33045
33047
33045
33047
33044
32883
32959
32996
32994
33007
32999
33020
33023
33031
33038
33047
33060
33020
33038
33039
33039
33036
32850
32953
33007
33041
33041
33031
33042
33052
33044
33044
33048
33047
32911
32998
33015
33039
33060
33031
33043
33031
33047
33053
32845
32847
32899
32959
32983
32986
33001
33012
33021
33044
33061
33041
33047
33031
33031
33031
33051
33059
33060
33052
32876
32895
32926
32931
32929
32943
32873
32903
32918
32978
33023
33062
33067
33055
33067
33071
33071
33044
33051
33052
33046
33069
33063
33067
33073
33077
33068
33077
33079
33075
33066
33076
32895
32918
32966
33029
33071
33075
33087
33063
33079
33090
33064
33066
33084
33082
33085
33079
33087
32922
32951
33016
33044
33076
33084
33095
33102
33094
33071
33087
33095
33090
33084
33086
33092
33083
33103
33092
33097
32883
32948
32964
32998
32988
33020
33040
33043
33055
33071
33048
33053
33078
33089
33093
33090
33111
33119
33087
33119
33122
33119
33127
33115
33121
32949
33022
33063
33098
33123
33127
33137
33142
33132
33110
33127
33127
33111
33129
33132
33141
33135
33140
33141
33145
33115
33143
33135
33159
33159
33148
33140
33137
33148
33161
33150
33133
33137
33135
33143
33141
33141
33156
33148
33167
33135
33071
33159
33167
33148
33165
33177
33175
33174
33170
33188
32978
33026
33036
33065
33020
33062
33106
33140
33159
33180
33191
33187
33188
33201
33185
33175
33191
33179
33183
33199
33199
33189
33198
33191
33015
33007
33079
33130
33150
33167
33177
33204
33221
33196
33191
33193
33209
33214
33205
33212
33204
33208
33233
33231
33223
33170
33159
33135
33092
33095
33118
33087
33166
33207
33221
33209
33241
33250
33247
33246
33215
33212
33242
33221
33226
33236
33243
33222
33231
33225
33231
33248
33241
33231
33249
33260
33252
33253
33255
33263
33255
33259
33268
33257
33253
33238
33236
33249
33253
33250
33261
33255
33278
33257
33262
33279
33263
33309
33303
33272
33302
33309
33303
33301
33303
33310
33315
33287
33287
33319
33315
33312
33136
33285
33316
33334
33311
33332
33338
33324
33327
33335
33335
33132
33191
33185
33261
33305
33329
33354
33324
33349
33356
33369
33223
33263
33332
33361
33355
33363
33373
33375
33373
33377
33213
33316
33350
33391
33396
33399
33365
33394
33396
33234
33355
33399
33399
33398
33405
33407
33240
33355
33407
33413
33431
33431
33399
33407
33396
33415
33413
33420
33431
33426
33431
33447
33451
33447
33448
33438
33231
33455
33454
33452
33455
33287
33287
33246
33287
33320
33297
33269
33242
33242
33473
33476
33483
33479
33276
33354
33415
33420
33445
33473
33487
33500
33515
33499
33476
33478
33473
33500
33495
33507
33503
33508
33508
33519
33503
33504
33515
33513
33515
33519
33516
33517
33511
33511
33316
33375
33420
33503
33500
33511
33543
33532
33515
33522
33539
33537
33535
33364
33492
33515
33535
33551
33527
33532
33519
33519
33553
33551
33543
33325
33455
33533
33564
33559
33541
33543
33554
33561
33569
33334
33367
33364
33413
33486
33552
33592
33543
33564
33564
33439
33543
33570
33583
33543
33570
33580
33578
33583
33583
33562
33548
33554
33576
33575
33587
33405
33508
33579
33597
33565
33563
33583
33575
33367
33471
33525
33541
33551
33564
33589
33588
33587
33551
33565
33595
33575
33574
33575
33354
33460
33511
33507
33519
33557
33579
33580
33556
33572
33591
33574
33406
33447
33492
33548
33566
33581
33575
33550
33553
33575
33583
33588
33578
33577
33580
33575
33594
33596
33584
33578
33564
33556
33543
33559
33543
33574
33564
33579
33583
33573
33578
33575
33575
33572
33573
33572
33574
33580
33571
33391
33425
33397
33396
33428
33411
33447
33519
33563
33550
33550
33534
33543
33553
33571
33580
33583
33575
33588
33559
33557
33577
33572
33575
33570
33426
33429
33411
33461
33450
33404
33391
33452
33512
33521
33511
33548
33580
33567
33571
33575
33575
33585
33532
33569
33575
33581
33319
33351
33439
33483
33493
33485
33420
33404
33573
33580
33329
33345
33343
33347
33463
33516
33551
33585
33598
33591
33588
33577
33596
33599
33595
33588
33587
33582
33583
33598
33580
33575
33583
33589
33580
33592
33607
33595
33587
33583
33556
33575
33587
33567
33573
33575
33583
33596
33607
33598
33403
33554
33583
33618
33607
33606
33606
33592
33579
33596
33607
33607
33413
33380
33409
33393
33391
33399
33465
33479
33542
33556
33574
33588
33599
33619
33628
33633
33591
33604
33627
33628
33615
33623
33623
33388
33422
33412
33470
33455
33415
33415
33447
33471
33549
33601
33607
33633
33626
33652
33615
33635
33640
33639
33644
33428
33535
33607
33638
33658
33623
33652
33652
33644
33663
33647
33471
33522
33573
33605
33636
33660
33669
33674
33642
33644
33653
33671
33678
33681
33686
33686
33683
33551
33575
33634
33660
33682
33705
33704
33671
33671
33667
33671
33693
33693
33695
33697
33687
33706
33517
33543
33615
33668
33682
33705
33722
33724
33719
33735
33703
33711
33732
33733
33519
33574
33659
33717
33760
33727
33719
33733
33732
33729
33745
33757
33744
33757
33757
33572
33658
33671
33713
33750
33774
33783
33777
33751
33749
33743
33743
33743
33767
33754
33767
33791
33789
33589
33654
33694
33695
33692
33751
33789
33799
33814
33828
33820
33829
33819
33827
33799
33799
33799
33823
33829
33829
33639
33767
33789
33818
33852
33854
33858
33815
33846
33845
33857
33852
33863
33711
33775
33767
33799
33836
33867
33892
33854
33879
33887
33877
33887
33887
33775
33861
33908
33913
33863
33909
33907
33820
33902
33916
33900
33919
33925
33913
33765
33852
33912
33943
33924
33917
33927
33927
33943
33949
33951
33959
33959
33945
33959
33963
33973
33966
33971
33759
33831
33887
33936
33983
33991
33992
33977
33971
33983
33990
33980
33992
33997
33991
34008
34014
34025
34015
34015
33788
33916
33916
33941
33999
34029
34055
34022
34012
34041
34047
34041
34046
34055
34052
34063
34063
33844
33967
34016
34078
34082
34076
34091
34067
34063
34085
34091
34090
34087
34095
34115
34101
34117
34108
34088
34091
34102
34099
34129
34142
34151
34145
34139
34149
34162
34130
34114
34123
34123
34126
34135
34159
34185
34172
34193
34183
34174
34173
34175
34180
34167
34159
34156
34149
34151
34147
34097
34044
34055
34118
34179
34191
34205
34210
34236
34245
34238
34243
34245
33992
34127
34191
34244
34255
34277
34279
34278
34276
34245
34267
34291
34283
34277
34289
34071
34069
34114
34044
34298
34311
34319
34311
34311
34311
34311
34326
34165
34231
34279
34332
34343
34354
34311
34311
34324
34324
34325
34350
34374
34364
34372
34381
34374
34381
34381
34388
34397
34389
34181
34335
34367
34391
34409
34383
34374
34421
34414
34426
34414
34425
34426
34428
34425
34428
34432
34439
34436
34443
34455
34449
34459
34449
34449
34192
34277
34356
34428
34463
34476
34492
34492
34495
34487
34471
34502
34495
34503
34311
34407
34475
34500
34527
34541
34482
34517
34543
34543
34543
34549
34283
34332
34361
34444
34528
34575
34586
34533
34567
34578
34595
34311
34527
34567
34599
34597
34567
34586
34621
34625
34628
34639
34638
34639
34455
34359
34345
34447
34555
34627
34655
34668
34676
34690
34655
34647
34679
34679
34687
34501
34618
34691
34714
34723
34650
34703
34716
34717
34719
34528
34678
34717
34732
34751
34756
34756
34758
34772
34726
34740
34764
34767
34772
34774
34774
34487
34727
34734
34761
34755
34773
34799
34790
34803
34823
34817
34764
34820
34823
34823
34835
34838
34526
34668
34721
34804
34823
34859
34875
34818
34869
34868
34879
34884
34860
34581
34879
34647
34799
34867
34906
34917
34861
34881
34913
34934
34918
34633
34778
34815
34798
34868
34923
34921
34935
34956
34956
34964
34971
34973
34974
34972
34929
34924
34967
34967
34981
34983
34725
34778
34823
34893
34915
34913
34884
34890
34882
34931
34903
34925
34881
34909
34953
34995
35004
35020
35039
35050
35003
35022
35047
35058
35078
35071
35079
35079
35079
35071
35071
35078
34799
34946
35023
35006
35022
35053
35075
35079
35079
35111
35111
35119
35133
35125
35070
35092
35118
35132
35124
35124
35130
35138
35135
35140
35140
35140
35145
35149
34860
34981
34948
34951
34988
35046
35089
35148
35140
35149
35150
35175
35191
35171
35118
35183
35185
35189
35199
35191
34940
35052
35099
35185
35182
35199
35214
35226
35199
35174
35215
35215
35217
34925
35135
35207
35225
35237
35179
35232
35239
35237
35239
35244
35245
35233
34947
35051
35074
35173
35207
35220
35252
35267
35271
35270
35269
35285
35277
35215
35239
35241
35281
35269
35282
35279
35282
35276
35295
35294
35284
35289
35284
35290
35006
35195
35253
35179
35140
35103
35173
35228
35263
35311
35335
35316
35263
35303
35333
35326
35332
35324
35335
35327
35335
35335
35325
35335
35306
35303
35286
35335
35368
35351
35367
35359
35362
35375
35378
35364
35332
35227
35137
35239
35245
35206
35219
35207
35247
35300
35278
35292
35262
35303
35311
35351
35361
35399
35393
35407
35414
35413
35428
35444
35437
35447
35380
35397
35426
35453
35447
35447
35452
35455
35452
35454
35452
35142
35175
35259
35461
35471
35471
35467
35477
35477
35493
35486
35485
35488
35494
35493
35501
35493
35486
35474
35470
35506
35503
35479
35463
35468
35458
35484
35471
35498
35479
35487
35495
35487
35481
35492
35554
35527
35553
35537
35538
35511
35442
35399
35303
35295
35380
35426
35484
35420
35541
35589
35591
35591
35599
35597
35599
35601
35610
35605
35622
35615
35622
35615
35623
35619
35628
35375
35395
35387
35463
35543
35557
35615
35633
35642
35615
35639
35639
35662
35681
35681
35687
35692
35695
35693
35695
35693
35703
35719
35708
35711
35727
35699
35694
35679
35711
35698
35734
35701
35463
35735
35743
35729
35662
35503
35751
35749
35716
35753
35671
35591
35643
35682
35718
35765
35798
35786
35743
35792
35803
35799
35576
35541
35616
35700
35687
35692
35554
35567
35629
35620
35636
35658
35623
35645
35603
35708
35779
35795
35797
35828
35827
35867
35870
35879
35887
35892
35900
35914
35898
35900
35902
35879
35875
35871
35831
35799
35923
35923
35949
35935
35946
35942
35948
35911
35895
35899
35871
35871
35871
35822
35820
35767
35758
35987
35983
35989
35992
35997
36011
35847
35971
35991
36006
36005
36020
36023
36035
36031
36028
36027
36025
36036
36053
36059
36073
36065
36070
36083
36077
36091
36092
36054
36081
36096
36103
36102
36109
36103
36116
36116
36126
35987
35964
35969
36047
36087
36100
36132
36135
36165
36143
36123
36127
36146
36189
36158
36142
36177
36178
36183
36199
36199
36199
35997
36129
36074
36144
36134
36161
36141
36210
36231
36252
36263
36231
36206
36215
36237
36263
36266
36271
36277
36287
36039
36087
36143
36276
36303
36309
36316
36319
36317
36330
36311
36308
36287
36302
36306
36303
36335
36351
36306
36319
36325
36351
36356
36359
36380
36378
36378
36388
36396
36391
36388
36351
36372
36404
36420
36429
36435
36429
36414
36311
36234
36446
36451
36432
36401
36422
36474
36460
36439
36388
36197
36471
36486
36495
36482
36477
36460
36471
36463
36469
36467
36475
36471
36514
36525
36519
36534
36542
36516
36499
36533
36542
36549
36567
36546
36541
36535
36535
36543
36596
36613
36615
36623
36625
36564
36604
36609
36615
36484
36609
36635
36645
36612
36615
36648
36679
36369
36524
36636
36679
36639
36669
36693
36687
36402
36614
36684
36710
36654
36705
36437
36657
36716
36675
36724
36719
36551
36673
36741
36743
36690
36749
36743
36467
36691
36751
36725
36754
36772
36607
36743
36774
36722
36791
36727
36798
36759
36807
36535
36787
36815
36765
36814
36828
36609
36774
36835
36851
36821
36838
36595
36831
36871
36823
36882
36680
36852
36885
36843
36887
36897
36743
36899
36924
36924
36863
36923
36935
36694
36919
36950
36899
36947
36946
36950
36692
36933
36971
36919
36983
36987
36799
36951
37015
36999
36951
36999
37009
36903
37024
36995
37031
37041
36995
37047
37031
37037
36740
37038
37072
37060
37065
36804
37029
37099
37087
37038
37087
37103
37100
37020
37103
37133
37127
37068
37111
37135
37127
37127
36981
37114
37157
37164
37172
37127
37142
37179
36859
37085
37156
37183
37199
37127
37172
37198
37215
37207
37022
37194
37205
37237
37189
37237
37239
36910
37183
37246
37223
37231
37263
36993
37243
37276
37243
37283
37275
37236
37291
37251
37291
37300
37143
37303
37255
37310
37311
37148
37307
37340
37281
37333
37042
37297
37343
37351
37323
37350
37035
37269
37363
37380
37335
37383
37171
37319
37375
37394
37335
37383
37383
37258
37362
37415
37420
37346
37414
37100
37372
37422
37437
37363
37415
37447
37433
37245
37441
37454
37461
37383
37461
37462
37465
37468
37303
37438
37487
37491
37423
37479
37487
37159
37452
37508
37437
37499
37511
37197
37487
37524
37463
37463
37511
37255
37471
37516
37535
37498
37486
37527
37540
37339
37530
37544
37565
37523
37551
37215
37501
37559
37570
37505
37573
37336
37573
37528
37527
37583
37491
37590
37527
37588
37319
37575
37607
37542
37587
37599
37592
37558
37626
37543
37609
37609
37269
37575
37620
37572
37615
37623
37469
37629
37639
37595
37635
37303
37583
37638
37581
37625
37631
37652
37468
37604
37670
37580
37639
37655
37511
37671
37630
37667
37576
37664
37613
37647
37680
37685
37617
37678
37650
37678
37686
37607
37692
37627
37708
37695
37663
37709
37637
37694
37693
37552
37604
37691
37714
37645
37718
37383
37695
37650
37733
37667
37747
37723
37735
37567
37727
37727
37711
37735
37745
37703
37740
37757
37702
37753
37741
37551
37741
37759
37710
37751
37773
37718
37783
37725
37767
37775
37455
37593
37750
37783
37743
37756
37778
37501
37760
37791
37724
37805
37795
37660
37756
37811
37829
37745
37785
37801
37767
37813
37823
37831
37773
37846
37787
37797
37821
37835
37843
37857
37831
37852
37847
37855
37844
37852
37855
37557
37743
37722
37595
37852
37871
37860
37567
37695
37612
37639
37735
37694
37639
37741
37767
37849
37892
37895
37852
37863
37895
37884
37807
37827
37810
37884
37908
37895
37911
37917
37919
37887
37895
37921
37924
37943
37927
37895
37940
37947
37925
37943
37940
37667
37813
37877
37927
37948
37975
37967
37914
37926
37925
37959
37974
37980
37960
37970
37989
37963
37935
37978
37936
37981
37980
38004
38010
38012
37743
37927
38005
38021
38017
38015
37988
38029
38023
38023
38031
37878
37800
37909
37981
38015
38029
38023
38023
38010
38020
38039
38055
38071
38071
38076
38061
38071
38062
38083
38078
38095
38047
38061
38077
38092
38095
38100
37887
37997
38047
38079
38101
38106
38133
38135
38083
38072
38079
38087
38079
38082
38115
38142
38126
38140
37971
38110
38130
38130
38170
38122
38139
38163
38173
37927
37973
38021
38095
38132
38167
38185
38201
38167
38178
38186
38197
38197
38191
38197
38200
37922
37980
38076
38111
38094
38096
38168
38131
38126
38075
38075
38058
38106
38150
38180
38151
38181
38206
38237
38223
38236
38255
38260
38271
38220
38262
38279
38277
38063
38148
38231
38277
38291
38295
38253
38279
38271
38292
38263
38284
38315
38275
38273
38300
38318
38319
38318
38331
38335
38330
38331
38340
38350
38345
38351
38124
38221
38188
38223
38231
38255
38335
38340
38372
38382
38386
38391
38351
38381
38377
38396
38389
38399
38127
38271
38289
38314
38349
38350
38387
38380
38383
38375
38397
38398
38369
38357
38345
38321
38375
38423
38407
38396
38327
38255
38382
38449
38455
38474
38436
38466
38475
38469
38228
38310
38439
38468
38491
38495
38447
38487
38492
38487
38509
38492
38508
38503
38228
38295
38396
38479
38519
38535
38535
38547
38535
38533
38500
38535
38548
38543
38351
38425
38506
38555
38563
38575
38575
38525
38533
38532
38575
38558
38567
38590
38593
38596
38593
38607
38599
38595
38597
38343
38407
38494
38511
38567
38599
38628
38630
38631
38639
38639
38645
38623
38607
38631
38638
38647
38637
38644
38391
38462
38541
38607
38631
38663
38670
38673
38687
38690
38660
38663
38655
38651
38652
38682
38699
38698
38695
38695
38716
38708
38710
38711
38441
38452
38507
38562
38516
38551
38640
38644
38716
38719
38735
38733
38743
38746
38750
38738
38740
38742
38757
38759
38757
38764
38756
38751
38765
38748
38751
38767
38773
38780
38773
38741
38765
38767
38772
38789
38785
38789
38807
38791
38807
38801
38801
38814
38535
38609
38733
38820
38839
38790
38833
38836
38838
38724
38814
38838
38860
38861
38820
38854
38855
38863
38652
38748
38791
38836
38855
38860
38871
38893
38892
38878
38884
38911
38908
38894
38861
38903
38919
38919
38916
38919
38940
38887
38889
38906
38909
38939
38939
38935
38948
38941
38727
38855
38935
38967
38967
38974
38980
38965
38965
38973
38982
38767
38868
38932
38951
38975
38987
39007
39007
39007
39012
38963
39005
39004
39001
39015
38719
38893
38967
39021
39044
39041
39036
39047
39036
39019
39007
39039
39036
39047
39055
39068
39058
39071
39070
39062
38791
38887
38970
39038
39047
39063
39055
39060
39079
39079
39076
39103
39105
39101
39047
39089
39095
39103
39111
39100
39118
39114
39111
38892
38956
38959
38943
39037
39065
39111
39125
39134
39139
39118
39086
39116
39141
39143
39155
39148
39150
39148
39159
39157
39164
39161
39159
38884
38997
39077
39130
39120
39077
39102
39079
39174
39142
39169
39042
39183
39151
39175
39191
39076
39175
39191
39143
39199
38950
39191
39175
39204
38900
39189
39208
39197
38982
39214
39175
38919
39207
39175
39206
39212
39175
39221
39175
39225
39211
38919
39207
39188
39208
39223
39158
39229
39190
39212
39101
39229
39226
38942
39215
39220
39221
39102
39243
39175
39231
39080
39228
39202
39231
39124
39239
39187
39233
38946
39223
39212
39236
38964
39226
39231
39244
39029
39238
39195
39239
39188
39257
39215
39244
39143
39247
39235
38919
39199
39261
39209
39247
38983
39230
39237
39245
39237
39206
39232
39229
39236
39246
39205
39245
39231
39228
39220
39252
39228
39247
39063
39215
39239
39207
39233
39231
39039
39036
39226
39247
39221
39231
38970
39233
39216
39217
39238
39207
39231
39227
39231
38993
39220
39209
39233
39052
39230
39204
39238
39207
39242
39239
38987
39239
39195
39231
39169
39247
39229
38964
39231
39190
39245
39109
39231
39199
39220
39129
39239
39196
39236
39047
39247
39215
39230
39196
39255
39188
39240
39135
39244
39237
39239
39167
39255
39239
39239
39227
39240
39223
39232
39213
39249
39228
39237
39083
39259
39223
39241
39092
39239
39247
39223
39247
39002
39224
39255
39255
39239
39055
39236
39221
39238
39260
39239
39245
39252
38951
39237
39258
39250
39036
39254
39223
38950
39245
39209
39263
39263
39207
39263
39244
38967
39238
39268
39223
39270
39230
39213
39258
38983
39261
39225
39258
39267
39246
39277
39239
39259
39047
39257
39215
39268
39164
39283
39228
39270
39255
39261
39270
39052
39276
39255
39279
38987
39267
39237
39279
39006
39265
39284
39287
39037
39277
39278
39271
39276
39207
39300
39284
39286
39272
39235
39293
39279
39247
39284
39164
39303
39303
39078
39310
39279
39301
39263
39316
39317
39175
39329
39305
39311
39319
39214
39309
39311
39279
39287
39326
39236
39335
39323
39095
39327
39278
39338
39015
39303
39348
39310
39333
39191
39335
39290
39335
39175
39347
39347
39343
39303
39364
39351
39092
39357
39319
39358
39351
39302
39358
39341
39333
39316
39350
39365
39359
39364
39372
39361
39070
39198
39236
39341
39375
39395
39383
39350
39382
39295
39391
39377
39388
39158
39393
39345
39407
39209
39364
39420
39395
39094
39407
39359
39421
39359
39422
39421
39269
39431
39403
39423
39405
39380
39431
39429
39397
39431
39431
39396
39429
39399
39431
39449
39164
39460
39415
39440
39110
39431
39460
39431
39471
39444
39484
39468
39249
39476
39431
39479
39463
39431
39481
39396
39495
39490
39263
39495
39431
39502
39452
39502
39495
39263
39491
39450
39500
39303
39503
39457
39495
39515
39422
39494
39534
39497
39511
39519
39479
39535
39507
39522
39397
39529
39542
39527
39530
39407
39553
39489
39540
39535
39559
39543
39559
39549
39572
39511
39559
39346
39570
39559
39569
39531
39583
39559
39583
39535
39584
39591
39577
39359
39586
39543
39599
39604
39601
39599
39282
39582
39618
39573
39611
39461
39627
39559
39604
39619
39623
39301
39540
39623
39631
39591
39647
39343
39596
39657
39615
39646
39313
39651
39636
39658
39655
39645
39655
39663
39324
39665
39676
39655
39665
39523
39684
39668
39676
39695
39606
39687
39698
39679
39701
39584
39703
39660
39703
39429
39678
39709
39709
39710
39708
39661
39717
39485
39731
39727
39746
39725
39731
39695
39733
39390
39740
39685
39742
39542
39749
39687
39751
39687
39759
39751
39766
39732
39779
39743
39783
39748
39764
39764
39541
39770
39718
39787
39772
39791
39772
39788
39790
39612
39799
39750
39784
39655
39802
39769
39815
39756
39776
39815
39751
39803
39821
39615
39821
39751
39815
39735
39836
39815
39831
39812
39809
39825
39540
39815
39842
39836
39540
39829
39847
39836
39855
39627
39718
39855
39827
39871
39619
39879
39862
39875
39881
39807
39887
39876
39899
39831
39900
39876
39900
39840
39916
39876
39906
39911
39843
39916
39877
39919
39635
39917
39879
39937
39886
39943
39897
39939
39668
39933
39910
39943
39943
39809
39956
39926
39975
39839
39977
39975
39973
39972
39940
39983
39850
39999
39996
39683
39990
40012
39991
40005
39825
40007
39983
40014
40012
39943
40036
39977
40029
40029
39869
40033
40047
40015
40046
39743
40005
40063
40038
40053
40015
40069
40061
40062
39893
40066
40037
40055
39863
40079
40037
40079
39791
40069
40044
40090
39845
40078
40111
40092
40100
40084
40047
40103
40063
40110
40100
40099
40111
40071
40117
39795
40094
40127
40113
40119
39879
40135
40116
40135
40135
40101
40148
40129
40135
40037
40155
40103
40146
39884
40158
40100
40158
39851
40157
40174
40151
40173
40026
40173
40111
40168
39954
40162
40191
40166
40167
39989
40099
40102
40119
40191
40167
40183
40197
40161
40199
40175
40198
40007
40189
40195
40199
40199
40194
40217
40196
40210
39959
40103
40199
40223
40219
40223
40047
40185
40222
40199
40221
40212
40027
40199
40239
40199
40228
39943
40229
40204
40225
40226
40129
40237
40183
40237
39932
40191
40239
40191
40220
39959
40227
40247
40199
40230
40020
40225
40247
40213
40229
40095
40244
40191
40247
39943
40231
40252
40247
39985
40223
40225
40249
40247
40236
40254
40231
40229
40141
40239
40253
40215
40253
39934
40183
40255
40180
40249
39943
40183
40255
40199
40237
40239
39999
40210
40251
40205
40239
40082
40237
40253
40199
40231
40247
39977
40175
40213
40235
40239
40213
40223
40231
40228
40095
40224
40239
40188
40228
40239
40171
40247
40196
40231
39943
40127
40223
40234
40231
40239
40119
40244
40220
40228
40236
40181
40235
40235
40207
40235
40223
40175
40246
40215
40231
40188
40240
40228
40229
40130
40237
40223
40231
40212
40239
40223
40231
40118
40212
40236
40244
40229
40174
40226
40226
40189
40199
40212
40207
40223
40227
40231
40224
40231
40239
40236
40235
40026
40150
40245
40220
40231
40127
40227
40191
40237
40220
40213
40229
40162
40239
40225
40238
40199
40237
40199
40227
40071
40229
40186
40233
40020
40229
40247
40249
40221
40239
39937
40196
40245
40193
40242
40238
40124
40239
40219
40227
40015
40223
40255
40247
40243
40042
40223
40244
40226
40238
40082
40249
40223
40239
40244
40071
40247
40252
40230
40252
40252
40111
40238
40268
40199
40251
39967
40245
40225
40263
39967
40234
40254
40263
40170
40265
40260
40250
40263
40234
40265
40231
40231
40262
40079
40271
40223
40274
40100
40276
40255
40004
40265
40231
40283
40212
40285
40277
40003
40276
40263
40283
40191
40285
40271
40284
40283
40250
40278
40135
40288
40255
40292
40263
40244
40303
40245
40309
40295
40070
40300
40287
40299
40260
40318
40287
40316
40263
40311
40310
40182
40319
40264
40303
40231
40316
40279
40323
40319
40287
40324
40326
40323
40212
40333
40287
40341
40254
40343
40327
40335
40319
40349
40343
40092
40333
40316
40327
40161
40347
40316
40351
40258
40349
40355
40073
40357
40319
40356
40119
40351
40343
40352
40263
40366
40341
40375
40262
40379
40367
40375
40303
40380
40365
40386
40255
40377
40333
40391
40199
40366
40399
40382
40393
40290
40388
40367
40405
40404
40399
40399
40404
40407
40399
40380
40405
40415
40133
40396
40405
40423
40213
40427
40415
40423
40423
40295
40423
40415
40422
40436
40415
40443
40401
40438
40180
40431
40429
40451
40443
40412
40455
40415
40455
40455
40421
40487
40455
40197
40471
40431
40475
40455
40495
40476
40484
40371
40479
40452
40488
40277
40495
40476
40487
40388
40502
40471
40503
40294
40495
40483
40511
40280
40500
40476
40514
40247
40500
40535
40495
40519
40455
40546
40488
40522
40270
40516
40545
40495
40527
40535
40396
40541
40501
40554
40544
40437
40559
40567
40567
40564
40574
40583
40572
40570
40556
40563
40540
40541
40556
40563
40574
40419
40573
40575
40583
40591
40415
40599
40541
40586
40501
40611
40555
40621
40615
40565
40625
40577
40606
40455
40639
40579
40623
40612
40615
40639
40524
40639
40612
40641
40623
40647
40639
40429
40650
40627
40662
40599
40671
40652
40661
40652
40663
40669
40618
40683
40674
40679
40581
40681
40637
40693
40415
40693
40684
40693
40700
40652
40710
40702
40455
40705
40727
40711
40711
40710
40697
40727
40730
40726
40738
40735
40735
40707
40748
40708
40747
40439
40721
40757
40725
40750
40676
40772
40711
40769
40455
40759
40786
40711
40767
40769
40737
40780
40741
40782
40671
40781
40743
40775
40794
40696
40786
40746
40796
40480
40799
40751
40790
40686
40803
40798
40804
40750
40813
40767
40815
40783
40828
40829
40508
40829
40798
40500
40815
40855
40844
40839
40831
40810
40855
40662
40879
40855
40542
40860
40839
40855
40676
40878
40870
40828
40887
40577
40883
40906
40839
40887
40908
40791
40919
40887
40916
40895
40823
40927
40900
40919
40924
40828
40943
40894
40943
40795
40957
40929
40948
40926
40964
40958
40919
40901
40957
40695
40980
40954
40959
40980
40607
40980
40966
40991
40737
40997
40943
41004
40838
41012
40987
41009
41007
40996
41027
41023
40663
41026
40954
41034
41020
40989
41031
40938
40999
41030
41046
41063
41063
41039
41047
41028
41068
41060
40890
41077
41031
41071
40743
41071
41045
41084
41078
41004
41095
41039
41092
40788
41087
41031
41106
40823
41095
41124
41046
41115
40878
41108
41117
41116
41122
41111
41085
41123
40860
41119
41140
41110
41143
40870
41094
41157
41099
41131
40871
41158
41095
41162
41119
41175
41159
40807
41164
41089
41175
40997
41175
41172
41183
40836
41181
41184
41151
41183
41170
41199
41145
41180
40826
41175
41205
41175
41158
41204
40819
41151
41215
41175
41205
41163
41223
41157
41213
41095
41223
41223
41013
41223
41223
41131
41245
41222
41223
41203
41240
41199
41245
41081
41245
41252
41211
41236
41162
41239
41250
40941
41254
41246
41246
41071
41262
41225
41255
41252
41216
41255
41252
41242
41189
41249
41206
41269
41252
40948
41262
41262
41263
40903
41261
41220
41255
41223
41276
41271
41004
41276
41205
41260
41215
41199
41266
41234
41248
41268
41063
41279
41252
41271
41223
41278
41207
41275
40874
41270
41252
41271
41185
41287
41273
40998
41283
41214
41273
41158
41287
41274
40875
41276
41292
41255
41287
41220
41292
41287
40950
41284
41223
41279
41271
41217
41295
41223
41267
40879
41266
41287
41223
41283
41118
41287
41260
41276
41271
41277
41286
41260
41281
41175
41284
41295
41244
41279
41135
41276
41259
41279
41214
41295
41279
41280
41295
41295
41237
41284
41149
41286
41287
41252
41277
41274
41172
41282
41300
41213
41283
40876
41211
41301
41261
41252
41289
41287
41140
41295
41236
41293
40967
41287
41213
41286
40877
41245
41303
41221
41293
41287
41274
41308
41287
41031
41303
41299
40855
41287
41295
41223
41275
41288
40909
41311
41223
41290
41132
41308
41231
41292
41037
41293
41319
41300
41239
41319
41303
41022
41315
41287
41297
41306
41123
41293
41326
41239
41302
41316
41221
41324
41287
41310
41191
41326
41329
41309
40987
41327
41246
41301
41318
41223
41319
41263
41326
41051
41327
41233
41323
41164
41327
41327
41330
41241
41319
40886
41287
41340
41338
41267
41310
41323
41326
41164
41316
41333
41269
41325
41326
41342
41063
41343
41279
41327
41335
41236
41351
41250
41337
40935
41351
41346
41261
41343
40918
41343
41365
41341
41343
40967
41316
41366
41309
41350
41223
41373
41334
41324
41372
41364
41255
41371
41375
41349
41363
41001
41365
41338
41351
41373
41061
41351
41365
41375
41335
41372
41222
41388
41389
41351
41383
41252
41381
41308
41375
41375
41262
41391
41293
41387
41372
41147
41391
41402
41300
41388
41391
41349
41400
41309
41393
41397
41284
41391
41413
41332
41391
41410
41391
41380
41311
41412
41415
41389
41407
41399
41150
41372
41415
41334
41413
41006
41405
41422
41375
41419
41007
41381
41437
41340
41434
41357
41444
41344
41414
41423
41391
41455
41390
41436
41412
41445
41431
41071
41444
41444
41447
41289
41447
41351
41429
41164
41460
41436
41447
41111
41476
41439
41460
41404
41379
41463
41091
41472
41391
41460
41471
41343
41479
41403
41476
41159
41495
41439
41469
41474
41405
41479
41319
41479
41473
41479
41468
41479
41465
41479
41418
41503
41401
41487
41226
41513
41413
41501
41212
41508
41519
41418
41504
41223
41511
41503
41519
41518
41479
41525
41495
41504
41487
41525
41525
41222
41527
41446
41511
41519
41498
41527
41535
41187
41543
41526
41524
41479
41548
41515
41527
41068
41543
41554
41455
41496
41545
41210
41535
41553
41511
41511
41551
41557
41455
41535
41565
41504
41524
41559
41551
41496
41589
41468
41575
41559
41527
41579
41493
41566
41559
41436
41575
41578
41519
41573
41572
41155
41581
41591
41494
41575
41591
41503
41601
41566
41535
41598
41463
41605
41535
41597
41615
41544
41617
41551
41567
41607
41602
41543
41615
41615
41605
41607
41495
41631
41575
41607
41569
41625
41543
41607
41180
41604
41638
41599
41634
41479
41639
41633
41623
41213
41647
41551
41645
41515
41645
41548
41637
41639
41634
41658
41636
41305
41654
41649
41631
41645
41300
41652
41661
41589
41653
41540
41676
41567
41655
41319
41668
41630
41663
41616
41669
41639
41659
41505
41677
41583
41666
41655
41591
41680
41559
41663
41655
41495
41674
41596
41660
41671
41644
41678
41591
41665
41557
41689
41579
41672
41388
41683
41700
41655
41639
41678
41327
41685
41703
41588
41703
41695
41654
41711
41628
41703
41697
41315
41708
41718
41636
41719
41524
41732
41619
41719
41607
41735
41685
41717
41671
41735
41647
41727
41643
41743
41633
41735
41581
41755
41735
41743
41703
41767
41647
41755
41717
41756
41652
41747
41327
41749
41758
41767
41758
41701
41775
41727
41754
41544
41779
41732
41775
41731
41798
41700
41779
41707
41804
41727
41786
41663
41813
41730
41783
41415
41766
41811
41703
41795
41591
41802
41695
41791
41303
41700
41818
41805
41763
41805
41798
41819
41766
41340
41820
41711
41829
41770
41823
41807
41811
41820
41828
41806
41335
41830
41732
41812
41479
41834
41791
41823
41824
41831
41832
41751
41826
41463
41836
41766
41831
41583
41859
41777
41839
41839
41749
41843
41748
41836
41381
41823
41854
41750
41839
41838
41447
41829
41863
41756
41815
41845
41445
41854
41858
41759
41839
41390
41698
41784
41806
41859
41859
41855
41852
41854
41668
41862
41876
41813
41851
41407
41780
41845
41884
41863
41803
41863
41440
41852
41863
41853
41857
41817
41860
41842
41855
41703
41863
41797
41847
41855
41833
41854
41780
41836
41855
41815
41860
41743
41839
41855
41837
41767
41780
41719
41772
41858
41823
41829
41852
41527
41847
41845
41831
41832
41835
41863
41751
41844
41476
41847
41853
41802
41839
41607
41847
41844
41804
41851
41838
41854
41734
41838
41820
41820
41831
41776
41829
41591
41844
41727
41828
41339
41832
41837
41719
41836
41533
41831
41829
41793
41809
41780
41825
41727
41803
41820
41783
41822
41799
41814
41783
41814
41707
41796
41631
41823
41686
41797
41796
41804
41789
41711
41803
41709
41791
41777
41803
41795
41783
41767
41796
41694
41765
41782
41503
41757
41799
41703
41772
41276
41714
41775
41693
41757
41599
41776
41692
41767
41446
41770
41663
41759
41540
41767
41711
41754
41668
41762
41748
41311
41748
41646
41748
41713
41767
41709
41735
41716
41751
41703
41735
41735
41479
41302
41735
41639
41727
41572
41733
41726
41726
41698
41735
41708
41727
41364
41735
41677
41718
41716
41695
41724
41724
41479
41718
41654
41708
41723
41607
41711
41669
41716
41708
41706
41694
41717
41693
41695
41692
41679
41690
41703
41260
41711
41591
41701
41631
41697
41694
41231
41702
41615
41687
41535
41692
41695
41684
41686
41699
41647
41687
41702
41662
41692
41607
41695
41588
41683
41543
41691
41660
41687
41659
41703
41673
41242
41687
41607
41678
41589
41687
41580
41669
41671
41511
41687
41663
41191
41692
41621
41671
41683
41570
41671
41447
41678
41572
41663
41548
41677
41655
41671
41375
41663
41589
41671
41671
41678
41637
41670
41665
41615
41652
41591
41602
41660
41623
41631
41659
41327
41669
41567
41656
41199
41634
41639
41647
41615
41595
41652
41639
41631
41631
41644
41644
41599
41637
41650
41663
41636
41319
41652
41661
41437
41647
41651
41639
41602
41661
41575
41639
41433
41655
41606
41650
41645
41657
41555
41565
41611
41631
41637
41650
41644
41644
41605
41644
41629
41286
41652
41549
41635
41599
41644
41623
41527
41652
41607
41631
41628
41575
41631
41334
41645
41542
41623
41563
41652
41607
41169
41615
41652
41569
41637
41635
41538
41631
41438
41653
41558
41639
41527
41645
41615
41199
41643
41554
41637
41479
41647
41532
41627
41239
41620
41641
41631
41557
41655
41614
41629
41604
41607
41625
41182
41621
41567
41629
41581
41635
41621
41463
41631
41543
41620
41623
41637
41634
41620
41606
41630
41622
41623
41636
41527
41621
41627
41596
41615
41627
41532
41633
41416
41639
41607
41630
41173
41623
41647
41530
41631
41623
41607
41631
41597
41606
41524
41641
41546
41620
41239
41607
41639
41599
41623
41604
41623
41553
41627
41500
41631
41530
41615
41556
41622
41612
41444
41620
41605
41223
41621
41619
41195
41630
41519
41607
41442
41613
41571
41607
41588
41622
41585
41620
41605
41620
41615
41191
41596
41564
41607
41621
41567
41627
41599
41618
41525
41627
41567
41610
41538
41615
41621
41344
41612
41606
41379
41627
41583
41621
41607
41524
41601
41445
41621
41607
41623
41343
41618
41598
41607
41532
41621
41533
41599
41541
41615
41568
41607
41516
41619
41606
41607
41607
41556
41606
41479
41623
41544
41607
41535
41618
41607
41388
41604
41527
41605
41580
41607
41599
41614
41423
41606
41516
41604
41396
41627
41557
41596
41498
41615
41517
41607
41150
41606
41575
41599
41607
41454
41607
41615
41564
41607
41396
41599
41617
41570
41599
41553
41607
41589
41220
41607
41575
41155
41607
41511
41615
41585
41510
41596
41223
41607
41511
41590
41580
41543
41588
41280
41604
41567
41588
41478
41583
41607
41567
41578
41186
41583
41582
41580
41174
41571
41583
41500
41585
41287
41588
41535
41580
41588
41521
41589
41477
41571
41116
41573
41594
41489
41580
41357
41583
41583
41565
41239
41581
41554
41589
41183
41591
41519
41583
41252
41583
41526
41567
41584
41328
41591
41533
41581
41431
41591
41582
41591
41589
41566
41595
41575
41596
41461
41591
41588
41583
41589
41539
41572
41183
41586
41511
41599
41543
41588
41507
41577
41229
41595
41503
41591
41196
41591
41594
41572
41572
41479
41599
41569
41589
41549
41599
41531
41580
41487
41589
41503
41577
41535
41598
41531
41583
41436
41575
41575
41543
41508
41573
41591
41544
41583
41580
41575
41575
41572
41503
41583
41543
41583
41570
41186
41589
41531
41569
41577
41582
41559
41578
41583
41526
41583
41511
41597
41565
41565
41511
41583
41508
41575
41546
41569
41540
41572
41575
41476
41572
41423
41583
41508
41562
41279
41564
41546
41558
41351
41566
41551
41103
41556
41470
41559
41462
41559
41493
41551
41499
41561
41527
41557
41509
41543
41526
41532
41438
41554
41462
41532
41085
41522
41543
41508
41525
41519
41516
41543
41159
41543
41440
41509
41515
41459
41518
41437
41537
41507
41095
41511
41510
41513
41110
41509
41413
41503
41517
41479
41508
41380
41506
41429
41495
41041
41492
41462
41495
41207
41478
41493
41479
41100
41479
41429
41476
41463
41391
41461
41407
41476
41458
41475
41471
41375
41449
41438
41430
41447
41351
41455
41442
41020
41452
41391
41439
41431
41439
41417
41428
41413
41431
41415
40967
41423
41359
41407
41309
41421
41327
41413
41247
41399
41351
41391
40948
41399
41295
41383
41364
41383
41377
41263
41383
41359
40943
41366
41263
41359
41205
41359
41295
41359
41300
41348
41337
40951
41338
41335
41315
41333
41236
41334
41263
41319
41068
41333
41267
41317
41278
41292
41303
41114
41319
41217
41310
40967
41292
41198
41279
41132
41290
41261
41276
41095
41276
41212
41267
41252
41255
41253
41133
41259
41220
41239
41247
41223
41244
41095
41255
41217
40804
41255
41218
40885
41215
41212
40886
41223
41167
41213
41202
41175
41201
41127
41186
41190
40820
41191
41135
41196
41150
41191
41182
41188
41161
41183
41160
40779
41175
41111
41159
41007
41159
41089
41151
41029
41162
41111
41143
41150
41095
41133
41143
41093
41143
41117
41124
41111
40927
41124
41095
41124
41108
41108
41092
41110
41086
41111
41108
40967
41113
41095
41077
41079
41017
41095
41095
41060
41051
41082
41005
41079
41069
41066
41067
40692
41052
41091
41071
40950
41060
40981
41053
41057
40983
41060
40852
41063
40982
41037
40766
41044
41052
40980
41032
40805
41044
40986
41028
40964
41023
40967
40911
40772
40621
41012
41014
41013
40999
41005
40989
41015
41006
40905
41004
40948
40991
40995
40646
40989
40959
40981
40991
40967
40983
40967
40967
40935
40981
40904
40982
40701
40964
40981
40958
40730
40940
40967
40915
40911
40957
40949
40935
40956
40933
40543
40917
40963
40903
40930
40943
40678
40927
40938
40871
40935
40535
40740
40925
40935
40902
40876
40911
40695
40917
40860
40923
40687
40906
40871
40910
40511
40901
40908
40863
40896
40508
40847
40916
40814
40887
40895
40815
40900
40821
40885
40871
40727
40884
40839
40879
40885
40871
40810
40871
40748
40885
40871
40487
40709
40879
40863
40853
40814
40861
40860
40470
40815
40863
40789
40839
40503
40850
40829
40847
40479
40807
40838
40780
40837
40805
40839
40839
40469
40823
40770
40831
40743
40839
40821
40829
40788
40834
40831
40455
40807
40839
40768
40815
40439
40732
40819
40815
40743
40799
40802
40817
40708
40805
40812
40781
40733
40762
40783
40801
40556
40742
40799
40800
40743
40787
40700
40788
40758
40743
40778
40773
40759
40793
40760
40783
40724
40779
40708
40768
40533
40764
40720
40767
40433
40748
40781
40726
40775
40455
40759
40763
40734
40766
40669
40762
40679
40754
40592
40759
40703
40743
40391
40711
40745
40710
40729
40757
40652
40749
40755
40679
40740
40501
40735
40671
40730
40415
40687
40743
40702
40724
40535
40730
40663
40711
40727
40593
40727
40666
40711
40711
40671
40724
40697
40711
40636
40711
40703
40695
40700
40391
40442
40375
40693
40338
40412
40575
40559
40671
40703
40700
40636
40655
40679
40692
40687
40693
40685
40681
40327
40375
40519
40613
40666
40682
40686
40687
40661
40657
40671
40674
40675
40671
40675
40668
40668
40367
40573
40596
40647
40656
40675
40667
40677
40674
40670
40665
40672
40648
40645
40671
40679
40655
40671
40651
40662
40667
40663
40666
40659
40668
40659
40647
40654
40653
40646
40652
40638
40612
40589
40567
40589
40647
40623
40522
40303
40617
40629
40620
40599
40591
40578
40557
40583
40613
40615
40615
40614
40620
40250
40605
40613
40607
40615
40594
40607
40607
40604
40607
40604
40604
40603
40583
40591
40591
40539
40583
40575
40572
40583
40591
40595
40582
40583
40557
40582
40439
40582
40583
40540
40595
40535
40206
40347
40559
40583
40594
40592
40599
40590
40589
40583
40592
40573
40574
40576
40580
40578
40559
40583
40557
40559
40566
40567
40532
40546
40561
40571
40581
40583
40556
40528
40519
40533
40564
40568
40574
40575
40571
40563
40573
40567
40316
40455
40551
40551
40566
40559
40567
40567
40567
40559
40575
40567
40551
40559
40573
40571
40575
40581
40570
40572
40508
40495
40535
40536
40545
40551
40561
40533
40540
40546
40551
40556
40551
40551
40538
40540
40543
40551
40534
40534
40535
40547
40541
40535
40551
40540
40509
40500
40487
40479
40531
40551
40535
40530
40455
40391
40309
40337
40404
40348
40382
40306
40159
40526
40522
40518
40535
40519
40516
40518
40527
40513
40531
40499
40447
40442
40439
40436
40455
40455
40483
40503
40487
40492
40475
40475
40499
40475
40495
40509
40495
40471
40495
40500
40491
40491
40495
40487
40501
40487
40487
40478
40474
40492
40481
40476
40460
40471
40468
40455
40464
40455
40455
40455
40455
40433
40431
40417
40428
40436
40398
40404
40455
40453
40455
40446
40449
40444
40435
40391
40430
40415
40434
40429
40430
40431
40428
40425
40400
40391
40341
40167
40047
40404
40410
40391
40399
40399
40388
40391
40380
40389
40387
40380
40360
40375
40367
40359
40374
40364
40359
40357
40357
40355
40347
40015
40154
40235
40223
40257
40293
40311
40300
40321
40327
40324
40325
40327
40319
40287
40325
40317
40305
40316
40308
40290
40295
40238
40209
40262
40278
40257
40278
40268
40260
40263
40263
40254
40257
40243
40256
40244
40225
40237
40234
40228
40231
40222
39943
39996
39908
40207
40199
40198
40159
40138
40199
40197
40186
40183
40180
40139
40071
39921
39796
40159
39807
39783
39872
39966
40042
40070
40097
39805
40139
40079
40135
40118
40134
40128
40116
40108
40102
40081
39952
39814
39854
39885
39932
39927
39985
40054
40055
40071
40065
40065
40068
40071
40066
40068
40054
40062
40066
40039
39999
39983
39993
40013
40020
40022
40023
40027
40008
40007
40015
39998
40007
39990
39991
39996
39983
39631
39765
39919
39980
39982
39975
39983
39975
39983
39943
39937
39941
39865
39831
39844
39788
39807
39794
39804
39715
39830
39785
39868
39932
39924
39919
39927
39908
39899
39892
39910
39903
39913
39900
39901
39895
39895
39895
39898
39886
39895
39892
39879
39876
39870
39868
39860
39847
39860
39855
39856
39855
39847
39846
39839
39850
39843
39815
39797
39775
39714
39668
39647
39526
39571
39659
39659
39653
39743
39778
39788
39783
39714
39687
39743
39773
39750
39705
39678
39751
39764
39748
39750
39764
39767
39764
39750
39755
39743
39751
39759
39745
39749
39732
39726
39733
39699
39658
39685
39703
39703
39726
39717
39716
39723
39682
39710
39654
39646
39676
39676
39687
39685
39687
39675
39676
39678
39679
39330
39412
39390
39543
39615
39645
39655
39664
39660
39658
39655
39647
39605
39581
39580
39594
39635
39642
39631
39628
39620
39634
39623
39621
39618
39612
39623
39606
39626
39619
39559
39543
39565
39589
39598
39589
39593
39590
39230
39487
39455
39493
39481
39446
39291
39319
39567
39568
39549
39551
39551
39499
39566
39551
39552
39525
39495
39486
39460
39468
39455
39383
39390
39375
39381
39293
39284
39372
39382
39431
39341
39287
39202
39290
39415
39491
39485
39495
39503
39489
39501
39501
39505
39492
39447
39490
39487
39477
39482
39479
39147
39247
39415
39463
39468
39476
39457
39471
39464
39471
39463
39470
39466
39462
39447
39455
39455
39463
39444
39446
39445
39459
39425
39431
39431
39447
39424
39365
39372
39363
39358
39367
39354
39396
39413
39423
39414
39207
39303
39378
39410
39412
39429
39351
39389
39397
39388
39071
39127
39275
39381
39389
39389
39399
39390
39385
39332
39334
39325
39325
39311
39314
39332
39332
39349
39353
39361
39351
39358
39351
39357
39030
39093
39222
39291
39316
39348
39342
39323
39284
39299
39323
39335
39324
39325
39324
38999
39147
39279
39303
39308
39317
39319
39311
39329
39257
39271
39303
39301
39303
39292
39297
39292
39293
38959
39038
39101
39175
39245
39223
39263
39277
39276
39271
39262
39271
39292
39285
39275
39233
39211
39228
39262
39261
39269
39255
39247
39252
39254
39247
39246
39245
39221
39191
39211
39203
39222
39189
39175
39175
39239
39237
39236
39226
39211
39207
39175
39175
39165
39170
39203
39223
39217
39221
39215
39218
39215
39220
39215
39215
39220
39211
39207
39203
39199
39192
39189
39204
39213
39149
39157
39127
39133
39195
39175
39047
39185
39111
39172
38919
39161
39167
39168
38828
39002
38845
39163
39159
39147
39143
39153
39143
39149
39151
39150
39153
39146
39136
39135
39134
39111
39079
39098
39137
39127
39127
39119
39039
38866
38790
39107
38799
39111
39111
39109
39103
39103
39100
39087
39103
39079
39046
39098
39106
39099
39087
39081
39063
38994
38788
39087
39076
39079
39036
39075
39103
39079
39079
39045
38842
38866
38903
38823
38817
38767
38903
38975
39012
39047
39060
39061
39060
39062
39062
39068
39063
39055
39053
39061
39060
39043
39063
39047
39060
39063
39055
39042
39031
38984
38990
38997
39040
39039
39045
39044
39045
39043
39029
39031
38713
38919
38983
39021
39023
39033
39031
39016
39013
39015
39021
38999
38996
39018
39020
39023
39022
39029
39029
39023
39013
39031
38972
38979
38983
39006
39015
38994
38996
38988
38988
38987
38933
38974
38988
38999
38990
38991
38984
38991
38997
38987
38676
38990
38676
38845
38743
38639
38983
38975
38982
38975
38970
38942
38919
38913
38903
38897
38911
38962
38966
38964
38963
38962
38951
38948
38945
38941
38935
38935
38919
38806
38624
38639
38946
38887
38661
38656
38919
38919
38917
38919
38911
38903
38916
38904
38902
38862
38889
38919
38919
38919
38906
38909
38911
38900
38895
38789
38629
38895
38895
38895
38885
38903
38879
38831
38839
38831
38837
38836
38823
38887
38871
38855
38791
38629
38863
38852
38849
38807
38829
38815
38866
38847
38824
38732
38707
38541
38535
38831
38834
38831
38831
38823
38815
38775
38807
38809
38780
38767
38818
38821
38799
38773
38588
38791
38797
38788
38775
38735
38753
38774
38732
38724
38729
38730
38719
38755
38775
38756
38752
38741
38719
38687
38676
38701
38740
38716
38692
38652
38626
38509
38468
38418
38722
38442
38497
38463
38543
38588
38612
38636
38623
38637
38631
38591
38581
38599
38583
38621
38626
38575
38614
38573
38559
38478
38426
38495
38497
38511
38535
38593
38611
38627
38629
38630
38612
38618
38619
38612
38615
38605
38549
38529
38535
38535
38535
38555
38567
38567
38560
38554
38252
38375
38519
38532
38554
38556
38550
38548
38535
38535
38500
38464
38508
38471
38495
38509
38495
38493
38500
38494
38493
38491
38495
38477
38489
38484
38437
38435
38447
38428
38460
38463
38447
38407
38457
38459
38453
38436
38437
38428
38375
38361
38329
38221
38420
38407
38401
38381
38399
38407
38371
38398
38407
38385
38396
38407
38401
38395
38396
38370
38338
38306
38212
38198
38079
38356
38364
38355
38359
38351
38338
38343
38348
38327
38335
38311
38317
38319
38316
38307
38319
38310
38291
38275
38287
38292
38308
38305
38292
38311
38294
38301
38301
38294
38291
38279
38279
38279
38279
38277
38271
38263
38246
38216
38214
38223
38223
38215
38207
38215
38220
38207
38215
38210
38196
38197
38210
38189
38218
38204
38238
38224
38231
38215
38223
38223
38218
38215
37895
37902
38012
38113
38167
38190
38203
38196
38199
38191
38177
38167
38141
38138
38138
38151
38144
38118
38074
37924
38179
38167
38167
38164
38164
38149
38141
38143
38125
38103
38109
38095
38145
38160
38148
38151
38091
38087
38084
38087
38132
38093
37862
38119
38125
38119
38106
38094
38057
38083
38087
38055
38039
38032
37980
37998
37980
37886
38091
38100
38094
38095
38087
38098
38095
38085
38044
38046
38063
38044
38033
38031
38016
38050
38071
38073
38078
38078
38077
38070
38051
38070
38060
38062
37796
37927
37861
37892
37834
37797
37795
37789
37875
38052
38045
38047
38047
38047
38047
38052
37828
38042
38044
38039
38035
38029
38036
38031
38043
38028
38036
38007
38031
38007
38005
38003
37990
38006
38020
38023
38023
37999
37995
37975
37975
37972
37954
37991
38005
38005
38001
38003
38004
38005
37999
38005
38015
37985
38010
38001
38003
37998
38005
37996
37989
37989
37985
37991
37983
37990
37989
37981
37991
37982
37989
37983
37981
37959
37927
37943
37950
37945
37933
37918
37983
37973
37966
37959
37871
37744
37710
37958
37962
37959
37975
37962
37956
37957
37931
37919
37927
37919
37903
37928
37967
37959
37947
37939
37853
37724
37948
37951
37959
37951
37953
37954
37941
37931
37921
37895
37910
37895
37895
37895
37895
37895
37902
37892
37927
37939
37951
37943
37922
37923
37908
37886
37791
37703
37761
37775
37815
37802
37839
37827
37780
37743
37706
37759
37783
37815
37780
37851
37837
37895
37915
37927
37934
37923
37895
37881
37895
37911
37924
37924
37918
37919
37919
37910
37919
37895
37918
37911
37908
37910
37909
37895
37904
37911
37908
37895
37926
37905
37911
37887
37870
37858
37860
37871
37895
37895
37895
37880
37871
37884
37639
37892
37860
37893
37890
37869
37895
37852
37855
37853
37857
37871
37891
37831
37741
37879
37895
37874
37891
37845
37893
37868
37886
37823
37895
37884
37614
37874
37847
37882
37655
37845
37863
37878
37735
37870
37842
37871
37870
37762
37886
37857
37877
37781
37868
37831
37860
37821
37887
37823
37863
37860
37826
37875
37838
37855
37604
37828
37871
37853
37863
37583
37703
37801
37849
37853
37835
37839
37607
37806
37856
37799
37847
37851
37735
37841
37812
37851
37842
37781
37845
37791
37828
37831
37606
37768
37808
37836
37834
37777
37823
37809
37596
37787
37830
37765
37818
37579
37783
37825
37812
37815
37733
37831
37793
37823
37803
37816
37806
37567
37810
37785
37815
37590
37821
37786
37820
37799
37813
37831
37812
37777
37825
37810
37826
37764
37828
37807
37815
37684
37831
37767
37821
37717
37839
37808
37821
37783
37815
37797
37800
37675
37805
37788
37809
37811
37690
37800
37821
37810
37805
37646
37812
37823
37767
37823
37817
37717
37803
37820
37783
37805
37555
37759
37807
37758
37819
37811
37615
37791
37778
37799
37669
37799
37771
37813
37804
37683
37796
37799
37786
37796
37532
37799
37764
37798
37750
37806
37783
37508
37780
37757
37793
37692
37797
37759
37796
37570
37752
37795
37759
37791
37798
37796
37785
37689
37775
37795
37729
37767
37780
37503
37737
37791
37731
37781
37775
37687
37773
37791
37767
37767
37519
37742
37790
37767
37503
37758
37781
37749
37767
37764
37524
37756
37780
37719
37767
37764
37716
37761
37719
37751
37757
37756
37508
37735
37763
37745
37749
37636
37748
37748
37735
37738
37695
37743
37679
37751
37687
37750
37703
37724
37466
37713
37732
37675
37730
37675
37729
37709
37715
37664
37731
37718
37716
37661
37732
37683
37711
37422
37679
37711
37663
37694
37702
37588
37700
37639
37693
37468
37694
37684
37687
37693
37511
37681
37639
37671
37367
37637
37676
37628
37657
37665
37401
37551
37639
37663
37638
37647
37556
37649
37599
37631
37639
37639
37434
37615
37639
37572
37627
37623
37572
37635
37567
37611
37375
37559
37615
37551
37606
37606
37383
37585
37603
37538
37594
37588
37351
37559
37580
37535
37573
37575
37532
37572
37523
37551
37563
37551
37457
37543
37559
37511
37533
37247
37511
37541
37478
37521
37511
37468
37516
37487
37508
37511
37354
37495
37511
37486
37500
37495
37332
37453
37477
37490
37479
37459
37458
37217
37442
37471
37421
37450
37158
37413
37447
37383
37445
37271
37439
37383
37435
37430
37318
37435
37407
37312
37372
37409
37383
37365
37383
37259
37411
37392
37381
37348
37393
37343
37367
37375
37315
37373
37326
37372
37371
37293
37359
37334
37359
37087
37311
37355
37319
37343
37047
37303
37338
37294
37319
37038
37274
37333
37263
37321
37055
37311
37284
37300
37271
37309
37302
37301
37181
37287
37279
37271
37290
37273
37147
37274
37247
37271
37016
37263
37246
37263
37268
37070
37251
37207
37253
37150
37247
37247
37242
37215
37231
37244
37183
37234
37038
37199
37231
37180
37222
37215
37159
37225
37202
37198
37163
37201
37181
37207
37203
37191
37004
37171
37189
37127
37191
36861
37151
37186
37181
37162
37157
37126
37173
36983
37153
37101
37159
37159
37031
37122
37157
37104
37142
36853
37095
37153
37132
37134
37117
37134
37108
37127
36953
37083
37115
37119
37098
37127
36964
37090
37119
37119
37057
37070
37095
37107
37095
37100
37004
37079
37099
37035
37089
37094
36890
37054
37093
37056
37013
37031
37056
37055
37035
37031
37052
37065
37070
37057
36871
36996
37042
37057
37031
36999
36997
37036
36967
36771
37030
37047
37023
36985
37044
37037
37015
36982
36942
36942
37025
37037
37007
37023
37017
36711
36919
36991
37009
36983
36999
37002
36997
36712
36902
36983
36999
36980
36980
36999
36990
36838
36987
36925
36996
36743
36946
36988
36913
36961
36967
36892
36965
36986
36916
36971
36973
36871
36967
36972
36909
36957
36964
36711
36937
36957
36902
36954
36737
36937
36917
36948
36935
36871
36942
36952
36879
36937
36682
36903
36935
36871
36927
36927
36799
36888
36934
36927
36929
36863
36921
36932
36905
36916
36852
36915
36854
36905
36696
36897
36846
36899
36756
36903
36839
36903
36670
36901
36845
36885
36566
36846
36885
36887
36843
36871
36885
36867
36701
36841
36871
36871
36839
36871
36871
36771
36849
36871
36827
36863
36847
36679
36838
36871
36795
36852
36692
36844
36869
36842
36850
36733
36847
36796
36847
36834
36774
36856
36790
36837
36615
36807
36841
36842
36797
36834
36645
36827
36845
36807
36831
36705
36839
36791
36499
36815
36771
36823
36760
36828
36807
36817
36783
36785
36815
36759
36828
36807
36501
36804
36755
36809
36809
36663
36775
36806
36783
36791
36753
36802
36788
36790
36764
36783
36782
36549
36777
36723
36790
36636
36796
36738
36766
36554
36780
36724
36783
36575
36750
36777
36759
36769
36725
36775
36730
36767
36679
36766
36707
36751
36423
36724
36763
36743
36748
36644
36758
36719
36751
36735
36700
36764
36743
36751
36735
36700
36739
36540
36742
36671
36741
36735
36695
36751
36701
36735
36532
36724
36696
36712
36583
36734
36703
36717
36660
36741
36697
36718
36655
36724
36655
36708
36534
36719
36695
36727
36678
36719
36639
36711
36698
36650
36711
36683
36707
36401
36671
36687
36689
36647
36703
36703
36573
36682
36704
36649
36701
36695
36479
36675
36702
36674
36677
36607
36681
36615
36689
36672
36655
36644
36678
36541
36682
36650
36654
36517
36647
36645
36650
36647
36614
36670
36641
36654
36412
36658
36607
36639
36615
36615
36648
36654
36569
36636
36576
36628
36631
36593
36639
36567
36625
36370
36614
36591
36623
36357
36624
36615
36599
36639
36636
36359
36606
36625
36559
36612
36271
36583
36629
36557
36610
36623
36574
36615
36575
36620
36615
36453
36604
36585
36614
36274
36590
36615
36591
36612
36542
36612
36540
36607
36535
36615
36581
36607
36535
36614
36590
36580
36607
36598
36484
36583
36612
36534
36599
36247
36495
36575
36601
36574
36597
36271
36571
36553
36593
36242
36561
36572
36597
36238
36591
36525
36591
36587
36511
36583
36523
36583
36223
36554
36590
36564
36583
36231
36473
36579
36523
36547
36569
36575
36447
36556
36576
36501
36563
36571
36348
36551
36581
36503
36570
36211
36516
36565
36503
36559
36231
36535
36511
36556
36231
36548
36508
36550
36284
36540
36497
36542
36351
36551
36519
36520
36535
36527
36556
36551
36538
36359
36522
36538
36476
36541
36524
36468
36527
36448
36519
36531
36359
36517
36532
36511
36519
36445
36527
36461
36449
36519
36530
36527
36437
36492
36510
36279
36492
36529
36472
36503
36303
36459
36508
36422
36495
36253
36455
36503
36412
36490
36479
36228
36431
36493
36425
36497
36184
36454
36487
36422
36469
36148
36372
36471
36391
36468
36159
36422
36476
36444
36463
36268
36455
36375
36455
36151
36406
36461
36426
36450
36393
36447
36407
36433
36157
36359
36420
36343
36412
36422
36277
36399
36429
36345
36411
36092
36405
36331
36399
36274
36406
36322
36389
36254
36389
36311
36359
36061
36342
36381
36295
36359
36359
36197
36325
36359
36309
36346
36354
36100
36327
36355
36271
36343
36335
36167
36295
36327
36334
36258
36311
36306
36301
35952
36239
36302
36327
36269
36308
36054
36251
36293
36297
36215
36276
36291
36100
36234
36282
36263
36271
36270
36199
36271
36185
36252
36243
36177
36227
36253
36268
36183
36241
36238
36237
36180
36239
36227
36175
36219
36218
35877
36148
36209
36218
36206
36184
36206
36199
36163
36212
36131
36199
36180
35863
36138
36193
36108
36183
36004
36180
36103
36174
36103
36174
36103
36174
36164
36085
36159
36085
36143
36156
35926
36119
36137
36070
36135
36141
36133
35877
36064
36103
36132
36046
36087
36125
36119
35767
36004
36065
36110
36133
36071
36052
36103
36092
36029
36078
36103
36103
36092
36080
36016
36053
36078
36078
36068
35940
36071
36087
36035
36071
36075
35911
36039
36077
36015
36020
36049
36050
35719
36001
36031
36063
35967
36031
36045
35759
35999
36031
36055
35975
36029
36022
35895
36004
36020
35959
36023
36021
35777
35956
36007
35965
36010
36019
35692
35940
36007
35954
36004
35708
35959
36005
35939
35987
35996
35847
35991
35925
35989
35988
35887
35970
35991
35915
35967
35971
35975
35822
35937
35974
35980
35959
35964
35967
35708
35934
35956
35969
35924
35958
35951
35703
35867
35935
35956
35914
35908
35947
35943
35951
35645
35853
35939
35940
35885
35931
35945
35639
35847
35930
35947
35905
35927
35948
35934
35929
35702
35820
35879
35921
35937
35899
35917
35927
35751
35871
35915
35935
35885
35927
35911
35912
35626
35783
35887
35908
35917
35902
35909
35711
35902
35913
35847
35904
35903
35911
35796
35887
35908
35893
35892
35903
35663
35830
35892
35900
35847
35894
35893
35757
35890
35927
35866
35887
35895
35831
35898
35839
35892
35893
35743
35828
35879
35895
35887
35872
35891
35893
35774
35863
35885
35900
35863
35871
35884
35885
35881
35750
35815
35807
35835
35861
35895
35847
35871
35886
35859
35847
35847
35881
35881
35879
35600
35813
35882
35847
35842
35881
35638
35845
35879
35840
35878
35615
35826
35888
35847
35884
35871
35604
35805
35876
35879
35863
35868
35881
35885
35878
35877
35716
35838
35871
35895
35841
35882
35879
35879
35751
35847
35883
35881
35865
35868
35789
35875
35876
35893
35876
35758
35871
35898
35847
35883
35895
35615
35742
35785
35759
35893
35893
35702
35879
35869
35886
35879
35703
35819
35878
35898
35892
35895
35673
35799
35860
35898
35887
35868
35900
35895
35780
35868
35900
35871
35892
35887
35786
35869
35899
35847
35893
35893
35733
35815
35881
35921
35887
35895
35899
35895
35839
35911
35901
35906
35911
35911
35783
35893
35921
35903
35895
35917
35772
35859
35861
35895
35926
35903
35908
35908
35905
35915
35788
35876
35910
35929
35925
35911
35922
35926
35929
35925
35737
35900
35927
35889
35931
35932
35714
35855
35937
35936
35922
35935
35711
35898
35935
35943
35911
35943
35935
35732
35910
35950
35926
35942
35939
35940
35775
35915
35934
35940
35938
35951
35952
35788
35908
35956
35954
35943
35947
35789
35918
35943
35932
35935
35946
35953
35760
35895
35959
35921
35946
35954
35833
35950
35929
35964
35959
35802
35919
35963
35971
35937
35950
35965
35956
35788
35895
35967
35967
35973
35975
35837
35940
35996
35972
35975
35885
35983
35955
35988
35948
35932
35994
35969
35975
35981
35973
35971
35975
35991
35992
35847
35986
36023
35991
36009
35943
35997
36022
36008
36020
35786
35959
36020
36024
36015
36035
35882
36006
36045
36005
36031
36031
35971
36036
36036
36047
36039
35975
36052
36019
36058
36048
35919
36007
36066
36039
36071
36065
35976
36053
36075
36053
36077
36038
36077
36066
36076
35995
36062
36059
36081
36079
35840
36040
36062
36097
36058
36098
36087
35887
36031
36089
36083
36090
35878
36075
36121
36085
36102
36110
36068
36117
36091
36111
36099
36071
36136
36124
36117
36035
36119
36095
36114
35950
36115
36103
36126
36129
36103
36139
36103
36137
36130
35983
36087
36119
36151
36103
36142
36137
36081
36142
36103
36150
36148
36087
36156
36139
36151
36143
36020
36151
36134
36151
36036
36162
36143
36135
36145
35983
36121
36161
36158
36167
36163
36082
36164
36151
36164
36171
36162
36103
36184
36172
36167
36126
36195
36198
36150
36190
36188
36055
36167
36189
36159
36179
36181
36087
36140
36167
36199
36196
36159
36178
36181
35982
36140
36184
36195
36189
36165
36190
36186
36076
36165
36191
36167
36183
36193
36113
36195
36167
36178
36183
36195
36090
36191
36151
36185
36158
36163
36192
36167
36172
36179
35936
35963
36087
36149
36187
36155
36190
36189
35999
36134
36189
36190
36171
36189
35964
36159
36167
36183
35950
36158
36175
36180
36182
36130
36167
36199
36157
36180
35947
36124
36190
36167
36164
36167
36084
36159
36177
36157
36167
36053
36148
36190
36167
36180
36118
36183
36164
36055
36135
36181
36157
36167
36046
36157
36151
36164
36164
36102
36156
36167
36132
36154
36164
36163
36157
35947
36103
36167
36143
36157
36151
36095
36159
36144
36143
35953
36087
36151
36157
36127
36166
36157
36076
36141
36167
36135
36156
35958
36055
36119
36162
36119
36143
36150
36039
36148
36126
36153
36158
35983
36142
36164
36126
36143
36149
36003
36103
36156
36163
36124
36141
36148
35932
36095
36142
36122
36148
36155
36009
36103
36158
36117
36147
35927
36030
36124
36136
36132
36137
36141
36151
36162
36138
36147
36133
36159
36138
36143
36119
36124
36131
36143
36151
36143
35979
36132
36143
36111
36149
35911
36077
36135
36149
36132
36143
36143
36149
36023
36111
36151
36138
36139
35903
36119
36140
36125
36157
36143
35959
36119
36151
36111
36144
36151
36145
36075
36146
36135
36159
36148
36003
36133
36174
36132
36149
36143
35903
36103
36155
36121
36159
36159
36159
36060
36140
36164
36142
36148
36143
35972
36135
36164
36143
36159
36163
36001
36093
36124
36145
36175
36147
36157
36159
36151
36031
36142
36167
36151
36157
35953
36101
36166
36168
36151
36161
36175
35980
36057
36142
36163
36143
36167
36167
35944
36125
36165
36175
36183
36181
36044
36163
36189
36149
36180
36189
35974
36151
36176
36156
36181
36175
36186
36063
36165
36185
36159
36171
36190
36181
36177
36089
36140
36175
36193
36175
36188
36196
36039
36132
36175
36199
36191
36174
36174
36195
36194
36199
36198
36073
36180
36204
36215
36183
36196
36215
36210
36095
36204
36199
36207
36068
36199
36223
36196
36220
36215
36082
36188
36220
36201
36226
36212
36123
36209
36231
36245
36214
36223
36224
36220
36035
36164
36215
36239
36231
36250
36099
36222
36260
36233
36237
36239
36207
36253
36231
36247
36127
36223
36252
36225
36246
36253
36127
36234
36268
36261
36255
36180
36254
36247
36252
36252
36253
36059
36231
36263
36268
36249
36263
36263
36231
36286
36263
36274
36135
36253
36278
36266
36279
36069
36231
36291
36268
36287
36271
36209
36273
36276
36285
36291
36285
36095
36247
36306
36279
36285
36167
36283
36276
36295
36103
36303
36284
36305
36256
36306
36300
36308
36133
36295
36327
36293
36311
36231
36327
36289
36319
36319
36252
36325
36313
36324
36103
36282
36338
36305
36335
36143
36305
36319
36328
36158
36295
36346
36330
36351
36198
36324
36350
36351
36135
36311
36347
36333
36341
36350
36218
36348
36352
36359
36348
36304
36375
36359
36358
36273
36375
36333
36372
36359
36310
36375
36350
36359
36223
36359
36359
36375
36388
36308
36373
36398
36356
36380
36388
36271
36390
36388
36359
36383
36399
36231
36308
36375
36405
36375
36399
36403
36167
36279
36386
36423
36380
36406
36399
36404
36391
36423
36410
36380
36229
36423
36427
36423
36437
36420
36423
36180
36350
36424
36412
36428
36428
36258
36394
36441
36415
36433
36443
36196
36356
36429
36452
36432
36436
36231
36437
36455
36427
36453
36460
36351
36458
36458
36446
36450
36292
36417
36459
36461
36460
36468
36270
36406
36453
36461
36428
36458
36466
36263
36399
36459
36471
36455
36468
36478
36287
36402
36459
36479
36450
36468
36468
36327
36442
36487
36471
36479
36399
36487
36487
36487
36493
36307
36444
36500
36471
36516
36324
36487
36517
36499
36516
36418
36513
36487
36519
36407
36508
36503
36519
36463
36534
36509
36532
36479
36548
36532
36532
36443
36532
36510
36548
36452
36525
36551
36535
36548
36337
36509
36555
36573
36551
36566
36407
36519
36547
36580
36539
36565
36348
36495
36565
36551
36575
36349
36516
36594
36575
36583
36439
36559
36586
36567
36591
36497
36565
36596
36598
36581
36583
36593
36591
36485
36591
36614
36594
36597
36590
36534
36610
36583
36615
36389
36547
36613
36591
36609
36615
36615
36447
36581
36633
36615
36622
36623
36474
36609
36635
36639
36599
36615
36637
36635
36463
36597
36631
36609
36638
36393
36599
36647
36655
36639
36644
36543
36642
36615
36636
36643
36649
36463
36633
36652
36637
36659
36487
36607
36663
36636
36661
36647
36584
36674
36639
36663
36423
36580
36666
36638
36662
36415
36597
36655
36638
36668
36669
36615
36677
36641
36675
36442
36650
36684
36645
36671
36519
36638
36679
36647
36661
36671
36503
36655
36682
36655
36679
36671
36447
36629
36678
36663
36669
36687
36500
36667
36634
36673
36660
36639
36676
36652
36677
36503
36561
36635
36679
36669
36676
36455
36649
36679
36660
36664
36591
36680
36651
36663
36441
36638
36680
36655
36655
36628
36671
36635
36661
36663
36435
36605
36650
36652
36652
36487
36650
36669
36625
36658
36663
36538
36646
36630
36646
36433
36604
36663
36638
36644
36422
36583
36615
36646
36615
36637
36625
36463
36487
36601
36637
36607
36631
36632
36380
36548
36613
36628
36613
36615
36413
36572
36615
36588
36602
36598
36555
36609
36577
36591
36420
36583
36567
36587
36589
36580
36599
36447
36548
36578
36594
36573
36583
36583
36485
36523
36544
36579
36574
36562
36569
36576
36391
36539
36556
36569
36535
36551
36555
36501
36533
36566
36550
36555
36551
36494
36539
36525
36543
36551
36524
36417
36500
36535
36503
36533
36525
36447
36503
36519
36542
36501
36518
36519
36500
36502
36482
36508
36527
36516
36510
36519
36506
36463
36383
36500
36487
36484
36515
36507
36495
36469
36404
36299
36487
36495
36501
36479
36463
36455
36457
36500
36485
36454
36432
36393
36375
36231
36476
36455
36468
36465
36468
36476
36447
36453
36460
36455
36415
36327
36340
36310
36308
36284
36265
36241
36265
36452
36444
36469
36439
36343
36447
36423
36438
36334
36311
36349
36385
36407
36390
36386
36369
36276
36267
36259
36207
36423
36436
36418
36423
36422
36414
36421
36428
36421
36422
36412
36415
36415
36401
36416
36413
36420
36415
36407
36415
36407
36401
36383
36383
36399
36396
36407
36397
36399
36391
36407
36403
36375
36387
36355
36359
36356
36359
36359
36345
36359
36380
36373
36388
36387
36204
36199
36228
36167
36183
36186
36167
36223
36253
36214
36204
36359
36117
36154
36242
36299
36310
36319
36325
36339
36354
36356
36351
36359
36359
36359
36348
36332
36358
36355
36355
36359
36335
36340
36327
36342
36342
36335
36332
36301
36237
36230
36229
36261
36229
36218
36117
36341
36333
36338
36343
36343
36331
36335
36329
36334
36320
36330
36327
36305
36295
36295
36292
36322
36342
36315
36316
36314
36315
36321
36301
36314
36327
36327
36319
36324
36283
36294
36279
36282
36303
36279
36285
36276
36287
36308
36323
36293
36261
36204
36071
36308
36299
36311
36293
36273
36279
36279
36279
36279
36282
36279
36276
36296
36277
36287
36302
36285
36287
36295
36285
36263
36278
36295
36299
36288
36287
36276
36243
36247
36263
36215
36156
36201
36204
36153
36198
36203
36261
36263
36279
36295
36284
36252
36269
36266
36273
36272
36276
36270
36279
36276
36285
36286
36277
36279
36278
36282
36283
36278
36278
36278
36280
36279
36277
36266
36278
36279
36279
36270
36271
36276
36271
36262
36270
36271
36267
36267
36263
36261
36263
36262
36271
36119
36262
36057
36199
36196
36191
36230
36230
36239
36247
36215
36205
36199
36223
36166
36053
36261
36231
36268
36261
36246
36231
36175
36172
36103
36020
36247
36260
36261
36258
36254
36252
36242
36241
36242
36244
36234
36253
36245
36255
36239
36224
36223
36222
36234
36222
36215
36238
36260
36120
36214
36261
36226
36254
36244
36143
36244
36239
36241
36208
36231
36246
35989
36103
36147
36210
36203
36242
36215
36244
36239
36175
36245
36221
36231
36121
36239
36207
36223
36143
36251
36216
36235
36239
36167
36189
36244
36207
36235
36226
36220
36038
36169
36215
36247
36209
36231
36007
36175
36209
36241
36235
36231
36138
36247
36231
35999
36175
36236
36201
36220
35991
36199
36231
36230
36220
36175
36222
36191
36227
36213
36196
36188
36223
36000
36191
36218
36209
36057
36203
36181
36212
36098
36204
36188
36196
36119
36201
36190
36198
36199
36171
36207
36202
36197
36150
36215
36183
36215
36083
36202
36174
36201
36198
36154
36205
36175
36205
35972
36163
36211
36219
36207
36065
36193
36204
36197
36201
36123
36186
36213
36199
36199
36018
36199
36223
36207
36209
36124
36215
36214
36207
36214
36193
36176
36206
35983
36171
36214
36185
36203
36167
36231
36203
36043
36220
36209
35970
36199
36207
36205
35993
36197
36203
36213
36220
36140
36222
36197
36221
36092
36215
36194
36207
36148
36215
36178
36220
36223
36180
36220
36205
36222
35959
36165
36230
36197
36218
36095
36215
36199
36211
36151
36223
36168
36221
35982
36199
36209
36207
35966
36177
36205
36210
36052
36200
36231
36209
35975
36167
36221
36201
36207
36149
36231
36194
36207
36012
36191
36196
36207
36207
36140
36206
36212
36185
36206
35999
36143
36199
36196
36198
36211
36205
36007
36111
36180
36197
36196
36204
36047
36173
36209
36195
36199
36187
36159
36199
36173
36187
36197
35973
36150
36197
36151
36199
36190
36012
36134
36173
36197
36150
36173
36181
36183
36100
36175
36179
36190
35924
36151
36195
36163
36172
36071
36155
36183
36167
36181
36055
36154
36177
36141
36154
36160
36159
36151
35983
36103
36147
36143
36137
36165
36148
36059
36146
36142
36143
36138
35936
36087
36135
36122
36135
36135
36085
36141
36124
36123
36046
36133
36086
36127
36123
36020
36116
36085
36117
35989
36117
36069
36101
35879
36084
36103
36087
36095
36031
36103
36087
35854
36079
36047
36077
36039
36032
36069
35995
36083
36028
36063
35988
36067
36043
36041
36046
36015
36039
35997
36055
36039
35843
36028
36007
36029
35966
36028
36021
36014
35975
36018
35989
35996
35967
36015
35989
35988
35811
35948
35999
35988
35980
35914
35964
35949
35972
35803
35965
35954
35967
35910
35964
35948
35787
35931
35951
35934
35935
35827
35940
35899
35941
35935
35751
35897
35934
35895
35918
35877
35911
35869
35911
35795
35899
35895
35887
35883
35862
35895
35764
35876
35859
35873
35719
35887
35847
35868
35757
35868
35843
35869
35859
35814
35862
35823
35847
35753
35844
35844
35663
35837
35807
35831
35687
35804
35815
35823
35823
35674
35815
35782
35809
35807
35705
35799
35799
35807
35799
35744
35803
35800
35566
35767
35758
35791
35591
35751
35752
35766
35719
35779
35757
35771
35711
35762
35756
35751
35714
35765
35743
35743
35719
35710
35750
35542
35719
35719
35734
35549
35695
35732
35719
35494
35703
35681
35715
35643
35725
35716
35647
35706
35680
35708
35559
35682
35676
35695
35619
35708
35687
35685
35671
35660
35695
35528
35686
35646
35663
35521
35668
35635
35668
35447
35645
35670
35662
35503
35655
35637
35654
35620
35634
35649
35561
35644
35643
35421
35604
35635
35631
35633
35583
35655
35607
35627
35500
35643
35622
35627
35556
35619
35581
35614
35611
35534
35607
35591
35599
35479
35591
35583
35598
35507
35575
35576
35591
35591
35587
35541
35599
35566
35591
35585
35449
35570
35591
35573
35580
35524
35591
35575
35572
35366
35503
35557
35573
35562
35567
35564
35532
35564
35543
35546
35375
35533
35567
35527
35556
35396
35519
35558
35551
35555
35500
35550
35534
35549
35516
35497
35541
35533
35485
35549
35518
35533
35395
35511
35530
35522
35526
35428
35523
35501
35527
35404
35521
35501
35511
35436
35516
35508
35502
35462
35463
35511
35475
35497
35356
35482
35485
35490
35495
35451
35497
35479
35499
35394
35503
35477
35485
35351
35483
35459
35486
35390
35494
35470
35476
35351
35485
35447
35475
35274
35447
35479
35470
35462
35442
35460
35475
35297
35452
35445
35471
35381
35471
35470
35267
35449
35457
35453
35423
35429
35452
35335
35451
35429
35445
35292
35439
35413
35447
35358
35439
35443
35434
35399
35438
35433
35295
35422
35422
35436
35399
35410
35430
35402
35434
35436
35223
35420
35423
35191
35428
35420
35429
35318
35420
35406
35420
35239
35391
35436
35429
35422
35364
35436
35412
35239
35404
35406
35420
35366
35385
35421
35361
35431
35412
35280
35413
35391
35411
35308
35407
35391
35398
35349
35406
35404
35181
35407
35393
35388
35367
35375
35399
35305
35399
35375
35407
35241
35386
35365
35391
35317
35407
35375
35391
35324
35385
35399
35196
35372
35367
35391
35271
35393
35377
35255
35375
35356
35387
35206
35350
35390
35367
35379
35266
35367
35363
35377
35186
35335
35372
35367
35375
35172
35335
35367
35356
35367
35359
35367
35183
35351
35348
35365
35253
35365
35348
35373
35284
35363
35359
35357
35252
35367
35348
35357
35268
35364
35343
35351
35295
35365
35356
35365
35313
35335
35335
35252
35363
35335
35348
35335
35323
35344
35302
35326
35348
35229
35335
35322
35335
35317
35307
35334
35290
35335
35308
35334
35273
35335
35318
35166
35331
35301
35326
35304
35295
35318
35286
35335
35320
35231
35329
35315
35270
35303
35308
35288
35287
35307
35113
35283
35292
35318
35295
35265
35284
35299
35239
35324
35301
35311
35220
35300
35295
35309
35266
35302
35295
35231
35279
35300
35221
35310
35292
35108
35283
35295
35108
35287
35285
35295
35091
35271
35298
35287
35291
35100
35276
35279
35295
35191
35292
35285
35079
35281
35275
35295
35302
35286
35141
35303
35287
35191
35303
35279
35283
35201
35299
35292
35279
35239
35300
35295
35177
35300
35292
35225
35299
35288
35284
35278
35267
35279
35245
35294
35291
35276
35261
35268
35286
35143
35289
35268
35282
35167
35282
35279
35285
35199
35283
35271
35268
35214
35281
35259
35271
35127
35207
35271
35257
35276
35247
35249
35271
35071
35254
35239
35270
35038
35086
35163
35138
35207
35231
35277
35254
35256
35045
35207
35255
35261
35255
35269
35047
35204
35247
35263
35228
35252
35111
35252
35227
35255
35115
35247
35223
35247
35203
35258
35250
35063
35239
35207
35247
35115
35236
35219
35249
35103
35221
35247
35213
35239
35090
35231
35199
35221
35137
35243
35231
35231
35191
35191
35218
35148
35223
35204
35207
34982
35199
35222
35187
35207
35007
35142
35198
35207
35199
35201
35076
35191
35191
35175
35190
35071
35166
35183
35177
35015
35182
35182
35180
35079
35169
35175
35172
35028
35166
35143
35159
35063
35167
35135
35156
34983
35119
35159
35143
35139
35029
35139
35111
35133
34983
35125
35107
35118
35125
35077
35128
35095
35118
34906
35079
35075
35100
34937
35087
35077
35087
34997
35079
35049
35095
35076
34892
35021
35066
35087
35067
35061
34823
34943
35019
35054
35047
35057
35047
34975
35038
35025
35035
34859
34986
35027
35028
35004
35012
35007
34891
34977
35015
34989
34984
34991
34790
34925
34975
34983
34951
34959
34979
34964
34799
34918
34962
34934
34950
34948
34823
34938
34932
34938
34933
34751
34890
34935
34901
34919
34905
34788
34887
34915
34901
34777
34884
34880
34881
34779
34861
34894
34855
34870
34755
34863
34850
34863
34853
34775
34850
34823
34837
34766
34844
34831
34823
34733
34823
34807
34837
34676
34797
34786
34813
34631
34769
34804
34788
34612
34769
34779
34785
34740
34754
34773
34660
34753
34751
34759
34631
34719
34770
34740
34740
34733
34695
34759
34725
34721
34555
34691
34725
34723
34717
34637
34717
34703
34703
34588
34695
34684
34693
34599
34677
34695
34679
34683
34567
34663
34655
34662
34633
34653
34657
34535
34636
34639
34642
34639
34628
34619
34637
34635
34563
34631
34612
34627
34487
34596
34621
34593
34599
34612
34614
34391
34521
34580
34599
34587
34567
34585
34574
34527
34581
34551
34567
34566
34502
34566
34545
34567
34551
34553
34367
34489
34534
34530
34548
34551
34519
34516
34519
34532
34524
34529
34525
34411
34503
34535
34516
34511
34391
34506
34487
34511
34503
34470
34487
34500
34486
34383
34458
34496
34471
34479
34460
34327
34399
34407
34391
34374
34415
34445
34463
34463
34439
34454
34455
34292
34413
34457
34426
34447
34439
34369
34404
34444
34445
34411
34429
34439
34286
34398
34428
34421
34424
34413
34230
34359
34399
34412
34385
34399
34399
34299
34389
34364
34396
34406
34179
34340
34383
34365
34374
34374
34378
34311
34357
34369
34369
34364
34159
34252
34354
34375
34350
34359
34145
34298
34342
34363
34335
34356
34338
34251
34335
34342
34311
34331
34327
34327
34207
34295
34325
34309
34311
34331
34173
34299
34316
34284
34311
34301
34249
34311
34287
34311
34134
34281
34279
34301
34287
34239
34302
34283
34290
34209
34301
34287
34278
34222
34272
34247
34273
34215
34250
34279
34183
34279
34260
34085
34247
34251
34260
34194
34271
34248
34044
34223
34255
34245
34087
34236
34231
34247
34185
34220
34244
34243
34087
34215
34215
34230
34030
34181
34238
34222
34231
34212
34197
34222
34134
34226
34192
34231
34080
34188
34197
34215
34217
34173
34227
34196
34212
34102
34207
34209
34001
34178
34183
34199
34100
34193
34167
34202
33983
34140
34199
34173
34188
34017
34156
34198
34191
34180
34129
34189
34183
34180
34114
34177
34148
34176
33986
34151
34183
34172
34167
34078
34175
34151
34170
34087
34151
34130
34166
34019
34158
34137
34159
34124
34141
34149
34055
34150
34151
34045
34159
34149
33924
34124
34151
34151
34148
34003
34151
34119
34151
33964
34130
34106
34135
34029
34140
34103
34130
33898
34079
34127
34109
34121
33996
34122
34114
34114
34010
34079
34132
34099
34111
34121
34079
34124
34087
34114
33921
34079
34118
34089
34111
34071
34113
34103
34100
34065
34118
34109
33943
34082
34117
34095
34098
34094
33990
34084
34087
34076
34097
34098
33876
33988
34079
34104
34087
34087
33957
34065
34082
34085
34088
33911
34045
34100
34084
33876
34036
34077
34050
34080
33933
34053
34079
34083
34065
33994
34071
34077
34071
34005
34095
34071
33937
34047
34049
34065
33980
34071
34068
34047
33934
34028
34063
34036
34047
34062
34028
34053
34055
33881
34028
34054
34052
34034
34007
34066
34036
34048
33980
34042
34029
34034
33859
34012
34041
34020
34023
33989
34023
34023
34029
33919
34031
34023
34015
34015
33951
34027
33997
34015
33892
33999
33999
34015
34020
33871
34017
33985
34023
33812
33996
34014
34019
34020
33986
34005
34018
33799
33970
34027
34020
34005
33959
34020
33991
34019
33913
34014
34010
34017
34007
33964
34009
33991
34021
33815
33955
34037
34012
33795
34007
34005
34021
33932
34011
33991
34013
33847
33992
34015
33993
34012
33799
33946
34001
33991
34015
33866
34002
33975
34007
33830
33994
33989
34013
33877
33996
33979
34002
33959
34005
33991
34005
33859
33987
34029
33979
34010
34007
33961
34023
33989
34007
33815
33959
34004
33975
34015
33806
33978
34019
33980
34003
33932
34017
33975
34022
33859
33999
33983
33999
33897
33991
33991
33990
33970
33972
33997
33871
33994
33972
33994
33919
34007
33990
33988
33882
33990
33965
33986
33916
33991
33973
33982
33989
33941
33999
33962
33983
33799
33934
33993
33971
33980
33929
33982
33985
33807
33943
33984
33974
33855
33995
33974
33845
33969
33969
33956
33907
33973
33969
33967
33839
33935
33983
33951
33954
33843
33951
33935
33958
33759
33927
33940
33959
33844
33961
33935
33951
33882
33958
33941
33935
33842
33927
33916
33937
33935
33877
33943
33927
33940
33701
33883
33934
33916
33927
33754
33905
33922
33911
33687
33855
33916
33900
33841
33903
33895
33831
33911
33880
33896
33732
33887
33870
33887
33734
33889
33871
33883
33852
33883
33887
33773
33863
33843
33876
33868
33870
33735
33839
33835
33855
33703
33854
33855
33855
33799
33851
33835
33828
33783
33854
33821
33831
33665
33807
33820
33821
33781
33828
33812
33615
33765
33822
33793
33799
33764
33799
33796
33789
33685
33782
33775
33775
33783
33658
33777
33754
33770
33711
33751
33764
33638
33751
33734
33751
33647
33748
33729
33742
33586
33717
33738
33735
33732
33670
33740
33710
33719
33614
33711
33710
33524
33683
33711
33695
33580
33703
33700
33703
33646
33703
33685
33684
33662
33672
33679
33601
33695
33660
33663
33631
33679
33671
33524
33654
33641
33667
33583
33664
33655
33637
33605
33651
33641
33463
33628
33645
33631
33631
33511
33639
33606
33625
33551
33633
33612
33615
33575
33597
33609
33461
33586
33591
33595
33459
33582
33575
33595
33407
33531
33589
33607
33583
33582
33463
33569
33551
33587
33415
33543
33571
33567
33428
33556
33543
33567
33375
33511
33567
33543
33562
33503
33559
33543
33534
33460
33524
33527
33535
33350
33500
33551
33533
33340
33479
33537
33519
33521
33423
33503
33526
33511
33342
33500
33493
33498
33388
33500
33484
33511
33452
33523
33498
33409
33507
33484
33500
33396
33487
33479
33490
33351
33476
33474
33488
33423
33473
33479
33388
33477
33477
33476
33420
33487
33470
33465
33446
33461
33287
33455
33470
33309
33448
33456
33268
33455
33439
33457
33277
33420
33443
33457
33404
33469
33453
33287
33438
33444
33447
33327
33431
33415
33447
33423
33439
33445
33350
33446
33439
33263
33421
33421
33439
33340
33443
33435
33255
33429
33421
33259
33432
33423
33428
33435
33425
33433
33373
33436
33415
33435
33399
33422
33421
33327
33415
33407
33428
33389
33439
33415
33420
33263
33399
33409
33411
33318
33412
33406
33412
33383
33415
33409
33221
33391
33404
33405
33245
33373
33421
33409
33287
33415
33404
33413
33287
33367
33421
33401
33399
33300
33415
33403
33403
33375
33395
33412
33367
33399
33410
33236
33273
33391
33403
33407
33343
33411
33388
33407
33220
33359
33388
33415
33398
33405
33224
33358
33406
33421
33406
33407
33287
33404
33382
33415
33243
33410
33405
33411
33388
33396
33411
33308
33407
33407
33407
33206
33367
33423
33407
33226
33375
33405
33407
33406
33319
33399
33396
33407
33333
33407
33399
33396
33348
33411
33406
33415
33287
33414
33390
33415
33415
33317
33389
33423
33395
33423
33410
33349
33436
33413
33423
33322
33399
33431
33398
33415
33423
33364
33413
33420
33404
33421
33257
33369
33420
33399
33443
33281
33359
33412
33431
33431
33420
33428
33420
33319
33439
33410
33413
33242
33391
33439
33414
33427
33255
33379
33444
33439
33437
33308
33399
33423
33430
33435
33435
33388
33445
33437
33455
33301
33383
33446
33447
33439
33444
33372
33443
33415
33441
33436
33429
33431
33447
33443
33405
33423
33471
33442
33449
33451
33364
33457
33447
33455
33405
33463
33458
33455
33343
33432
33468
33454
33454
33339
33439
33474
33452
33453
33463
33404
33469
33447
33460
33236
33429
33452
33468
33463
33432
33480
33461
33463
33335
33444
33474
33471
33300
33444
33487
33478
33468
33423
33479
33467
33476
33415
33495
33478
33478
33482
33383
33453
33487
33477
33486
33286
33463
33494
33478
33487
33399
33476
33461
33495
33495
33452
33484
33493
33484
33437
33469
33483
33325
33495
33476
33490
33382
33511
33492
33503
33449
33501
33489
33499
33452
33507
33492
33502
33453
33509
33490
33306
33415
33489
33471
33507
33319
33468
33500
33478
33501
33495
33412
33519
33503
33503
33453
33511
33501
33499
33457
33509
33511
33397
33515
33510
33368
33511
33495
33504
33490
33523
33508
33510
33387
33517
33515
33516
33371
33405
33411
33422
33511
33515
33521
33469
33538
33512
33527
33511
33525
33535
33488
33510
33532
33415
33527
33541
33543
33541
33515
33527
33543
33539
33500
33559
33543
33383
33532
33550
33365
33543
33540
33556
33502
33537
33557
33543
33567
33419
33573
33575
33524
33567
33355
33553
33553
33566
33434
33578
33574
33409
33572
33575
33567
33543
33557
33573
33423
33571
33559
33591
33519
33603
33594
33444
33589
33567
33602
33548
33591
33599
33487
33591
33605
33402
33577
33599
33582
33598
33374
33573
33604
33578
33609
33495
33607
33575
33601
33428
33572
33618
33592
33621
33515
33610
33615
33385
33568
33620
33602
33623
33475
33615
33603
33607
33527
33633
33629
33479
33607
33602
33620
33434
33606
33594
33625
33564
33636
33626
33461
33635
33623
33622
33589
33637
33634
33396
33597
33594
33628
33415
33571
33635
33613
33631
33447
33594
33636
33645
33482
33635
33628
33471
33636
33627
33414
33628
33605
33629
33473
33635
33616
33622
33574
33607
33631
33467
33629
33630
33463
33614
33617
33627
33601
33611
33626
33469
33620
33615
33623
33557
33625
33606
33620
33501
33621
33599
33626
33559
33599
33621
33541
33622
33610
33623
33479
33591
33594
33599
33620
33476
33604
33592
33607
33561
33577
33615
33537
33583
33605
33461
33605
33599
33386
33603
33574
33596
33463
33578
33567
33590
33583
33516
33580
33587
33581
33540
33573
33577
33484
33573
33575
33495
33591
33575
33383
33543
33540
33565
33559
33550
33567
33535
33543
33543
33532
33553
33557
33517
33534
33543
33473
33539
33543
33423
33557
33543
33397
33538
33535
33455
33537
33517
33297
33504
33485
33533
33338
33495
33492
33515
33351
33500
33487
33515
33397
33511
33508
33501
33372
33491
33468
33495
33381
33484
33485
33487
33436
33492
33487
33258
33474
33481
33271
33463
33453
33478
33428
33463
33477
33396
33460
33479
33439
33455
33463
33397
33479
33462
33460
33414
33463
33455
33319
33453
33463
33259
33441
33428
33439
33415
33415
33447
33387
33459
33428
33439
33370
33441
33435
33436
33399
33447
33437
33254
33423
33422
33436
33383
33428
33425
33415
33375
33431
33415
33423
33308
33413
33397
33407
33303
33405
33407
33399
33311
33407
33383
33399
33399
33262
33375
33386
33389
33380
33341
33391
33367
33383
33189
33331
33381
33367
33383
33379
33231
33344
33351
33391
33348
33380
33374
33279
33362
33342
33359
33199
33347
33349
33351
33251
33372
33347
33353
33159
33334
33329
33357
33222
33357
33351
33346
33284
33351
33319
33342
33296
33353
33340
33346
33274
33348
33349
33324
33322
33303
33340
33095
33287
33316
33335
33332
33297
33303
33319
33186
33279
33335
33303
33323
33139
33285
33332
33287
33303
33104
33319
33310
33324
33095
33286
33301
33319
33134
33280
33287
33311
33177
33287
33287
33305
33159
33308
33287
33300
33143
33279
33318
33281
33302
33097
33091
33159
33202
33214
33247
33301
33287
33284
33159
33259
33301
33287
33279
33182
33279
33260
33287
33277
33186
33255
33275
33278
33095
33287
33276
33071
33253
33254
33279
33247
33255
33277
33196
33281
33261
33054
33250
33260
33026
33255
33260
33090
33255
33237
33271
33196
33275
33262
33087
33247
33238
33255
33227
33245
33074
33263
33262
33191
33268
33256
33073
33249
33242
33253
33228
33237
33002
33241
33230
33246
33252
33255
33253
33243
33225
33247
33244
33187
33158
33103
33245
33242
33237
33252
33054
33187
33233
33241
33245
33248
33241
33213
33231
33241
33239
32975
33102
33191
33188
33207
33223
33254
33239
33242
33230
33242
33246
33246
33210
33214
33201
33231
33237
33233
33060
33125
33182
33210
33247
33246
33211
33223
33239
33238
33223
33052
33151
33199
33228
33231
33231
33191
33189
33195
33195
33223
33223
33239
33228
33111
33191
33198
33217
33231
33183
33205
33210
33224
33043
33151
33183
33215
33231
33178
33221
33235
33225
33231
33230
33212
33191
33206
33207
33216
33219
33225
33229
33220
33223
33221
32957
33015
33151
33203
33223
33197
33199
33199
33215
33215
33221
32988
33062
33082
33141
33188
33220
33228
33180
33191
33222
33218
33212
33057
33151
33202
33214
33191
33207
33221
33210
33047
33109
33197
33223
33196
33215
33217
33216
32987
33219
32975
33111
33082
33047
33045
33118
33135
33167
33213
33182
33198
33223
33221
33212
33203
32956
33081
33137
33191
33214
33223
33179
33173
33169
33172
33218
33215
33213
33215
33209
32948
33101
33159
33203
33207
33229
33239
33231
33190
33172
33211
33221
33215
32935
33036
33103
33175
33200
33206
33228
33173
33215
33219
33222
32977
32988
33071
33100
33087
33175
33182
33199
33217
33231
33197
33172
33179
33201
33221
33220
33215
33218
33212
33231
33223
33223
33212
33212
32934
32969
33005
33111
33095
33140
33159
33167
33177
33204
33214
33208
33214
33186
33199
33214
33212
33223
33210
33214
33212
33209
32932
32967
33098
33146
33179
33190
33210
33204
33221
33174
33204
33197
33204
33197
33215
32915
33013
33057
33120
33174
33195
33204
33187
33210
33212
32974
33083
33126
33167
33219
33185
33204
33209
33202
32996
33147
33199
33226
33231
33197
33218
33223
32922
33047
33159
33196
33222
33175
33207
33223
33223
33236
33009
33135
33205
33231
33231
33219
33191
33226
33236
33230
33222
33021
33051
33159
33199
33219
33217
33231
33233
33201
33190
33218
33222
33233
33239
33226
33247
33231
33241
33236
33243
32976
33045
33158
33185
33223
33199
33215
33244
33250
33209
33255
33239
33244
32958
33037
33115
33212
33237
33223
33252
33257
33255
33255
33209
33215
33245
33244
33245
33250
33260
33251
33241
33060
33179
33215
33255
33269
33205
33211
33242
33260
32988
33159
33210
33255
33207
33255
33260
33253
32983
33183
33199
33236
33236
33250
33249
33258
33255
33197
33260
33249
33031
33135
33238
33249
33218
33255
33254
32950
33116
33199
33255
33255
33255
33222
33196
33212
33245
33248
33255
33237
33255
33255
33255
33244
32958
33069
33185
33231
33250
33215
33239
33253
33244
33255
32996
33188
33257
33230
33244
33247
33239
32940
33087
33205
33215
33205
33242
33238
33251
33260
33191
33191
33221
33240
33245
33237
32912
32999
33144
33207
33236
33248
33191
33229
33241
33231
33092
33186
33221
33228
33239
33228
33236
33189
33191
33207
33219
33222
33223
33063
33164
33205
33223
33157
33207
33220
33218
32949
33135
33195
33209
33189
33191
33204
33199
33204
32975
33095
33140
33159
33203
33126
33175
33198
33193
32956
33019
33091
33101
33129
33159
33158
33151
33091
33077
33110
33119
33099
33131
33127
33133
33127
33143
33169
33171
33159
33165
33159
33157
33166
33167
33159
33149
33134
33102
33079
33067
33102
33086
33079
33061
33075
33108
33119
33122
33127
33077
33068
33066
33094
33103
33075
33056
33067
33103
33110
33103
33109
33108
33096
33104
33095
33095
33101
32775
32801
32805
32871
32999
33014
33031
33071
33101
33089
33031
33031
33071
33088
33082
33079
33074
33079
33063
33071
33072
33079
33071
33068
33071
33075
33063
33063
33063
33054
32751
32892
32932
32977
32962
32948
32963
32957
32935
32966
33021
33023
33028
33031
33045
33053
33055
33054
32984
33039
33029
33044
32943
32729
33028
33021
33021
33025
33022
32748
32813
32876
32892
32986
32977
32987
33031
33012
33027
33013
33012
32996
32988
32991
33019
33018
32961
32996
33007
33013
32998
33009
33007
33005
32999
32701
33004
32992
33007
33001
32994
32775
32727
32731
32719
32743
32725
32860
32898
32948
32959
32951
32968
32991
32988
32993
32999
32953
32939
32967
32988
32887
32982
32951
32987
32806
32983
32935
32970
32971
32849
32959
32938
32967
32671
32919
32983
32959
32967
32721
32919
32971
32973
32679
32922
32959
32970
32869
32976
32951
32969
32895
32965
32950
32710
32951
32903
32959
32744
32949
32924
32943
32815
32925
32951
32950
32950
32836
32951
32916
32959
32951
32799
32871
32918
32964
32904
32952
32949
32660
32879
32921
32932
32944
32949
32884
32951
32911
32940
32751
32930
32908
32941
32773
32933
32898
32943
32810
32926
32911
32943
32730
32903
32911
32935
32775
32925
32909
32932
32799
32943
32908
32941
32869
32954
32941
32934
32895
32893
32939
32799
32931
32911
32931
32812
32943
32935
32933
32791
32918
32901
32934
32924
32829
32931
32903
32935
32759
32879
32945
32931
32927
32879
32917
32927
32889
32932
32943
32772
32887
32935
32909
32925
32921
32863
32921
32879
32937
32925
32807
32910
32935
32894
32933
32647
32881
32943
32903
32923
32935
32855
32927
32903
32935
32841
32943
32929
32935
32884
32943
32935
32681
32903
32897
32942
32863
32957
32927
32935
32861
32932
32935
32931
32775
32903
32940
32901
32931
32812
32916
32943
32930
32930
32838
32949
32922
32723
32867
32943
32935
32674
32913
32902
32935
32855
32940
32919
32938
32903
32903
32660
32908
32903
32932
32807
32935
32937
32930
32885
32916
32934
32820
32935
32916
32929
32887
32919
32938
32937
32935
32817
32931
32931
32730
32943
32923
32945
32885
32903
32927
32903
32909
32938
32868
32951
32948
32847
32959
32935
32815
32951
32951
32796
32951
32953
32854
32949
32941
32878
32927
32946
32818
32959
32921
32947
32908
32919
32947
32756
32943
32930
32955
32847
32962
32956
32876
32914
32948
32947
32948
32750
32947
32948
32759
32964
32953
32775
32943
32931
32951
32923
32943
32949
32759
32950
32937
32959
32863
32972
32949
32959
32831
32945
32927
32949
32711
32839
32947
32966
32950
32967
32743
32925
32988
32950
32724
32934
32947
32970
32959
32863
32959
32935
32983
32917
32980
32959
32967
32725
32908
32973
32952
32987
32746
32935
32965
32975
32746
32943
32987
32979
32716
32922
32986
32951
32969
32751
32919
32973
32941
32980
32837
32959
32969
32968
32967
32823
32945
32971
32973
32831
32902
32970
32957
32959
32972
32830
32938
32974
32972
32971
32876
32977
32949
32970
32975
32867
32967
32930
32975
32879
32983
32956
32971
32837
32959
32988
32991
32986
32989
32902
32972
32993
32981
32988
32876
32969
33013
32983
33005
32802
32955
33007
32982
33007
32765
32937
32999
32974
33012
33002
32914
32991
33015
32988
33022
32830
32991
33015
33005
33018
32967
33023
33007
32758
32989
33004
33036
32875
33020
33002
33030
32869
33017
32985
33026
32881
33041
33015
32791
32980
33043
33041
32923
33049
33031
32958
33020
33030
32947
33013
33025
32959
32998
33039
32982
33023
33044
32916
33063
33045
32990
33012
33031
33031
33042
32884
33058
33047
33047
33047
32815
33031
33041
32869
33029
33020
33046
32996
33031
33037
32998
33017
33045
33012
33022
33043
33027
33046
33049
33024
33031
33051
33047
32975
33063
33052
32965
33063
33050
32836
33013
33031
33057
33054
33007
33065
33055
33049
33014
33029
33053
32840
33031
33041
33060
32887
33070
33059
32959
33031
33055
33001
33019
33059
32879
33013
33059
33038
33044
33018
33015
33059
33028
33041
32811
33039
33044
32925
33059
33031
32836
33031
33047
32807
33031
33007
33047
32964
33051
33035
32941
33052
33031
32981
33046
33050
32983
33017
33031
32999
32999
33027
32937
33039
33038
32947
33031
33022
32853
32975
33028
33018
33017
32977
33021
33019
33024
32957
33028
33005
32823
32958
33021
32986
33013
32914
33021
32998
32764
32974
32969
32998
32879
32997
32988
32983
32927
32969
32996
32935
32959
32981
32966
32951
32990
32875
32985
32978
32980
32932
32933
32975
32887
32967
32962
32962
32928
32949
32948
32754
32941
32935
32943
32876
32948
32944
32759
32943
32943
32937
32877
32958
32928
32922
32876
32903
32916
32702
32867
32924
32903
32911
32731
32877
32920
32901
32900
32852
32919
32899
32687
32865
32876
32892
32866
32871
32887
32839
32884
32877
32705
32871
32851
32878
32785
32887
32875
32651
32857
32844
32871
32719
32875
32857
32863
32807
32876
32859
32855
32791
32860
32844
32839
32679
32814
32820
32839
32827
32796
32847
32825
32830
32791
32817
32839
32724
32839
32822
32823
32719
32807
32791
32819
32711
32820
32818
32821
32749
32823
32815
32809
32735
32784
32782
32802
32571
32700
32796
32788
32794
32727
32801
32787
32792
32711
32802
32775
32775
32714
32775
32772
32775
32773
32602
32727
32775
32741
32775
32551
32728
32775
32742
32762
32554
32735
32748
32756
32660
32759
32751
32554
32743
32747
32552
32716
32735
32751
32646
32748
32740
32540
32727
32727
32732
32621
32716
32703
32739
32740
32639
32724
32703
32723
32511
32666
32735
32703
32719
32519
32679
32740
32716
32503
32716
32708
32719
32687
32693
32701
32627
32727
32700
32516
32683
32700
32707
32697
32679
32682
32702
32615
32695
32694
32503
32663
32676
32693
32503
32674
32671
32679
32611
32695
32675
32676
32613
32677
32668
32676
32547
32647
32654
32689
32487
32624
32686
32659
32663
32669
32557
32663
32647
32673
32519
32647
32653
32669
32458
32635
32645
32660
32557
32647
32647
32655
32598
32647
32657
32460
32638
32643
32652
32463
32628
32639
32655
32549
32651
32642
32460
32611
32636
32637
32588
32647
32636
32631
32591
32604
32645
32574
32653
32633
32467
32630
32623
32637
32556
32641
32626
32444
32623
32621
32627
32507
32613
32603
32615
32471
32583
32607
32621
32619
32518
32609
32623
32601
32615
32479
32598
32591
32615
32461
32605
32599
32607
32469
32594
32602
32613
32515
32604
32607
32447
32590
32596
32599
32590
32596
32599
32491
32589
32599
32418
32597
32587
32588
32546
32612
32583
32586
32532
32583
32582
32591
32427
32565
32590
32591
32597
32566
32564
32595
32583
32519
32580
32560
32581
32591
32452
32575
32571
32583
32458
32565
32585
32579
32583
32452
32564
32570
32582
32399
32531
32589
32578
32582
32518
32583
32581
32580
32519
32582
32571
32410
32559
32567
32397
32559
32560
32572
32453
32577
32575
32574
32495
32583
32563
32571
32540
32567
32565
32445
32549
32550
32562
32548
32559
32575
32557
32559
32559
32519
32559
32551
32565
32535
32551
32559
32404
32519
32559
32564
32555
32517
32565
32550
32423
32535
32546
32564
32444
32543
32527
32555
32407
32540
32564
32545
32431
32551
32543
32548
32541
32536
32375
32532
32551
32449
32553
32547
32420
32558
32554
32538
32530
32551
32543
32511
32529
32548
32487
32558
32548
32455
32554
32551
32495
32538
32537
32467
32533
32548
32489
32551
32528
32429
32557
32543
32495
32519
32549
32518
32540
32330
32519
32540
32532
32507
32519
32539
32503
32521
32533
32490
32540
32532
32457
32532
32530
32462
32530
32529
32439
32535
32514
32519
32460
32519
32507
32519
32439
32509
32519
32515
32487
32499
32503
32351
32494
32495
32508
32421
32519
32514
32506
32442
32513
32494
32356
32499
32509
32373
32477
32488
32495
32335
32487
32510
32510
32451
32500
32503
32505
32447
32493
32502
32410
32517
32495
32362
32478
32476
32500
32349
32508
32488
32498
32449
32500
32506
32382
32506
32493
32295
32474
32483
32503
32412
32482
32515
32487
32487
32342
32461
32503
32495
32491
32439
32505
32495
32495
32423
32503
32503
32500
32438
32506
32493
32379
32496
32491
32500
32447
32497
32501
32388
32487
32493
32497
32495
32495
32318
32465
32483
32489
32383
32500
32487
32491
32477
32494
32354
32492
32495
32495
32475
32486
32485
32438
32491
32469
32498
32399
32502
32484
32383
32498
32489
32334
32463
32474
32482
32423
32494
32487
32365
32473
32469
32327
32477
32470
32477
32453
32463
32466
32433
32450
32473
32391
32477
32465
32482
32318
32455
32453
32473
32361
32482
32475
32300
32457
32463
32453
32450
32448
32255
32444
32459
32287
32435
32447
32447
32423
32439
32452
32450
32447
32358
32455
32452
32436
32447
32327
32454
32447
32361
32461
32446
32359
32447
32438
32391
32428
32438
32397
32414
32439
32407
32413
32426
32391
32399
32423
32381
32406
32404
32367
32412
32412
32293
32399
32406
32253
32399
32396
32407
32364
32384
32399
32365
32379
32397
32369
32375
32202
32377
32379
32379
32367
32373
32199
32378
32367
32372
32361
32292
32364
32359
32263
32364
32356
32228
32346
32348
32218
32353
32347
32337
32324
32335
32159
32327
32307
32324
32246
32326
32326
32231
32315
32319
32148
32263
32286
32297
32159
32282
32282
32295
32156
32281
32274
32116
32246
32276
32263
32137
32247
32254
32257
32126
32239
32236
32245
32213
32245
32235
32227
32238
32068
32214
32237
32114
32235
32215
32135
32226
32212
32115
32213
32212
32148
32183
32193
32186
32195
32063
32191
32186
32156
32167
32169
32167
32167
32079
32159
32159
32143
32159
32110
32135
32159
32073
32143
32135
32039
32146
32126
32113
32124
32122
32123
32125
32111
32111
32039
32111
32110
31987
32103
32101
31931
32058
32071
32089
32007
32087
32070
32069
32006
32076
32071
32021
32079
32070
31983
32071
32050
32018
32063
32050
31991
32037
32039
31959
32035
32035
31909
32021
32016
32039
31974
32021
32015
31981
31992
32013
31979
31991
31998
31967
31986
31992
31983
31983
31884
31978
31984
31980
31919
31982
31970
31975
31942
31958
31964
31964
31969
31895
31959
31959
31906
31971
31951
31910
31943
31948
31940
31947
31788
31933
31924
31921
31905
31923
31927
31889
31924
31911
31900
31846
31903
31914
31905
31906
31889
31898
31898
31836
31910
31898
31787
31887
31879
31879
31847
31895
31879
31790
31879
31870
31706
31861
31860
31863
31834
31848
31697
31852
31869
31751
31844
31835
31833
31839
31859
31695
31821
31833
31843
31738
31847
31831
31735
31818
31826
31823
31751
31835
31832
31819
31801
31807
31817
31738
31799
31813
31774
31803
31821
31743
31792
31815
31796
31679
31787
31786
31791
31735
31805
31777
31750
31775
31779
31714
31778
31775
31732
31751
31764
31759
31718
31751
31751
31759
31733
31741
31750
31737
31751
31684
31759
31751
31706
31735
31733
31716
31731
31731
31657
31743
31724
31732
31647
31693
31739
31724
31598
31709
31730
31612
31719
31707
31709
31684
31709
31711
31630
31708
31700
31695
31669
31694
31702
31628
31708
31700
31591
31695
31684
31549
31676
31684
31688
31668
31687
31684
31653
31691
31679
31591
31676
31666
31676
31539
31652
31655
31663
31613
31661
31654
31615
31675
31660
31595
31660
31644
31654
31639
31641
31650
31597
31639
31638
31638
31634
31635
31491
31620
31633
31633
31612
31645
31639
31551
31622
31621
31631
31615
31615
31634
31618
31623
31622
31551
31623
31623
31550
31622
31623
31618
31591
31600
31623
31588
31606
31599
31587
31607
31599
31591
31606
31606
31591
31603
31591
31551
31593
31604
31546
31597
31591
31535
31600
31594
31525
31599
31596
31484
31575
31585
31589
31518
31591
31582
31471
31567
31585
31571
31583
31559
31572
31567
31506
31588
31566
31567
31492
31563
31565
31558
31535
31578
31559
31565
31527
31571
31562
31511
31551
31559
31566
31478
31551
31561
31559
31491
31537
31551
31556
31543
31505
31562
31551
31543
31479
31540
31559
31541
31535
31543
31412
31537
31546
31427
31534
31535
31532
31414
31527
31546
31527
31534
31503
31535
31519
31404
31515
31527
31516
31465
31539
31523
31445
31524
31516
31524
31447
31513
31521
31511
31489
31517
31509
31429
31509
31516
31519
31519
31446
31517
31519
31511
31516
31519
31508
31451
31519
31508
31503
31495
31425
31495
31513
31510
31513
31352
31468
31519
31495
31501
31359
31485
31513
31505
31422
31502
31498
31364
31487
31493
31484
31470
31488
31495
31430
31494
31487
31487
31455
31492
31493
31452
31492
31486
31391
31484
31477
31475
31467
31479
31486
31374
31463
31476
31459
31408
31483
31467
31463
31439
31477
31473
31473
31437
31463
31469
31432
31466
31457
31453
31463
31461
31403
31471
31463
31396
31471
31471
31463
31431
31477
31463
31334
31441
31468
31460
31361
31461
31463
31461
31453
31455
31383
31469
31463
31428
31463
31475
31428
31477
31463
31390
31481
31461
31393
31475
31471
31462
31450
31462
31474
31473
31469
31463
31324
31440
31478
31475
31468
31439
31476
31472
31468
31407
31479
31463
31377
31455
31458
31471
31447
31458
31471
31424
31479
31463
31373
31455
31463
31467
31427
31471
31463
31463
31438
31463
31477
31397
31463
31471
31460
31413
31470
31469
31399
31468
31463
31463
31455
31452
31463
31446
31471
31461
31334
31438
31460
31462
31393
31455
31463
31454
31425
31476
31457
31452
31442
31457
31460
31438
31445
31454
31437
31456
31447
31334
31363
31396
31423
31430
31458
31453
31343
31445
31443
31447
31396
31452
31451
31335
31430
31442
31439
31426
31453
31439
31367
31447
31430
31383
31425
31436
31431
31399
31439
31438
31433
31402
31443
31431
31426
31335
31405
31437
31430
31415
31366
31425
31407
31415
31326
31383
31434
31412
31413
31399
31365
31419
31399
31332
31397
31407
31404
31322
31415
31390
31401
31336
31403
31397
31401
31399
31311
31379
31381
31377
31375
31357
31386
31376
31375
31298
31369
31367
31375
31239
31338
31364
31362
31329
31366
31353
31276
31351
31349
31290
31351
31354
31252
31317
31343
31335
31270
31330
31330
31326
31307
31324
31327
31323
31286
31325
31316
31249
31300
31303
31303
31229
31300
31294
31281
31173
31252
31284
31265
31279
31205
31270
31262
31274
31270
31267
31191
31252
31267
31252
31239
31204
31253
31228
31239
31172
31231
31223
31229
31209
31223
31223
31171
31211
31207
31215
31119
31191
31207
31196
31201
31205
31127
31195
31189
31140
31181
31183
31135
31171
31175
31127
31157
31159
31165
31165
31158
31090
31159
31156
31100
31157
31140
31077
31148
31135
31095
31135
31135
31079
31132
31135
31071
31118
31121
31108
31095
31119
31111
31111
31059
31099
31093
31099
31077
31087
31084
31062
31077
31075
30982
31066
31076
31067
31063
31061
31059
31063
31062
31053
31044
31061
31055
31025
31069
31050
30983
31047
31046
30962
31030
31041
31036
31012
31018
31023
30953
31028
31017
31021
30990
31011
31012
30935
30996
31004
31005
30938
30990
30991
30999
30999
30961
30991
30993
30871
30971
30991
30970
30973
30903
30967
30977
30975
30965
30954
30964
30965
30964
30951
30956
30955
30907
30956
30951
30951
30921
30948
30938
30926
30951
30944
30927
30906
30950
30935
30945
30923
30939
30811
30917
30916
30931
30822
30901
30915
30916
30855
30916
30903
30919
30815
30886
30909
30911
30897
30853
30908
30906
30901
30892
30827
30871
30911
30901
30885
30827
30890
30887
30884
30868
30878
30876
30739
30855
30887
30871
30886
30831
30866
30877
30797
30855
30855
30877
30801
30870
30856
30863
30826
30851
30847
30855
30797
30853
30841
30727
30831
30847
30847
30750
30831
30851
30850
30836
30801
30839
30837
30839
30771
30829
30839
30837
30769
30828
30831
30822
30745
30827
30823
30823
30783
30828
30821
30828
30797
30806
30811
30759
30819
30817
30788
30823
30807
30753
30818
30791
30813
30725
30794
30809
30800
30795
30751
30807
30794
30805
30793
30703
30759
30799
30782
30799
30791
30764
30797
30790
30693
30772
30784
30788
30692
30760
30797
30779
30785
30725
30790
30780
30773
30734
30780
30791
30687
30772
30774
30769
30761
30772
30772
30761
30764
30775
30752
30771
30635
30771
30771
30633
30751
30761
30762
30675
30735
30764
30765
30676
30763
30758
30769
30711
30755
30751
30757
30660
30748
30759
30764
30739
30777
30767
30754
30736
30743
30767
30634
30709
30758
30757
30637
30735
30762
30754
30691
30755
30758
30743
30686
30758
30756
30745
30701
30759
30743
30591
30740
30727
30743
30693
30746
30743
30747
30695
30740
30727
30743
30735
30630
30703
30743
30735
30745
30659
30719
30751
30742
30631
30747
30735
30572
30713
30727
30743
30675
30745
30746
30740
30691
30750
30740
30727
30691
30739
30725
30630
30723
30735
30727
30679
30749
30742
30621
30719
30723
30599
30727
30727
30727
30678
30741
30727
30598
30722
30715
30727
30663
30726
30717
30727
30604
30711
30719
30727
30646
30726
30713
30597
30721
30725
30719
30691
30727
30722
30636
30719
30717
30723
30677
30713
30716
30722
30723
30699
30724
30727
30617
30717
30716
30725
30725
30687
30727
30722
30719
30724
30639
30695
30716
30714
30583
30695
30724
30724
30721
30644
30725
30703
30724
30599
30703
30735
30715
30568
30666
30703
30709
30712
30631
30727
30719
30726
30631
30709
30718
30712
30725
30683
30725
30714
30717
30622
30708
30727
30722
30711
30646
30724
30711
30723
30599
30697
30710
30719
30677
30727
30715
30719
30676
30720
30717
30706
30681
30715
30719
30713
30703
30703
30636
30702
30695
30711
30591
30693
30699
30702
30702
30567
30676
30713
30703
30697
30657
30691
30695
30693
30549
30660
30710
30715
30692
30573
30647
30694
30694
30521
30650
30692
30687
30703
30699
30573
30662
30693
30691
30695
30695
30657
30701
30696
30703
30661
30708
30707
30701
30589
30679
30692
30703
30705
30663
30710
30711
30703
30563
30680
30716
30719
30709
30638
30692
30724
30702
30718
30667
30717
30701
30723
30591
30676
30709
30708
30711
30599
30692
30725
30719
30719
30719
30557
30663
30727
30712
30727
30567
30687
30711
30719
30603
30711
30726
30727
30583
30703
30743
30727
30593
30684
30738
30723
30726
30588
30656
30703
30717
30743
30727
30699
30727
30720
30725
30666
30735
30724
30739
30655
30740
30727
30727
30693
30751
30727
30736
30634
30727
30725
30743
30735
30695
30743
30724
30549
30711
30747
30559
30727
30740
30737
30713
30740
30733
30746
30683
30751
30744
30628
30740
30745
30576
30689
30749
30731
30605
30742
30727
30727
30587
30723
30727
30588
30739
30735
30572
30711
30742
30727
30568
30713
30734
30727
30734
30727
30695
30740
30727
30743
30679
30744
30727
30725
30669
30727
30724
30727
30620
30720
30724
30727
30631
30709
30716
30726
30641
30715
30709
30712
30719
30566
30676
30725
30705
30723
30717
30671
30724
30708
30707
30627
30724
30716
30706
30573
30659
30702
30697
30715
30704
30602
30666
30698
30701
30711
30701
30583
30684
30713
30689
30698
30680
30566
30636
30695
30669
30681
30682
30535
30636
30682
30670
30671
30597
30663
30678
30663
30664
30572
30641
30671
30647
30666
30490
30605
30655
30642
30659
30524
30629
30653
30631
30641
30528
30614
30621
30645
30558
30626
30625
30628
30626
30628
30490
30510
30596
30631
30623
30604
30463
30557
30611
30606
30611
30599
30567
30604
30607
30583
30597
30570
30583
30575
30580
30581
30517
30564
30566
30588
30508
30580
30564
30567
30440
30559
30548
30553
30451
30540
30559
30561
30550
30492
30540
30557
30536
30549
30550
30541
30449
30518
30543
30531
30535
30529
30492
30538
30521
30522
30514
30459
30521
30508
30514
30367
30511
30509
30383
30495
30508
30495
30467
30503
30487
30399
30503
30493
30491
30455
30485
30484
30479
30458
30489
30484
30471
30405
30471
30471
30481
30415
30460
30471
30487
30471
30385
30443
30476
30459
30456
30460
30406
30463
30447
30444
30321
30414
30455
30439
30450
30355
30438
30424
30439
30436
30388
30447
30425
30433
30430
30300
30391
30433
30431
30330
30422
30418
30424
30314
30405
30428
30415
30415
30356
30425
30409
30407
30357
30415
30406
30404
30373
30421
30409
30402
30367
30407
30395
30398
30309
30384
30401
30403
30395
30380
30399
30396
30384
30362
30393
30398
30312
30389
30383
30382
30287
30388
30388
30271
30372
30382
30375
30349
30383
30374
30283
30387
30366
30374
30319
30387
30358
30376
30282
30351
30362
30371
30311
30379
30367
30191
30342
30375
30367
30359
30324
30367
30364
30359
30319
30372
30360
30359
30327
30356
30343
30357
30328
30346
30348
30251
30348
30356
30351
30298
30370
30350
30196
30342
30352
30353
30309
30343
30343
30319
30337
30343
30327
30340
30341
30282
30366
30341
30279
30353
30339
30343
30284
30348
30344
30303
30359
30340
30343
30318
30359
30349
30183
30333
30335
30342
30269
30343
30335
30343
30274
30337
30339
30327
30335
30299
30349
30343
30247
30335
30337
30335
30258
30327
30327
30343
30333
30322
30339
30340
30341
30212
30315
30357
30335
30343
30291
30335
30343
30269
30340
30327
30333
30335
30287
30353
30338
30215
30332
30336
30343
30329
30339
30335
30279
30354
30332
30283
30348
30341
30341
30303
30334
30343
30271
30350
30346
30343
30302
30343
30343
30215
30332
30338
30343
30319
30338
30348
30210
30333
30343
30353
30250
30343
30342
30359
30309
30363
30351
30348
30335
30361
30366
30214
30330
30371
30358
30201
30303
30359
30361
30347
30319
30354
30359
30255
30350
30348
30366
30307
30354
30372
30365
30362
30299
30358
30359
30356
30215
30337
30375
30366
30366
30322
30374
30375
30364
30252
30335
30373
