EGG
30551
30613
30502
30562
30481
30562
30436
30516
30459
30511
30319
30489
30471
30466
30436
30418
30429
30379
30396
30255
30329
30191
30309
30067
30284
30162
30249
30184
30274
30126
30242
30129
30210
30136
30195
30100
30169
30104
30138
30109
30122
30098
30087
30079
30063
30074
29799
30012
30019
30031
29990
29959
29959
29888
29946
29853
29915
29775
29861
29715
29831
29651
29861
29823
29828
29808
29757
29782
29703
29753
29695
29735
29677
29699
29636
29675
29583
29639
29555
29620
29495
29599
29484
29567
29413
29552
29431
29529
29413
29508
29487
29490
29479
29413
29441
29335
29415
29292
29379
29241
29371
29313
29351
29355
29332
29329
29317
29282
29284
29223
29275
29247
29240
29225
29223
29188
29187
29148
29166
29084
29148
28965
29129
29108
29124
29085
29051
29071
28995
29041
28798
29029
29017
28978
28987
28943
28964
28911
28935
28932
28916
28860
28891
28839
28875
28749
28839
28666
28831
28606
28814
28791
28781
28769
28744
28754
28630
28721
28587
28695
28511
28679
28461
28679
28423
28628
28430
28597
28407
28614
28588
28583
28566
28519
28543
28467
28514
28327
28487
28319
28479
28285
28475
28281
28423
28359
28415
28358
28395
28298
28361
28215
28371
28332
28332
28324
28315
28295
28276
28269
28241
28242
28230
28229
28224
28203
28198
28183
28191
28167
28164
28140
28150
27930
28101
28106
28079
28071
28072
28059
28063
28032
28024
28018
28022
27821
28009
27975
27976
27954
27959
27751
27930
27751
27885
27771
27879
27738
27847
27850
27755
27828
27809
27807
27703
27801
27783
27783
27594
27758
27748
27748
27711
27687
27693
27630
27681
27555
27638
27500
27623
27628
27619
27551
27613
27586
27588
27572
27552
27551
27509
27524
27361
27527
27511
27494
27489
27452
27463
27393
27446
27357
27420
27271
27426
27399
27372
27380
27332
27345
27343
27351
27320
27309
27303
27279
27283
27260
27268
27200
27231
27198
27229
27214
27207
27202
27189
27190
27026
27170
27138
27149
27117
27138
27095
27100
27082
27074
27059
27063
27046
27038
27028
26990
27004
26959
26993
26921
26952
26841
26936
26931
26931
26925
26839
26893
26882
26874
26871
26842
26839
26762
26831
26815
26813
26799
26793
26781
26725
26757
26750
26754
26740
26716
26717
26692
26699
26653
26674
26593
26663
26567
26631
26503
26631
26619
26601
26591
26573
26573
26530
26551
26546
26537
26533
26515
26511
26439
26489
26484
26477
26462
26463
26445
26437
26394
26408
26349
26398
26265
26391
26364
26367
26360
26349
26342
26295
26310
26284
26303
26199
26295
26274
26269
26257
26215
26237
26098
26230
26209
26134
26199
26190
26190
26158
26131
26146
26044
26129
26119
26129
26100
26095
26074
26076
26076
26071
26039
26046
26037
26017
26016
25978
25997
25919
25978
25916
25960
25924
25938
25901
25933
25887
25914
25879
25892
25834
25872
25800
25845
25769
25831
25823
25831
25823
25821
25795
25799
25776
25767
25756
25727
25743
25731
25716
25720
25701
25693
25689
25581
25666
25535
25655
25484
25647
25477
25617
25607
25615
25595
25569
25578
25560
25559
25564
25543
25543
25525
25522
25505
25524
25479
25487
25289
25474
25450
25444
25424
25431
25428
25356
25395
25303
25378
25335
25366
25322
25348
25289
25327
25210
25311
25311
25285
25285
25191
25255
25268
25253
25065
25233
25227
25033
25194
25207
25199
25092
25155
24980
25171
25147
25157
25137
25125
25114
25044
25082
24927
25093
25060
25057
25059
24949
25019
24831
25017
25007
24876
25003
24979
24961
24967
24868
24945
24732
24935
24922
24893
24903
24822
24871
24694
24884
24859
24799
24829
24671
24823
24807
24811
24797
24767
24767
24775
24751
24711
24735
24604
24711
24716
24718
24703
24703
24470
24687
24659
24668
24654
24643
24623
24628
24415
24611
24591
24590
24566
24564
24548
24485
24533
24362
24506
24356
24490
24287
24503
24478
24481
24255
24453
24281
24413
24241
24423
24407
24347
24383
24383
24361
24351
24308
24338
24235
24327
24108
24322
24301
24288
24281
24271
24271
24262
24250
24243
24233
24213
24209
24071
24191
24055
24171
24103
24153
24035
24137
23927
24126
24119
23947
24121
24097
24059
24065
23875
24084
24050
24023
24030
23874
24037
24005
23987
23992
23932
23975
23965
23967
23953
23909
23941
23791
23939
23923
23854
23884
23702
23898
23876
23827
23846
23659
23847
23838
23837
23812
23686
23818
23794
23751
23775
23559
23772
23742
23585
23750
23722
23591
23719
23703
23667
23676
23532
23676
23663
23652
23645
23637
23637
23591
23609
23462
23575
23415
23569
23578
23589
23559
23544
23543
23486
23513
23328
23527
23511
23391
23511
23489
23428
23451
23458
23465
23456
23443
23439
23423
23412
23370
23398
23283
23362
23189
23383
23372
23333
23335
23166
23319
23322
23301
23295
23100
23301
23285
23233
23263
23060
23268
23249
23146
23216
23225
23182
23200
22985
23212
23188
23141
23174
23038
23175
23145
23047
23119
22901
23142
23119
23109
23105
23033
23070
23016
23077
23027
23045
23001
23038
22911
23010
23027
22982
22990
22868
23002
22983
22960
22959
22752
22974
22948
22895
22925
22749
22930
22910
22841
22887
22893
22897
22863
22755
22857
22861
22852
22839
22742
22810
22601
22836
22804
22741
22787
22663
22758
22775
22763
22759
22718
22737
22602
22734
22732
22720
22716
22581
22686
22698
22629
22657
22671
22604
22643
22655
22591
22624
22632
22649
22613
22577
22603
22404
22594
22588
22479
22560
22565
22506
22569
22540
22480
22523
22537
22455
22506
22271
22495
22492
22391
22496
22476
22374
22439
22239
22447
22439
22439
22422
22382
22407
22259
22386
22182
22399
22382
22373
22375
22344
22356
22338
22345
22333
22325
22310
22319
22333
22316
22316
22303
22311
22281
22266
22275
22159
22244
22047
22260
22242
22123
22247
22228
22202
22214
22162
22204
22189
22197
22183
22096
22163
21989
22173
22151
22096
22123
21977
22141
22119
22090
22112
21969
22087
21906
22097
21883
22093
22080
22046
22047
21936
22038
22050
21902
22009
22036
22018
22019
21908
22017
22004
22007
21789
21954
21971
21831
21966
21973
21973
21959
21911
21947
21832
21916
21927
21929
21916
21843
21887
21794
21889
21892
21708
21900
21870
21809
21844
21863
21812
21830
21705
21830
21835
21812
21817
21766
21797
21607
21807
21802
21760
21779
21567
21783
21767
21670
21783
21751
21716
21739
21631
21713
21511
21712
21543
21700
21543
21734
21707
21675
21692
21551
21685
21661
21551
21656
21458
21674
21653
21632
21642
21615
21622
21482
21643
21638
21603
21596
21383
21611
21602
21465
21590
21589
21599
21583
21533
21564
21412
21550
21334
21537
21543
21551
21538
21518
21525
21519
21526
21489
21501
21485
21491
21325
21496
21489
21495
21482
21453
21455
21225
21459
21450
21259
21470
21439
21374
21406
21439
21411
21411
21232
21421
21404
21344
21391
21255
21398
21386
21379
21380
21278
21352
21370
21342
21351
21199
21326
21117
21359
21342
21348
21332
21315
21298
21326
21196
21298
21052
21302
21307
21298
21285
21141
21265
21070
21271
21266
21205
21240
21260
21245
21242
21108
21220
21251
21218
21231
21167
21195
21235
21178
21212
21077
21188
21223
21191
21180
20932
21196
21191
21175
21184
21138
21163
21036
21129
20959
21126
20892
21127
20871
21158
21145
21127
21127
21054
21108
20897
21099
21125
21076
21071
21106
21082
21094
20953
21045
21084
21076
21077
20866
21101
21073
21039
21052
20935
21036
21060
21035
21047
20935
20996
20711
21011
21004
20860
20988
20674
21041
21028
20927
20978
20802
20990
21005
21010
20993
20954
20991
20884
20918
20614
20989
20980
20966
20965
20953
20963
20918
20955
20908
20961
20938
20942
20911
20945
20889
20929
20923
20935
20945
20554
20868
20836
20911
20899
20904
20911
20909
20854
20591
20837
20904
20903
20902
20915
20886
20884
20886
20876
20868
20839
20871
20876
20863
20873
20868
20871
20852
20830
20516
20823
20478
20813
20483
20775
20597
20783
20738
20821
20794
20814
20821
20810
20794
20807
20796
20800
20805
20797
20810
20797
20783
20574
20744
20668
20767
20721
20774
20766
20775
20732
20742
20649
20680
20353
20772
20741
20696
20718
20593
20684
20378
20741
20737
20675
20657
20294
20740
20721
20684
20706
20473
20650
20716
20663
20648
20270
20691
20691
20496
20692
20692
20625
20653
20516
20647
20249
20707
20687
20663
20669
20350
20671
20675
20623
20596
20295
20694
20679
20658
20653
20593
20658
20592
20643
20565
20582
20433
20562
20213
20651
20640
20569
20567
20354
20612
20198
20637
20637
20632
20636
20593
20631
20515
20550
20191
20641
20625
20615
20615
20527
20587
20480
20520
20172
20615
20579
20279
20630
20614
20550
20536
20262
20523
20618
20585
20594
20400
20624
20606
20412
20597
20592
20519
20576
20576
20161
20544
20544
20396
20542
20600
20560
20582
20441
20610
20602
20490
20502
20137
20591
20586
20497
20495
20135
20589
20585
20246
20597
20590
20539
20554
20461
20517
20151
20609
20583
20565
20589
20549
20582
20558
20589
20566
20585
20499
20492
20393
20552
20590
20536
20520
20242
20610
20595
20560
20580
20480
20498
20156
20609
20599
20578
20580
20478
20497
20301
20586
20600
20571
20587
20474
20539
20599
20564
20556
20272
20620
20606
20497
20493
20606
20551
20553
20256
20610
20599
20242
20622
20589
20250
20612
20613
20534
20518
20151
20619
20615
20478
20545
20343
20625
20628
20612
20633
20524
20581
20154
20650
20641
20620
20631
20495
20591
20663
20660
20645
20591
20570
20224
20644
20607
20241
20581
20650
20674
20599
20592
20191
20679
20676
20625
20647
20485
20598
20230
20690
20689
20593
20579
20212
20697
20686
20628
20607
20231
20708
20669
20278
20705
20663
20376
20715
20704
20585
20603
20263
20711
20260
20626
20525
20669
20519
20709
20751
20673
20675
20564
20647
20772
20735
20733
20589
20687
20293
20716
20790
20320
20778
20795
20780
20309
20795
20788
20734
20754
20636
20686
20820
20815
20804
20723
20799
20799
20719
20743
20793
20741
20802
20708
20724
20500
20814
20855
20859
20856
20703
20852
20856
20691
20801
20884
20831
20839
20788
20806
20676
20783
20430
20915
20907
20823
20802
20623
20833
20449
20939
20925
20893
20919
20798
20906
20949
20967
20975
20979
20971
20975
20980
20948
20931
20748
20943
21012
20926
20901
20507
21004
20980
20652
21044
21022
20871
20930
20724
20954
20558
21079
21087
21082
21075
21095
21084
21066
21065
20866
21094
21119
21090
21117
21064
21105
21011
21042
20701
21162
21152
21135
21132
21010
21057
20855
21087
20786
21207
21207
21214
21205
21139
21177
21087
21128
21230
21106
21263
21252
21079
21282
21273
21191
21162
20838
21308
21300
21278
21297
21156
21191
20791
21343
21330
21044
21361
21353
21176
21383
21378
21170
21401
21388
21339
21266
20902
21395
21391
21275
21454
21436
21383
21423
21287
21337
21090
21490
21480
21452
21393
21265
21500
21511
21489
21452
21150
21535
21548
21551
21570
21501
21460
21261
21609
21599
21521
21578
21456
21491
21167
21615
21609
21487
21586
21671
21626
21566
21211
21700
21692
21550
21733
21694
21341
21735
21745
21654
21634
21761
21748
21697
21553
21747
21802
21765
21796
21588
21751
21300
21860
21853
21863
21868
21853
21878
21817
21759
21674
21834
21922
21925
21927
21841
21815
21959
21869
21825
21449
21983
21999
21995
22001
21922
21911
21829
22007
22053
22009
22022
21807
21959
21582
22103
22108
22039
21970
22127
22124
22079
21712
22175
22154
22053
22062
22195
22147
22089
22210
22158
22120
22244
22151
22221
22263
22231
22182
21815
22323
22302
22235
22185
21925
22352
22343
22339
22372
22225
22284
22389
22407
22396
22295
22436
22421
22322
22405
22466
22371
22351
22473
22446
22364
22515
22487
22494
22278
22551
22569
22546
22560
22507
22472
22380
22602
22615
22535
22513
22661
22625
22596
22158
22653
22550
22181
22676
22579
22194
22735
22743
22694
22609
22246
22783
22789
22726
22681
22549
22797
22836
22768
22783
22687
22808
22883
22810
22758
22903
22868
22821
22382
22933
22807
22965
22513
22863
22988
22936
23015
23020
22962
22839
22913
22983
23004
23019
23009
23003
22889
22881
22871
22617
23148
23139
23020
23031
22705
23202
23188
22927
23214
23233
23170
23170
22972
23275
23278
23199
23141
22787
23343
23333
23281
23195
22822
23385
23391
23344
23274
22973
23415
23445
23386
23344
23285
23415
23482
23451
23402
23396
23372
23244
23548
23546
23527
23534
23249
23554
23599
23626
23626
23623
23646
23647
23671
23621
23537
23255
23687
23678
23569
23606
23742
23733
23721
23612
23686
23807
23797
23819
23746
23700
23495
23758
23330
23897
23882
23794
23774
23933
23931
23940
23885
23834
23633
23955
23660
24011
24019
24038
24039
23939
23927
23579
24102
24100
24098
24107
24078
24124
23921
24106
24167
24149
24138
24071
24077
23696
24231
24168
23864
24283
24276
24275
24289
24228
24181
23978
24282
23931
24382
24388
24359
24311
24011
24423
24423
24389
24327
24454
24389
24348
24487
24455
24396
24519
24404
24550
24455
24573
24492
24528
24594
24181
24564
24543
24652
24634
24571
24167
24668
24597
24719
24667
24605
24735
24614
24779
24775
24554
24815
24802
24629
24839
24832
24783
24737
24865
24799
24785
24908
24529
24914
24924
24814
24923
24973
24813
25004
24970
24536
24964
24940
25041
25067
25044
24973
25079
24957
25071
25116
25102
25063
24839
25177
25169
25130
25143
24959
25223
25231
25226
25250
25215
25207
24951
25303
25300
25195
25255
25343
25274
25332
24925
25356
25380
25267
25365
25421
25407
25443
25295
25384
25171
25487
25508
25533
25521
25545
25544
25567
25572
25475
25517
25192
25625
25614
25601
25602
25498
25607
25675
25685
25695
25558
25660
25730
25724
25745
25620
25722
25778
25615
25818
25822
25724
25845
25842
25734
25879
25864
25644
25911
25919
25816
25885
25939
25903
25934
25646
25997
25999
25933
25961
26028
26023
26055
25935
26070
26077
26023
26045
26119
26081
26111
25810
26169
26161
26023
26199
26187
26117
26219
26218
25909
26218
26235
25939
26236
26245
26301
26274
26303
26024
26336
26353
26204
26375
26396
26295
26417
26373
26423
26381
26426
26168
26466
26464
26308
26512
26502
26273
26519
26530
26303
26570
26550
26483
26549
26350
26597
26514
26614
26644
26612
26631
26404
26676
26686
26503
26721
26716
26725
26732
26658
26763
26761
26785
26778
26774
26807
26662
26807
26677
26859
26858
26844
26860
26652
26889
26893
26808
26903
26743
26961
26949
26935
26969
26879
26980
26855
27014
27015
27012
27036
26959
27062
27064
27073
27085
26932
27077
27103
27013
27134
27140
27143
27156
27138
27172
27189
27197
27201
27168
27215
27111
27247
27247
27244
27270
27198
27297
27291
27292
27316
27295
27333
27262
27356
27357
27355
27367
27309
27399
27402
27365
27407
27300
27455
27453
27447
27468
27404
27498
27496
27503
27513
27487
27527
27531
27556
27548
27547
27567
27511
27599
27590
27593
27610
27597
27623
27629
27655
27661
27630
27683
27687
27687
27710
27715
27711
27724
27729
27745
27765
27758
27759
27783
27783
27793
27802
27807
27820
27815
27837
27846
27873
27866
27863
27889
27889
27879
27911
27911
27923
27951
27934
27934
27967
27948
27990
27979
27980
27999
27984
28017
28013
28055
28036
28022
28046
28046
28092
28069
28070
28127
28079
28091
28107
28108
28147
28117
28210
28129
28134
28167
28162
28216
28166
28167
28188
28196
28300
28210
28196
28255
28234
28231
28241
28251
28379
28257
28257
28329
28295
28281
28287
28291
28332
28315
28405
28330
28506
28353
28335
28358
28365
28386
28374
28454
28401
28382
28409
28405
28476
28437
28564
28438
28432
28453
28455
28515
28478
28633
28481
28710
28519
28487
28508
28525
28591
28546
28741
28524
28530
28733
28557
28564
28647
28572
28569
28674
28591
28592
28644
28628
28621
28626
28630
28759
28642
28641
28667
28659
28853
28669
28657
28679
28676
28788
28717
28839
28729
28700
28716
28711
28748
28732
28772
28741
28842
28759
29071
28764
28764
28794
28787
28915
28802
28788
28828
28834
29134
28810
28826
28896
28855
29095
28846
28838
29047
28846
28849
28862
28849
28884
28873
28914
28890
28935
28915
29095
28906
28896
28909
28904
28930
28911
28931
28917
28956
28950
28997
28981
29204
28967
28961
28966
28967
28994
28996
29294
28993
28996
29146
29003
29003
29015
29022
29191
29026
29015
29052
29044
29169
29052
29026
29047
29055
29348
29052
29039
29079
29085
29058
29079
29076
29335
29094
29063
29121
29121
29081
29101
29100
29191
29127
29311
29140
29383
29118
29116
29120
29116
29157
29151
29121
29141
29165
29126
29156
29163
29604
29145
29136
29221
29172
29157
29186
29183
29482
29167
29159
29215
29204
29607
29165
29174
29191
29189
29505
29174
29181
29209
29211
29528
29181
29191
29248
29231
29183
29217
29218
29191
29205
29211
29356
29201
29199
29283
29253
29191
29237
29236
29191
29241
29250
29203
29337
29211
29223
29400
29212
29191
29225
29234
29386
29250
29191
29223
29220
29271
29233
29478
29229
29209
29230
29228
29355
29251
29476
29255
29652
29253
29530
29253
29342
29252
29507
29244
29631
29221
29202
29210
29209
29239
29231
29282
29229
29382
29238
29622
29207
29189
29281
29239
29191
29213
29206
29692
29189
29191
29244
29204
29303
29222
29665
29219
29167
29183
29181
29273
29223
29159
29175
29165
29174
29161
29191
29185
29319
29191
29644
29166
29155
29239
29148
29130
29185
29173
29503
29153
29124
29172
29171
29127
29141
29139
29355
29129
29126
29431
29127
29106
29420
29095
29109
29187
29147
29626
29095
29101
29173
29119
29063
29138
29108
29050
29083
29063
29247
29059
29061
29134
29080
29023
29177
29071
29034
29119
29055
29015
29055
29047
29562
29031
29028
29559
29030
29027
29534
28997
29010
29346
28985
28994
29322
28979
28964
29094
28974
28970
29183
28959
28946
29002
28962
28929
28950
28935
29140
28945
28908
28930
28909
29149
28903
28902
29005
28933
28870
28894
28866
28935
28899
28846
28863
28866
28977
28866
28835
28908
28863
28823
28836
28846
29351
28804
28807
28845
28839
28777
28793
28792
29012
28794
28749
28767
28769
28978
28747
28723
28753
28751
28940
28737
28709
28716
28727
28898
28732
28674
28679
28690
28741
28699
29079
28663
28665
28712
28669
28732
28636
28620
28711
28649
29187
28607
28618
28582
28604
28615
28545
28619
28599
28550
28564
28547
28644
28572
28519
28551
28547
29100
28499
28509
28569
28523
28464
28476
28472
28603
28507
29058
28445
28423
28500
28463
28399
28407
28399
28410
28407
28857
28383
28365
28443
28391
28337
28365
28368
28311
28345
28354
28295
28307
28324
28860
28295
28271
28303
28300
28244
28306
28258
28227
28268
28231
28535
28215
28180
28212
28220
28519
28179
28158
28188
28167
28407
28141
28126
28167
28143
28113
28172
28143
28069
28105
28107
28053
28064
28071
28613
28036
28028
28070
28061
28476
27991
27981
28001
28016
27955
27990
27980
28221
27939
27911
27946
27937
28420
27898
27884
27954
27911
27854
27887
27895
27828
27844
27849
28100
27811
27838
28442
27787
27797
27949
27771
27744
27907
27781
27719
27738
27719
27803
27735
27679
27717
27699
28278
27666
27645
27691
27655
27610
27626
27628
27712
27633
27574
27595
27596
27967
27566
27527
27540
27533
27724
27524
27500
27857
27495
27469
27566
27458
27439
27551
27439
27424
27585
27418
27411
27850
27395
27407
27357
27444
27388
27315
27511
27330
27295
27431
27332
27271
27285
27273
27393
27256
27229
27677
27231
27223
27391
27192
27167
27320
27173
27166
27316
27164
27111
27182
27154
27099
27110
27127
27062
27119
27105
27047
27197
27026
27028
27493
27015
27020
26971
27022
26998
27580
26951
26924
26937
26932
27061
26935
26881
26878
26855
26916
26884
26832
26841
26823
26866
26836
27396
26796
26751
26774
26767
26792
26782
27111
26735
26733
27405
26690
26690
26817
26671
26631
26676
26660
27271
26622
26610
26759
26591
26555
26575
26555
26584
26571
26709
26559
26712
26511
26467
26682
26469
26450
26452
26457
26419
26431
26399
26423
26418
26618
26407
26341
26353
26337
26383
26362
26975
26295
26265
26289
26277
26475
26291
26226
26242
26209
26223
26203
26284
26208
26156
26169
26166
26311
26145
26111
26119
26086
26164
26119
26597
26071
26030
26047
26063
25999
26014
25981
26116
26021
25957
25967
25977
26391
25923
25927
26119
25902
25875
26004
25863
25849
25887
25863
25799
25837
25827
26323
25781
25755
25759
25776
25963
25732
25696
25780
25736
25674
25695
25692
26177
25652
25627
25636
25607
25661
25623
25936
25607
25548
25557
25542
25677
25573
25490
25515
25523
25873
25474
25436
25477
25472
25716
25463
25391
25403
25382
25380
25364
25471
25366
25332
25347
25332
25548
25335
25814
25319
25899
25255
25234
25235
25223
25225
25222
25277
25223
25935
25157
25137
25149
25152
25405
25148
25877
25093
25049
25077
25061
25058
25029
25035
25009
25016
24984
24984
24959
24990
24969
25194
24964
24904
24911
24881
24897
24887
24915
24883
25060
24871
25411
24806
24771
24798
24788
24863
24790
24720
24734
24719
24769
24739
24897
24676
24638
24655
24621
24685
24646
25103
24602
24583
24805
24591
24541
24538
24506
24561
24557
24486
24494
24485
24598
24493
24431
24435
24447
24869
24404
24415
24873
24368
24356
24420
24383
24294
24313
24293
24358
24323
24249
24261
24258
24401
24269
24193
24220
24228
24169
24183
24192
24415
24143
24106
24229
24116
24135
24077
24495
24098
24112
24026
24399
24026
24016
24020
23973
24039
23975
24010
23961
23914
24745
23993
23904
23940
23893
23865
24012
23854
23893
23833
23795
23832
23791
23829
23769
24195
23787
23749
23751
23695
23775
23706
23687
23668
23737
23668
23679
23617
24465
23749
23618
23623
23619
23566
23942
23557
23573
23529
23510
23547
23503
23542
23478
24266
23559
23452
23502
23436
23401
23461
23399
23408
23357
23508
23367
23387
23311
23522
23312
23347
23280
23760
23299
23276
23271
23215
23325
23230
23247
23191
23183
23476
23179
23159
23180
23114
23510
23132
23108
23113
23063
23235
23068
23085
23023
23359
23023
23021
23028
22983
22971
23028
22967
22998
22931
22910
22935
22911
22918
22870
23089
22879
22867
22884
22818
23075
22819
22849
22816
22761
22754
23042
22753
22740
22742
22694
22919
22705
22733
22669
22980
22654
22699
22638
22601
22698
22605
22629
22606
22568
22553
22633
22535
22585
22520
22495
23124
22523
22481
22511
22448
23332
22474
22436
22433
22383
23028
22425
22378
22392
22335
22919
22414
22339
22316
22309
22321
22270
22252
22349
22242
22279
22225
22204
22213
22206
22216
22158
22147
22445
22167
22129
22116
22149
22104
22074
22196
22079
22059
22087
22031
22005
22164
21990
21996
21999
21961
22218
21977
21951
21983
21913
21886
21883
22266
21911
21873
21862
21882
21825
22740
21859
21800
21843
21796
21745
21747
21780
21748
21763
21707
21912
21689
21723
21675
21655
21734
21649
21682
21623
21602
21786
21601
21631
21564
21532
21607
21546
21574
21525
21492
21748
21517
21481
21522
21486
21445
21405
22020
21454
21407
21433
21396
21364
21459
21357
21339
21479
21339
21294
21321
21315
21415
21322
21253
21255
21255
21359
21265
21435
21249
21178
21191
21167
21191
21160
21325
21175
21848
21149
21079
21099
21071
21087
21093
21877
21050
21017
21042
21045
21910
20998
20993
21255
20970
20926
20984
20980
20908
20912
20899
20999
20911
20860
20884
20902
20827
20842
20829
20886
20863
21070
20809
20762
20766
20752
20779
20775
21439
20724
20695
20754
20743
20670
20694
20719
20631
20657
20689
20614
20621
20643
21405
20598
20575
20580
20600
21185
20542
20514
20524
20559
20479
20619
20481
20512
20447
20436
20486
20414
20426
20453
20391
20396
20367
20396
20401
21267
20356
20323
20580
20332
20293
20306
20279
20343
20315
20249
20266
20254
20341
20268
21071
20218
20177
20182
20209
20452
20159
20133
20148
20141
20279
20129
20085
20102
20114
20798
20075
20053
20549
20052
20029
20570
20017
19975
19983
19983
20053
20007
20726
19957
19920
19933
19900
19908
19900
19929
19903
20235
19868
19842
19858
19847
19903
19863
19791
19807
19831
20359
19781
19748
19757
19746
19908
19758
19701
19714
19719
19674
19683
19705
20203
19656
19623
19670
19657
20198
19605
19591
19700
19625
19564
19569
19536
19582
19559
19772
19532
19492
19503
19478
19487
19484
19654
19500
19423
19426
19421
19467
19448
19394
19397
19419
19353
19364
19356
19389
19373
20143
19325
19297
19302
19312
19436
19313
19965
19260
19220
19245
19216
19345
19259
19191
19193
19211
19437
19178
19132
19146
19127
19126
19125
19179
19132
19490
19088
19061
19074
19082
19037
19047
19019
19022
19019
19068
19039
19540
19014
18966
18967
18938
18941
18947
19406
18919
18889
18885
18913
18870
18868
18853
18929
18892
18823
18816
18846
19246
18803
18775
18786
18777
18855
18786
19010
18781
18997
18727
18702
18727
18727
19023
18688
18657
18659
18636
18667
18668
19149
18619
18575
18598
18588
18628
18621
18543
18550
18552
18869
18524
18499
18491
18775
18483
18513
18458
18497
18487
18429
18427
18424
18580
18405
18389
18394
18405
18815
18369
18335
18371
18372
18316
18337
18330
18859
18293
18300
18255
18256
18258
18581
18244
18220
18263
18215
18179
18192
18217
18163
18167
18183
18515
18132
18132
18445
18097
18111
18125
18105
18055
18573
18060
18042
18069
18020
18011
18065
17989
18020
17964
17981
17985
18406
17949
17913
17922
17921
18127
17926
17865
17876
17850
17857
17848
17934
17841
17799
17832
17837
17780
17788
17788
18245
17754
17727
17829
17735
17719
17799
17701
17692
17807
17676
17650
17660
17697
17621
17972
17615
17631
18111
17590
17579
18067
17559
17542
17593
17567
17511
17515
17506
17626
17492
17465
17483
17491
17434
17433
17430
17837
17401
17392
17453
17412
17353
17367
17372
17327
17325
17319
17478
17313
17283
17268
17269
17289
17280
17700
17234
17199
17208
17189
17189
17188
17269
17183
17430
17160
17108
17106
17110
17527
17076
17054
17074
17072
17415
17027
17020
17325
16999
16989
17353
16960
16956
16934
16933
16939
17168
16897
16893
17011
16892
16851
16927
16841
16832
16805
16813
16823
16877
16777
16778
17036
16743
16732
16805
16727
16696
16709
16687
16680
16687
16637
16640
16618
16628
16603
16616
16608
16742
16582
16549
16618
16536
16542
16507
16677
16506
16478
16487
16471
16587
16449
16421
16449
16436
16381
16391
16406
16650
16356
16358
16433
16337
16305
16302
16292
16374
16279
16258
16258
16260
16431
16213
16207
16266
16212
16169
16170
16167
16134
16154
16148
16287
16100
16085
16162
16081
16055
16134
16047
16021
16033
16019
15991
15987
15985
16166
15956
15943
16068
15932
15902
15911
15879
15867
15856
15875
15849
15957
15818
15803
15823
15800
15916
15767
15750
15760
15748
15865
15721
15688
15693
15671
15667
15669
15637
15640
15629
15640
15622
15583
15577
15576
15593
15555
15534
15527
15503
15506
15505
15567
15463
15460
15476
15455
15423
15416
15404
15414
15393
15434
15361
15345
15337
15327
15367
15309
15288
15292
15287
15255
15253
15239
15246
15220
15191
15204
15185
15190
15162
15145
15152
15128
15103
15111
15090
15082
15068
15050
15050
15037
15022
15010
15002
14993
14983
14950
14961
14938
14932
14919
14906
14902
14893
14858
14873
14845
14843
14833
14790
14815
14798
14778
14769
14720
14757
14741
14713
14709
14693
14701
14670
14660
14661
14636
14641
14621
14611
14564
14586
14578
14564
14557
14527
14471
14513
14522
14487
14485
14463
14405
14446
14450
14424
14417
14400
14387
14332
14369
14360
14341
14330
14321
14263
14304
14294
14265
14258
14243
14238
14186
14196
14207
14204
14180
14169
14158
14041
14102
14132
14111
14097
14094
13966
13999
14055
14047
14034
14024
13914
13976
13991
13972
13956
13948
13943
13814
13892
13907
13897
13879
13871
13865
13735
13820
13840
13796
13804
13797
13776
13697
13733
13754
13743
13724
13718
13605
13682
13681
13660
13652
13647
13522
13593
13609
13597
13592
13439
13543
13547
13521
13519
13526
13438
13500
13482
13464
13463
13308
13405
13444
13411
13410
13376
13377
13361
13365
13307
13348
13332
13312
13299
13293
13279
13165
13244
13255
13220
13227
13056
13196
13211
13175
13175
13159
13044
13124
13143
13106
13103
13098
12991
13087
13051
13047
13038
12879
12996
13019
12978
12981
12988
12887
12964
12927
12948
12826
12921
12906
12872
12874
12881
12725
12831
12845
12806
12814
12799
12792
12797
12751
12767
12756
12650
12718
12719
12679
12685
12692
12596
12670
12656
12627
12631
12617
12606
12429
12583
12582
12558
12540
12523
12539
12531
12518
12494
12494
12322
12371
12437
12464
12449
12415
12415
12402
12291
12284
12350
12375
12342
12339
12340
12325
12193
12274
12293
12292
12255
12245
12241
12251
12117
12191
12221
12182
12183
12181
12166
12070
12147
12151
12112
12113
12104
11929
12031
12079
12078
12040
12052
12045
11988
12020
11986
11990
11995
11869
11969
11958
11930
11939
11813
11917
11892
11895
11700
11861
11839
11851
11764
11843
11816
11814
11783
11803
11776
11781
11724
11769
11738
11541
11695
11727
11704
11708
11566
11673
11674
11651
11641
11475
11599
11625
11614
11588
11591
11432
11538
11566
11556
11517
11534
11521
11458
11505
11488
11481
11482
11467
11459
11319
11429
11441
11426
11395
11397
11257
11386
11375
11357
11360
11283
11347
11311
11305
11304
11241
11301
11262
11282
11261
11120
11212
11237
11210
11211
11038
11161
11193
11186
11159
11166
11006
11151
11114
11126
10968
11120
11081
11092
11083
10878
10959
11070
11030
11029
11034
10953
11021
10995
10996
10996
10965
10983
10945
10958
10861
10948
10902
10917
10907
10814
10892
10889
10862
10867
10862
10668
10767
10820
10833
10794
10813
10619
10780
10763
10765
10766
10620
10753
10722
10729
10550
10692
10722
10685
10686
10598
10681
10646
10665
10570
10650
10644
10614
10626
10505
10605
10605
10568
10586
10423
10563
10544
10543
10539
10417
10521
10506
10509
10508
10381
10484
10484
10458
10463
10375
10461
10447
10429
10438
10311
10417
10413
10393
10394
10338
10386
10343
10359
10360
10244
10343
10326
10327
10314
10129
10260
10299
10300
10267
10276
10277
10113
10226
10256
10227
10228
10216
10200
10225
10195
10200
10197
10113
10191
10157
10160
10093
10149
10151
10143
10140
10130
9978
10047
10099
10108
10086
10090
10089
10004
10084
10051
10054
10045
9999
10046
10019
10020
10022
9972
10023
9977
10001
9837
9987
9985
9975
9966
9863
9956
9922
9935
9939
9924
9801
9926
9918
9902
9894
9890
9785
9882
9893
9860
9871
9700
9848
9854
9844
9842
9834
9791
9842
9803
9809
9636
9800
9810
9775
9786
9659
9762
9780
9753
9770
9646
9762
9724
9735
9728
9648
9735
9702
9716
9712
9660
9708
9678
9692
9518
9676
9685
9662
9679
9530
9659
9663
9652
9649
9598
9640
9636
9481
9638
9607
9628
9440
9606
9620
9592
9610
9430
9578
9598
9577
9582
9586
9532
9572
9549
9554
9566
9434
9511
9562
9533
9532
9529
9523
9523
9518
9389
9504
9520
9504
9506
9430
9508
9469
9489
9485
9370
9473
9477
9462
9288
9433
9470
9442
9452
9445
9405
9448
9415
9432
9425
9315
9419
9428
9402
9404
9413
9254
9385
9410
9397
9392
9402
9384
9303
9387
9380
9369
9374
9230
9333
9367
9361
9362
9353
9361
9239
9334
9361
9333
9343
9341
9288
9342
9325
9332
9335
9302
9344
9323
9331
9311
9301
9324
9308
9316
9287
9317
9294
9309
9310
9189
9314
9287
9308
9313
9209
9307
9285
9299
9288
9227
9300
9269
9288
9117
9277
9283
9278
9286
9265
9281
9279
9280
9253
9274
9259
9271
9219
9281
9284
9248
9264
9255
9186
9274
9254
9255
9258
9179
9262
9273
9246
9261
9113
9258
9259
9239
9245
9249
9245
9193
9252
9249
9245
9258
9091
9234
9257
9246
9247
9069
9205
9255
9258
9174
9255
9243
9250
9174
9256
9257
9216
9251
9255
9252
9252
9076
9197
9248
9256
9244
9246
9071
9179
9248
9258
9247
9245
9081
9199
9255
9263
9239
9250
9252
9108
9239
9265
9269
9258
9246
9263
9259
9094
9231
9278
9253
9273
9137
9268
9274
9269
9263
9150
9271
9282
9258
9274
9270
9221
9292
9259
9275
9288
9225
9292
9271
9286
9285
9287
9295
9189
9263
9301
9307
9292
9309
9300
9173
9291
9316
9275
9310
9316
9197
9317
9324
9309
9329
9188
9326
9335
9308
9318
9337
9261
9335
9317
9333
9330
9333
9197
9319
9352
9346
9348
9349
9162
9345
9362
9341
9361
9363
9333
9380
9380
9363
9370
9366
9250
9357
9385
9367
9386
9390
9237
9386
9408
9396
9401
9414
9234
9398
9424
9402
9414
9230
9416
9420
9421
9428
9351
9437
9438
9273
9448
9436
9453
9456
9451
9453
9459
9310
9380
9470
9473
9446
9474
9485
9306
9477
9497
9465
9483
9498
9455
9510
9487
9503
9327
9459
9527
9519
9528
9523
9474
9539
9516
9542
9351
9522
9563
9535
9553
9557
9488
9550
9574
9564
9570
9522
9583
9570
9588
9405
9598
9582
9597
9607
9589
9626
9626
9600
9636
9436
9569
9657
9623
9639
9644
9514
9634
9666
9651
9669
9503
9670
9679
9677
9688
9684
9602
9698
9698
9701
9713
9666
9732
9703
9732
9541
9731
9743
9744
9560
9721
9776
9743
9770
9606
9741
9794
9774
9792
9624
9801
9799
9807
9637
9792
9825
9816
9848
9757
9854
9828
9850
9736
9862
9850
9876
9879
9820
9893
9873
9896
9707
9884
9917
9914
9919
9722
9746
9915
9956
9927
9942
9956
9872
9976
9985
9965
9991
9993
9813
9924
9999
10022
9999
10018
9950
10036
10046
9951
10071
10052
9936
10079
10075
10060
10068
10091
10068
10083
10104
10085
10102
10133
10146
10136
10062
10121
9953
10156
10169
10178
10189
10137
10188
10202
10181
10204
10047
10218
10226
10243
10235
10175
10258
10261
10193
10254
10283
10284
10276
10304
10284
10294
10317
10270
10311
10342
10317
10337
10353
10321
10365
10383
10262
10400
10389
10186
10405
10400
10232
10435
10430
10223
10443
10430
10468
10387
10478
10486
10277
10494
10494
10505
10509
10500
10533
10481
10525
10554
10433
10579
10557
10573
10542
10599
10598
10534
10623
10623
10607
10633
10434
10659
10641
10494
10655
10660
10684
10683
10683
10710
10694
10716
10732
10583
10749
10759
10583
10768
10773
10752
10779
10577
10816
10816
10672
10842
10842
10788
10857
10874
10833
10852
10710
10902
10897
10857
10905
10785
10908
10943
10959
10944
10865
10942
10978
10990
10994
10943
10978
11027
11041
11036
11046
11045
10950
11053
11069
11080
11098
11003
11088
10882
11124
11130
11079
11114
10953
11143
11188
11162
11173
11145
11189
11005
11227
10996
11235
11063
11263
11263
11281
11286
11281
11295
11234
11295
11166
11304
11103
11364
11366
11367
11370
11320
11372
11311
11382
11224
11404
11438
11448
11431
11461
11462
11471
11319
11499
11518
11512
11519
11406
11529
11436
11563
11407
11582
11596
11580
11354
11620
11621
11625
11652
11636
11644
11601
11655
11504
11697
11704
11714
11723
11727
11732
11625
11725
11766
11758
11764
11538
11805
11796
11580
11830
11828
11753
11833
11868
11870
11868
11692
11900
11906
11866
11902
11929
11910
11930
11961
11954
11965
11844
11996
12008
11936
12023
12027
11893
12045
12063
12063
12064
12083
12089
12096
12118
12115
12127
12047
12140
12164
12166
12175
12037
12214
12215
12215
12218
12119
12242
12259
12271
12276
12213
12263
12161
12325
12325
12329
12327
12192
12362
12372
12319
12388
12399
12374
12399
12427
12442
12442
12351
12463
12468
12469
12486
12500
12512
12527
12449
12525
12553
12451
12573
12582
12409
12606
12597
12544
12609
12627
12599
12638
12681
12677
12694
12621
12710
12722
12709
12725
12753
12756
12764
12685
12782
12809
12811
12805
12689
12835
12844
12827
12849
12881
12873
12882
12909
12908
12916
12873
12930
12948
12972
12977
12986
12981
12993
13008
12992
13015
12900
13048
13057
13063
13073
13005
13082
13098
13127
13121
13135
13137
13138
13142
13160
13166
13195
13188
13142
13197
13221
13237
13242
13189
13244
13270
13281
13288
13304
13299
13293
13320
13284
13331
13247
13378
13377
13378
13385
13335
13398
13416
13439
13440
13448
13452
13374
13484
13495
13500
13506
13433
13533
13540
13554
13562
13572
13574
13545
13585
13602
13615
13623
13637
13642
13601
13650
13587
13668
13591
13695
13633
13706
13721
13740
13753
13685
13766
13770
13790
13786
13761
13809
13819
13838
13831
13839
13854
13874
13887
13887
13820
13920
13919
13908
13927
13942
13943
13961
13969
13995
13988
13946
14015
14024
14035
14044
14040
14003
14059
14069
14060
14099
14101
14113
14113
14063
14151
14140
14132
14164
14173
14186
14192
14149
14212
14223
14199
14237
14237
14260
14263
14276
14278
14258
14310
14299
14314
14324
14321
14351
14357
14374
14376
14378
14380
14402
14404
14419
14429
14424
14444
14446
14465
14468
14473
14488
14488
14502
14517
14525
14521
14532
14548
14547
14560
14572
14573
14587
14602
14607
14612
14629
14634
14653
14652
14655
14663
14669
14692
14681
14703
14705
14704
14739
14727
14725
14786
14761
14744
14783
14775
14777
14799
14798
14850
14826
14827
14855
14850
14845
14852
14868
14943
14883
14872
14899
14907
14972
14924
14932
14941
14950
14949
14952
14977
15056
14982
14982
15037
15006
14999
15029
15034
15023
15037
15042
15092
15063
15172
15081
15071
15092
15087
15103
15105
15143
15131
15269
15137
15136
15137
15155
15171
15165
15183
15187
15197
15191
15218
15215
15230
15223
15224
15238
15242
15242
15260
15248
15275
15277
15284
15286
15305
15297
15347
15319
15454
15339
15462
15349
15332
15345
15347
15362
15354
15380
15378
15522
15398
15394
15412
15417
15408
15417
15436
15644
15433
15431
15463
15474
15447
15461
15470
15492
15501
15705
15495
15487
15499
15515
15591
15521
15522
15523
15542
15660
15555
15541
15565
15581
15558
15569
15584
15699
15594
15588
15590
15597
15618
15636
15823
15637
15612
15642
15631
15655
15670
15800
15664
15655
15667
15695
15669
15686
15686
15701
15710
15953
15716
15705
15708
15724
15719
15706
15733
15762
15956
15769
16010
15750
15740
15753
15768
15835
15802
16125
15783
15781
15796
15812
16162
15810
15791
15812
15822
15848
15842
16131
15836
15827
15834
15842
16011
15873
15845
15853
15860
15889
15879
16091
15875
15858
15918
15887
15888
15894
15893
15903
15897
15923
15911
15927
15927
16095
15927
15919
15945
15926
15932
15933
15950
15946
15976
15988
16169
15975
15950
15975
16004
16117
16014
15967
15991
15978
16000
16030
16490
16005
15993
16002
16007
16039
16037
16005
16011
16007
16027
16021
16044
16070
16018
16037
16038
16045
16050
16084
16072
16185
16087
16213
16086
16058
16061
16077
16099
16087
16202
16111
16439
16114
16599
16119
16077
16089
16091
16101
16078
16102
16094
16097
16097
16097
16116
16111
16121
16154
16143
16186
16148
16278
16167
16688
16149
16112
16167
16182
16127
16164
16133
16162
16150
16156
16142
16238
16203
16683
16177
16154
16165
16183
16228
16212
16531
16189
16174
16182
16207
16482
16197
16177
16187
16195
16345
16230
16844
16203
16742
16234
16628
16242
16622
16226
16203
16214
16198
16236
16237
16548
16266
16423
16218
16219
16255
16262
16652
16238
16225
16262
16279
16225
16231
16244
16318
16292
16233
16256
16266
16365
16290
16854
16263
16239
16256
16258
16403
16303
16249
16268
16257
16284
16295
16293
16307
16939
16295
16262
16287
16276
16311
16316
17011
16295
16289
16303
16292
16327
16331
16785
16297
16282
16313
16279
16317
16296
16306
16293
16300
16307
16332
16331
16483
16359
16849
16327
16317
16326
16318
16370
16380
17127
16349
16324
16327
16341
16682
16343
16368
16469
16368
16340
16345
16373
16747
16354
16332
16372
16403
16341
16355
16375
16410
16383
16719
16417
16700
16410
16878
16379
16359
16383
16359
16382
16400
16478
16415
16836
16410
16365
16384
16373
16384
16391
16705
16417
16380
16391
16399
16509
16444
16401
16391
16413
16657
16439
16398
16419
16395
16410
16405
16415
16407
16412
16412
16415
16397
16431
16426
16429
16415
16429
16421
16438
16479
16926
16454
16452
16436
16446
16431
16517
16495
16446
16451
16458
16457
16455
16455
16495
16469
16509
16463
16454
16462
16463
16527
16462
16469
16493
16487
16514
16465
16612
16486
16506
16518
16475
17135
16508
16495
16526
16540
16513
16484
17268
16516
16514
16559
16504
16505
16567
16519
16566
16511
16970
16513
16582
16518
16507
16532
16531
16557
16522
16963
16529
16557
16540
16526
16660
16554
16599
16555
16542
16637
16563
16590
16535
16684
16564
16605
16562
17300
16578
16597
16575
17159
16573
16628
16581
16718
16585
16620
16581
17254
16603
16650
16593
16599
16645
16611
16676
16591
17548
16615
16635
16641
16614
16619
16641
16622
17587
16638
16670
16655
16637
16638
16695
16632
16735
16661
16688
16655
16663
16719
16650
16699
16683
16686
16674
16698
16685
16673
17202
16688
16718
16741
16686
17071
16707
16713
16698
17693
16718
16727
16950
16714
16769
16708
16725
16739
17474
16733
16783
16708
16783
16745
16791
16739
17300
16737
16804
16724
16821
16762
16793
16743
17263
16757
16781
16778
16828
16817
16805
16833
16818
16828
16775
16788
16773
17380
16773
16804
16804
16799
16813
16988
16794
16794
16836
16812
16870
16793
16828
16838
16811
16820
16839
16839
16819
16848
16852
16868
16835
16926
16868
16831
16991
16871
16851
17077
16866
16932
16863
16860
16959
16877
16927
16883
16882
16959
16893
16935
16895
16876
17058
16901
16930
16903
16909
16968
16888
17038
16924
16963
16916
16942
16945
16932
17613
16938
16981
16933
16951
16958
16947
17183
16966
16993
16967
16965
17009
16965
17239
16986
16999
17919
16988
17028
16977
17087
17003
17002
17354
17024
17012
17889
17023
17047
17013
17081
17038
17036
17016
17102
17054
17059
17033
17101
17051
17074
17047
17092
17072
17081
17055
17578
17066
17132
17057
17346
17087
17116
17073
17973
17106
17161
17087
17213
17125
17147
17108
17223
17126
17183
17119
17115
17360
17167
17143
17137
17159
17197
17154
17138
17159
17517
17173
17168
17209
17209
17175
17163
18138
17227
17181
17232
17188
17175
17218
17214
17227
17190
17289
17220
17252
17205
17525
17227
17240
17230
17210
17501
17246
17295
17220
17390
17250
17301
17236
17535
17263
17319
17261
17470
17271
17312
17255
18023
17288
17342
17285
17276
18275
17293
17311
17285
17498
17306
17325
17309
17319
17381
17303
17681
17334
17327
17799
17342
17356
17999
17345
17378
17340
17341
17404
17329
17647
17357
17411
17342
17551
17375
17391
17358
17493
17396
17383
17367
17381
17420
17375
17403
17412
17509
17415
17415
17393
17417
17429
17426
17455
17458
17419
17410
17451
17470
17412
17582
17441
17453
17429
17491
17453
17439
17531
17477
17445
17468
17442
17473
17450
17468
17453
17462
17469
17471
17487
17602
17517
17478
17498
17473
17486
17514
17620
17559
17478
17504
17496
17543
17571
17489
17516
17529
17717
17534
17498
17591
17575
17517
17531
17564
17529
17538
17532
17565
17582
17543
17549
17545
17663
17606
18022
17590
17551
17564
17574
17631
17631
17563
17578
17563
17607
17626
17581
17584
17586
18043
17604
17582
17617
17658
18310
17630
17606
17620
17589
17652
17654
17991
17652
17610
17638
17616
17631
17649
17828
17698
17636
17661
17631
17714
17706
18671
17664
17641
17686
17723
17655
17665
17710
17659
17665
17695
17799
17738
17663
17682
17711
18439
17703
17679
18022
17721
17695
17707
17749
18393
17735
17707
17727
17702
17766
17781
18597
17742
17719
17735
17730
17743
17789
18535
17760
17749
17775
17730
17761
17794
18383
17791
17746
17778
17807
18367
17799
17759
17813
17823
18063
17813
17779
17807
17795
17818
17807
17847
17872
17808
17825
17823
17939
17846
17831
17834
17871
18196
17855
17837
17847
17867
17820
17868
17854
17875
17914
17852
17877
17870
17889
17891
17863
17878
17896
18041
17901
17908
17881
17893
17942
17907
17926
17972
17900
17917
17961
17916
17918
17932
18124
17940
17927
18325
17937
17989
17928
17971
18007
17939
17966
18011
17946
17958
18022
17965
17971
17999
17959
17989
18009
18956
17991
18017
18938
17996
18047
17993
18014
18033
18519
18037
18010
18055
18083
18021
18047
18045
18132
18083
18423
18063
18048
18054
18053
18090
18103
18057
18092
18053
18079
18069
18138
18106
18071
18191
18114
18079
18100
18095
18189
18134
18100
18117
18159
18110
18129
18155
18406
18148
18123
18213
18196
18143
18162
18199
18152
18149
18732
18171
18188
18552
18200
18162
18183
18223
18182
18201
18219
18447
18228
18199
18227
18236
18199
18277
18236
18214
18230
18239
18399
18255
18242
18391
18275
18249
18451
18281
18290
19104
18270
18331
18259
18326
18303
18292
18399
18313
18294
18743
18314
18356
18311
18314
18358
18319
18340
18372
18325
18342
18393
18331
18356
18396
18344
18362
18408
18354
18422
18386
18380
18604
18395
18386
18722
18407
18413
18401
18408
18464
18404
18639
18439
18423
18673
18442
18444
18758
18452
18483
18442
18461
18486
18454
18470
18511
18959
18479
18473
18553
18498
18485
18551
18518
18489
18779
18531
18522
18551
18584
18511
18553
18580
18529
18551
18596
18531
19228
18570
18604
18558
18599
18620
18563
18786
18593
18573
18605
18648
18585
18630
18654
18604
18738
18625
18605
18978
18633
18647
18963
18645
18622
18683
18707
18636
18653
18682
18748
18713
18667
18684
18674
18920
18709
18695
18855
18713
18684
18815
18733
18708
18831
18737
18718
18823
18754
18737
18753
18802
18743
18754
18811
18754
18775
18813
19494
18785
18777
18835
18847
18780
18808
18849
18796
18815
18807
18945
18860
18813
18834
18836
19124
18849
18837
18897
18906
18831
18864
18896
19513
18872
18853
18878
18895
19045
18880
18860
18913
18916
19654
18895
18889
19004
18904
18913
18893
19476
18913
18971
18913
18930
18917
19006
18972
18919
18928
18974
19526
18970
18942
18980
18986
19129
18985
18955
18998
18997
19415
18986
18969
19035
19028
19719
19009
19003
19080
19048
19012
19102
19032
19017
19188
19034
19031
19149
19045
19023
19068
19082
19042
19052
19094
19052
19076
19095
19069
19074
19078
19251
19092
19078
19099
19090
19144
19137
19318
19146
19100
19119
19111
19115
19119
19281
19140
19119
19140
19166
19474
19153
19134
19149
19131
19166
19183
19271
19203
19159
19171
19198
19726
19180
19166
19236
19212
19178
19233
19246
19183
19209
19221
19425
19220
19204
19221
19239
19533
19231
19217
19308
19272
19219
19245
19233
19362
19255
19244
19252
19261
19316
19297
19844
19273
19258
19323
19300
19266
19276
19286
19597
19293
19294
19839
19300
19288
19522
19306
19301
19363
19345
19569
19334
19311
19317
19336
19630
19335
19314
19366
19362
19324
19379
19367
19332
19356
19380
19337
19414
19356
19354
19671
19367
19356
19637
19372
19382
19444
19401
19356
19403
19393
19371
19531
19397
19373
19509
19431
19862
19401
19381
19485
19428
19396
19407
19390
19404
19407
19481
19430
19820
19420
19412
19434
19422
19550
19455
19734
19421
19420
19473
19458
19431
19431
19437
19541
19446
19418
19455
19462
19744
19447
19431
19453
19449
19508
19473
19628
19484
19441
19459
19448
19455
19453
19473
19463
19592
19493
19738
19484
19710
19454
19452
19500
19494
19451
19463
19455
19473
19486
19829
19468
19470
19583
19472
19451
19457
19479
19782
19476
19460
19509
19503
19456
19469
19461
19551
19481
19449
19479
19471
19637
19471
19468
19521
19499
19514
19480
19447
19475
19470
19485
19503
19454
19473
19463
19503
19484
19661
19474
19471
19649
19468
19455
19463
19470
19530
19493
19447
19475
19463
19490
19478
19452
19457
19460
19540
19477
19444
19460
19460
19495
19471
19446
19463
19455
19597
19455
19441
19480
19460
19554
19455
19428
19452
19436
19476
19460
19439
19444
19439
19452
19435
19485
19450
19538
19439
19432
19522
19436
19431
19482
19434
19431
19454
19426
19418
19434
19429
19447
19430
19416
19429
19412
19434
19420
19407
19423
19406
19403
19410
19401
19399
19407
19408
19382
19405
19404
19378
19405
19391
19395
19396
19382
19395
19387
19384
19375
19382
19383
19384
19367
19364
19366
19277
19377
19369
19343
19367
19360
19340
19374
19352
19303
19362
19348
19343
19349
19303
19356
19351
19305
19351
19341
19289
19357
19335
19220
19340
19333
19206
19333
19327
19260
19322
19327
19325
19315
19270
19310
19319
19302
19306
19193
19316
19311
19294
19289
19182
19297
19310
19316
19297
19309
19287
19289
19287
19207
19291
19296
19299
19280
19258
19273
19095
19297
19274
19241
19268
19278
19278
19272
19202
19262
19059
19287
19272
19270
19263
19271
19269
19272
19262
19265
19256
19191
19243
19265
19262
19247
19157
19234
19053
19263
19252
19185
19230
19266
19252
19247
19170
19218
19260
19206
19228
19246
19223
19228
19253
19239
19222
19246
19215
19227
19260
19225
19227
19254
19247
19231
19021
19265
19245
19158
19242
19248
19230
19230
19006
19247
19235
18983
19238
19242
18964
19253
19249
19121
19248
19261
19217
19239
18972
19255
19242
18964
19253
19265
19069
19271
19254
19174
19235
19276
19248
19245
19059
19289
19284
19191
19241
19294
19258
19270
19108
19272
19295
19309
19302
19281
19276
19044
19308
19303
19294
19296
19212
19271
19096
19335
19317
19279
19303
19177
19308
19333
19207
19317
19327
19210
19295
19349
19341
19346
19153
19324
19355
19362
19362
19222
19383
19366
19279
19333
19388
19331
19351
19079
19389
19382
19234
19374
19402
19381
19390
19147
19428
19430
19367
19407
19270
19375
19068
19452
19438
19364
19389
19461
19444
19460
19337
19455
19463
19435
19443
19113
19492
19471
19117
19463
19439
19527
19480
19494
19252
19542
19530
19396
19521
19546
19429
19569
19558
19335
19523
19572
19525
19515
19596
19572
19586
19284
19623
19597
19237
19591
19558
19239
19639
19634
19562
19615
19318
19656
19675
19677
19661
19499
19689
19697
19634
19635
19294
19692
19695
19545
19707
19732
19733
19731
19399
19767
19762
19685
19706
19782
19713
19775
19794
19700
19755
19814
19746
19753
19828
19678
19853
19860
19783
19782
19438
19876
19809
19877
19893
19686
19658
19866
19927
19892
19906
19715
19954
19945
19813
19953
19972
19930
19957
19563
19971
19987
19783
19975
20024
19965
19949
19815
20032
19992
20078
20007
19991
20094
20003
20037
20111
20063
20107
20005
20044
19844
20155
20153
20118
20107
19787
20185
20186
19990
20192
20217
20167
20143
20250
20231
20231
19836
20269
20264
20197
20248
19986
20323
20308
20201
20231
20349
20255
20273
20359
20335
20277
20392
20335
20297
19956
20415
20412
20302
20333
20430
20409
20352
20467
20373
20414
20467
20397
20427
20159
20524
20529
20434
20430
20117
20571
20565
20474
20566
20583
20414
20614
20605
20500
20639
20628
20318
20650
20655
20624
20589
20686
20628
20607
20247
20687
20673
20397
20734
20734
20580
20749
20780
20731
20711
20800
20713
20728
20837
20796
20751
20842
20870
20835
20447
20871
20813
20412
20871
20812
20479
20946
20949
20909
20880
20781
20932
20990
20980
20966
20591
21046
21024
20742
21068
21063
20955
20992
21095
21107
21109
21015
21047
21139
21121
21130
21049
21054
20774
21188
21191
21103
21163
21209
21225
21218
21023
21284
21276
21224
21220
20849
21283
21332
21337
21338
21255
21239
20964
21391
21404
21407
21404
21358
21341
20956
21436
21452
21319
21428
21069
21511
21488
21321
21546
21532
21455
21424
21560
21507
21468
21343
21613
21506
21615
21143
21592
21591
21460
21671
21676
21604
21587
21716
21684
21639
21527
21635
21253
21792
21783
21711
21697
21683
21700
21663
21709
21599
21790
21365
21898
21895
21841
21784
21404
21927
21885
21957
21951
21933
21794
22023
22010
21922
21911
22029
21977
21927
22071
22040
21956
21578
22106
22060
21964
22074
22155
22126
22085
21780
22215
22193
22001
22233
22228
22149
22135
21753
22235
22228
22031
22314
22297
21960
22348
22342
22268
22231
21853
22388
22398
22357
22409
22317
22316
22452
22387
22374
21940
22489
22503
22425
22378
22059
22556
22546
22548
22562
22418
22579
22602
22534
22470
22178
22657
22661
22578
22526
22200
22708
22712
22670
22708
22590
22692
22762
22751
22732
22607
22668
22311
22823
22828
22764
22710
22490
22883
22884
22693
22812
22367
22945
22932
22919
22916
22844
22820
22703
22847
22726
22869
22466
23046
23056
22999
22914
22517
23088
23059
22935
23153
23126
23063
22997
22614
23178
23186
23137
23049
22724
23231
23165
22831
23278
23266
23159
23156
22823
23301
23290
23127
23361
23344
23267
23319
23385
23308
23265
23414
23409
23341
23165
23469
23463
23373
23398
23508
23452
23365
23532
23513
23407
23016
23578
23523
23109
23581
23511
23636
23369
23671
23511
23669
23434
23703
23571
23722
23637
23758
23748
23201
23727
23638
23799
23788
23663
23844
23796
23701
23876
23700
23907
23849
23571
23926
23893
23382
23913
23795
23977
23935
23824
23468
24023
24021
23697
24059
24006
23522
24049
23943
24101
24052
24109
24148
23953
24172
24169
24151
24084
24034
24222
24234
24052
24279
24263
24059
24303
24292
23964
24321
24161
23779
24359
24209
24347
24393
24288
24419
24423
24309
24463
24454
24239
24484
24492
24359
24501
24509
24303
24527
24559
24496
24490
24583
24496
24613
24631
24570
24483
24084
24681
24688
24660
24564
24431
24718
24743
24678
24644
24766
24693
24763
24807
24761
24647
24274
24857
24855
24708
24854
24898
24883
24776
24943
24847
24985
24961
24490
24997
24917
24452
25031
24935
24668
25071
25060
24845
25125
25082
24900
25156
25158
25082
25118
25188
25047
25217
25130
25237
25213
25071
25262
25260
25137
24836
25337
25308
25085
25375
25365
25310
25213
25391
25364
25244
25100
25401
25305
25469
25216
25505
25351
24916
25529
25489
25319
25572
25567
25527
25412
25607
25597
25455
25069
25640
25501
25685
25623
25583
25725
25638
25556
25164
25786
25780
25741
25618
25220
25839
25854
25795
25681
25379
25916
25897
25488
25936
25780
25349
25978
25935
25730
26020
26015
26007
26004
25943
25942
26076
26084
26110
26081
26110
25985
25965
25639
26196
26194
26172
26028
25770
26082
25995
26091
25674
26263
26182
26257
26322
26026
26312
26380
26191
26402
26406
26419
26026
26366
26447
26343
26340
26482
26324
26524
26318
26529
26553
26239
26478
26599
26405
26615
26321
26640
26459
26664
26574
26695
26514
26712
26619
26711
26766
26574
26791
26523
26793
26734
26780
26217
26775
26855
26903
26698
26910
26917
26710
26917
26953
26792
26981
26476
26987
27036
26865
26876
27066
27073
26777
27052
27123
26927
27036
27138
26566
26929
27132
27200
27175
27077
27245
26907
27245
27199
27204
27295
27261
27333
27268
27219
27362
26839
27343
27421
27306
27347
27439
27378
27495
27326
27501
27373
27524
27374
27535
27551
27529
27613
27383
27622
27493
27654
27484
27663
27676
27607
27662
27701
27116
27692
27771
27558
27786
27347
27791
27733
27831
27855
27684
27872
27883
27693
27911
27359
27900
27975
27743
27895
27988
27630
27969
28052
27892
28052
27911
28089
28039
27884
28127
28143
28024
28167
27995
28124
28198
28002
28213
28109
28156
28263
28240
28295
28082
28317
27716
28303
28367
28271
28391
28359
28430
28356
27815
28414
28477
28251
28489
28313
28515
28318
28534
28201
28564
28450
28575
28612
28524
28650
28532
28027
28627
28689
28513
28708
28711
28559
28732
28773
28608
28729
28797
28809
28724
28836
28876
28663
28885
28487
28908
28711
28359
28956
28803
28970
28985
28918
28604
29045
29044
29036
28845
28455
29094
29071
28989
29090
29132
29107
29078
29180
29187
29158
29123
29095
29254
29252
29084
28947
29326
29319
29297
29103
29351
29374
29174
29131
29382
29417
29415
29286
29148
29492
29478
29495
29377
29223
29561
29506
29470
29447
29589
29615
29511
28967
29626
29423
29053
29687
29447
29703
29670
29766
29657
29311
29790
29605
29791
29793
29580
29851
29844
29783
29884
29471
29921
29900
29511
29964
29869
29669
30006
29926
29703
30046
30039
30048
30002
30065
29467
30102
30078
29940
29932
29939
29917
29982
29951
30191
29651
30147
30259
30023
30274
29855
30311
30268
30198
30343
30332
30388
30173
30394
30271
30444
30205
30267
30471
30470
30493
30279
30516
30540
30414
30559
30005
30571
30607
30357
30616
30055
30620
30679
30578
30527
30446
30629
30726
30692
30768
30505
30775
30119
30772
30828
30619
30799
30861
30599
30866
30909
30772
30929
30921
30590
30954
31004
30736
30821
31020
31030
30899
31020
31052
31095
31074
30850
31119
30532
31060
31153
31185
31020
30962
31198
31218
31194
31262
31229
31045
31284
30951
31294
31334
31289
31193
31371
30980
31363
31415
31420
31175
31435
30855
31382
31417
31292
31071
30868
31522
31544
31557
31263
31583
31621
31623
31505
31639
31135
31650
31695
31428
31692
31581
31649
31751
31716
31582
31796
31785
31785
31830
31567
31847
31301
31814
31887
31918
31647
31925
31311
31935
31964
31975
32012
32031
31955
32019
32043
31794
32071
31657
32092
32127
31948
32132
32054
32169
31926
32180
31930
32214
31970
32224
32191
32292
32144
32285
32109
32325
32068
32327
32349
31858
32348
32405
32428
32194
32415
32444
32247
32474
32499
32252
32369
32519
31855
32531
32581
32330
32594
31996
32550
32629
32583
32538
32645
32055
32533
32685
32717
32757
32642
32519
32767
32774
32151
32792
32839
32567
32804
32843
32645
32877
32916
32628
32934
32375
32903
32972
32991
32762
32926
33001
32588
33039
33063
32950
33078
33093
33111
33063
32510
33151
32986
33159
32539
33167
33220
32930
33223
32866
33203
33284
32999
33295
33002
33332
33287
33224
33346
33234
33383
33423
33133
33419
33109
33447
33488
33337
33444
33491
33527
33368
33540
33409
33567
33375
33521
33589
33468
33643
33423
33647
33252
33687
33695
33685
33698
33724
33734
33607
33765
33348
33791
33767
33780
33190
33848
33876
33714
33881
33895
33847
33874
33301
33930
33963
33698
33983
33919
34015
33793
33883
34030
33737
34074
33911
34087
33527
34119
34129
34114
34141
34049
34196
34197
34111
34113
34231
34228
34280
33970
34265
34178
34302
34290
33812
34343
34232
34324
34377
34351
34418
34303
33919
34455
34164
34455
34468
34487
34464
33899
34526
34375
34523
34530
34564
34597
34455
34588
34628
34618
34631
34366
34661
34695
34674
34647
34468
34713
34747
34472
34618
34781
34781
34803
34751
34612
34850
34836
34846
34887
34890
34765
34288
34927
34939
34923
34668
34382
34985
34985
35012
34997
34984
34868
35047
35074
35047
35069
34879
34927
35140
35113
35142
34950
34885
35185
34979
34638
35231
35223
35255
35159
35193
35157
35273
35314
35263
35205
35300
35332
35356
35189
35127
35295
35396
35422
35252
34772
35470
35442
35470
35262
35191
35354
35513
35543
35527
35549
35388
35515
35407
35584
35327
35640
35623
35635
35655
35691
35621
35605
35416
35094
35748
35725
35751
35709
35713
35500
35104
35741
35815
35847
35839
35871
35786
35782
35695
35278
35933
35913
35930
35687
35731
35981
35991
36002
35719
36003
36039
35895
36051
35759
35535
36108
36095
36056
35820
35415
36166
36115
36026
36198
36183
36216
36022
35687
36255
36236
36223
36103
36289
36316
36199
36143
36341
36346
36359
36076
35967
36406
36334
35839
36436
36373
36454
36175
35808
36495
36483
36483
36279
36539
36495
36567
36276
36206
36588
36607
36615
36358
36628
36655
36445
36671
36647
36710
36706
36459
36721
36739
36567
36757
36775
36531
36095
36831
36788
36828
36535
36844
36871
36570
36894
36903
36660
36911
36940
36842
36956
36967
36675
36320
37006
37013
37020
36735
37043
37063
36853
37076
37094
36805
37095
37140
36863
37151
37175
36884
37156
37197
36981
37191
37231
37171
37230
37279
36989
37271
37308
37279
37295
37229
37342
37278
37247
37351
37407
37123
37127
37216
37439
37461
37351
37422
37349
37484
37518
37295
36799
37549
37244
37557
37583
37303
37598
37608
37463
37366
37639
37626
37524
37686
37675
37543
37714
37703
37735
37655
37735
37780
37735
37479
37815
37795
37777
37530
37838
37865
37809
37691
37894
37893
37917
37655
37295
37961
37943
37823
37993
37978
38004
37895
38023
37961
38049
38042
37500
38088
38015
38103
38126
37895
38126
38098
38175
38151
37974
38197
38158
37951
38231
38236
38023
38266
38263
38303
38247
38221
38316
38325
38263
38366
38312
38373
38395
38133
38394
38434
38172
38436
38456
38251
38462
38486
38229
38499
38532
38279
38536
38571
38461
38385
38607
38587
38630
38380
37911
38657
38647
38603
38604
38685
38718
38482
38723
38756
38517
38327
38780
38774
38798
38589
38807
38843
38569
38842
38876
38863
38836
38756
38892
38919
38919
38812
38955
38948
38911
38980
38991
39014
38760
38684
39047
39036
39042
39076
39064
38715
39123
39089
38540
39147
38971
38727
39183
39175
39009
39223
39199
39228
39009
39237
39271
39258
39239
39302
39303
39220
39153
39333
39365
39358
39366
39320
39375
39397
39278
39423
39459
39202
39446
39455
39431
39495
39515
39241
39517
39559
39388
39220
39579
39577
39579
39415
39602
39648
39620
39519
39636
39668
39698
39679
39687
39551
39727
39723
39726
39775
39719
39570
39618
39081
39823
39815
39750
39815
39857
39883
39639
39215
39908
39903
39943
39935
39736
39969
39983
39707
39246
40012
40002
40044
39842
39453
40063
40062
39875
40106
40078
39894
40143
40090
40105
39999
40153
40199
40183
40215
39968
39506
40239
40234
40263
40245
40268
40243
40312
40076
40308
39980
40255
40351
40359
40367
40384
40122
39789
40422
40420
40445
40222
40436
40484
40237
39884
40514
40491
40540
40319
40417
40519
40558
40589
40589
40622
40584
40628
40414
40640
40670
40642
40583
40415
40685
40711
40691
40743
40711
40711
40489
40775
40803
40799
40830
40647
40455
40820
40845
40879
40850
40892
40649
40839
40657
40311
40935
40941
40967
40711
40280
40993
40999
41022
40963
41020
41055
40815
41054
41086
41068
41031
40844
40567
41135
41119
41156
40908
41156
41187
41132
41001
40983
41223
41255
41215
41250
41086
40877
41286
41287
41255
41294
41326
41347
41303
41334
41383
41279
41390
41431
41199
40646
41445
41436
41428
41212
41455
41503
41479
41434
41527
41511
41269
41556
41557
41578
41566
41575
41629
41605
41556
41408
41631
41663
41649
41447
41690
41687
41697
41607
41713
41748
41724
41743
41586
41783
41803
41780
41831
41799
41847
41607
41839
41861
41863
41895
41735
41315
41930
41915
41812
41935
41941
41971
41719
41975
42028
41935
41927
41950
42036
42078
42024
41637
42079
42078
42116
41899
42119
42153
41901
41434
42169
42151
41982
42199
42191
42222
42015
42215
42261
42231
42199
42191
42263
42311
42060
42299
42343
42071
42335
42375
42351
42406
42146
41977
42417
42407
42313
42430
42429
42472
42229
42477
42486
42494
42487
42428
42524
42533
42158
42563
42550
42575
42581
42602
42630
42364
42620
42668
42397
42156
42669
42657
42716
42468
42705
42750
42460
42720
42781
42535
41958
42799
42661
42049
42817
42615
42814
42863
42576
42836
42890
42671
42873
42921
42908
42873
42695
42946
42881
42383
42973
42950
42907
42979
42982
43015
42839
43014
43060
42943
43047
42812
43083
42847
43084
43140
43116
43015
43160
43140
43143
42911
43183
43196
43226
43228
43239
43115
42741
43228
43245
43231
43070
43038
43228
43215
43061
43230
43295
43281
43338
43340
43359
42717
42799
42817
43399
43405
43237
43407
43481
43256
42619
43500
43236
43476
43527
43287
42727
43527
43518
43574
43556
43553
43296
43595
43572
43367
43623
43622
43095
43652
43631
43700
43604
43485
43627
43677
43740
43675
43663
43514
43055
43754
43751
43815
43550
43247
43846
43579
43804
43846
43831
43879
43655
43107
43901
43680
43893
43935
43718
43109
43951
43924
43655
43964
43975
43943
43900
43988
44039
43812
43182
44052
44031
44082
44007
43570
44111
44076
43707
44103
44108
44153
44028
44031
44141
44189
44013
43524
44199
44135
44197
44246
44033
44236
44289
44182
44243
44252
44104
44289
44309
44327
44342
44354
43903
43689
43542
44355
44351
44361
44374
44388
44379
44399
44327
44431
44423
44471
44463
44459
44423
44486
44476
43985
44519
44513
44421
44549
44533
44565
44551
44578
44613
44375
43814
44631
44599
44404
44644
44631
44423
44668
44668
44423
44708
44615
43799
44743
44608
44551
44735
44724
44668
44764
44764
44367
44795
44768
44551
44849
44583
44825
44884
44660
44031
44888
44700
44879
44905
44830
44871
44909
44911
44935
44903
44950
44927
44891
44983
44954
44983
44983
45007
44767
45007
44903
45052
44980
44807
45063
45039
45119
44850
45063
45127
44896
45097
45151
44956
45132
44471
45189
45150
45148
45139
45183
45189
45031
45215
45191
44821
45243
45031
45020
45024
45159
45266
45284
45280
45063
45319
45239
45308
45351
45231
45329
45127
45379
45342
45389
45383
45383
45372
45395
45389
45459
45209
45414
45476
45245
44572
45492
45431
45475
45524
45381
45489
44807
45540
45356
45524
45567
45447
45535
45596
45388
45559
45616
45429
45575
45647
45572
45199
45622
45626
45687
45439
45259
45575
45662
45722
45647
45354
45703
45696
45761
45607
45319
45711
45740
45791
45565
45760
45821
45652
45015
45815
45806
45849
45597
44908
45863
45849
45727
45873
45860
45191
45906
45880
45308
45933
45887
45958
45791
45945
45965
45907
45439
45991
45959
45332
46005
45916
45996
46055
45814
46033
46047
45876
46038
46111
45861
46063
46087
45895
46079
46135
45863
46110
46175
45910
46132
46087
46156
46145
46167
46162
46156
46130
46188
46201
46215
46220
46213
45799
46241
46239
46085
46271
46135
46255
46325
46116
46277
46279
46335
46287
45831
46364
46154
46343
46376
46325
46361
46423
46162
46405
46447
46414
46406
46416
46485
46239
46445
46431
46468
46404
46459
46503
46511
46492
45604
46537
46378
46524
46583
46364
46535
46539
46569
46423
46567
46636
46483
46589
46623
46599
46599
46391
46651
46644
46622
46670
46652
46649
46543
46671
46733
46548
46695
46755
46650
46718
46773
46727
46727
46431
46804
46589
46772
46788
46772
46788
46789
46823
46815
46831
46781
46847
46532
46887
46671
46879
46844
46912
46878
46918
46956
46709
46924
46757
46947
46936
46276
46996
46916
46179
47009
46763
46996
47035
46831
47014
47064
46935
46238
47009
47054
47082
46956
47069
47111
46935
47089
47143
47108
47135
46924
47135
47190
47111
46426
47206
47094
47172
47143
47207
47199
47160
47108
47231
47239
47079
47237
47287
47204
47267
47305
47132
47277
47331
47300
47303
46853
47343
47308
47309
47354
47358
47096
47383
47367
46529
47428
47202
47415
47450
47386
46510
47471
47271
47439
47484
47443
46569
47517
47415
47397
47382
46599
47527
47527
47556
47503
47540
47580
47402
47569
47612
47463
47590
47623
47581
47095
47617
47613
47591
47654
47655
47695
47588
47335
47679
47684
47735
47500
46957
47733
47721
47783
47690
47527
47593
47751
47804
47711
46887
47807
47803
47815
47683
47812
47871
47621
47826
47879
47647
47838
47909
47694
47879
47929
47879
47855
47775
47908
47957
47911
47591
47946
47956
48007
47945
47911
47946
47978
48036
47855
47999
48061
47998
48039
48101
47911
48049
48110
47879
48071
48116
48062
48107
48034
48108
48171
47967
48117
48170
48036
48158
48196
47988
48162
48239
48031
48199
48241
48024
48222
48244
48071
48244
48284
48244
48135
48175
48263
48310
48292
48355
48180
48305
48370
48222
48329
48379
48271
47799
48375
48364
48420
48263
48384
48455
48404
48456
48263
47574
48463
48447
48428
48466
48470
48485
48452
48481
48536
48391
48521
48574
48350
48535
48574
48353
48551
48591
48559
48583
48590
48599
48647
48420
48263
48527
48629
48672
48600
48295
48671
48647
48626
48516
48679
48718
48695
48718
48647
48730
48766
48666
48734
48799
48573
48764
48807
48740
48791
48774
48630
48807
48875
48711
48831
48887
48777
47919
48895
48751
48887
48932
48703
47975
48941
48807
48100
48941
48935
48823
48927
48962
49004
48879
48967
49031
48976
48995
49046
48998
49009
49084
48903
48391
49062
49051
49114
48978
48375
49108
49087
49094
49106
49111
48902
49151
49102
49057
49193
49006
49172
49228
49120
49173
49255
49204
49223
49215
49238
49217
48991
49260
49231
48343
49318
49173
49271
48807
49319
49298
49311
49287
49311
49376
49213
49353
49263
49398
49356
48831
49415
49236
49399
49351
49415
49415
48532
49500
49375
49452
48554
49503
49279
49479
48535
49542
49524
49335
49527
49460
49535
49491
49551
49573
49559
49551
49076
49623
49405
49596
49451
49641
49463
49620
49604
49655
49647
48942
49730
49463
49671
49744
49669
49703
48955
49738
49719
49616
49735
49738
49820
49735
49767
49831
49791
49775
49781
49860
49671
49823
49758
49852
49804
49011
49911
49711
49871
49316
49919
49732
49895
49609
49927
49725
49923
49927
49991
49940
49950
49955
50020
49983
49985
49991
50022
50012
49948
50015
50095
49867
50031
50087
50025
49115
50105
50087
50113
49942
50080
50167
50097
49543
50145
50136
50204
50036
49407
50183
50175
50252
50055
49323
50238
50206
50029
50252
50247
50309
50244
49891
50295
50279
50132
50303
50294
50231
50319
50311
50366
50231
50333
50407
50239
50359
50418
50263
50368
50439
50279
50412
50438
50452
50404
49497
50504
50272
50456
50524
50328
50466
50543
50490
50510
50476
50503
50538
50453
50532
50606
50367
50557
50604
50561
50172
50609
50596
50287
50671
50631
50621
50623
50695
50467
50636
50687
50662
50666
50653
50695
50695
50423
50737
50544
50725
50747
50735
50743
50549
50773
50751
50486
50780
50754
50782
50823
50695
50812
50838
50679
50823
50885
50767
50868
50540
50907
50870
50495
50942
50852
50911
50951
50891
50930
50892
50951
50945
50951
51006
50989
50975
50351
51045
50895
51000
50903
51059
50975
51028
50951
51097
50904
51063
51070
51014
51111
50983
51099
51148
50956
51125
50484
51193
51095
51143
50284
51207
51172
51157
51186
51238
51079
51202
50640
51278
51259
51180
51259
50386
51207
50439
51281
51135
51311
51319
51293
51316
51159
51332
51390
51157
50551
51356
51358
51199
51374
51301
51431
51387
51408
51461
51375
51423
51449
51351
51432
51506
51310
51463
51518
51399
50980
51495
51500
51535
51510
51453
51402
51535
51588
51399
51559
51567
51589
51564
51068
51644
51456
51607
51652
51636
51413
51652
51637
51417
51671
51655
51092
51711
51657
51686
51750
51559
51709
51754
51719
51079
51806
51607
51751
51803
51742
51055
51823
51756
51796
51863
51767
51815
51847
51815
51675
51825
51860
51886
51719
51877
51948
51751
51895
51951
51831
51671
51863
51916
51975
51783
51938
51995
51825
51472
52007
51975
51624
52014
52015
51881
51967
52020
52037
51935
52054
52096
51898
52071
52135
51941
52074
52132
51949
52111
52165
51996
52111
52159
52103
51463
52166
52163
52165
52071
52181
52103
52205
52199
52180
52111
52217
52223
52227
52231
51500
52274
52231
51795
52294
52231
51444
52303
52300
52327
52181
51637
52327
52309
52382
52182
52327
52380
52356
52351
52279
52383
52439
52277
52375
52431
52330
52406
52461
52390
52433
52372
52441
52487
52303
52447
52487
52452
52148
52447
52470
52543
52343
52487
52551
52455
52519
52572
52535
52195
52540
52548
52613
52407
52567
52622
52551
52583
52615
52599
52605
52255
52623
52607
51927
52655
52583
51761
52703
52579
52660
52719
52487
52679
52687
52636
52679
52740
52631
52714
52740
52607
52727
52790
52743
52732
52583
52743
52823
52596
52773
52743
52830
52645
52778
52876
52740
52807
52895
52663
52839
52895
52684
52833
52895
52709
52860
52890
52767
52871
52927
52812
52879
52967
52863
51975
52946
52925
52615
52942
52935
52767
52967
52951
52934
52946
52964
53063
52839
52983
53038
52999
53015
52828
52999
53071
52991
52004
53063
53039
52982
53037
53052
53141
52908
52071
53124
53095
52140
53159
53059
52084
53167
53127
52847
53156
53134
52340
53180
53174
53092
53077
53159
53230
53177
53208
53184
53199
53190
53284
53213
53199
53044
53193
53255
53228
53093
53237
53255
53255
52770
52999
53347
53349
53351
53327
53307
53356
53309
53358
53255
53332
53407
53232
53334
53419
53318
52611
53380
53364
53461
53303
53383
53471
53223
53391
53503
53336
53420
53507
53250
53415
53493
53446
53447
53364
53447
53511
53427
53299
53309
52519
53524
53511
53557
53383
53505
53581
53544
53540
52574
53588
53527
53555
53596
53491
52616
53604
53591
53468
53535
53599
53675
53591
53605
53695
53458
53630
53703
53485
52711
53671
53668
53679
53695
53671
53613
53685
53710
53758
53588
53703
53799
53597
53727
53799
53655
53167
53803
53596
53707
53777
53767
53663
53845
53847
53688
53805
53802
53799
53591
53887
53860
53677
53842
53842
53676
53914
53858
53844
53859
53446
53947
53911
53790
53910
53911
53415
53983
53940
53840
53814
53941
53950
53951
53831
54023
54007
53991
53894
53934
53999
53996
53623
54062
54018
53887
54015
54023
53806
54119
54111
54111
54086
54135
53805
53983
54087
54119
53892
54119
54007
54159
54113
53994
54167
54143
54143
53425
54108
54191
54167
54023
54229
54175
54039
54252
54188
54204
54233
54087
54226
54166
54231
54247
54247
54112
54303
54276
54263
54175
54271
54279
54228
54328
54359
54359
54351
54375
54333
54332
54342
54348
54279
54234
54336
54369
54369
54381
54390
54404
54389
54415
54279
54471
54437
54329
54424
54451
53764
54481
54479
54447
54359
54471
54481
54484
54052
54495
54575
54519
54391
54519
54533
54535
53767
54415
54597
54599
54582
54469
54579
54596
54250
54588
54639
54599
54484
54628
54628
54620
53882
54575
54693
54660
54542
54673
54679
54695
54695
53959
54663
54746
54725
54709
54628
54613
54711
54736
54743
54753
54535
54639
54818
54783
54720
54676
54756
54687
54732
54804
54809
54826
54829
54356
54663
54820
54895
54878
54863
54789
54812
54863
54879
54879
54892
54214
54783
54903
54956
54939
54862
54823
54948
54959
54975
54967
54973
54364
54919
54497
54993
55015
55016
54575
54983
54459
55029
55047
54970
55047
54941
55088
54367
55012
55100
54615
55087
54470
55162
55108
55142
55110
55023
55183
54455
55139
55175
55039
55156
55060
55207
55047
55204
55109
55199
55236
55157
55210
55203
54900
55217
55279
55268
55255
55196
55175
55263
55279
55271
55271
55092
55335
55319
55215
55296
55318
55326
54951
55294
55383
55367
55343
55359
55364
55383
55375
55047
55404
55431
55425
55326
55415
55420
55415
55423
55431
55447
55451
55454
55271
55521
55493
55391
55463
55495
55502
55068
55541
55543
55516
55431
55495
55535
55534
55503
55599
55535
55509
55583
55583
55031
55543
55650
55635
55623
55615
55540
55599
55630
55633
55648
55031
55664
55667
55658
55674
55674
55685
55681
55695
55700
55711
55714
55215
55596
55768
55763
55679
55750
55760
55754
55599
55668
55815
55802
55762
55788
55278
55842
55868
55836
55815
55846
55268
55802
55894
55869
55796
55796
55861
55877
55879
55878
55287
55859
55952
55935
55942
55941
55926
55900
55847
55932
55943
55943
55962
55556
56004
55991
55900
55970
55983
55991
55996
55997
56005
55869
56055
56063
55965
55957
56049
56052
56060
56055
56056
55735
56036
56126
56126
56111
56108
56056
56117
56119
55559
56138
56160
56055
56148
56150
56015
56199
56182
56104
56175
56189
55687
56068
56215
56239
56255
56227
56167
56204
56236
56237
55844
56263
56287
56277
56190
56247
56279
56286
55786
56278
56350
56312
56236
56309
56325
56327
56325
55964
56274
56391
56372
56346
56292
56367
56388
56212
56404
56415
56415
56317
56391
56431
55869
56452
56439
56383
56436
56038
56493
56455
56464
56455
56356
56518
56500
56455
56486
56503
56495
56509
56420
56508
56546
56540
56453
56532
56556
56567
56563
56052
56511
56600
56612
56604
56593
56580
56530
56567
56604
56604
56617
56622
56166
56526
56653
56673
56583
56628
56684
56679
56321
56695
56711
56607
56700
56700
56701
56653
56766
56751
56772
56740
56645
56775
56783
56741
56671
56756
56772
56782
56772
56604
56815
56799
56751
56775
56814
56815
56804
56407
56830
56869
56839
56787
56796
56839
56855
56871
56367
56858
56919
56900
56814
56868
56895
56903
56908
56359
56322
56391
56865
56959
56967
56962
56964
56948
56879
56951
56943
56959
56990
56999
57004
57012
56998
57012
56604
57055
57062
57053
57039
56949
57018
57026
57028
57053
57047
57063
57078
56684
56943
57027
57102
57124
57147
57133
57090
57063
57140
57125
56495
56990
57159
57167
57159
57158
57094
57071
57147
57166
57175
56831
57128
57223
57204
57095
57223
57200
56607
57180
57252
57223
57171
57223
57223
57231
56798
57253
57287
57269
57174
57252
57276
57276
57271
57127
57301
57306
57223
57273
57295
57312
57307
57223
57335
57337
57317
57313
57335
57338
56724
57159
57381
57382
57346
57307
57381
57379
57351
57182
57300
57278
57447
57455
57431
57410
57319
57415
57415
57430
57436
57423
57087
57428
57477
57455
57391
57423
57447
57476
57447
57460
57444
57511
57519
57500
57399
57503
57494
56837
57471
57551
57508
57484
57518
57528
57521
57493
57583
57559
57436
57534
57550
57553
57564
57575
57569
57271
57406
57588
57631
57631
57606
57596
57511
57567
57607
57623
57629
57639
57118
57471
57591
57642
57695
57700
57700
57684
57572
57660
57668
57031
57530
57708
57710
57582
57679
57695
57304
57727
57711
57687
57751
57607
57711
57732
57718
57732
57671
57735
57751
57759
57679
57751
57799
57662
57764
57650
57799
57771
57070
57834
57676
57792
57756
57748
57804
57759
57828
57799
57222
57853
57823
57823
57884
57780
57836
57894
57735
57863
57892
57759
57859
57903
57854
57478
57925
57792
57892
57927
57807
57904
57951
57844
57905
57907
57896
57927
57787
57943
57859
57937
57960
57946
57959
57991
57863
57959
57991
57959
57509
57983
57973
57991
57863
57982
58023
57922
57633
58023
58007
57735
58005
58014
57751
58027
58012
58023
57991
58036
58068
57958
58052
58086
58012
58052
58100
58012
58074
57788
58108
57956
58071
58119
58045
58086
58037
58084
58095
58119
58119
58111
58159
58023
58132
58169
58023
58119
58148
58150
58151
57630
58183
58055
58167
57975
58207
58148
58175
58228
58110
58186
57773
58199
58188
58020
58208
58217
57719
58247
58221
58119
58247
58237
58190
58199
58242
58223
58206
58245
58279
58143
58252
58293
58156
58273
58311
58269
58270
57589
58325
58189
58287
58311
58307
58300
58223
58348
58207
58335
58357
58244
58327
58397
58247
58348
58330
58365
58341
58247
58375
58356
57635
58407
58319
58366
58407
58299
58375
58375
58406
58391
58142
58406
58419
58444
58342
58415
58472
58407
58199
58430
58423
58487
58375
57860
58479
58452
58439
58493
58364
58452
58500
58407
58467
58471
58495
58479
57902
58524
58474
57799
58519
58419
58503
58407
58503
58508
58302
58567
58527
58530
58595
58435
58543
58590
58487
58545
58288
58575
58503
58559
58615
58455
58567
58615
58500
58574
58631
58551
58596
58599
58620
58586
58623
58671
58534
58613
58531
58645
58631
58623
58668
58652
58599
58655
58626
58670
58709
58646
58656
58175
58691
58660
58671
58657
58676
58717
58566
58692
58687
58623
58698
58734
58598
58692
58740
58612
58702
58727
58719
58710
58742
58740
58735
58720
58743
58792
58660
58751
58780
58756
58375
58732
58764
58814
58681
58788
58823
58771
58567
58788
58785
58839
58703
58806
58841
58752
58799
58855
58750
58828
58847
58824
58736
58843
58847
58820
58782
58831
58863
58863
58877
58756
58855
58916
58849
58860
58475
58887
58858
58206
58908
58887
58743
58887
58887
58887
58839
58904
58925
58864
58913
58965
58927
58665
58951
58932
58887
58947
58930
58841
58948
58941
58872
58980
58948
58364
59006
58910
58951
59005
58932
58375
59009
58964
58503
58984
58948
58975
59013
58975
58527
58989
58998
58996
58906
59004
58999
58999
59015
59015
58935
59007
59061
58925
59008
59076
58950
59015
59077
58951
59048
59076
59055
58987
58351
59095
59060
58845
59063
59060
59071
58970
59061
59131
59003
58455
59110
59071
59015
58988
58820
59078
59092
59135
59087
58884
59100
59098
59084
59007
59101
59136
59108
59098
59025
59111
59143
59112
59031
59076
59127
59162
59143
59086
59143
59140
59170
59092
58732
59167
59143
59188
59171
59143
59089
59163
59212
59077
59156
59220
59142
58959
59199
59193
59084
59182
59188
59239
59125
59209
59204
58695
59204
59232
59217
59188
59031
59220
59215
59268
59143
59199
59269
59119
59221
59142
59239
59238
59055
59244
59231
59263
59152
59239
59268
59199
59244
59255
59278
59254
59129
59271
59262
58832
59318
59156
59271
59311
59236
59291
59311
59168
59269
59318
59227
59271
59324
59291
59284
58959
59316
59302
59250
59184
59295
59332
59271
58848
59318
59311
59249
59309
59316
59353
59308
59164
59313
59325
59260
59333
59314
59313
59380
59215
59318
59316
59339
59316
59311
59324
58710
59319
59364
59244
59351
59364
59343
59365
59262
59342
59381
59271
59359
59375
59383
59350
59364
59268
59399
59366
59364
59359
59335
59380
59386
59111
59389
59324
59380
59374
59324
59380
59207
59393
59367
59367
59381
59412
59388
59360
59425
59308
59380
59439
59295
59399
59353
59398
59388
59117
59418
59303
59390
59015
59429
59383
58709
59441
59399
59399
59143
59432
59301
59394
59422
59297
59389
59446
59335
59399
59426
59308
59399
59399
59429
59396
59399
59316
58807
59423
59399
59359
59428
59399
58977
58943
59399
59399
59399
59399
59455
59298
59399
59392
59440
59399
59375
59439
59399
59399
59455
59335
59396
59471
59311
59399
59471
59343
58908
59433
59399
58887
59399
59415
59471
59375
59399
59460
59324
59399
59447
59390
59399
59463
59398
59004
59459
59391
58706
59451
59380
59071
59423
59399
59421
59380
59399
59442
59399
59393
59300
59396
59439
59420
59269
59420
59391
58919
59437
59399
59239
59399
59399
59295
59428
59399
58846
59445
59399
58790
59431
59361
59396
59444
59368
59399
58784
59436
59316
59398
59399
59399
59399
59060
59421
59292
59390
59380
59399
59399
59383
58911
59447
59322
59385
59420
59399
59270
59412
59383
59287
59423
59391
59355
59397
59389
59383
59388
59399
59392
59295
59375
59439
59367
58887
59398
59386
59202
59377
59388
59388
59271
58835
59392
59383
59399
59375
59383
59430
59327
58775
59391
59386
59414
59308
59374
59344
59399
59380
59278
59309
59367
59380
58703
59399
59295
59359
59399
59364
59183
59311
59360
59399
59354
59395
59301
58680
59383
59370
59244
59295
59359
59418
59343
59192
59340
59343
59390
59346
59341
59319
59328
59364
59359
59380
59254
59332
59386
59342
58982
59358
59343
59328
59375
59331
58925
59352
59343
59365
59252
59334
59375
59245
59332
59321
59327
59348
59271
59331
59313
59261
59326
59337
59331
59368
59236
59317
59356
59279
59319
58743
59356
59300
59316
58786
59343
59322
59311
59344
59308
58646
59367
59271
59309
59234
59308
59323
59223
59297
59303
59324
59295
59318
58972
59329
59215
59316
59238
59315
59293
58662
59352
59207
59297
59198
59317
59319
59127
59335
59244
59293
59351
59207
59278
59308
59239
59287
59316
59287
59302
58687
59327
59271
59271
59270
59319
59285
59294
58652
59324
59295
59271
58822
59311
59198
59261
59231
59300
59247
59260
59271
59284
59287
58759
59316
59207
59259
59295
59194
59247
59300
59218
58665
59294
59175
59253
59199
59278
59199
59255
59202
59284
59158
59246
59271
59197
59266
59180
59253
59245
58980
59271
59247
59157
59239
59236
59143
59266
59255
59235
59200
59255
59252
59207
59239
59268
59247
59242
59143
59234
59214
59249
59174
59236
59252
59186
59231
59249
59255
59215
59210
59239
59204
59223
58879
59258
59206
59231
59207
59248
59230
59217
58743
59255
59204
59199
59255
59208
58951
59252
59212
59070
59206
59203
59142
59238
59207
58908
59236
59204
59207
59259
59143
59207
59006
59239
59198
59212
59223
59143
59196
59193
59210
59214
58657
59233
59198
59207
59202
59161
59208
59206
58733
59239
59125
59207
58840
59238
59207
59207
58823
59222
59116
59211
58806
59239
59212
59136
59207
58665
59206
59199
59127
59204
59239
59116
59180
59190
59194
59193
59116
59196
59214
59219
59217
58631
59207
59188
59142
59183
59207
59223
59228
59052
58631
59190
59176
59126
59204
59228
59198
58940
59184
59197
59175
59086
59188
59220
59225
59175
59114
58926
58790
59188
59178
59134
59212
59156
59183
59217
59135
59183
58799
59212
59119
59179
59135
59176
59164
59164
59217
59180
59143
59162
59007
59212
59207
59132
59164
59060
59191
59139
59169
59167
59207
59180
59151
59143
59143
59197
59095
59167
59143
59206
59172
59159
59143
58884
59207
59120
59167
59077
59180
59172
58823
59181
59080
59143
59125
59172
59152
58423
59188
59047
59143
59196
59079
59143
59205
59047
59170
59192
59143
59160
58967
59183
59142
58375
59191
59143
58359
59201
59092
59143
59085
59185
59103
59143
59197
59215
59061
59135
59068
59174
59107
59135
59207
59100
59159
58856
59202
59012
59142
59204
59015
59143
59100
59175
59159
58292
59191
59055
59135
59005
59167
59135
59127
59163
59134
58258
59183
59095
59124
59204
59134
59118
58495
59205
59004
59142
59154
59143
59063
59132
59206
58999
59143
58503
59175
58967
59126
59109
59143
59012
59124
58886
59183
59047
59127
58218
59193
59119
59111
58981
59143
59012
59117
58196
59183
59131
59112
58133
59194
58983
59132
58918
59143
58975
59124
59055
59156
58951
59108
59111
59183
59126
58990
59115
58367
59176
59012
59096
59191
58951
59086
59174
59100
59087
59093
59180
59079
59095
59079
59079
58982
59135
59173
59190
59175
58983
59069
59077
59079
59095
59069
58941
58919
58987
59103
59178
58940
59079
59180
59053
59095
59100
59060
59075
59173
59078
59071
58740
59158
59055
59064
58686
59119
59076
59053
59140
58884
59052
59071
59087
59048
59052
59174
58976
59054
59132
59046
59062
59143
59111
58878
59042
58847
59100
58887
59047
59143
59015
59037
58996
59084
59044
58924
59055
59028
59015
59140
58942
59031
57959
59111
59015
58973
59015
59037
59012
59119
58998
59022
57788
59119
58844
58989
59087
58820
58975
59102
58916
59004
59044
58998
58981
59100
58990
59006
57812
59095
58814
58998
59023
59015
58988
58973
59103
59012
58831
58975
57988
59092
58789
58997
58996
58983
58951
58932
59092
58958
58968
58949
59085
58811
58957
59082
58831
58951
59079
58959
58967
58860
59005
58950
57820
59047
58751
58919
59068
58743
58919
59039
58839
58935
59055
58924
58943
58628
58948
58887
59069
58790
58925
59063
58872
58908
59043
58850
58919
58477
58959
58726
58887
59030
58933
58887
58860
58951
58751
58869
59036
58711
58879
59031
58719
58884
59015
58748
58881
59023
58910
58868
58862
59023
58887
58879
58845
58968
58676
58861
58911
58887
58845
58844
59004
58887
58689
58855
58840
58981
58819
58855
59015
58833
58849
58628
58887
58748
58823
58991
58833
58843
58942
58879
58672
58816
58948
58631
58823
58980
58850
58817
58800
58956
58759
58804
58957
58719
58807
58941
58671
58020
58868
58812
57584
58887
58788
58780
58961
58607
58781
58948
58613
58779
58954
58791
58798
58828
58860
58789
57959
58871
58751
58752
58887
58759
58198
58806
58791
58925
58602
58773
58927
58679
58780
58887
58791
58758
58755
58908
58631
58748
58874
58631
58748
58854
58695
57735
58823
58749
58558
58874
58740
58720
58868
58751
57783
58807
58743
58919
58706
57887
58794
58759
58919
58543
57452
58831
58718
57652
58806
58740
58782
58724
58731
57636
58855
58546
58727
58868
58572
58708
58677
58735
58734
58868
58543
58705
58878
58631
57703
58759
58735
58884
58559
58717
58887
58618
58708
58719
58700
57654
58878
58759
58585
58688
58703
57479
58758
58831
58780
58710
58543
58700
58722
58719
58692
57401
58871
58788
58511
58695
58694
57583
58843
58727
58495
58711
58711
57540
58863
58806
58727
58593
58683
58702
58671
58445
58851
58747
58495
58702
58695
58682
58631
58797
58718
58661
58676
57403
58798
58855
58794
58759
58705
58527
58703
58693
58495
58855
58796
58704
58544
58618
58679
58695
57351
58858
58812
58774
58677
58631
58708
58668
58306
58852
58822
58741
58503
58711
58692
57415
58848
58787
58717
58679
58589
58694
57445
58846
58740
58519
58687
58695
57495
58842
58804
58735
58563
58693
58692
58693
58631
58845
58759
58700
58503
58681
58695
58677
58684
58615
58858
58809
58717
58508
58700
58678
57735
58798
58826
58791
58503
58686
58674
58692
58837
58780
58743
58533
58709
58695
58497
58815
58727
58501
58711
58702
58687
58695
58453
58847
58846
58772
58727
58759
58731
58703
58527
58596
58698
58693
58714
58711
58711
58703
58663
58847
58824
58773
58742
58671
58567
58551
58695
58717
58702
58700
58575
58856
58779
58727
58581
58717
58695
58051
58831
58838
58770
58721
58522
58724
58718
58700
58592
58625
58811
58876
58773
58719
58534
58594
58656
58724
58725
58718
58620
58679
58788
58812
58820
58883
58455
58708
58742
57671
58604
58838
58739
58863
58713
58871
58737
58791
58727
58701
58093
58728
58716
58800
57735
58564
58879
58725
58740
58759
58878
58736
58640
58788
58631
58743
58583
58882
58733
58820
58745
58629
58719
58742
58708
58861
58808
58742
58591
58734
58716
58783
58852
58759
58556
58733
58727
58356
58724
58871
58780
58724
58671
58743
58719
58567
58859
58820
58757
58751
58677
58567
58567
58580
58719
58751
58727
58556
58871
58805
58727
58602
58751
58735
58748
58735
58727
57682
58574
58871
58839
58759
58604
58751
58742
58740
58735
58743
57703
58820
58863
58887
58836
58759
58751
58756
58759
58748
58759
58756
58783
58733
58693
58727
58723
58708
58700
58604
58580
58631
58751
58751
58751
57628
58604
58868
58847
58775
58740
58671
58583
58602
58748
58734
58727
57591
58319
58820
58877
58849
58823
58806
58757
58743
58590
58591
58743
58759
58751
58735
57757
58791
58869
58804
58580
58567
58703
58747
58751
58743
58751
58739
58751
58752
58727
57647
57623
58455
58804
58887
58865
58775
58644
58583
58714
58759
58743
58841
58863
58775
58565
58753
58759
58751
58749
57588
58372
58887
58804
58574
58758
58871
58756
58741
58755
58807
58847
58598
58756
58863
58596
58733
58862
58617
58767
58423
58823
58613
58734
58886
58742
58766
58877
58737
58749
58807
58789
58742
58742
58887
58847
58801
58756
58725
58575
58727
57572
58880
58754
58700
58759
58871
58780
58684
58725
58869
58743
58751
58735
58863
58809
58619
58882
58617
58732
58858
58756
58727
58743
58654
58852
58676
58742
58733
58860
58759
58743
58735
58492
58843
58751
58700
58737
58847
58604
58735
58823
58740
58748
58023
58832
58631
58727
57583
58847
58558
58740
58710
58799
58625
58749
58756
58775
58743
58735
58855
58535
58719
58247
58802
58599
58735
58855
58722
58722
58708
58826
58692
58692
58851
58671
58724
58183
58804
58548
58702
58839
58624
58708
58734
58759
58703
58708
58806
58751
58716
58685
58772
58685
58679
58799
58563
58707
58715
58721
58698
58690
58820
58725
58695
57965
58798
58695
58702
58668
58815
58692
58687
57524
58756
58502
58693
58651
58728
58791
58716
58535
58677
57863
58759
58647
58686
58651
58781
58709
58495
58676
58657
58759
58687
58670
58191
58733
58484
58671
58303
58759
58487
58664
57474
58743
58503
58631
58543
58735
58596
58631
58764
58601
58631
58539
58741
58495
58647
58559
58661
58614
58618
58732
58485
58620
58759
58524
58618
58693
58615
58631
58692
58620
58623
58615
58600
58109
58662
58600
58068
58631
58615
58542
58621
58607
58579
58687
58479
58594
58631
58652
58576
58583
58585
58597
57947
58718
58607
58375
58548
58575
58579
58560
58681
58701
58677
58631
58615
58606
58596
58543
58423
58471
58556
58575
58551
58548
58567
58556
57439
58676
58679
58663
58631
58598
58559
58479
58436
58375
58503
58543
58525
58548
58669
58663
58535
58591
57780
58517
58535
58647
58519
58513
58535
58516
58554
58343
58503
58477
58608
58501
58317
58471
58495
58492
58503
57351
58535
58612
58631
58620
58572
58559
58541
58547
58497
58311
58340
58492
58468
58452
58463
58613
58585
58538
58524
58494
58333
58469
58455
58447
57276
58558
58586
58509
58452
58287
58448
58428
58429
58514
58583
58503
58431
58396
58430
57524
58503
58564
58511
58463
58435
58287
58236
58372
58420
58404
58388
58372
57140
58372
58511
58517
58439
58375
58231
58399
58375
58375
58375
58370
57804
58519
58461
58407
58375
58276
58206
58390
58367
58364
58348
58333
58516
58503
58445
58375
58372
58287
58179
58164
58204
58324
58343
58343
58351
58342
58321
58336
58324
57071
58152
58404
58479
58421
58375
58247
58119
58193
58308
58310
58303
58327
58156
58343
58447
58415
58373
58394
58373
58398
58375
58337
58372
58413
58295
58348
58270
58099
58420
58279
58196
58414
58260
58207
58317
58261
58325
57621
58247
58373
58310
58303
58302
58324
58375
58412
58391
58103
57005
57510
58220
58214
57060
58216
58214
58375
58239
58303
58223
58223
58245
58228
58236
57828
58204
58287
58204
58071
58338
58191
58114
58319
58191
58135
58293
58188
58195
58260
57943
58188
58211
58119
58204
58239
57728
58146
58327
58164
58218
56989
58065
58333
58175
58207
57774
58031
58293
58170
58215
58137
58191
58146
57981
58310
58166
58159
58068
58151
58276
58145
58183
56871
57959
58100
58132
58247
56839
58119
58142
58215
58167
57836
58119
58164
57036
58116
58215
58108
58116
58175
58087
57943
58253
58110
58119
58029
58111
58178
58095
58100
58181
57452
58087
58151
57765
58102
58143
56783
58042
58074
56812
57195
57460
57935
58239
58223
58205
58158
58164
58191
58172
58151
58119
58119
58106
58084
58079
58070
58067
58055
57925
57857
57844
58038
58054
58068
58046
58055
58055
58054
58063
58183
58038
58063
57082
57955
58159
58028
57831
58183
58030
58012
58172
58007
57861
58119
58031
57825
57820
57895
58015
58012
58007
57997
58029
58006
58004
57979
57943
57980
57991
57991
57991
57991
57991
57991
57986
57991
57980
57983
57966
57967
57967
57959
57894
58007
58087
58111
58087
58087
58076
58060
58079
58095
58063
58055
58018
57967
57967
57979
57982
57959
57828
57735
57943
57975
58004
57991
58021
58039
58044
58061
58015
57972
57953
57978
57988
57937
57904
57823
57735
57716
57735
57719
57815
57893
57908
57909
57895
57900
57863
57863
57887
57863
57922
58031
57894
57735
57949
57113
57839
57924
57987
57887
57693
58013
57863
57735
57976
57836
57789
57975
56720
57831
57942
57847
57831
57332
57740
57972
57831
57961
57844
57863
56726
57625
57967
57809
57903
57812
57807
57799
57820
57863
56656
57655
57953
57805
57798
57532
57755
57952
57799
57815
57681
57789
57863
57772
57742
57863
57757
57703
57863
57759
57617
57839
57735
57223
57863
57892
57853
57802
57767
57781
57823
57831
57847
57887
57863
57855
57856
57143
57804
57567
57535
57559
57708
57708
57722
57725
57702
57686
57695
56860
57212
56880
57687
57672
56455
57287
57583
57820
57805
57812
57624
57807
57806
57774
57711
57655
57471
57620
57647
57647
57508
57780
57662
57639
57653
57631
57767
57764
57682
57604
57607
56684
57660
57631
57759
57579
57607
57767
57412
57607
57524
57658
57484
57583
57726
57604
57597
57581
57735
57543
57575
57727
57378
57589
57718
57553
57565
57559
57716
57560
57575
56391
57675
57554
57532
57549
57679
57551
57543
57512
57671
57607
57413
57506
57516
57516
57563
57668
57559
57351
57475
57519
57541
57655
56884
57495
57494
57351
57559
57535
57473
57468
57500
57607
57476
57452
57375
57564
57261
57471
57262
57487
57599
56180
57463
57252
57503
57497
57423
57223
57535
56943
57425
57380
57556
57406
57237
57495
57439
57390
57348
57431
57540
57184
57383
57271
57404
57519
57351
57383
57171
57383
57511
57380
56103
57351
57332
57271
57411
57452
56453
57324
57346
57131
57340
57351
57408
57437
57463
56524
57293
57303
57307
57439
57399
57287
57294
57083
57335
57413
57276
57261
57269
57141
57235
57351
57398
57239
57230
57255
57396
56007
57237
57028
57263
57372
55910
57214
57024
57260
57127
57197
57095
57223
57295
57215
57162
57159
57172
57311
56389
57169
57168
57287
56790
57135
57127
57108
57175
57263
56345
57125
57109
57095
57216
57222
57071
57095
57095
57012
57091
57145
57069
57052
57055
56918
57092
57199
56123
57039
56837
57076
57183
56261
57036
56839
57047
57143
55889
57007
56820
57038
57137
55732
56986
56863
56998
57071
56418
56951
56796
56964
57091
55712
56935
56830
57049
56951
56903
56911
56908
56741
56839
56987
57028
56095
56879
56884
56666
56911
56967
56374
56839
56837
56828
56933
56863
56820
56831
56639
56802
56895
56932
56781
56796
56695
56776
56812
55696
56690
56884
56759
56572
56863
56737
56740
56654
56711
56759
56825
56644
56695
56708
56663
56564
56711
56748
56786
56674
56671
56551
56767
56180
56647
56641
56455
56652
56711
56695
55879
56590
56596
56604
56573
56428
56622
56701
56583
56580
56551
56636
56605
56439
56527
56655
56420
56533
55835
56583
56327
56506
56518
56519
56483
56455
56583
56460
56471
55943
56530
56295
56439
56476
56501
56363
56406
56524
56260
56414
56404
56510
56391
56296
56367
55485
56474
56319
56360
56327
56352
56388
56155
56316
56431
55632
56309
56183
56324
56279
56327
55303
56156
56381
56255
56263
56205
56242
56268
55716
56219
56319
56196
56152
56047
56065
56285
56191
56190
56231
56156
56160
55118
56063
55497
56015
56197
56135
56127
55268
55956
56188
56095
56087
56102
56071
56102
55854
56063
56067
55204
55986
56111
56031
55901
56111
56015
55897
56071
56007
56027
55483
55981
56036
55943
55790
56039
55940
55962
55131
55903
56006
55909
55942
54990
55735
55985
55859
55719
55956
55847
55860
55175
55711
55932
55815
55815
54903
55742
55887
55788
55813
55487
55775
55838
55767
55612
55855
55631
55742
55714
55612
55813
55750
55687
55557
55685
55687
54639
55258
55732
55696
55615
55493
55646
55632
55615
55533
55687
55685
55630
55431
55583
55591
55559
55445
55630
55620
55588
55543
55451
55527
55500
55495
55239
55586
55509
55437
55484
55548
55302
55471
55495
55444
55447
54492
55509
55321
55414
54663
55455
55271
55388
55447
55327
55371
55412
55353
55349
54951
55389
55204
55303
55383
55207
55301
55335
55127
55287
55231
55274
55172
55255
55274
55239
55239
55151
55255
55175
55209
55251
55240
55047
55173
55163
55191
55175
55116
55138
55175
55151
55127
54343
55158
54981
55103
55162
54935
55077
55130
54927
55047
55126
54932
55031
55015
55089
55031
54853
55003
54887
55008
54953
54948
55028
54807
54949
54880
54948
54932
54580
54941
54885
54442
54926
54878
54865
54895
54884
54839
54833
54857
54869
54710
54812
54823
54876
54819
54763
54772
54535
54493
54599
54791
54807
54791
54791
54787
54787
54775
54774
54758
54715
54716
54709
54727
54727
54698
54695
54692
54652
54631
54655
54620
54511
54511
54586
54560
54151
54594
54623
54612
54567
54527
54407
54479
54503
54518
54483
53684
54375
54495
54535
54501
54463
54439
54279
54407
54439
54406
53623
54423
54462
54374
54343
54356
54345
53951
54407
54374
54324
54180
54329
54303
54311
54342
54132
54271
54255
54263
53398
54263
54300
54279
54236
54167
54167
54203
54211
54191
53627
54223
54189
54172
54081
53981
54013
54044
54106
54099
54095
54060
53895
54077
54124
54096
54048
53923
54039
54016
54031
54020
54004
53996
53470
54015
54047
53988
53892
53804
53940
53935
53923
53911
53902
53127
53924
53942
53941
53919
53868
53726
53791
53853
53827
53735
53848
53848
53820
53818
53758
53622
53751
53751
53455
53793
53794
53671
53607
53722
53695
53639
53732
53700
53623
53511
53636
53639
53638
53015
53685
53647
53479
53605
53599
53575
52932
53497
53589
53604
53574
53479
53493
53511
52677
53470
53540
53503
53333
53468
53463
52572
53199
53271
53309
53209
53288
53319
53383
53431
53364
52991
53366
53375
53230
53255
53341
53351
53303
53252
53044
53277
53328
53268
53284
52435
53103
53268
53221
53255
52381
53143
53244
53180
53188
52981
53044
53204
53126
53164
53118
53022
52975
53095
53119
53079
52921
53095
53060
53055
52884
53018
53052
52738
52999
52999
52999
52974
52948
52988
52940
52959
52103
52764
52949
52911
52948
52879
52837
51975
52726
52860
52839
52847
52822
52764
52655
52770
52839
52844
52759
52743
52767
52743
52742
52718
52716
52710
52689
52695
52679
52685
52660
52671
52644
52631
52633
52615
52614
52583
52579
51948
51879
52556
52551
52546
52527
52533
52499
52508
52519
52487
52479
52476
52469
52445
52442
52436
52423
52410
52413
52396
52391
52383
52380
52359
52342
52341
52231
52284
52333
52316
52284
52087
52332
52327
52287
52192
52072
52210
52225
52223
52218
52182
51876
52191
52231
52199
52180
52167
52159
52167
52129
52021
51995
51941
51911
51911
51939
51925
51884
51975
52020
52020
52004
52000
51988
51972
51953
51972
52015
51069
51913
51884
51919
51899
51903
51892
51836
51718
51835
51841
51820
51835
51817
51804
51631
51847
51655
51776
51830
51719
51207
51719
51719
51754
51707
51703
51734
51683
51495
51719
51658
51672
51658
51644
51639
51612
51463
51404
51406
51541
51553
51535
51537
51461
51348
51366
51375
51361
51331
51322
51450
51463
51444
51399
51404
51396
51420
51415
51418
51419
51407
51391
51392
51420
51395
51125
51312
51304
51295
51281
51239
51122
51108
51111
51204
51231
51235
51229
51175
51023
50991
50988
50990
50970
51020
51102
51127
51140
51110
51103
51079
51079
51063
51053
50470
50695
50695
50484
50375
50662
50271
50972
50964
50969
50951
50951
50943
50925
50896
50879
50751
50718
50679
50678
50879
50864
50876
50884
50879
50855
50862
50861
50844
50842
50823
50806
50815
50759
50727
50725
50694
50676
50617
50658
50485
50519
50605
50631
50605
50606
50327
50630
50638
50630
50596
50551
50544
50520
50404
50373
50359
50338
50292
50279
50247
50373
50246
50241
50263
50314
50247
50252
50359
50340
50357
50344
50332
50327
50311
50300
50301
50287
50276
50268
50255
50252
50223
50221
50221
49509
50174
50148
50237
50247
50215
50210
50171
50175
50135
50132
50119
50012
49878
49992
49999
49911
49999
50055
50079
50092
50071
49959
49828
49927
49439
48996
48951
49922
49924
49909
49903
49882
49827
49670
49735
49807
49860
49863
49839
49821
49823
49250
49602
49790
49753
49841
49748
49799
49727
49543
49728
49700
49759
49671
49701
49661
49446
49711
49639
49627
49106
49599
49633
49567
49455
49245
49533
49596
49534
49424
49508
49490
49492
49481
49469
49453
49448
49439
49430
49415
49415
49402
49402
49383
49381
49364
49398
48374
49205
49387
49315
49207
49143
49239
49324
49277
49159
49327
49244
49271
49219
49116
49124
49204
49244
49159
49174
48455
48958
49184
49127
49159
49116
48903
49143
49084
48903
49063
49061
49047
49031
49028
49023
49007
48803
49031
49039
49047
49020
48983
48980
48961
48895
48735
48738
48903
48893
48880
48875
48863
48847
48861
48828
48817
48807
48806
48791
48135
47799
47805
47932
48079
48159
48724
47823
48308
47830
48015
48698
48746
48735
48700
48670
48647
48668
48615
48608
48487
48647
48583
48564
48572
48617
48606
48551
48583
48554
48573
48564
48559
48541
48527
48497
48511
48503
48400
48319
48135
47806
48284
48199
47799
47806
48167
47938
48158
48044
47911
47711
48092
47834
47576
48292
47367
47837
48108
48101
48152
48292
48279
48284
48258
48252
48239
48231
48230
48231
48199
48199
48174
48167
48158
48135
47926
48082
47158
48132
48076
47878
47953
48040
48035
47151
48063
48037
47895
47911
47968
47461
48020
47962
47918
47935
47924
47711
47917
47911
47939
47831
47811
47860
47574
47623
47384
47827
47820
46991
47717
47763
47813
47142
47764
47574
47765
47788
47767
47764
47764
47756
47743
47719
47734
47696
47674
47463
47662
47682
47623
47527
47438
47567
47670
47607
47608
46791
47495
47623
47535
47591
47543
47514
47515
47516
47539
46630
47309
47532
47476
47476
47477
47447
47468
47449
47471
46583
47222
47144
47239
47287
47181
47399
47351
47396
47364
47385
47335
47132
47363
47309
47310
46887
47139
47327
47271
47274
47111
47239
47287
47228
47237
46436
47004
47247
47207
47212
47183
47031
47180
47151
47159
47035
47132
47135
46934
47096
47107
46908
47079
47076
46877
47026
46951
46823
46759
46282
46172
46271
47000
47004
46977
46983
46983
46951
46951
46906
46759
46758
46753
46741
46727
46757
46919
46919
46923
46906
46911
46917
46903
46890
46695
46836
46847
46825
46822
46817
46793
46805
46623
46693
46775
46759
46775
46655
46560
46540
46543
46639
46679
46727
46726
46743
46733
46703
46716
46692
46700
46699
46685
46683
46671
46670
46655
46650
46622
46535
46383
46421
46421
46543
46564
46541
46549
46543
46527
46535
45645
45877
46506
46077
46527
46470
46357
46471
46452
46458
45959
46271
46471
46436
46292
46439
46408
46325
46388
46397
46388
46383
46370
46399
46350
46151
46398
46335
46301
45935
46299
46343
45444
46224
46319
45455
45855
46213
46279
46292
46282
46292
46279
46271
46262
46260
46247
46215
46204
46191
46191
46183
46178
46196
46181
46175
46164
46049
45917
45956
46108
46108
46087
46087
46078
45266
45575
45934
46086
46087
46087
46045
46047
45907
45811
45921
46001
46006
45167
45623
45860
46007
46006
46015
45999
45991
45971
45940
45951
45972
45944
45959
45959
45955
45943
45924
45895
45894
45876
45884
45773
45863
45806
45742
45626
45703
45814
45804
45821
45804
45471
45790
45831
45814
45772
45727
45754
45756
45759
45469
45558
45776
45719
45613
45732
45692
45721
45692
45591
45723
45682
45575
45668
45652
45663
44807
45484
45663
45627
45451
45648
45610
45377
45621
45572
45447
45539
45619
45564
45377
45527
45565
45575
45567
45567
45549
45543
45543
45550
45530
45530
45510
45511
45510
45490
45479
45460
45307
45229
45217
45279
45212
45295
45268
45351
45319
45383
45311
45222
45263
45337
45338
45350
45340
45350
45335
45332
45319
45316
45309
45306
45310
45295
45283
44935
45305
45319
45303
45272
45274
45255
45166
45191
45037
45030
45008
45183
45206
45207
45184
45188
45190
45169
45167
44724
44834
45151
45180
45182
45173
45180
45177
45165
45156
44948
44775
44315
44415
45047
45125
45119
45111
45092
45084
45023
44952
44871
44916
44984
45031
45024
45023
45022
44679
44960
45015
45023
45023
45004
44999
44985
44975
44978
44949
44789
44751
44830
44931
44910
44904
44903
44909
44892
44900
44086
44855
44925
44911
44911
44906
44904
44879
44871
44865
44756
44743
44832
44838
44856
44847
44839
44831
44812
44803
44805
44782
44775
44761
44594
44551
44692
44754
44739
44743
44740
44725
44733
44734
44330
44069
44610
44716
44718
44708
44707
44699
44678
44679
44647
44588
44510
44602
44458
44455
44463
44501
44602
44615
44607
44607
44586
44591
43837
44257
44434
44463
44519
44519
44501
44581
44579
44551
44543
44349
44395
44518
44511
44511
43783
44367
44531
44511
44487
44263
44371
44453
44367
44415
44436
44439
44436
43673
44383
44444
44452
44423
44277
44231
44388
44389
44391
44391
44382
44364
44373
44356
43871
44108
44254
44274
44327
44359
44346
44327
44343
44317
44181
44098
44220
44271
44271
44266
44257
44250
44264
43487
43979
44246
44279
44269
44244
44236
44239
44116
44084
44117
43996
44110
43982
44097
44159
44170
44167
44159
44151
44156
44142
44133
44135
44140
44122
44106
44102
43501
43916
44116
44107
44100
44103
44102
44102
44084
44074
44066
44039
44003
44023
43823
44054
43335
44004
43914
44036
43998
43832
44021
43974
43804
43999
43975
43855
43967
43975
43972
43964
43964
43935
43911
43719
43876
43908
43897
43898
43901
43776
43908
43911
43903
43892
43878
43700
43671
43763
43829
43791
43830
43823
43806
43621
43764
43783
43676
43611
43614
43631
43799
43783
43806
43799
43782
43743
43759
43774
43774
43757
43743
43740
43751
43740
43693
43620
43583
43567
43684
43695
43677
43679
43671
43655
43655
43654
43646
43650
43648
43644
43644
43639
43631
43620
43623
43618
43613
43605
43596
43590
43599
42852
43583
42971
42967
43375
43591
43560
43358
43576
43315
43546
43329
43559
43418
43518
43527
43220
43501
43527
43500
43399
43511
43487
43447
43471
43486
43479
43199
43471
43479
43303
43458
43452
43407
43436
43060
42933
43428
43428
43415
43413
43413
43407
43391
43380
43375
43293
43365
43367
43331
43269
43332
43358
43354
43356
43348
43348
43332
43271
43152
43130
43126
43303
43311
43307
43316
43311
43294
43295
43291
42612
42611
42715
42714
42949
43226
43143
43156
43015
42823
42850
42735
42676
42852
42942
43103
43226
43234
43226
43223
43209
43191
42992
43063
43093
43144
43171
43158
42460
42860
43141
43175
43164
43149
43086
43014
42972
42943
43135
42849
43151
43110
43102
43110
43103
43124
42983
43103
42829
43111
43051
43073
42455
43095
43084
42935
43055
42963
43076
43023
43048
43043
43015
42939
43047
42983
43015
42959
43002
43038
43002
42903
43015
43015
42692
42991
42860
42989
42931
42972
42841
42980
42995
42974
42587
42956
42950
42847
42972
42247
42935
42759
42950
42952
42759
42343
42924
42919
42756
42940
42799
42911
42719
42917
42887
42900
42774
42903
42708
42886
42695
42900
42748
42868
42719
42869
42879
42255
42847
42749
42863
42849
42535
42860
42846
42646
42822
42828
42807
42852
42823
42670
42803
42822
42758
42823
42615
42790
42791
42502
42798
42795
42663
42774
42117
42791
42797
42622
42759
42215
42788
42789
42573
42750
42747
42275
42759
42759
42559
42740
42743
42702
42740
42727
42687
42727
42325
42711
42735
42549
42708
42139
42718
42719
42615
42694
42695
42351
42710
42715
42522
42679
42678
42668
42309
42671
42618
42663
42684
42503
42647
42527
42679
42679
42415
42646
42628
42663
42639
42492
42659
42602
42639
42607
42559
42652
42591
42631
42623
42455
42631
42623
42328
42618
42545
42615
42493
42615
42613
42609
42068
42583
42503
42484
42605
42535
42596
42567
42460
42610
42365
42577
42404
42595
42567
42564
42559
42407
42575
42409
42558
42369
42575
42460
42551
42495
42445
42580
42567
42247
42546
42534
42455
42558
42554
42213
42532
42391
42547
42527
42149
42524
42435
42495
42540
42483
42503
42479
42543
42503
42511
42367
42522
42473
42492
42503
42383
42503
42503
42512
42447
42491
42491
42469
42309
42423
42503
42503
42436
41869
42470
42431
42484
42493
42463
42175
42477
42453
42473
42399
42429
42476
42484
42471
42219
42454
42439
42283
42470
42455
41911
42439
42436
42332
42471
42469
42322
42444
42439
42277
42423
42449
42455
41959
42399
42431
42356
42454
42296
42428
42060
42447
42437
42351
42415
41895
42437
42433
42311
42403
42407
42373
42433
42260
42423
41834
42375
42423
42239
42399
41862
42407
42428
42306
42407
42407
42077
42420
42343
42398
42383
42375
42406
42237
42330
42394
41959
42406
42415
42229
42375
42398
42375
42381
42396
42407
42223
42375
42381
42252
42405
42398
42303
42383
42388
42375
42391
42184
42388
42302
42361
42391
42327
42375
42375
42303
42375
42244
42372
42206
42404
42156
42375
42324
42375
42388
42357
42359
42215
42388
42184
42375
42292
42375
42374
42365
42365
42314
42375
42358
42349
42311
42246
42382
42378
42390
42364
42275
41771
42366
42366
42351
42230
42195
42348
42309
42375
42212
42351
42068
42383
42206
42343
42096
42362
42201
42357
42246
42367
42343
41791
42364
42364
42261
42348
42359
42361
42348
42302
42332
42364
42180
42342
42159
42363
42356
42266
42343
41930
42364
42271
42346
42346
42331
42356
42351
42358
42172
42332
42292
42350
42263
42347
42334
42356
42263
42335
42039
42359
42349
42176
42331
42351
42153
42349
42269
42311
42342
42244
42359
42351
42167
42335
42347
41839
42356
42350
42247
42335
41967
42365
42358
42305
42332
42342
42135
42301
42353
41925
42316
42346
42330
42207
42271
42334
42335
42347
42327
42343
42330
42343
42335
42332
42334
42351
42346
42343
42346
42347
42346
42334
42351
42339
42341
42333
42351
42335
42356
42350
42348
42342
42347
42347
41850
41966
41855
41767
41964
42255
42279
42292
42375
42367
42271
42329
42335
42135
42372
42207
42351
41844
42339
42364
42368
42195
42343
41927
42359
42367
42270
42352
41831
42371
42367
42219
42356
42223
42370
42367
42292
42356
42171
42382
42375
42197
42359
42187
42380
42367
42329
42375
42351
42373
42364
42373
42362
42367
42367
42358
42364
42364
42247
42243
42343
42372
42375
42382
42388
42375
42375
42391
42389
42385
42396
42396
42391
42369
42305
42139
42101
42375
42373
42367
42375
42367
42373
42366
42359
42322
42284
42333
42367
42375
42359
42332
42340
42364
42325
42222
42241
42343
42328
42407
42394
42406
42407
42398
42328
42382
42375
42404
42376
42375
42353
42406
42407
42375
42278
42140
41926
42391
42407
41895
42398
42407
42396
42394
42406
42398
42407
42397
42396
42396
42399
42405
42390
42423
42430
42422
42408
42314
42265
42356
42397
42402
42404
42404
42423
42408
42417
41791
42247
42363
42302
42348
42415
42420
42414
42391
42366
42405
42430
42323
42410
42431
42407
42279
42431
42415
42247
42423
42404
42294
42335
42367
42412
42411
42439
42420
42247
42362
42373
42399
42330
42342
42185
41988
42119
41892
41831
41804
42420
42412
42424
42415
42406
42423
42416
42420
42417
42375
42255
42273
42432
42403
42423
42437
42437
42438
42445
42450
42439
42417
42447
41883
42265
42444
42441
42261
42429
42439
42457
42437
42460
42439
42458
42028
42262
42439
42433
42471
42217
42343
42434
42447
42455
42431
42462
41924
42369
42468
42453
42298
42446
42439
42455
42414
42454
42471
42334
42455
42471
42078
42382
42469
42443
42463
41958
42287
42476
42463
42391
42431
42413
42460
42462
42476
41908
42300
42470
42455
42477
42441
42471
42471
42119
42441
42486
42471
42406
42401
42465
42490
42476
42335
42459
42484
42491
41863
42362
42221
42368
42462
42413
42490
42471
42500
42493
42500
42388
42487
42500
42206
42435
42510
42493
42503
42146
42343
42503
42503
42530
42503
42412
42310
42412
42503
42500
42487
42322
42468
42519
42495
42340
42532
42503
42359
42503
42519
42533
42503
42413
42472
42520
42535
42151
42455
42503
42540
42522
42549
42524
42370
42530
42543
42532
42543
42559
42339
42527
42562
42560
42541
42495
42556
42567
42286
42471
42567
42556
42503
42447
42559
42588
42566
42479
42567
42570
42587
41975
42415
42581
42565
42503
42591
42567
42588
42223
42550
42593
42582
42580
42492
42593
42607
42590
42605
42340
42543
42618
42599
42523
42565
42588
42623
42167
42596
42626
42322
42503
42463
42471
42458
42575
42623
42631
42643
42639
42631
42618
42484
42484
42532
42558
42615
42636
42652
42643
42651
42263
42588
42551
42467
42371
42655
42654
42567
42650
42663
42658
42669
42663
42659
42670
42664
42671
42685
42693
42686
42687
42653
42670
42583
42682
42687
42676
42693
42711
42703
42692
42692
42612
42548
42718
42724
42727
42735
42718
42678
42516
42383
42463
42582
42646
42685
42721
42612
42415
42156
42520
42383
42666
42758
42779
42759
42657
42621
42703
42647
42616
42708
42678
42631
42702
42657
42690
42622
42785
42799
42454
42786
42777
42781
42791
42785
42791
42789
42798
42799
42199
42233
42268
42407
42415
42239
42311
42377
42612
42728
42826
42855
42845
42829
42807
42743
42745
42447
42659
42743
42812
42796
42799
42863
42875
42884
42883
42887
42887
42892
42895
42831
42439
42308
42884
42887
42886
42887
42886
42905
42895
42892
42887
42876
42764
42788
42845
42927
42935
42942
42930
42943
42950
42951
42951
42959
42959
42954
42959
42973
42911
42908
42901
42631
42588
42973
42991
42967
42975
42974
42975
42983
42990
42989
42994
42993
42988
42993
42993
42991
42965
42967
42895
42875
42887
42869
42901
42999
43004
43015
42991
43036
43055
43048
43066
43063
43059
43047
43074
43063
43037
42989
42868
42675
42583
43066
43071
43068
43092
43081
42639
42868
42982
42983
42975
42924
42610
43079
43121
43028
43111
43124
42713
43140
43143
43132
43013
43126
43143
43135
42792
43150
43162
43170
43086
43184
43158
43156
43151
43175
42659
43178
43183
43190
42645
43190
43143
43215
43086
43189
43090
43227
43185
43207
43209
43095
43243
43212
42799
43228
43214
43244
43261
42999
43242
43215
43271
42967
43265
43205
43302
42927
43270
43241
43296
43031
43271
43175
43311
43221
43282
43297
43319
42826
43310
43251
43329
42759
43316
43271
43348
42979
43337
43335
43271
43379
43058
43348
43315
43364
43365
42807
43364
43236
43390
43330
43391
43383
43239
43414
43413
43051
43400
43295
43424
43383
43415
43421
43308
43439
43233
43431
43294
43448
43423
43460
43455
43334
43462
43484
43188
43463
43428
43487
43485
42961
43479
43469
43511
42959
43495
43471
43516
43517
43498
43527
43367
43511
43431
43551
43087
43527
43428
43575
43421
43555
43559
43446
43575
43555
43566
43569
43548
43579
43592
43590
43463
43612
43527
43607
43586
43617
43628
43399
43627
43522
43641
43630
43623
43643
43508
43668
43641
43638
43636
43685
43372
43671
43578
43690
43631
43678
43682
43678
43692
43143
43690
43564
43719
43654
43270
43711
43671
43734
43725
43269
43724
43594
43759
43613
43751
43706
43719
43769
43695
43766
43692
43779
43751
43764
43775
43764
43782
43812
43655
43807
43295
43819
43825
43754
43799
43815
43780
43847
43701
43836
43461
43854
43758
43831
43847
43828
43887
43798
43872
43310
43879
43887
43815
43847
43889
43892
43863
43911
43921
43540
43911
43927
43367
43796
43926
43939
43809
43974
43933
43903
43782
43943
43933
43979
43959
43988
43834
43815
43959
43999
43537
43885
43998
43999
43960
43962
43997
44028
44007
43940
43970
44019
44061
44036
43984
43783
43957
44021
44039
44073
44039
43935
44063
44068
44084
44097
44093
44105
44094
44103
44100
44088
43663
44098
44090
44116
44119
44120
44092
44039
43572
44002
44127
44141
44149
44143
44069
44039
44126
44175
44156
44167
43710
44039
44167
44174
44199
44181
44185
44091
44148
44217
44206
44215
44215
44198
43830
44093
44195
44223
44252
44228
44148
44263
43859
44135
44269
44263
44140
44273
44268
44141
44295
44291
44149
44255
44289
44313
43783
44181
44295
44295
44324
44164
44305
44326
44323
44287
44109
44330
44367
44342
44255
44291
44345
44381
44359
44355
44145
44292
44359
44378
44406
44391
44310
44191
44366
44410
44396
44391
44263
44396
44442
44431
44311
44407
44431
44375
44359
44437
44455
44452
44343
44421
44479
44479
44482
44476
44471
44471
44447
44376
44411
44295
44124
44128
44507
44511
44511
44517
44511
44524
44519
44525
43961
44007
44534
43989
43982
44025
43999
44215
44548
44572
44549
44249
44506
44465
44455
44423
44540
44551
44575
44599
44455
44604
44615
44164
44604
44627
44071
44181
44148
44068
44357
44641
44647
44660
44669
44679
44676
44671
44655
44549
44639
44666
44671
44670
44687
44679
44679
44695
44695
44703
44695
44695
44693
44703
44660
44607
44693
44655
44695
44734
44731
44731
44268
44742
44737
44749
44748
44756
44742
44759
44764
44756
44764
44767
44775
44773
44789
44788
44783
44783
44780
44797
44799
44807
44710
44775
44807
44823
44839
44826
44847
44839
44711
44601
44621
44366
44308
44535
44831
44862
44863
44881
44872
44835
44791
44495
44871
44869
44871
44866
44871
44887
44837
44762
44750
44765
44858
44875
44855
44916
44922
44932
44935
44923
44891
44719
44439
44821
44951
44935
44879
44904
44932
44759
44956
44941
44839
44961
44807
44946
44945
44677
44983
44967
44835
44967
44788
44994
44980
44908
44972
44436
44969
45007
44970
44975
44987
44980
45002
44970
44980
44988
45023
44988
45012
44868
45020
45039
44951
45015
44400
45056
44892
45036
44763
45063
44996
45031
44551
45063
44908
45048
45017
45063
44993
45058
45084
45054
45078
44627
45090
44924
45055
44452
45093
45101
45015
45091
44964
45103
45028
45079
45050
45109
45107
45115
45127
44983
45109
44911
45123
45009
45121
45063
45141
45120
44644
45143
45148
45135
45146
44863
45167
45166
45084
45147
44909
45176
45175
44999
45156
45165
45087
45191
45154
45159
45172
45121
45191
45087
45181
45175
45152
45204
45041
45185
44587
45203
45221
45046
45207
44957
45231
45212
45063
45201
45191
45151
45245
45087
45212
45228
45169
45251
45103
45223
45078
45244
45119
45249
44949
45263
45254
45215
45253
45094
45265
45126
45257
44661
45255
45292
45269
45135
45255
45275
44996
45302
45287
45150
45271
45278
45284
45307
45154
45286
45302
45250
45319
45330
45319
45316
45319
45266
45311
45334
44687
45255
45342
45319
45340
45186
45311
44731
45361
45228
45340
45350
45319
45367
45271
45335
45342
45215
45372
45373
45220
45361
45104
45380
45228
45354
44767
45363
45383
45223
45375
44712
45384
45383
45258
45372
45374
44919
45383
45405
45258
45396
45388
45144
45424
45423
45287
45392
45393
45383
45420
45439
45093
45420
45271
45441
45375
45423
45319
45447
44894
45428
45358
45454
44851
45430
45453
45334
45447
45381
45479
45287
45431
45319
45472
45447
45460
45455
45476
45479
45461
45317
45474
45476
45330
45505
45479
45476
45493
45494
45459
45527
45518
45380
45485
44868
45503
45495
45528
45503
45498
45391
45543
45180
45527
45390
45535
45413
45509
45390
45548
45365
45527
45423
45543
45551
45179
45543
45399
45575
45511
45063
45540
45536
45447
45572
45445
45559
45543
45428
45575
45575
45540
45155
45575
45573
45548
45605
45575
45575
45541
45618
44987
45589
45601
45610
45434
45603
45447
45631
45607
45500
45630
45607
45573
45629
45620
45613
45507
45636
45045
45614
45647
45274
45622
45637
45485
45647
45487
45664
45639
45614
45670
45575
45652
45652
45519
45679
45593
45655
45539
45687
45644
45671
45660
45654
45696
45557
45671
45604
45684
45684
45162
45692
45535
45703
45558
45684
45575
45711
45699
45607
45719
45186
45703
45716
45641
45711
45639
45735
45340
45703
45740
45679
45733
45606
45746
45272
45735
45742
45720
45751
45653
45765
45751
45735
45752
45754
45751
45612
45781
45748
45665
45774
45783
45756
45765
45773
45791
45455
45763
45751
45655
45787
45796
45788
45428
45780
45812
45775
45783
45791
45813
45284
45783
45806
45731
45803
45722
45828
45823
45815
45808
45671
45820
45852
45714
45812
45823
45692
45831
45831
45311
45828
45748
45855
45827
45390
45846
45831
45702
45868
45870
45852
45838
45607
45894
45871
45767
45852
45851
45556
45891
45878
45757
45876
45876
45372
45677
45860
45913
45887
45822
45791
45887
45895
45831
45892
45777
45929
45263
45892
45859
45920
45903
45807
45924
45708
45919
45790
45929
45727
45916
45932
45948
45920
45911
45903
45959
45575
45927
45943
45959
45716
45941
45948
45956
45329
45940
45844
45957
45935
45367
45951
45823
45974
45942
45830
45977
45852
45951
45948
45959
45991
45719
45972
45966
45828
45997
45937
45979
45949
46012
45930
45978
45988
45886
46012
45765
45986
45935
45865
45991
46020
46023
45758
45998
45943
46031
45758
46007
45879
46023
46031
46039
45543
46023
46012
45894
46036
46044
45463
46042
46031
46013
46063
45959
46012
46039
45987
46073
46049
45959
46045
45574
46070
46055
45927
46039
46052
45663
46079
46071
45951
46052
46068
46066
45535
46055
46075
45989
46063
46063
45820
46103
46069
46084
46081
45754
46100
46039
46054
46072
45671
46116
46116
45981
46087
45623
46118
46109
45991
46081
46087
46087
46119
46006
46087
45559
46087
46124
46029
46087
46117
45512
46078
46142
46138
46039
46118
46142
45723
46148
46141
46087
46116
45695
46149
46148
46133
46055
46135
46142
46087
46168
46102
46149
45573
46135
46156
46013
46159
45748
46175
46055
46149
46143
46127
46183
46174
46087
46135
46151
45861
46103
46181
46191
46143
46149
46172
46167
46170
46107
46177
46126
46126
46175
46171
46079
46207
46199
46087
46183
46180
46180
46123
46215
46183
46087
46187
46180
45695
45954
46215
46191
46087
46207
46211
46205
46087
46220
46228
46140
46199
46209
46215
46207
45647
45874
46233
46223
46215
46161
46087
46198
46215
46200
46087
46231
46227
46154
46213
46221
45951
46180
46253
46241
46231
46215
46215
46220
46031
46247
46252
46220
46242
46151
46225
46224
46078
46214
46244
46148
46220
46236
45708
46247
46231
46183
46236
46231
46263
46189
46230
46215
46180
46245
46236
46229
46243
46221
46231
46261
45980
46237
46179
46228
46231
46061
46266
46244
46196
46238
45935
46263
46250
46146
46239
46241
46028
46240
46253
46152
46245
46247
45711
46239
46279
46187
46246
46244
46121
46278
46164
46247
46245
46218
46273
46236
46220
46255
45831
46276
46252
46196
46255
46260
46197
46268
46247
46263
46259
45980
46242
46270
46198
46159
46255
46253
46232
46271
46175
46213
46245
46050
46284
46231
46263
45783
46263
46199
46243
46247
45868
46258
46261
46196
46252
46245
46237
46245
46247
46248
46207
46245
46255
46222
46279
46067
46247
46255
46167
46279
46245
45943
46247
46252
46175
46261
46174
46247
46242
46236
46269
46228
45831
46255
46223
46278
46273
46137
45876
46252
46231
46269
46263
45798
46247
46180
46255
46159
46252
46242
46207
46244
45959
46247
46215
46260
46163
46247
46239
46199
46260
45927
46229
46237
46215
46271
46158
46236
46231
46237
46244
46263
46127
46196
46218
46224
45815
46212
46253
46151
46215
46231
45807
46079
46245
46238
46177
46222
45903
46207
46223
46215
46223
45863
46191
46222
46151
46223
45831
46215
46221
46167
46199
46071
46229
46142
46196
46200
46196
46207
46180
46199
46071
46215
46125
46193
45794
46182
46151
46183
46189
46124
46203
46151
46179
46172
46023
46187
46188
46114
46175
45783
46166
46169
46167
46173
46179
46110
46159
45775
46150
46166
46109
46143
46136
46138
46084
46164
46071
46132
46145
45796
46114
46151
46087
46118
46116
46087
46127
46080
46118
46132
46063
46132
46077
46119
46119
46053
46119
46127
46126
46114
46087
46060
46084
46087
45863
46087
46111
46102
46030
46074
45840
46077
46022
46076
46007
46068
46071
46040
46071
45927
46068
46047
46007
46071
46051
45852
46042
46032
46048
46007
46023
46033
46007
46034
46014
45685
46036
45983
46023
46006
45701
46010
45956
46019
46001
45855
46004
45988
45980
46006
45991
45886
45981
45983
45925
45982
45907
45959
45973
45916
45973
45909
45959
45954
45863
45959
45953
45943
45940
45911
45951
45895
45927
45943
45927
45845
45940
45924
45887
45911
45915
45911
45903
45660
45775
45907
45906
45884
45878
45892
45903
45843
45886
45868
45831
45872
45867
45831
45862
45857
45673
45863
45831
45814
45844
45831
45830
45798
45838
45831
45783
45829
45831
45499
45759
45824
45759
45805
45823
45794
45791
45780
45782
45735
45791
45767
45780
45764
45548
45756
45771
45716
45759
45753
45724
45759
45716
45742
45417
45739
45748
45703
45733
45727
45679
45724
45695
45695
45701
45460
45693
45711
45670
45699
45692
45700
45399
45605
45686
45679
45650
45671
45664
45473
45619
45662
45624
45644
45455
45573
45646
45646
45608
45596
45622
45623
45624
45610
45625
45618
45614
45607
45575
45598
45591
45598
45589
45575
45589
45575
45569
45575
45575
45574
45537
45517
45515
45535
45532
45535
45539
45522
45535
45527
45511
45508
45509
45503
45516
45277
45317
45492
45234
45263
45281
45343
45367
45447
45436
45454
45455
45468
45460
45473
45459
45444
45467
45444
45410
45412
45435
45414
45421
45423
45419
45404
45398
45391
45402
45220
45340
45362
45391
45371
45380
45378
45376
45375
45375
45341
45349
45342
45354
45349
45345
45351
45362
45351
45331
45339
45309
45294
45290
45286
45301
45280
45285
45275
45269
45263
45256
45261
45262
45271
45271
45263
45260
45239
45251
45255
45227
45236
45228
45231
45221
45214
45223
45228
45223
45238
45223
45205
45118
45205
45197
44935
45164
45180
45163
45173
45127
45167
45187
44977
45143
45156
45159
45125
45125
45127
