EGG
65519
65516
65519
65511
65500
65518
65509
65509
65509
65535
65519
65510
65516
65511
65508
65519
65511
65511
65503
65508
65509
65511
65508
65508
65510
65508
65511
65510
65519
65516
65517
65505
65519
65516
65527
65519
65510
65510
65527
65503
65500
65525
65508
65516
65511
65519
65519
65511
65511
65516
65516
65513
65516
65519
65503
65526
65516
65502
65518
65527
65519
65527
65510
65517
65519
65516
65516
65511
65511
65517
65511
65509
65508
65516
65519
65506
65505
65511
65524
65509
65519
65519
65513
65519
65502
65514
65519
65524
65515
65510
65519
65519
65519
65511
65508
65504
65511
65511
65506
65516
65516
65516
65517
65511
65510
65516
65512
65526
65508
65508
65527
65511
65508
65508
65511
65518
65511
65516
65511
65511
65508
65516
65519
65519
65501
65504
65504
65511
65511
65511
65527
65516
65513
65519
65527
65511
65511
65519
65508
65527
65516
65509
65511
65509
65515
65511
65524
65514
65519
65511
65517
65527
65532
65511
65508
65509
65519
65516
65518
65511
65511
65527
65511
65510
65510
65516
65510
65505
65517
65508
65524
65511
65511
65510
65511
65519
65519
65519
65508
65519
65516
65506
65527
65509
65508
65511
65511
65511
65516
65509
65519
65511
65511
65517
65516
65511
65509
65518
65519
65511
65503
65516
65502
65526
65519
65519
65511
65523
65516
65516
65520
65526
65519
65510
65525
65507
65508
65519
65511
65527
65511
65500
65515
65524
65511
65516
65508
65511
65507
65508
65517
65512
65508
65518
65511
65516
65508
65527
65524
65525
65503
65519
65511
65519
65519
65511
65496
65516
65504
65508
65519
65511
65510
65508
65519
65508
65519
65517
65511
65511
65514
65506
65502
65505
65519
65527
65500
65519
65509
65511
65511
65519
65511
65527
65505
65516
65511
65519
65519
65519
65508
65519
65513
65511
65519
65511
65511
65511
65508
65511
65524
65511
65508
65508
65511
65516
65521
65527
65511
65511
65508
65527
65511
65518
65511
65519
65511
65511
65522
65519
65508
65508
65516
65508
65502
65492
65511
65527
65519
65507
65508
65505
65509
65519
65519
65519
65508
65506
65527
65527
65518
65519
65517
65511
65516
65519
65519
65519
65517
65508
65519
65511
65511
65519
65511
65516
65516
65519
65511
65511
65511
65511
65519
65519
65510
65518
65519
65525
65519
65519
65513
65503
65511
65508
65511
65509
65519
65511
65519
65519
65506
65511
65508
65511
65511
65518
65510
65505
65508
65501
65519
65511
65513
65511
65525
65498
65524
65524
65511
65501
65511
65511
65498
65508
65505
65519
65506
65519
65519
65517
65522
65511
65511
65505
65521
65508
65519
65508
65511
65516
65518
65519
65519
65519
65517
65511
65507
65509
65514
65518
65516
65511
65519
65508
65524
65510
65519
65511
65516
65504
65517
65500
65519
65511
65527
65519
65510
65511
65508
65516
65508
65527
65517
65517
65511
65519
65509
65518
65519
65511
65519
65527
65496
65519
65516
65511
65511
65517
65518
65510
65508
65511
65526
65511
65501
65510
65511
65502
65519
65511
65511
65511
65511
65518
65511
65516
65519
65519
65511
65519
65511
65509
65517
65508
65519
65508
65518
65527
65527
65519
65519
65519
65511
65516
65511
65519
65511
65519
65511
65519
65519
65518
65519
65519
65519
65511
65527
65527
65517
65519
65524
65513
65508
65511
65516
65519
65517
65525
65525
65517
65510
65511
65519
65519
65519
65511
65517
65504
65510
65516
65519
65516
65517
65511
65503
65519
65516
65527
65501
65511
65524
65511
65517
65511
65519
65516
65508
65519
65517
65517
65500
65522
65510
65516
65516
65519
65511
65511
65509
65511
65519
65511
65511
65511
65510
65516
65511
65516
65519
65518
65527
65511
65508
65516
65508
65511
65526
65519
65527
65511
65511
65508
65508
65518
65519
65517
65524
65509
65508
65511
65519
65519
65509
65502
65510
65527
65514
65511
65511
65511
65515
65525
65508
65511
65518
65519
65510
65527
65511
65516
65511
65516
65527
65519
65527
65517
65511
65508
65514
65511
65515
65518
65510
65511
65511
65508
65511
65527
65525
65506
65508
65516
65511
65511
65519
65516
65527
65505
65511
65511
65511
65519
65511
65505
65511
65519
65508
65517
65519
65510
65516
65508
65524
65507
65511
65518
65527
65517
65524
65518
65500
65519
65509
65511
65527
65506
65516
65519
65511
65511
65519
65527
65517
65511
65524
65511
65527
65525
65511
65519
65517
65519
65511
65511
65516
65519
65524
65515
65510
65512
65511
65510
65527
65510
65504
65503
65519
65508
65511
65508
65519
65519
65519
65519
65519
65516
65521
65516
65527
65519
65509
65505
65510
65519
65511
65519
65527
65511
65511
65518
65519
65519
65502
65516
65510
65511
65519
65508
65516
65514
65524
65511
65519
65519
65510
65511
65527
65515
65515
65524
65518
65525
65510
65511
65519
65527
65516
65508
65527
65524
65519
65527
65519
65510
65511
65527
65512
65516
65527
65510
65516
65519
65524
65511
65525
65518
65519
65511
65517
65521
65513
65518
65517
65524
65511
65510
65509
65518
65508
65516
65516
65516
65518
65519
65511
65508
65502
65511
65511
65508
65519
65512
65519
65515
65511
65505
65519
65518
65511
65527
65516
65519
65506
65517
65511
65519
65524
65516
65504
65525
65516
65533
65525
65527
65519
65516
65517
65518
65519
65517
65517
65508
65503
65511
65519
65511
65509
65511
65527
65519
65519
65525
65519
65516
65503
65511
65511
65504
65516
65516
65511
65511
65509
65527
65511
65516
65511
65510
65516
65510
65511
65527
65516
65511
65519
65508
65526
65519
65519
65518
65524
65516
65519
65527
65514
65516
65535
65524
65508
65519
65519
65513
65511
65519
65511
65519
65519
65516
65519
65517
65517
65511
65511
65513
65516
65514
65519
65511
65504
65519
65511
65525
65519
65508
65525
65516
65514
65508
65511
65504
65527
65514
65519
65511
65524
65514
65511
65516
65507
65519
65516
65519
65527
65511
65516
65511
65511
65504
65518
65511
65509
65502
65509
65508
65519
65527
65511
65508
65525
65511
65525
65511
65519
65508
65518
65508
65508
65516
65510
65510
65503
65516
65524
65519
65519
65500
65511
65519
65535
65518
65511
65527
65519
65511
65525
65533
65511
65519
65519
65510
65502
65518
65527
65511
65514
65527
65516
65524
65519
65516
65519
65511
65509
65516
65514
65505
65519
65527
65519
65519
65510
65508
65527
65517
65527
65511
65516
65516
65519
65519
65519
65527
65513
65518
65511
65519
65511
65519
65526
65526
65526
65511
65511
65509
65527
65519
65527
65504
65518
65527
65535
65508
65523
65519
65511
65510
65502
65525
65511
65516
65519
65527
65517
65511
65519
65519
65515
65516
65511
65517
65519
65517
65511
65519
65516
65519
65519
65524
65517
65517
65519
65535
65516
65525
65511
65525
65511
65519
65527
65514
65518
65516
65514
65510
65527
65524
65527
65525
65516
65527
65522
65519
65519
65511
65511
65510
65516
65511
65524
65527
65523
65516
65519
65524
65526
65516
65509
65527
65519
65513
65519
65516
65518
65511
65519
65524
65525
65524
65518
65516
65519
65511
65516
65525
65519
65527
65510
65504
65527
65517
65500
65511
65510
65516
65511
65518
65519
65519
65525
65525
65519
65519
65519
65534
65519
65510
65527
65517
65524
65514
65517
65514
65511
65519
65516
65510
65514
65527
65511
65519
65513
65527
65508
65527
65519
65519
65511
65508
65519
65511
65515
65516
65527
65508
65519
65516
65519
65508
65511
65519
65525
65519
65519
65517
65526
65517
65510
65525
65516
65525
65504
65516
65511
65517
65518
65519
65511
65517
65508
65511
65527
65516
65508
65508
65519
65519
65508
65519
65508
65509
65524
65511
65527
65513
65507
65511
65508
65527
65527
65516
65513
65517
65526
65527
65524
65505
65510
65519
65511
65519
65518
65508
65510
65516
65516
65519
65519
65527
65518
65519
65512
65514
65533
65519
65513
65510
65514
65519
65519
65508
65511
65527
65504
65511
65514
65503
65513
65511
65519
65516
65508
65519
65527
65519
65519
65525
65510
65519
65519
65519
65517
65524
65502
65508
65522
65519
65516
65511
65526
65519
65510
65527
65505
65510
65518
65511
65516
65519
65518
65517
65516
65525
65524
65525
65513
65516
65513
65516
65511
65508
65516
65519
65527
65516
65508
65516
65533
65508
65516
65524
65527
65519
65516
65527
65527
65510
65527
65516
65527
65524
65508
65527
65535
65519
65514
65518
65511
65525
65513
65527
65515
65513
65527
65511
65517
65518
65519
65527
65519
65524
65524
65505
65510
65512
65508
65515
65516
65519
65517
65524
65511
65508
65516
65524
65513
65519
65510
65510
65520
65519
65524
65519
65524
65527
65516
65519
65524
65535
65527
65516
65525
65508
65519
65519
65525
65516
65508
65516
65525
65519
65524
65519
65525
65519
65516
65519
65519
65519
65509
65510
65519
65524
65519
65509
65519
65516
65514
65519
65527
65525
65519
65518
65533
65516
65519
65519
65519
65519
65510
65508
65519
65527
65519
65508
65526
65527
65518
65511
65516
65516
65511
65519
65527
65517
65517
65525
65508
65511
65514
65513
65510
65518
65527
65535
65535
65519
65511
65512
65520
65519
65516
65511
65527
65517
65519
65519
65525
65524
65511
65509
65511
65513
65527
65525
65527
65519
65519
65516
65518
65516
65519
65525
65535
65519
65515
65519
65516
65517
65512
65535
65510
65504
65516
65526
65524
65519
65527
65519
65525
65524
65524
65527
65519
65519
65519
65513
65527
65519
65518
65519
65511
65511
65519
65519
65527
65515
65514
65519
65519
65519
65509
65524
65515
65526
65524
65527
65535
65511
65524
65527
65525
65519
65524
65512
65519
65510
65502
65511
65535
65527
65514
65518
65526
65523
65524
65504
65533
65516
65513
65516
65517
65524
65519
65516
65511
65523
65525
65524
65511
65511
65511
65516
65508
65519
65526
65508
65508
65527
65524
65527
65519
65532
65526
65525
65517
65520
65519
65508
65519
65516
65519
65518
65535
65533
65509
65516
65508
65517
65524
65519
65519
65524
65511
65511
65524
65510
65525
65508
65525
65527
65519
65527
65524
65511
65525
65524
65519
65519
65519
65508
65517
65516
65519
65513
65519
65519
65519
65527
65527
65527
65519
65525
65511
65516
65524
65511
65519
65527
65516
65516
65519
65525
65516
65516
65517
65519
65512
65519
65519
65515
65527
65521
65527
65519
65519
65513
65527
65518
65519
65516
65524
65511
65516
65504
65525
65525
65527
65527
65508
65516
65527
65533
65516
65525
65527
65517
65535
65509
65519
65511
65518
65527
65524
65517
65519
65533
65527
65519
65514
65524
65510
65527
65527
65525
65527
65508
65519
65518
65519
65519
65519
65518
65516
65526
65511
65527
65525
65517
65524
65511
65519
65525
65519
65518
65511
65519
65519
65519
65517
65521
65524
65527
65516
65511
65511
65524
65535
65519
65516
65533
65507
65508
65526
65524
65510
65527
65511
65524
65504
65509
65519
65525
65519
65519
65513
65524
65527
65524
65519
65535
65527
65527
65524
65525
65519
65533
65524
65519
65524
65524
65524
65525
65527
65519
65519
65516
65517
65519
65511
65517
65521
65535
65519
65516
65519
65527
65524
65508
65525
65525
65519
65527
65511
65516
65517
65519
65518
65524
65535
65516
65519
65511
65516
65519
65521
65508
65516
65527
65510
65519
65535
65535
65524
65525
65519
65535
65511
65524
65519
65517
65519
65521
65518
65518
65522
65527
65535
65527
65504
65516
65519
65527
65531
65517
65516
65527
65524
65517
65518
65516
65519
65516
65519
65525
65519
65527
65519
65519
65524
65508
65524
65519
65535
65534
65511
65511
65524
65508
65527
65524
65531
65508
65519
65517
65516
65516
65511
65527
65518
65524
65516
65510
65511
65510
65519
65519
65530
65525
65518
65516
65519
65524
65519
65526
65503
65519
65519
65527
65508
65518
65519
65527
65519
65523
65513
65519
65508
65524
65516
65525
65519
65526
65525
65512
65527
65510
65519
65524
65516
65519
65511
65509
65513
65527
65519
65524
65519
65524
65527
65527
65527
65508
65524
65526
65527
65516
65527
65524
65524
65519
65518
65527
65519
65516
65511
65509
65516
65517
65525
65519
65511
65527
65516
65535
65527
65517
65516
65517
65535
65519
65527
65509
65527
65519
65519
65504
65527
65505
65524
65527
65524
65532
65508
65516
65516
65519
65524
65524
65516
65535
65516
65525
65519
65524
65519
65523
65535
65519
65519
65516
65510
65525
65535
65519
65527
65519
65516
65527
65511
65527
65511
65525
65516
65519
65519
65516
65511
65516
65527
65525
65518
65503
65527
65519
65514
65519
65517
65524
65535
65512
65521
65518
65516
65516
65518
65519
65519
65524
65516
65520
65504
65511
65504
65516
65519
65516
65524
65515
65519
65524
65516
65525
65527
65519
65524
65519
65532
65518
65519
65524
65512
65509
65527
65535
65525
65516
65519
65519
65527
65519
65516
65524
65512
65511
65527
65526
65527
65524
65510
65521
65519
65525
65514
65534
65516
65522
65525
65519
65519
65515
65519
65519
65519
65517
65519
65519
65519
65518
65532
65525
65527
65521
65527
65508
65525
65527
65534
65527
65508
65518
65532
65519
65524
65518
65524
65521
65518
65509
65511
65519
65508
65504
65519
65502
65524
65519
65511
65533
65524
65526
65526
65519
65519
65525
65519
65519
65514
65535
65524
65518
65508
65516
65534
65512
65524
65525
65511
65527
65525
65514
65519
65526
65535
65519
65527
65535
65519
65527
65511
65510
65527
65527
65519
65518
65527
65524
65535
65517
65532
65526
65518
65525
65519
65524
65513
65512
65517
65519
65519
65527
65508
65524
65527
65519
65519
65519
65519
65514
65510
65527
65524
65519
65519
65527
65527
65510
65527
65518
65519
65519
65519
65513
65521
65535
65524
65519
65526
65527
65527
65508
65503
65511
65519
65527
65519
65516
65511
65533
65516
65516
65514
65524
65524
65508
65516
65519
65535
65524
65527
65519
65521
65516
65516
65516
65519
65527
65518
65519
65519
65508
65524
65516
65527
65535
65511
65512
65524
65535
65517
65533
65510
65519
65508
65519
65527
65535
65519
65527
65519
65516
65511
65524
65530
65511
65511
65524
65535
65517
65527
65519
65532
65519
65527
65519
65527
65519
65519
65519
65526
65519
65527
65510
65511
65519
65525
65519
65535
65516
65517
65519
65516
65510
65519
65519
65524
65535
65519
65519
65516
65517
65519
65513
65527
65516
65509
65524
65516
65527
65514
65524
65516
65524
65511
65527
65535
65516
65510
65518
65510
65515
65519
65526
65514
65516
65527
65508
65527
65533
65527
65510
65527
65526
65519
65518
65514
65519
65518
65511
65524
65511
65508
65511
65516
65527
65511
65527
65517
65519
65508
65519
65533
65517
65535
65524
65510
65508
65527
65526
65527
65519
65534
65512
65519
65524
65519
65519
65511
65519
65516
65519
65519
65508
65516
65519
65526
65525
65526
65527
65516
65533
65524
65525
65524
65516
65516
65512
65523
65527
65516
65519
65535
65518
65524
65516
65527
65516
65516
65512
65519
65527
65535
65515
65515
65510
65526
65526
65527
65519
65519
65524
65527
65533
65511
65522
65527
65508
65527
65508
65518
65516
65510
65527
65527
65527
65525
65510
65513
65527
65524
65534
65524
65517
65516
65521
65510
65519
65516
65516
65524
65510
65510
65525
65525
65508
65524
65525
65519
65513
65504
65527
65527
65519
65527
65519
65532
65519
65525
65535
65518
65522
65519
65527
65527
65510
65519
65511
65516
65511
65524
65514
65535
65535
65521
65516
65524
65535
65527
65516
65524
65527
65508
65527
65518
65510
65519
65517
65524
65535
65522
65532
65524
65521
65519
65519
65525
65514
65510
65516
65535
65524
65517
65535
65519
65518
65511
65519
65515
65516
65511
65517
65535
65525
65519
65518
65519
65526
65525
65510
65535
65510
65527
65509
65517
65525
65519
65511
65513
65527
65516
65526
65527
65533
65524
65525
65519
65519
65516
65531
65525
65508
65516
65508
65521
65510
65510
65513
65518
65527
65510
65535
65516
65519
65527
65519
65511
65526
65511
65527
65525
65517
65524
65516
65527
65519
65508
65526
65535
65521
65519
65516
65511
65524
65527
65519
65535
65508
65519
65516
65524
65504
65518
65519
65527
65510
65527
65527
65513
65524
65524
65533
65519
65519
65519
65511
65516
65526
65510
65519
65524
65511
65518
65517
65514
65519
65523
65507
65527
65519
65532
65519
65519
65527
65527
65525
65516
65511
65519
65519
65524
65508
65519
65522
65524
65525
65511
65518
65519
65527
65514
65519
65515
65527
65518
65519
65514
65516
65533
65519
65510
65513
65527
65519
65526
65519
65532
65516
65524
65515
65519
65513
65519
65508
65527
65509
65511
65517
65519
65523
65519
65518
65519
65524
65516
65518
65515
65518
65509
65517
65519
65524
65524
65519
65524
65519
65518
65521
65519
65516
65518
65516
65524
65509
65519
65533
65516
65526
65519
65511
65527
65527
65519
65516
65525
65508
65535
65524
65516
65517
65516
65508
65527
65527
65513
65527
65527
65512
65525
65508
65524
65527
65519
65519
65516
65510
65519
65524
65508
65516
65516
65525
65516
65519
65508
65517
65508
65519
65508
65512
65516
65524
65527
65527
65510
65511
65518
65511
65517
65510
65519
65519
65508
65510
65519
65514
65519
65524
65519
65518
65518
65532
65519
65516
65513
65524
65527
65508
65516
65511
65527
65535
65517
65526
65533
65524
65516
65510
65511
65527
65531
65527
65525
65508
65510
65527
65519
65519
65527
65508
65510
65519
65524
65516
65527
65508
65523
65519
65525
65527
65525
65524
65519
65511
65525
65527
65519
65527
65526
65500
65516
65518
65517
65527
65535
65512
65535
65510
65519
65519
65516
65527
65518
65511
65527
65512
65516
65527
65517
65527
65519
65535
65525
65508
65524
65532
65527
65519
65519
65511
65535
65511
65527
65526
65524
65527
65519
65519
65526
65519
65516
65516
65514
65524
65527
65511
65519
65516
65519
65521
65535
65527
65527
65533
65508
65525
65518
65535
65527
65524
65519
65527
65519
65518
65519
65527
65511
65527
65535
65532
65516
65504
65519
65500
65517
65525
65525
65526
65525
65535
65518
65525
65508
65505
65527
65510
65517
65533
65533
65524
65533
65519
65524
65527
65525
65517
65517
65511
65517
65535
65524
65510
65513
65524
65516
65514
65516
65523
65519
65525
65519
65516
65524
65519
65535
65524
65519
65525
65519
65519
65518
65525
65519
65520
65517
65524
65526
65532
65508
65525
65527
65519
65510
65527
65519
65516
65534
65527
65521
65535
65527
65514
65519
65519
65513
65516
65516
65525
65513
65527
65525
65519
65516
65516
65525
65527
65527
65524
65516
65517
65519
65519
65519
65517
65519
65526
65511
65524
65527
65511
65527
65516
65527
65525
65524
65527
65511
65527
65527
65527
65517
65519
65516
65519
65525
65519
65524
65516
65519
65524
65519
65519
65523
65519
65527
65519
65510
65527
65510
65519
65516
65513
65511
65508
65518
65518
65516
65516
65509
65516
65522
65527
65516
65525
65527
65527
65535
65512
65527
65512
65511
65527
65516
65527
65519
65527
65524
65511
65519
65508
65510
65527
65508
65524
65535
65516
65524
65516
65532
65524
65519
65519
65535
65524
65534
65519
65527
65519
65519
65535
65508
65516
65524
65525
65519
65524
65516
65527
65524
65516
65518
65531
65519
65510
65500
65516
65516
65516
65517
65515
65532
65504
65516
65516
65516
65523
65524
65522
65515
65516
65519
65519
65516
65511
65524
65535
65514
65500
65535
65527
65525
65526
65527
65516
65519
65512
65516
65524
65516
65519
65514
65527
65519
65506
65519
65519
65527
65516
65508
65527
65511
65520
65519
65512
65524
65519
65533
65519
65519
65524
65535
65510
65527
65511
65524
65525
65527
65527
65512
65532
65519
65519
65511
65516
65509
65519
65511
65519
65517
65527
65519
65524
65508
65519
65519
65519
65523
65519
65519
65525
65527
65524
65519
65535
65511
65518
65526
65516
65517
65509
65519
65521
65519
65527
65517
65522
65513
65504
65522
65511
65516
65535
65524
65513
65525
65519
65516
65535
65519
65521
65527
65527
65517
65527
65533
65524
65511
65519
65527
65519
65511
65518
65511
65516
65521
65527
65524
65511
65524
65511
65524
65508
65527
65525
65518
65524
65525
65519
65535
65519
65525
65516
65519
65527
65524
65524
65519
65508
65524
65511
65527
65518
65512
65532
65516
65509
65518
65506
65517
65527
65511
65530
65512
65525
65535
65535
65519
65516
65535
65516
65519
65516
65518
65508
65519
65518
65513
65510
65527
65535
65535
65508
65524
65535
65512
65526
65527
65511
65516
65517
65524
65521
65519
65524
65525
65535
65519
65513
65519
65510
65527
65516
65533
65535
65519
65508
65527
65524
65518
65519
65524
65525
65519
65519
65524
65519
65511
65526
65511
65516
65510
65524
65510
65516
65524
65526
65516
65516
65516
65525
65511
65525
65519
65533
65502
65513
65513
65527
65508
65527
65516
65511
65535
65517
65526
65527
65511
65512
65504
65516
65511
65535
65525
65527
65519
65516
65518
65524
65524
65516
65535
65510
65516
65527
65519
65527
65519
65516
65512
65519
65524
65516
65525
65519
65527
65519
65512
65527
65527
65519
65512
65511
65519
65525
65509
65535
65516
65523
65527
65519
65527
65527
65508
65527
65518
65512
65535
65517
65518
65535
65527
65516
65518
65518
65526
65516
65527
65516
65518
65527
65527
65524
65521
65519
65524
65511
65526
65518
65521
65511
65511
65526
65532
65527
65519
65519
65519
65524
65524
65524
65531
65508
65533
65511
65524
65511
65519
65527
65519
65527
65508
65527
65519
65526
65527
65524
65527
65530
65517
65526
65519
65533
65511
65514
65535
65508
65504
65526
65519
65524
65527
65519
65525
65519
65519
65524
65527
65519
65524
65513
65514
65508
65524
65510
65525
65519
65524
65516
65508
65508
65510
65524
65511
65519
65519
65524
65519
65527
65527
65527
65510
65509
65512
65519
65524
65524
65519
65524
65527
65517
65527
65511
65510
65508
65512
65519
65516
65524
65527
65527
65526
65519
65508
65532
65518
65511
65526
65518
65516
65535
65527
65517
65527
65521
65524
65516
65517
65533
65519
65512
65524
65512
65519
65524
65525
65519
65519
65516
65535
65525
65517
65510
65527
65525
65518
65517
65519
65516
65509
65504
65519
65510
65527
65519
65513
65517
65519
65527
65511
65524
65509
65526
65527
65519
65510
65524
65533
65508
65519
65519
65511
65508
65527
65518
65508
65513
65513
65524
65511
65510
65527
65524
65510
65512
65516
65518
65527
65508
65517
65519
65511
65525
65524
65518
65505
65510
65535
65519
65510
65527
65516
65535
65526
65527
65527
65518
65535
65519
65519
65527
65527
65524
65525
65519
65504
65517
65516
65524
65516
65517
65519
65516
65518
65516
65511
65511
65511
65512
65516
65527
65524
65519
65527
65527
65535
65527
65527
65517
65511
65517
65527
65519
65527
65525
65516
65516
65513
65527
65511
65519
65533
65527
65535
65527
65527
65519
65526
65517
65519
65524
65526
65519
65512
65524
65522
65511
65510
65516
65527
65510
65516
65527
65520
65525
65527
65527
65516
65524
65508
65535
65522
65519
65513
65524
65508
65519
65525
65532
65513
65533
65519
65516
65510
65519
65519
65519
65527
65519
65519
65535
65524
65531
65516
65519
65510
65519
65519
65511
65519
65504
65524
65524
65524
65519
65516
65527
65508
65535
65524
65502
65524
65511
65517
65524
65535
65532
65524
65511
65530
65532
65524
65510
65516
65516
65516
65519
65527
65510
65533
65527
65519
65510
65533
65527
65508
65532
65527
65508
65524
65533
65527
65524
65535
65535
65511
65516
65519
65516
65510
65510
65510
65517
65524
65519
65511
65508
65524
65519
65516
65527
65527
65527
65535
65514
65527
65508
65519
65502
65511
65519
65508
65524
65511
65527
65516
65524
65524
65514
65520
65518
65519
65525
65519
65510
65532
65524
65509
65527
65519
65519
65519
65535
65527
65519
65510
65508
65527
65527
65521
65516
65524
65515
65520
65518
65519
65527
65517
65519
65533
65527
65519
65516
65527
65527
65533
65523
65527
65516
65518
65525
65532
65517
65516
65535
65516
65516
65526
65519
65527
65525
65524
65527
65521
65518
65524
65519
65509
65525
65524
65533
65521
65525
65508
65524
65527
65524
65526
65518
65519
65519
65527
65516
65519
65510
65516
65527
65519
65516
65511
65524
65527
65511
65517
65511
65519
65511
65510
65502
65524
65513
65527
65527
65508
65534
65508
65512
65519
65519
65519
65535
65519
65527
65518
65519
65524
65517
65516
65527
65519
65508
65519
65527
65514
65535
65511
65519
65519
65521
65518
65520
65519
65518
65521
65526
65519
65519
65524
65519
65511
65524
65516
65518
65519
65513
65518
65519
65519
65527
65531
65527
65508
65519
65524
65522
65532
65516
65509
65511
65527
65526
65519
65519
65515
65519
65519
65518
65535
65514
65516
65516
65518
65514
65519
65519
65524
65513
65508
65511
65527
65519
65527
65519
65527
65513
65519
65533
65510
65527
65527
65525
65511
65519
65527
65516
65527
65504
65524
65524
65525
65525
65519
65527
65526
65519
65518
65513
65532
65521
65525
65526
65516
65512
65527
65519
65514
65511
65519
65527
65525
65524
65508
65524
65524
65516
65535
65524
65524
65516
65525
65519
65512
65516
65517
65517
65533
65516
65525
65535
65527
65526
65519
65519
65518
65511
65513
65527
65532
65519
65519
65524
65519
65520
65507
65511
65519
65525
65524
65527
65526
65524
65508
65519
65504
65519
65517
65502
65519
65519
65527
65516
65511
65527
65516
65517
65516
65533
65519
65524
65524
65519
65511
65511
65535
65516
65516
65516
65525
65519
65516
65521
65513
65524
65514
65511
65516
65535
65527
65519
65519
65517
65527
65521
65511
65524
65535
65516
65527
65525
65510
65513
65524
65516
65527
65527
65525
65527
65516
65527
65519
65521
65524
65527
65516
65519
65527
65517
65524
65519
65527
65526
65527
65527
65519
65516
65519
65524
65500
65519
65523
65516
65517
65508
65515
65527
65527
65516
65511
65532
65526
65527
65512
65508
65527
65509
65521
65517
65519
65524
65511
65516
65524
65510
65521
65527
65527
65527
65519
65518
65510
65519
65519
65525
65508
65511
65525
65510
65525
65524
65510
65510
65527
65535
65533
65513
65516
65524
65519
65519
65519
65512
65527
65510
65512
65510
65535
65535
65508
65521
65524
65518
65535
65525
65519
65526
65508
65519
65516
65525
65532
65508
65508
65510
65527
65516
65525
65517
65525
65519
65527
65511
65527
65519
65519
65524
65527
65519
65517
65527
65519
65516
65527
65527
65514
65524
65534
65535
65525
65527
65516
65516
65516
65516
65524
65519
65519
65524
65500
65519
65518
65519
65510
65524
65512
65517
65519
65526
65527
65519
65512
65527
65517
65519
65516
65508
65508
65527
65506
65519
65508
65527
65519
65519
65517
65524
65508
65511
65510
65518
65519
65508
65521
65527
65516
65517
65508
65519
65519
65519
65527
65525
65521
65514
65509
65535
65518
65513
65527
65519
65527
65519
65516
65519
65511
65519
65511
65518
65510
65516
65517
65524
65509
65522
65535
65524
65511
65527
65513
65532
65510
65514
65535
65508
65518
65521
65517
65517
65527
65508
65510
65519
65519
65532
65508
65527
65508
65519
65518
65519
65512
65511
65519
65533
65524
65524
65524
65526
65510
65524
65535
65519
65518
65517
65535
65519
65520
65517
65516
65504
65524
65525
65511
65518
65524
65525
65524
65511
65527
65508
65527
65532
65525
65508
65527
65519
65519
65527
65517
65510
65519
65534
65524
65516
65508
65516
65513
65519
65534
65519
65526
65527
65534
65511
65517
65525
65512
65514
65519
65525
65535
65512
65519
65519
65513
65524
65508
65518
65517
65519
65517
65519
65527
65502
65524
65527
65516
65527
65519
65524
65535
65518
65515
65519
65517
65516
65519
65527
65519
65527
65527
65527
65527
65514
65527
65519
65515
65511
65534
65527
65525
65519
65516
65518
65527
65519
65503
65514
65517
65518
65511
65516
65506
65511
65527
65511
65511
65527
65515
65518
65518
65516
65511
65534
65527
65519
65516
65516
65513
65519
65534
65518
65516
65519
65535
65512
65504
65519
65516
65525
65514
65519
65525
65525
65516
65519
65521
65516
65511
65514
65524
65525
65510
65511
65519
65519
65517
65517
65519
65527
65505
65527
65505
65516
65527
65513
65511
65516
65511
65519
65524
65517
65519
65519
65516
65510
65519
65508
65534
65519
65516
65527
65516
65510
65524
65515
65502
65527
65509
65525
65513
65524
65516
65535
65516
65526
65526
65519
65516
65514
65519
65527
65516
65518
65525
65520
65527
65532
65521
65510
65518
65533
65525
65527
65519
65524
65527
65524
65535
65511
65522
65524
65516
65516
65519
65524
65525
65526
65525
65516
65509
65519
65525
65510
65519
65524
65534
65535
65517
65527
65519
65527
65524
65508
65511
65525
65526
65527
65519
65527
65517
65513
65526
65527
65524
65535
65519
65535
65508
65533
65524
65525
65516
65508
65516
65524
65516
65519
65527
65533
65526
65526
65525
65535
65511
65516
65524
65524
65510
65514
65519
65519
65525
65527
65516
65519
65516
65523
65511
65519
65511
65519
65504
65527
65517
65519
65519
65517
65516
65517
65527
65524
65512
65526
65512
65519
65519
65516
65521
65511
65523
65516
65524
65525
65516
65524
65526
65519
65527
65532
65518
65519
65508
65527
65518
65516
65527
65531
65518
65519
65527
65527
65533
65524
65515
65510
65524
65519
65516
65518
65516
65511
65525
65519
65524
65524
65513
65524
65519
65535
65533
65519
65519
65525
65516
65519
65519
65516
65508
65517
65519
65514
65519
65527
65527
65527
65527
65514
65527
65527
65519
65511
65524
65535
65519
65516
65516
65519
65516
65519
65519
65516
65519
65524
65527
65524
65523
65524
65532
65527
65521
65516
65518
65508
65516
65519
65535
65527
65516
65516
65519
65527
65519
65535
65527
65519
65519
65517
65526
65519
65525
65527
65524
65517
65527
65527
65508
65521
65511
65513
65517
65535
65534
65510
65519
65533
65533
65527
65511
65524
65510
65511
65517
65527
65519
65535
65514
65516
65519
65527
65519
65532
65524
65516
65516
65519
65518
65535
65508
65516
65511
65516
65524
65523
65519
65519
65519
65519
65519
65519
65519
65519
65516
65516
65532
65516
65510
65510
65524
65508
65519
65518
65527
65525
65511
65535
65527
65505
65511
65532
65519
65519
65513
65510
65527
65510
65516
65527
65518
65517
65517
65518
65519
65521
65527
65527
65526
65514
65511
65508
65524
65527
65515
65518
65519
65518
65527
65511
65519
65511
65525
65527
65527
65519
65519
65519
65526
65524
65519
65527
65527
65519
65509
65524
65516
65532
65535
65516
65524
65511
65535
65519
65535
65519
65512
65519
65524
65519
65509
65519
65511
65519
65519
65511
65519
65511
65527
65516
65515
65519
65527
65509
65519
65504
65516
65510
65526
65519
65527
65527
65527
65526
65524
65527
65508
65516
65513
65533
65511
65518
65532
65521
65527
65511
65527
65527
65533
65527
65535
65516
65527
65519
65527
65525
65519
65527
65519
65516
65508
65525
65519
65519
65531
65524
65513
65526
65524
65522
65526
65518
65512
65516
65532
65517
65515
65519
65527
65516
65519
65527
65518
65525
65527
65510
65527
65516
65524
65502
65508
65519
65524
65527
65502
65518
65511
65527
65511
65519
65523
65516
65519
65526
65532
65516
65511
65504
65527
65511
65525
65527
65519
65511
65519
65519
65527
65534
65516
65508
65516
65524
65511
65508
65517
65527
65517
65524
65524
65524
65531
65519
65525
65524
65519
65519
65525
65508
65514
65519
65524
65521
65522
65517
65511
65519
65518
65518
65519
65516
65513
65527
65527
65535
65519
65519
65508
65524
65533
65519
65527
65519
65527
65517
65504
65516
65525
65508
65535
65506
65518
65526
65508
65526
65511
65524
65527
65525
65524
65527
65516
65512
65510
65526
65524
65535
65533
65519
65519
65524
65532
65505
65517
65510
65535
65525
65525
65521
65516
65524
65519
65510
65510
65511
65526
65517
65532
65527
65527
65527
65511
65517
65519
65527
65524
65513
65534
65524
65527
65524
65532
65510
65526
65519
65527
65534
65535
65519
65517
65513
65519
65527
65516
65519
65516
65519
65534
65525
65527
65519
65525
65508
65511
65525
65519
65524
65524
65532
65525
65508
65519
65517
65512
65527
65533
65519
65519
65504
65535
65519
65521
65517
65533
65525
65531
65514
65512
65519
65527
65518
65527
65517
65519
65527
65527
65524
65527
65524
65513
65511
65510
65508
65527
65525
65521
65522
65523
65517
65535
65524
65535
65508
65511
65516
65525
65519
65508
65519
65504
65524
65524
65519
65519
65535
65516
65517
65511
65518
65508
65511
65508
65519
65535
65525
65519
65510
65525
65527
65511
65527
65519
65512
65527
65512
65524
65532
65519
65516
65508
65527
65516
65516
65519
65527
65524
65518
65516
65527
65519
65519
65535
65508
65519
65524
65513
65519
65518
65531
65516
65532
65514
65521
65517
65519
65524
65511
65519
65524
65535
65517
65508
65525
65523
65527
65518
65508
65510
65525
65510
65524
65512
65518
65516
65511
65511
65510
65510
65519
65524
65508
65508
65526
65519
65525
65496
65519
65510
65519
65526
65515
65519
65518
65527
65519
65510
65516
65517
65518
65524
65519
65517
65524
65527
65519
65508
65519
65527
65533
65527
65524
65508
65519
65527
65527
65519
65535
65511
65516
65524
65516
65516
65519
65524
65516
65512
65515
65514
65519
65508
65524
65524
65519
65527
65533
65519
65521
65511
65519
65516
65516
65511
65516
65519
65522
65513
65505
65517
65525
65515
65524
65510
65510
65511
65535
65516
65517
65519
65519
65524
65527
65504
65527
65502
65516
65525
65533
65527
65516
65535
65510
65516
65524
65526
65524
65527
65526
65519
65516
65527
65527
65511
65508
65519
65519
65511
65519
65520
65524
65511
65535
65527
65517
65519
65517
65511
65526
65527
65506
65524
65527
65516
65535
65535
65519
65511
65524
65519
65516
65517
65522
65519
65527
65516
65525
65516
65527
65527
65519
65519
65516
65535
65527
65519
65516
65535
65527
65527
65516
65523
65525
65525
65518
65513
65508
65519
65510
65525
65519
65508
65519
65518
65524
65516
65527
65512
65519
65527
65524
65511
65527
65535
65527
65535
65517
65519
65511
65527
65524
65527
65510
65527
65519
65525
65517
65527
65516
65524
65516
65518
65519
65526
65519
65524
65517
65505
65516
65511
65524
65527
65519
65519
65527
65519
65518
65533
65531
65527
65519
65510
65510
65524
65509
65527
65517
65519
65519
65527
65526
65519
65534
65534
65519
65511
65524
65518
65517
65524
65519
65527
65511
65517
65535
65515
65533
65517
65516
65510
65519
65519
65527
65527
65511
65530
65524
65522
65527
65511
65510
65531
65532
65510
65519
65519
65519
65519
65519
65519
65518
65519
65518
65518
65517
65511
65525
65523
65519
65531
65524
65511
65519
65527
65531
65524
65517
65515
65518
65518
65526
65510
65511
65524
65506
65534
65518
65535
65525
65524
65519
65510
65526
65517
65532
65509
65532
65525
65527
65527
65516
65508
65527
65510
65512
65527
65532
65524
65524
65516
65504
65519
65511
65527
65516
65525
65527
65519
65511
65527
65508
65519
65527
65520
65514
65535
65524
65527
65527
65509
65532
65524
65527
65519
65508
65519
65524
65525
65527
65519
65526
65519
65519
65510
65519
65527
65527
65527
65535
65524
65527
65519
65519
65524
65519
65524
65535
65518
65518
65519
65512
65527
65527
65512
65527
65524
65516
65516
65525
65515
65516
65519
65535
65516
65517
65533
65519
65516
65521
65526
65519
65512
65510
65516
65524
65519
65519
65516
65525
65527
65524
65533
65526
65524
65511
65508
65527
65519
65524
65516
65519
65524
65527
65516
65524
65524
65527
65527
65527
65525
65511
65517
65532
65535
65524
65518
65527
65527
65519
65509
65516
65524
65516
65511
65527
65513
65519
65516
65516
65512
65519
65519
65527
65519
65524
65527
65510
65524
65534
65524
65510
65519
65519
65514
65526
65525
65521
65519
65511
65511
65511
65511
65504
65527
65527
65535
65524
65519
65527
65519
65516
65519
65512
65517
65508
65519
65525
65510
65527
65527
65511
65525
65508
65519
65525
65524
65533
65509
65526
65511
65517
65519
65519
65527
65525
65515
65519
65508
65527
65517
65519
65512
65524
65519
65524
65509
65524
65519
65525
65510
65516
65532
65508
65525
65524
65509
65527
65535
65519
65508
65519
65508
65518
65510
65510
65527
65519
65525
65524
65518
65519
65527
65527
65525
65518
65510
65514
65514
65519
65522
65527
65533
65519
65527
65512
65517
65508
65519
65527
65514
65524
65535
65516
65521
65511
65519
65527
65511
65527
65516
65527
65510
65511
65518
65510
65512
65518
65519
65525
65527
65535
65527
65525
65527
65525
65513
65516
65525
65520
65511
65513
65516
65511
65519
65508
65527
65510
65510
65526
65519
65514
65527
65525
65525
65511
65527
65516
65525
65518
65532
65513
65527
65533
65519
65527
65524
65524
65511
65510
65524
65524
65516
65508
65527
65505
65518
65535
65527
65524
65516
65524
65519
65514
65508
65511
65516
65504
65531
65524
65519
65514
65519
65505
65527
65519
65527
65527
65527
65524
65516
65519
65513
65519
65519
65527
65518
65524
65519
65535
65513
65535
65525
65533
65524
65527
65511
65516
65511
65524
65522
65511
65527
65519
65527
65525
65527
65525
65527
65508
65524
65512
65516
65534
65510
65519
65513
65518
65527
65526
65533
65519
65519
65519
65517
65525
65516
65535
65525
65511
65516
65535
65522
65519
65513
65535
65533
65527
65527
65519
65527
65518
65527
65527
65519
65519
65527
65519
65527
65512
65527
65522
65524
65527
65527
65510
65519
65524
65524
65527
65509
65518
65527
65532
65524
65508
65527
65519
65516
65519
65527
65524
65520
65508
65524
65521
65524
65535
65511
65527
65519
65521
65521
65519
65519
65526
65518
65533
65512
65527
65517
65524
65512
65516
65527
65506
65527
65511
65518
65516
65511
65521
65517
65524
65500
65525
65527
65511
65535
65518
65535
65516
65522
65509
65524
65524
65510
65525
65514
65522
65519
65511
65518
65518
65524
65510
65525
65519
65524
65527
65519
65519
65519
65519
65516
65527
65511
65519
65518
65516
65511
65504
65519
65516
65519
65508
65508
65511
65527
65535
65519
65533
65518
65524
65519
65531
65512
65516
65519
65517
65516
65524
65519
65517
65508
65527
65518
65516
65535
65515
65516
65530
65524
65531
65516
65524
65519
65523
65519
65519
65517
65519
65524
65516
65519
65524
65524
65512
65526
65535
65519
65519
65511
65524
65516
65535
65535
65508
65519
65512
65527
65526
65527
65519
65526
65525
65525
65517
65524
65524
65519
65511
65527
65535
65511
65535
65526
65527
65519
65518
65527
65513
65535
65527
65518
65527
65511
65527
65519
65511
65512
65519
65500
65527
65527
65525
65518
65530
65524
65524
65527
65519
65511
65520
65508
65518
65513
65511
65516
65517
65510
65519
65519
65525
65517
65524
65508
65519
65516
65502
65516
65519
65535
65532
65527
65527
65524
65510
65519
65525
65532
65519
65516
65512
65519
65505
65516
65525
65516
65518
65511
65526
65511
65527
65535
65519
65516
65519
65526
65511
65519
65524
65510
65519
65516
65519
65519
65519
65508
65531
65526
65516
65532
65527
65519
65527
65527
65511
65525
65517
65508
65524
65513
65525
65519
65516
65527
65533
65512
65524
65500
65524
65517
65513
65511
65519
65512
65505
65525
65519
65519
65513
65519
65516
65514
65510
65524
65519
65508
65527
65525
65524
65508
65524
65519
65526
65525
65534
65527
65520
65535
65519
65524
65527
65524
65519
65519
65511
65521
65527
65516
65512
65527
65518
65508
65527
65527
65508
65508
65527
65509
65527
65524
65518
65508
65517
65508
65525
65524
65511
65511
65516
65524
65524
65522
65524
65512
65525
65511
65519
65505
65526
65519
65519
65519
65519
65519
65525
65519
65511
65527
65519
65517
65533
65508
65509
65533
65505
65519
65531
65511
65524
65525
65511
65525
65527
65510
65519
65535
65519
65514
65525
65508
65524
65525
65527
65524
65527
65527
65508
65517
65511
65510
65513
65527
65519
65526
65526
65525
65516
65519
65523
65517
65527
65524
65508
65523
65511
65535
65508
65524
65524
65519
65518
65504
65519
65527
65524
65526
65524
65508
65519
65508
65510
65519
65519
65510
65527
65518
65518
65527
65517
65513
65515
65526
65524
65527
65519
65526
65519
65531
65525
65504
65516
65525
65511
65517
65535
65516
65504
65534
65510
65517
65519
65524
65512
65534
65525
65509
65524
65527
65517
65524
65519
65508
65518
65524
65533
65513
65535
65519
65518
65524
65508
65518
65516
65524
65516
65524
65532
65516
65524
65519
65514
65527
65519
65516
65524
65516
65505
65527
65510
65535
65532
65515
65508
65511
65516
65532
65532
65527
65535
65517
65509
65524
65512
65524
65527
65525
65519
65535
65524
65516
65527
65509
65518
65517
65510
65508
65516
65527
65525
65524
65519
65516
65519
65506
65509
65527
65524
65517
65524
65516
65527
65518
65517
65527
65527
65519
65511
65510
65511
65519
65524
65524
65514
65521
65519
65508
65518
65533
65524
65524
65519
65509
65519
65508
65517
65524
65527
65532
65526
65535
65531
65511
65519
65517
65519
65505
65533
65517
65535
65527
65525
65519
65518
65527
65519
65519
65527
65525
65513
65519
65518
65519
65516
65519
65524
65511
65504
65524
65516
65509
65516
65511
65516
65526
65524
65535
65519
65509
65511
65511
65527
65516
65516
65527
65511
65519
65516
65527
65517
65524
65512
65527
65511
65516
65524
65519
65527
65524
65510
65519
65519
65513
65509
65526
65532
65526
65527
65527
65527
65511
65527
65524
65517
65510
65519
65518
65533
65535
65527
65517
65524
65524
65508
65509
65527
65527
65496
65510
65513
65524
65518
65518
65511
65519
65517
65514
65519
65516
65519
65519
65524
65527
65519
65527
65510
65533
65519
65514
65519
65526
65525
65527
65527
65515
65526
65511
65516
65510
65525
65525
65525
65518
65511
65519
65527
65527
65519
65524
65527
65527
65527
65519
65516
65533
65511
65527
65519
65512
65524
65524
65524
65519
65519
65516
65532
65510
65509
65527
65525
65519
65511
65516
65527
65527
65525
65517
65527
65519
65516
65518
65525
65524
65510
65521
65516
65527
65534
65525
65521
65510
65511
65519
65514
65508
65525
65519
65516
65510
65515
65509
65519
65520
65508
65524
65519
65514
65517
65526
65518
65513
65525
65511
65519
65508
65527
65516
65527
65509
65516
65511
65508
65516
65524
65524
65516
65518
65527
65532
65517
65518
65516
65524
65511
65524
65524
65511
65525
65535
65516
65516
65525
65517
65524
65519
65519
65512
65524
65524
65527
65524
65516
65527
65524
65525
65527
65527
65511
65516
65527
65526
65526
65515
65509
65519
65510
65524
65511
65535
65514
65527
65516
65511
65526
65511
65524
65513
65519
65527
65527
65512
65516
65512
65519
65508
65504
65511
65535
65516
65535
65534
65519
65519
65519
65508
65527
65511
65510
65512
65527
65512
65527
65519
65527
65511
65519
65535
65535
65516
65524
65534
65516
65521
65524
65519
65511
65516
65512
65524
65511
65535
65524
65534
65522
65519
65517
65521
65527
65512
65519
65525
65516
65519
65519
65527
65525
65527
65511
65519
65519
65517
65512
65524
65524
65519
65519
65527
65508
65527
65516
65525
65519
65535
65533
65519
65516
65511
65525
65527
65516
65519
65513
65508
65516
65517
65527
65519
65524
65518
65527
65519
65535
65510
65517
65524
65533
65522
65511
65527
65511
65519
65527
65510
65511
65504
65519
65504
65511
65527
65520
65519
65510
65519
65532
65509
65516
65519
65527
65527
65535
65526
65511
65519
65514
65535
65511
65511
65516
65527
65519
65524
65511
65524
65519
65527
65518
65515
65526
65525
65516
65519
65535
65508
65511
65518
65527
65525
65511
65504
65516
65524
65511
65510
65519
65519
65515
65517
65519
65519
65526
65527
65519
65508
65518
65532
65519
65525
65516
65524
65511
65513
65527
65527
65527
65516
65527
65511
65520
65511
65502
65509
65508
65534
65517
65534
65510
65535
65524
65525
65524
65535
65524
65511
65514
65519
65513
65507
65521
65518
65516
65519
65518
65526
65510
65527
65526
65523
65508
65516
65519
65524
65508
65516
65521
65519
65519
65511
65522
65533
65525
65517
65535
65518
65534
65524
65535
65532
65518
65519
65516
65527
65524
65519
65516
65527
65524
65500
65525
65525
65519
65519
65519
65516
65514
65508
65519
65527
65511
65514
65527
65516
65520
65519
65524
65535
65524
65509
65525
65515
65518
65525
65503
65508
65512
65510
65510
65524
65519
65510
65535
65525
65500
65518
65519
65509
65510
65517
65517
65509
65519
65524
65516
65525
65524
65532
65519
65518
65519
65527
65527
65510
65519
65519
65527
65525
65518
65508
65524
65524
65519
65519
65516
65513
65519
65512
65526
65510
65510
65521
65526
65511
65518
65519
65513
65527
65518
65511
65527
65518
65519
65508
65516
65527
65519
65521
65517
65513
65516
65511
65518
65527
65519
65517
65527
65513
65519
65525
65527
65516
65519
65521
65512
65516
65527
65525
65519
65518
65514
65519
65516
65524
65512
65516
65519
65519
65516
65516
65525
65519
65517
65527
65524
65511
65519
65517
65511
65531
65513
65524
65525
65535
65517
65527
65532
65524
65524
65526
65515
65524
65516
65519
65519
65513
65511
65519
65525
65511
65517
65524
65516
65519
65519
65524
65524
65516
65524
65511
65517
65535
65519
65524
65511
65527
65527
65508
65527
65518
65519
65524
65535
65519
65513
65533
65515
65527
65508
65511
65519
65518
65511
65525
65519
65524
65525
65518
65519
65527
65519
65519
65521
65527
65519
65519
65511
65527
65527
65527
65519
65527
65519
65513
65524
65523
65511
65519
65524
65519
65535
65518
65519
65519
65527
65519
65516
65527
65519
65512
65527
65511
65510
65516
65510
65524
65508
65516
65508
65512
65511
65518
65519
65516
65525
65524
65524
65527
65517
65516
65511
65524
65526
65519
65519
65535
65519
65524
65524
65527
65516
65519
65527
65511
65527
65533
65519
65511
65532
65517
65511
65519
65519
65508
65511
65527
65519
65516
65526
65516
65516
65516
65522
65527
65516
65517
65518
65519
65524
65519
65519
65508
65535
65524
65524
65533
65516
65517
65527
65508
65518
65510
65510
65519
65508
65519
65514
65510
65527
65519
65519
65527
65535
65527
65510
65527
65532
65519
65524
65519
65527
65524
65527
65511
65518
65510
65519
65510
65524
65524
65508
65535
65512
65505
65519
65518
65516
65535
65506
65509
65527
65527
65516
65524
65524
65519
65527
65511
65516
65508
65534
65516
65518
65527
65527
65517
65527
65516
65517
65510
65519
65519
65511
65508
65526
65524
65516
65511
65519
65524
65527
65516
65516
65519
65517
65527
65519
65516
65519
65518
65527
65511
65517
65519
65527
65527
65527
65519
65516
65527
65524
65511
65534
65519
65525
65519
65510
65509
65516
65527
65511
65527
65516
65519
65519
65524
65524
65519
65501
65525
65519
65519
65510
65518
65508
65527
65516
65535
65519
65519
65524
65527
65519
65519
65519
65524
65524
65516
65509
65527
65527
65526
65527
65522
65525
65524
65513
65525
65519
65524
65511
65532
65516
65533
65508
65519
65525
65535
65533
65511
65527
65524
65519
65516
65510
65525
65516
65517
65518
65519
65506
65516
65516
65519
65535
65517
65516
65516
65515
65534
65510
65510
65516
65519
65519
65527
65532
65527
65511
65511
65524
65506
65519
65516
65527
65526
65519
65527
65519
65516
65527
65524
65527
65516
65527
65508
65519
65527
65519
65518
65516
65514
65527
65511
65532
65525
65519
65519
65511
65516
65519
65527
65516
65513
65527
65535
65519
65508
65526
65509
65516
65511
65524
65517
65510
65518
65510
65519
65519
65524
65509
65527
65526
65519
65511
65519
65517
65527
65524
65510
65516
65527
65519
65516
65535
65517
65535
65516
65517
65524
65519
65518
65510
65518
65524
65533
65519
65519
65510
65524
65513
65524
65510
65524
65525
65527
65535
65516
65519
65519
65519
65527
65517
65519
65516
65519
65508
65519
65519
65524
65533
65519
65527
65518
65516
65524
65521
65527
65519
65516
65524
65519
65519
65527
65533
65527
65535
65519
65527
65534
65524
65519
65519
65512
65527
65527
65519
65525
65518
65518
65516
65516
65527
65525
65511
65516
65535
65524
65516
65519
65516
65512
65527
65510
65524
65511
65527
65519
65510
65527
65525
65527
65527
65516
65508
65524
65516
65518
65519
65527
65527
65527
65511
65517
65510
65525
65525
65513
65518
65512
65508
65511
65525
65524
65510
65516
65512
65516
65517
65519
65511
65524
65516
65516
65519
65510
65520
65527
65519
65519
65517
65516
65511
65510
65516
65519
65534
65524
65525
65527
65517
65518
65511
65534
65519
65508
65511
65516
65511
65513
65516
65519
65517
65514
65527
65512
65527
65511
65521
65513
65519
65527
65527
65516
65516
65527
65524
65533
65504
65502
65525
65525
65519
65519
65519
65516
65518
65519
65510
65526
65519
65510
65512
65509
65511
65519
65516
65519
65519
65524
65517
65517
65525
65516
65512
65519
65525
65532
65523
65508
65516
65525
65516
65526
65519
65516
65527
65516
65527
65527
65527
65509
65527
65513
65517
65519
65518
65512
65516
65516
65518
65524
65512
65519
65519
65508
65510
65513
65526
65519
65508
65519
65514
65526
65525
65527
65516
65526
65525
65524
65518
65527
65524
65517
65513
65519
65516
65508
65514
65511
65519
65527
65508
65500
65516
65519
65504
65525
65524
65525
65518
65534
65527
65527
65516
65519
65533
65518
65524
65518
65527
65517
65516
65514
65527
65524
65518
65508
65516
65519
65510
65527
65518
65527
65525
65519
65519
65517
65518
65519
65516
65511
65511
65526
65527
65510
65518
65527
65510
65533
65519
65519
65518
65511
65516
65526
65525
65512
65518
65511
65527
65516
65514
65524
65527
65511
65524
65527
65517
65516
65516
65519
65519
65516
65527
65525
65527
65511
65535
65527
65526
65516
65527
65511
65524
65517
65527
65510
65527
65512
65519
65516
65511
65514
65524
65511
65531
65516
65516
65516
65516
65523
65527
65516
65510
65510
65524
65514
65523
65522
65518
65524
65527
65519
65516
65516
65514
65519
65525
65510
65526
65526
65518
65514
65518
65519
65524
65519
65525
65524
65524
65518
65519
65511
65516
65523
65508
65510
65511
65526
65508
65525
65513
65523
65524
65511
65525
65514
65527
65516
65524
65524
65516
65525
65526
65531
65527
65511
65527
65531
65511
65535
65524
65511
65518
65516
65516
65509
65511
65508
65512
65527
65524
65519
65519
65511
65516
65525
65514
65504
65508
65508
65511
65516
65519
65519
65516
65519
65532
65519
65525
65527
65511
65527
65521
65519
65535
65515
65527
65508
65516
65534
65510
65526
65527
65519
65533
65519
65514
65513
65521
65519
65535
65517
65533
65526
65519
65518
65527
65525
65521
65527
65519
65516
65524
65525
65524
65527
65517
65527
65524
65516
65511
65526
65518
65516
65527
65524
65525
65514
65510
65516
65527
65517
65516
65511
65513
65527
65518
65511
65527
65516
65516
65516
65511
65525
65517
65518
65516
65524
65519
65504
65510
65511
65525
65524
65511
65527
65519
65511
65527
65527
65511
65522
65510
65519
65527
65519
65526
65525
65511
65518
65519
65514
65519
65516
65519
65513
65511
65512
65524
65508
65516
65516
65527
65516
65527
65527
65527
65516
65524
65527
65514
65519
65524
65525
65518
65519
65524
65517
65527
65519
65519
65516
65525
65504
65519
65535
65517
65521
65524
65519
65513
65519
65511
65521
65527
65516
65532
65519
65517
65527
65527
65527
65524
65508
65519
65523
65524
65518
65512
65525
65527
65527
65527
65519
65527
65519
65533
65510
65511
65518
65518
65527
65516
65527
65516
65518
65535
65510
65519
65525
65527
65510
65519
65519
65517
65519
65512
65516
65527
65519
65524
65535
65526
65518
65512
65513
65525
65519
65518
65527
65535
65516
65514
65516
65535
65516
65526
65527
65514
65517
65516
65524
65524
65508
65508
65519
65513
65535
65512
65519
65524
65524
65519
65514
65527
65517
65527
65527
65527
65508
65519
65519
65527
65516
65519
65519
65524
65508
65530
65518
65535
65519
65509
65524
65517
65527
65516
65521
65517
65524
65519
65532
65518
65527
65511
65519
65521
65535
65517
65518
65527
65511
65518
65519
65517
65521
65524
65516
65516
65527
65524
65527
65527
65527
65512
65524
65519
65527
65518
65516
65500
65512
65517
65519
65531
65519
65504
65527
65524
65533
65519
65526
65518
65510
65524
65527
65511
65516
65517
65522
65516
65516
65508
65517
65511
65511
65519
65524
65516
65516
65518
65504
65518
65519
65516
65512
65519
65512
65527
65518
65525
65519
65526
65519
65518
65519
65508
65516
65518
65524
65519
65516
65526
65514
65527
65526
65516
65519
65535
65516
65518
65519
65519
65527
65531
65527
65516
65524
65527
65526
65511
65516
65527
65509
65513
65504
65516
65517
65527
65519
65511
65513
65519
65525
65511
65524
65510
65516
65516
65516
65519
65535
65511
65518
65516
65511
65524
65516
65519
65524
65519
65518
65524
65526
65508
65516
65527
65527
65521
65519
65517
65527
65521
65534
65513
65518
65527
65519
65519
65519
65519
65532
65531
65519
65527
65527
65516
65524
65524
65519
65511
65511
65519
65527
65527
65524
65519
65516
65516
65516
65504
65527
65514
65524
65524
65519
65506
65527
65518
65526
65511
65519
65524
65516
65525
65527
65516
65527
65510
65524
65527
65511
65508
65525
65521
65508
65519
65524
65527
65519
65519
65527
65533
65519
65534
65519
65519
65510
65516
65509
65515
65508
65519
65510
65516
65516
65514
65513
65511
65516
65527
65519
65511
65516
65514
65518
65504
65516
65519
65512
65519
65513
65523
65515
65519
65525
65508
65519
65508
65518
65515
65533
65511
65524
65516
65519
65519
65518
65518
65511
65527
65524
65519
65519
65516
65512
65519
65514
65524
65519
65511
65510
65511
65527
65519
65518
65513
65524
65524
65516
65511
65526
65525
65510
65517
65511
65511
65519
65527
65518
65525
65510
65524
65527
65516
65519
65519
65516
65519
65527
65516
65510
65508
65521
65521
65524
65525
65510
65526
65508
65511
65517
65514
65527
65533
65519
65511
65518
65524
65511
65524
65519
65519
65500
65527
65517
65504
65516
65527
65508
65527
65519
65527
65500
65532
65511
65527
65527
65518
65508
65519
65510
65525
65519
65518
65511
65519
65511
65511
65525
65516
65511
65511
65516
65525
65524
65525
65516
65514
65511
65518
65503
65519
65509
65519
65500
65517
65525
65526
65516
65533
65517
65502
65511
65519
65500
65525
65516
65511
65515
65510
65509
65519
65519
65519
65519
65506
65518
65527
65527
65516
65527
65516
65516
65527
65514
65535
65511
65524
65509
65527
65511
65516
65519
65508
65512
65525
65525
65516
65511
65516
65516
65511
65519
65519
65524
65519
65527
65524
65519
65518
65508
65508
65519
65501
65524
65518
65518
65505
65508
65514
65513
65516
65511
65519
65508
65511
65516
65516
65516
65518
65502
65511
65524
65508
65508
65511
65519
65511
65508
65516
65518
65519
65511
65527
65527
65516
65510
65508
65518
65526
65511
65511
65511
65519
65504
65524
65524
65519
65519
65524
65527
65516
65511
65496
65519
65511
65511
65519
65522
65514
65518
65496
65519
65519
65518
65517
65514
65516
65527
65516
65518
65516
65506
65519
65519
65510
65502
65511
65517
65514
65509
65519
65508
65519
65513
65519
65524
65516
65513
65516
65518
65527
65519
65527
65517
65511
65509
65506
65535
65510
65516
65509
65516
65527
65502
65510
65519
65519
65524
65510
65516
65518
65527
65512
65519
65508
65511
65527
65508
65496
65525
65516
65524
65519
65510
65519
65510
65519
65516
65527
65519
65511
65508
65511
65519
65519
65524
65519
65519
65532
65508
65524
65533
65518
65522
65527
65519
65510
65511
65519
65506
65511
65511
65524
65500
65519
65519
65511
65519
65519
65521
65516
65506
65511
65518
65508
65508
65519
65518
65526
65511
65510
65513
65508
65517
65519
65514
65510
65518
65511
65519
65519
65516
65527
65524
65503
65508
65524
65511
65519
65519
65508
65508
65511
65517
65524
65510
65502
65519
65514
65519
65503
65511
65508
65511
65508
65527
65513
65511
65511
65511
65519
65519
65511
65511
65511
65502
65508
65525
65510
65511
65511
65516
65516
65524
65500
65510
65503
65513
65516
65510
65519
65508
65519
65517
65516
65511
65510
65514
65511
65511
65502
65511
65511
65511
65516
65516
65503
65497
65527
65511
65511
65527
65511
65516
65511
65511
65502
65510
65511
65519
65511
65525
65511
65511
65519
65511
65511
65500
65519
65510
65524
65519
65519
65508
65519
65505
65504
65500
65510
65511
65511
65511
65500
65500
65511
65508
65502
65527
65512
65508
65519
65511
65516
65508
65508
65508
65508
65508
65511
65479
65450
65444
65439
65428
65412
65404
65412
65388
65383
65415
65351
65350
65327
65319
65294
65280
65274
65268
65407
65245
65228
65333
65190
65179
65255
65175
65142
65124
65031
65119
65031
65076
65045
65031
65015
64860
64990
64967
64849
64940
64933
64791
64899
64861
64867
64839
64823
64821
64775
64775
64751
64759
64724
64562
64702
64635
64663
64646
64639
64607
64596
64556
64580
64548
64548
64470
64518
64503
64485
64452
64455
64420
64428
64247
64407
64391
64375
64351
64343
64327
64289
64167
64140
64263
64247
64238
64215
64203
64174
64039
64087
64094
64135
64111
64087
64084
63999
64055
64039
64007
63719
63999
63983
63953
63772
63927
63925
63551
63860
63895
63863
63846
63565
63815
63815
63743
63744
63751
63724
63714
63719
63695
63535
63649
63637
63644
63613
63445
63620
63583
63575
63223
63382
63548
63486
63487
62935
63441
63462
63412
63307
63447
63388
63413
63349
63303
63351
63287
63308
62743
63215
63295
63231
63168
63111
63189
63207
62943
63135
63166
62343
63034
63142
63062
63015
63055
63039
63028
62393
62959
63043
62965
62925
62924
62934
62183
62791
62949
62851
62727
62726
62806
62871
62789
62775
62765
62748
62788
62694
62711
61796
62500
62535
62541
62703
62615
62682
62589
62653
62567
62559
62516
62471
62060
62332
62511
62460
62524
62431
62255
62414
62384
62423
62351
62319
61759
62308
62367
62300
62127
62319
62257
62286
62215
62202
61502
62042
62262
62148
62126
61852
61957
62167
62071
62095
61220
61959
62119
62022
62031
61988
61796
62048
61959
62028
61927
61951
61895
61861
61883
61855
61885
61821
61791
61646
61700
61854
61773
61764
60767
61557
61783
61695
61738
61652
61610
61295
61567
61670
61596
61679
61589
61605
61527
61551
61508
61326
61372
61342
61486
61407
61543
61415
61469
61391
61411
61359
61391
61319
61167
61415
61300
61378
61292
61279
60197
61087
61332
61217
61230
61180
60999
61236
61159
61228
61134
61156
61092
60956
61129
61063
61114
61031
61039
60615
60928
61093
60973
61039
60935
60935
59878
60745
60983
60869
60935
60839
60839
60815
60807
60871
60791
60788
60575
60735
60775
59847
60639
60804
60696
60727
60656
60679
59588
60455
60695
60611
60639
59684
60511
60591
60519
60358
60591
60503
60493
59990
60448
60486
59591
60327
60500
60391
60246
60458
60343
60347
60320
60181
60388
60287
60247
59583
60204
60334
60218
60071
60255
60182
60211
60159
60126
59974
60127
60167
60101
60092
59476
59883
60135
60036
60039
59791
60007
60007
60007
59943
59936
60006
59911
59847
59911
59870
59943
59844
59703
59887
59831
59871
59084
59779
59839
59742
59655
59726
59731
59796
59700
59681
59718
59674
59676
58975
59612
59708
59603
59584
59478
59556
59599
58820
59469
59605
59487
59389
59540
59471
59399
59487
59422
59468
58573
59295
59468
59348
59219
59447
59311
59278
59345
58471
59271
59319
58281
59261
59231
59260
59211
59229
58523
59170
59183
58916
59143
59106
59204
59113
58938
59176
59078
59044
59103
59043
58866
59127
58997
58999
59071
58991
58840
59012
58919
58887
58980
58908
58927
58471
58861
58911
57836
58692
58887
58812
58804
58527
58775
58875
58759
58790
58729
58567
58790
58703
58751
58657
58502
58759
58644
58663
58599
58440
58676
58591
58631
58541
58511
58631
58548
58541
57711
58345
58575
58471
58469
58375
58405
58501
58420
58492
58396
58375
58375
58319
57319
58335
58318
58335
58303
58318
58292
58311
58270
58279
58244
58092
58207
58119
58209
58287
58103
57531
58087
58134
57991
58214
58108
58116
57110
57982
58151
58040
57892
58135
58046
57991
57801
57991
58046
57966
57807
58023
57941
57956
57733
57916
57924
57468
57887
57863
57948
57838
57685
57901
57813
57726
57821
57479
57783
57765
57796
57735
57716
57727
57704
57729
57674
57572
57717
57668
57492
57717
57603
57543
57647
57345
57567
57571
57604
57537
57421
57599
56565
57511
57508
57535
57470
57338
57487
56500
57422
57463
56607
57383
57399
57463
57351
57188
57415
56564
57311
57351
57132
57301
57295
57273
57260
57268
57012
57223
57212
57279
57190
57055
57255
57159
57124
57223
57135
57040
57187
57095
57111
56751
57076
57081
56924
57056
56894
57106
57029
57035
56999
56998
57012
56538
56935
56977
56928
56812
56998
56885
56900
56900
56695
56875
56927
56020
56831
56839
56839
56817
56663
56883
56770
56703
56799
56380
56733
56583
56818
55751
56695
56711
56756
56663
56604
56700
56103
56629
56647
56685
56613
56455
56659
55644
56572
56604
56628
56541
56484
56556
56541
56522
56444
56582
56481
56326
56543
56455
56316
56493
56436
56285
56484
55455
56397
56413
56221
56391
56391
56231
56327
56359
56146
56327
56345
55773
56307
56343
55343
56191
56356
56263
56215
56268
56252
56231
56095
56279
56199
56135
56268
56182
56094
56244
56166
56007
56228
56159
56047
56164
55910
56111
56123
56102
56098
56036
56095
56069
56039
56086
56052
56036
56095
56012
56009
56021
55967
55999
55854
56063
55190
55963
55975
55861
55953
56014
55943
55797
55991
55911
55847
55989
55866
55764
55943
55302
55862
55764
55935
55852
55687
55911
55844
55687
55887
55812
55663
55871
55797
55799
55797
55796
55779
55623
55806
55273
55756
55758
55783
55740
55737
55679
55740
55727
55777
55687
55700
55697
55759
55687
55671
55738
54852
55649
55679
55711
55655
55644
55636
55636
55620
55641
55630
55651
55095
55486
55663
55585
55603
54661
55420
55649
55585
55591
54596
55399
55631
55553
55535
55535
55533
55548
55013
55532
55542
55503
55520
55540
55428
55502
55559
55495
55478
55283
55493
55508
55459
55303
55492
55471
55471
55095
55370
55519
55460
55293
55452
55431
55476
55303
55424
55468
55420
55287
55479
55397
55414
55395
55476
55402
55399
55190
55383
55420
54837
55238
55447
55377
55383
55351
55244
55431
54422
55207
55431
55359
55335
55359
55358
55375
55373
55334
55262
55396
55343
55375
55334
55207
55357
55337
55348
54380
55175
55379
55333
55340
55303
55172
55367
55303
55330
55028
55292
55335
54678
55235
55380
55290
55142
55364
54815
55267
55356
55293
55128
55364
55279
55152
55366
55286
55303
54948
55287
55351
55279
55124
55351
55271
55321
55264
55143
55303
55279
55303
54692
55165
55331
54407
55269
55337
55265
55191
55327
55279
55259
55303
55264
55303
55272
55268
54991
55254
55351
55263
55172
55335
55268
55247
55191
55287
55303
55268
55180
55343
55276
55224
55034
55175
55332
55284
55303
54421
55206
55353
55260
55122
55340
55266
55144
55336
55279
55224
55262
55271
55294
55276
55267
55131
55349
55260
55143
55332
55270
55175
55265
55274
55223
55343
55271
55133
55351
55268
55220
55340
55279
55192
55364
55287
55241
55341
55285
55143
55363
55015
55292
55159
55356
55290
55303
55172
55322
55303
55383
55303
55239
55404
55323
55262
55380
54493
55323
55355
55160
55327
55353
55353
55327
55192
55391
54535
55350
55351
55327
55359
55367
55291
55357
55413
55347
55277
55412
55357
55204
55404
54510
55371
55271
55445
55375
55229
55462
55387
55303
55439
55391
55260
55466
55396
55368
55479
55402
55279
55487
55412
55284
55492
55447
55415
55425
55431
55527
55446
55466
55458
55333
55540
55473
55445
55521
55474
55479
55487
55516
55527
54663
55471
55559
55504
55373
55586
55517
55447
55596
54951
55495
55623
55559
55583
54687
55401
55641
55572
55431
55612
55583
55431
55661
55578
55494
55671
55557
55605
55633
55519
55629
55559
55719
55647
55519
55721
55655
55559
55747
55676
55663
55015
55644
55750
55687
55627
55431
55711
55796
55732
55575
55815
55751
55692
55815
55756
55716
55796
55479
55793
55850
55788
55759
55511
55663
55887
55815
55887
55837
55836
55404
55815
55919
55873
55879
55740
55879
55908
55802
55911
55933
55036
55780
55991
55942
55815
55903
55967
55991
55015
55806
56045
55974
55834
56044
56005
56050
56007
55879
56067
56039
56049
56063
56061
56094
55372
56007
56165
56071
56094
55295
55967
56130
56121
56212
56132
56102
56231
56151
56015
56189
56188
56207
55770
56110
56271
55878
56199
56258
55697
56231
56195
56317
56154
56263
56295
56244
56279
56311
55637
56311
56376
56311
56212
56396
56359
56327
56417
56369
56288
56428
56370
56294
56428
55453
56327
56503
56431
56359
56418
56399
56535
56455
56447
56494
56485
56532
56485
56519
55684
56374
56508
56542
56636
56548
56444
56615
56580
56631
56576
56602
56593
56543
56559
56615
56695
56485
56653
56679
56655
56654
56719
55759
56696
56798
56719
56726
56749
56724
56807
56759
56623
56839
56783
56685
56890
56817
56679
56886
56813
56716
56926
56839
56876
56790
56871
56959
56883
56767
56998
56924
56959
56031
56881
57031
56967
56978
56832
57007
57068
57002
56926
57064
57037
57083
56455
56943
57111
57082
57140
56212
57103
57151
56270
57139
57193
57137
57231
57190
57262
57095
57196
57309
57148
57095
57087
57255
57252
57319
57276
57328
57287
57151
57390
57301
57199
57423
57327
57214
57437
57381
57428
56523
57343
57505
57415
57279
57525
57444
57447
57500
57559
57479
57511
57567
57503
57413
57607
56828
57542
57607
56839
57582
57607
57687
57607
57655
57631
57646
57151
57516
57764
57680
57556
57652
57711
57758
57351
57751
57823
57774
57621
57838
57792
57735
57711
57839
57890
57220
57735
57956
57876
57796
57982
57914
57957
57927
57943
57250
57802
57991
57991
58068
58007
57856
58111
58046
57903
58128
58071
57914
58183
58095
57959
58180
58119
58191
58151
58023
58271
58173
58229
58214
58072
58333
58247
58145
58367
58291
58133
58400
58303
58238
58364
58223
58446
58367
58415
57375
58303
58477
58421
58485
58436
58301
58567
58479
58502
58224
58524
58543
58349
58551
58596
57855
58604
58608
58215
58606
58687
58621
58501
58759
58655
58542
58791
58700
58727
58791
58751
58743
58807
58787
58831
57927
58661
58887
58825
58887
57914
58735
58942
58887
58999
58916
58925
58943
59055
58951
58934
58703
58916
59085
58119
58887
59143
59063
59078
58886
59063
59180
59127
59140
59167
59164
59127
59239
59202
59117
59268
59215
59335
59252
59117
59386
59281
59143
59399
59332
59200
59463
58373
59383
59431
59215
59422
59455
59431
59447
59494
59479
59503
59397
59610
59527
59447
59639
59566
59439
59707
59601
59519
59719
59655
59516
59766
59686
59726
59696
59575
59833
59748
59681
59839
59806
59728
59875
59821
59868
59197
59718
59969
59876
59783
59991
59911
59909
59756
59958
60021
59986
59839
60132
60030
59895
60125
60076
60079
60030
60119
60159
59686
60148
60167
60281
60166
60071
60318
60231
60166
60368
60271
60124
60334
60092
60327
60341
60423
60356
60332
60462
60412
60391
60482
60447
60423
60462
60479
60500
60559
60528
60551
59527
60500
60659
60589
60607
60317
60629
60679
60092
60532
60775
60709
60679
60679
60719
60788
59708
60741
60894
60807
60831
60799
60841
60925
60871
60732
61011
60927
60956
60707
60935
60995
60708
61002
61002
61063
61048
60911
61134
60157
61095
60994
61234
61128
61140
61191
61183
61175
61276
61219
61060
61340
61247
61143
61367
61303
61247
61408
61332
61191
61447
61380
61445
61023
61383
61524
61447
61351
61573
61509
61568
61535
61559
61541
61492
61679
61604
61639
61607
61667
61496
61668
61694
61557
61703
61788
61731
61628
61773
61781
61863
61063
61743
61933
61831
61868
61182
61884
61987
61948
61989
61940
61959
61951
61991
62047
61089
61943
62132
62049
62084
61876
62118
62155
62124
62103
62270
62195
62215
61626
62111
62300
62263
62280
61892
62277
62407
62335
62294
62399
61524
62391
62464
62415
62364
62471
62471
62503
62399
62516
62471
62599
62559
62572
62540
62599
62647
62327
62599
62727
62663
62719
61959
62694
62804
62727
62644
62767
62799
62852
62542
62831
62901
62852
62711
62845
62900
62964
62951
62796
63021
62975
62860
63079
62239
63028
63087
63071
62916
63151
63141
63132
63077
63151
63228
63188
63212
63236
63229
63213
63295
63287
63302
62607
63295
63364
63351
63204
63431
63390
63406
63455
63447
63460
62951
63484
63511
62927
63468
63575
63543
63415
63622
63615
63646
63143
63636
63687
63687
63572
63711
63719
63737
63276
63684
63801
63364
63646
63847
63839
63840
63862
63850
63548
63852
63588
63871
63711
63876
63990
63991
63999
64007
64032
64038
64053
63943
63999
64002
64044
64044
64029
63956
63988
64196
64199
64225
64231
64247
64263
64282
64285
64309
64327
64192
64335
64368
64372
64334
64412
64428
64946
64320
64495
64479
64511
64516
64382
64519
64558
64488
64742
64597
64622
64647
64628
64671
64684
64709
64705
64743
64770
65159
64775
64788
64815
64718
64854
64864
64775
64917
64910
64949
64959
64966
64988
64863
65031
65031
65061
65151
65092
65105
65099
65124
65159
65164
65183
65215
65206
65223
65439
65191
65255
65264
65269
65305
65308
65327
65343
65357
65341
65383
65391
65388
65415
65409
65433
65469
65436
65452
65479
65486
65488
65504
65511
65511
65511
65510
65513
65516
65510
65503
65504
65511
65527
65519
65511
65519
65509
65508
65511
65517
65508
65509
65502
65518
65525
65524
65511
65510
65509
65511
65510
65511
65509
65511
65511
65516
65502
65517
65519
65508
65511
65504
65525
65503
65503
65516
65503
65527
65511
65519
65508
65511
65511
65502
65510
65519
65511
65519
65527
65511
65506
65500
65511
65517
65502
65510
65511
65525
65502
65509
65527
65519
65511
65511
65511
65511
65511
65518
65511
65503
65527
65502
65511
65504
65504
65514
65500
65511
65504
65502
65503
65511
65511
65527
65519
65515
65503
65519
65526
65511
65511
65518
65527
65525
65511
65508
65511
65519
65511
65513
65511
65511
65505
65519
65519
65511
65500
65519
65504
65509
65527
65516
65503
65519
65506
65502
65517
65525
65511
65508
65510
65516
65502
65516
65511
65511
65525
65519
65516
65510
65523
65519
65522
65513
65510
65511
65519
65516
65519
65517
65508
65508
65519
65508
65519
65519
65511
65524
65519
65511
65511
65519
65511
65511
65519
65508
65510
65516
65511
65500
65527
65511
65516
65517
65519
65510
65518
65502
65524
65516
65504
65518
65511
65515
65519
65510
65519
65518
65508
65510
65525
65524
65516
65509
65511
65510
65511
65519
65508
65510
65527
65519
65516
65518
65511
65510
65508
65511
65509
65511
65519
65508
65517
65518
65527
65527
65509
65511
65505
65519
65511
65502
65519
65510
65519
65519
65527
65524
65533
65516
65511
65511
65510
65516
65509
65527
65510
65516
65508
65527
65527
65513
65525
65524
65508
65516
65506
65513
65510
65513
65523
65527
65511
65527
65519
65508
65516
65502
65519
65511
65524
65502
65519
65524
65519
65527
65501
65518
65516
65509
65519
65510
65524
65511
65519
65519
65519
65524
65518
65506
65510
65514
65514
65524
65527
65526
65519
65510
65511
65516
65519
65519
65516
65533
65516
65511
65512
65517
65512
65508
65518
65511
65519
65535
65516
65510
65517
65511
65525
65519
65511
65519
65502
65524
65519
65527
65511
65511
65514
65525
65535
65516
65526
65526
65511
65511
65516
65517
65519
65519
65519
65511
65527
65527
65517
65519
65510
65510
65516
65516
65511
65511
65511
65519
65510
65519
65519
65519
65519
65519
65519
65508
65509
65517
65519
65516
65516
65511
65511
65521
65525
65533
65508
65519
65513
65519
65516
65525
65519
65519
65525
65505
65525
65508
65535
65511
65524
65527
65508
65512
65514
65511
65508
65516
65515
65516
65519
65518
65508
65502
65511
65509
65510
65516
65524
65527
65516
65509
65527
65508
65517
65504
65519
65527
65511
65511
65510
65527
65519
65519
65508
65519
65511
65519
65517
65519
65516
65517
65508
65518
65506
65519
65527
65510
65511
65516
65519
65519
65511
65527
65519
65508
65519
65508
65510
65525
65519
65518
65520
65506
65511
65510
65519
65519
65516
65527
65527
65517
65511
65508
65525
65531
65519
65511
65505
65524
65510
65519
65511
65516
65511
65516
65519
65508
65517
65519
65510
65508
65518
65519
65524
65508
65515
65519
65518
65519
65519
65519
65505
65525
65517
65508
65527
65519
65508
65527
65510
65519
65508
65518
65519
65519
65511
65510
65511
65519
65519
65524
65508
65519
65510
65525
65517
65511
65514
65526
65506
65505
65519
65511
65511
65514
65516
65527
65519
65519
65517
65511
65511
65508
65512
65524
65527
65516
65519
65517
65525
65510
65515
65511
65516
65527
65508
65516
65519
65518
65516
65519
65511
65519
65527
65527
65527
65535
65519
65504
65519
65510
65511
65516
65527
65508
65514
65525
65519
65510
65510
65513
65517
65535
65517
65527
65519
65516
65527
65511
65516
65516
65527
65527
65535
65519
65532
65516
65504
65525
65525
65511
65519
65519
65519
65527
65524
65512
65527
65519
65532
65502
65510
65516
65525
65510
65519
65508
65516
65519
65519
65516
65513
65510
65516
65519
65511
65519
65516
65511
65510
65525
65519
65519
65525
65518
65519
65508
65519
65527
65511
65510
65519
65519
65511
65516
65526
65511
65524
65511
65518
65510
65511
65509
65509
65511
65516
65519
65516
65511
65524
65519
65527
65512
65519
65496
65516
65518
65525
65513
65512
65519
65517
65511
65503
65521
65519
65519
65508
65519
65518
65524
65519
65516
65517
65511
65518
65517
65519
65520
65519
65518
65519
65508
65519
65516
65535
65516
65534
65516
65511
65527
65518
65511
65516
65511
65508
65504
65516
65515
65511
65533
65517
65511
65516
65527
65511
65516
65519
65516
65512
65519
65527
65535
65516
65511
65526
65533
65519
65510
65519
65527
65519
65511
65511
65519
65508
65507
65519
65519
65519
65504
65535
65511
65511
65502
65512
65516
65508
65511
65519
65516
65534
65508
65509
65518
65519
65524
65502
65524
65511
65516
65508
65525
65510
65514
65512
65527
65518
65519
65513
65511
65506
65508
65506
65533
65519
65515
65512
65508
65503
65508
65519
65508
65518
65519
65508
65513
65516
65524
65516
65516
65514
65511
65527
65516
65516
65524
65512
65512
65518
65508
65516
65526
65525
65518
65526
65519
65512
65506
65519
65514
65519
65511
65511
65514
65527
65519
65518
65511
65516
65527
65519
65524
65516
65516
65515
65524
65519
65519
65519
65508
65527
65508
65527
65508
65516
65511
65511
65512
65513
65519
65508
65519
65519
65527
65532
65510
65521
65508
65524
65514
65511
65527
65508
65524
65517
65516
65519
65519
65511
65510
65519
65513
65535
65527
65535
65535
65511
65509
65513
65527
65519
65519
65524
65519
65518
65527
65524
65524
65527
65532
65511
65511
65527
65519
65508
65527
65516
65527
65516
65519
65508
65510
65519
65527
65519
65508
65519
65524
65511
65508
65508
65516
65521
65525
65520
65516
65524
65516
65519
65527
65525
65519
65511
65511
65533
65521
65535
65511
65511
65519
65519
65519
65511
65519
65519
65524
65518
65527
65519
65514
65519
65517
65519
65526
65516
65520
65508
65533
65535
65524
65516
65511
65511
65507
65532
65511
65512
65527
65524
65519
65527
65526
65524
65525
65516
65509
65511
65513
65515
65524
65533
65519
65516
65519
65527
65519
65509
65527
65519
65527
65527
65513
65534
65518
65518
65508
65519
65533
65508
65519
65508
65510
65518
65519
65521
65533
65524
65519
65511
65517
65535
65527
65511
65505
65496
65519
65519
65511
65519
65527
65524
65518
65511
65509
65519
65527
65513
65519
65519
65519
65524
65511
65510
65506
65520
65516
65525
65519
65515
65524
65519
65527
65511
65527
65519
65508
65527
65524
65515
65508
65527
65516
65535
65516
65527
65511
65535
65517
65535
65516
65518
65514
65508
65511
65519
65519
65511
65519
65510
65527
65519
65527
65514
65527
65519
65519
65518
65513
65535
65519
65517
65524
65519
65514
65525
65527
65505
65519
65511
65535
65525
65519
65527
65508
65516
65500
65519
65519
65516
65519
65516
65519
65511
65527
65525
65516
65518
65519
65525
65508
65513
65510
65516
65514
65519
65518
65511
65508
65524
65525
65519
65518
65519
65515
65519
65519
65511
65510
65527
65516
65510
65521
65519
65519
65506
65514
65510
65519
65519
65527
65516
65508
65511
65525
65516
65524
65511
65516
65511
65509
65516
65516
65515
65519
65519
65524
65516
65502
65526
65511
65526
65508
65518
65527
65527
65524
65519
65516
65524
65521
65510
65516
65508
65519
65512
65516
65518
65519
65519
65504
65517
65508
65519
65519
65508
65533
65519
65519
65511
65527
65527
65518
65517
65511
65521
65524
65535
65527
65525
65519
65527
65516
65524
65510
65518
65526
65506
65513
65513
65518
65519
65510
65511
65519
65519
65527
65525
65508
65517
65525
65514
65527
65527
65516
65519
65514
65519
65525
65524
65519
65524
65519
65535
65518
65524
65519
65516
65510
65534
65519
65504
65519
65517
65532
65533
65519
65506
65516
65518
65511
65508
65519
65508
65519
65516
65517
65524
65533
65511
65506
65526
65519
65527
65511
65524
65511
65527
65511
65511
65517
65510
65511
65527
65519
65524
65524
65508
65519
65511
65527
65524
65516
65516
65523
65509
65508
65522
65535
65519
65519
65530
65517
65533
65510
65519
65519
65527
65518
65501
65517
65525
65517
65516
65506
65519
65509
65521
65509
65535
65511
65511
65514
65526
65510
65523
65525
65519
65516
65524
65517
65503
65512
65517
65516
65510
65534
65527
65525
65511
65516
65520
65513
65516
65508
65527
65524
65533
65514
65500
65517
65524
65527
65508
65511
65511
65521
65535
65530
65508
65508
65527
65516
65526
65526
65519
65511
65519
65502
65525
65518
65510
65511
65503
65511
65517
65519
65519
65508
65527
65516
65525
65519
65519
65525
65516
65524
65519
65508
65527
65527
65519
65519
65519
65527
65517
65511
65525
65524
65524
65519
65519
65519
65527
65512
65519
65525
65532
65519
65516
65527
65506
65519
65533
65516
65504
65503
65516
65535
65512
65519
65511
65508
65508
65511
65515
65531
65517
65511
65527
65527
65524
65511
65511
65518
65519
65524
65516
65519
65517
65518
65519
65519
65525
65516
65535
65516
65511
65511
65512
65515
65519
65517
65525
65519
65513
65516
65519
65523
65525
65519
65527
65525
65535
65516
65525
65512
65519
65533
65512
65510
65508
65527
65511
65527
65516
65526
65502
65524
65518
65511
65516
65516
65525
65525
65526
65510
65524
65519
65511
65523
65510
65513
65516
65508
65511
65527
65519
65519
65510
65519
65524
65519
65517
65527
65525
65524
65512
65524
65527
65519
65516
65517
65524
65524
65524
65518
65519
65519
65508
65525
65517
65516
65525
65508
65510
65511
65511
65519
65527
65513
65510
65516
65519
65511
65526
65504
65516
65527
65519
65519
65502
65517
65519
65518
65511
65511
65511
65519
65519
65535
65510
65516
65511
65501
65527
65511
65527
65511
65519
65518
65516
65511
65516
65524
65510
65517
65511
65511
65514
65510
65519
65516
65525
65511
65516
65504
65526
65516
65519
65521
65511
65517
65524
65533
65524
65519
65517
65517
65525
65524
65516
65519
65519
65526
65527
65527
65525
65504
65511
65517
65508
65519
65526
65510
65515
65508
65512
65530
65508
65511
65496
65511
65524
65516
65519
65508
65519
65519
65516
65509
65535
65518
65514
65527
65516
65513
65519
65511
65512
65519
65524
65508
65527
65511
65524
65511
65503
65525
65535
65517
65508
65524
65511
65511
65511
65508
65525
65518
65509
65519
65519
65519
65519
65517
65516
65510
65519
65514
65511
65517
65519
65514
65510
65519
65514
65506
65511
65519
65524
65516
65527
65527
65516
65516
65527
65516
65527
65517
65509
65519
65535
65509
65527
65522
65519
65510
65511
65511
65502
65511
65519
65510
65516
65508
65509
65511
65519
65511
65524
65510
65510
65527
65508
65508
65514
65524
65526
65519
65524
65511
65519
65511
65517
65496
65510
65510
65510
65512
65516
65516
65516
65511
65516
65516
65527
65516
65519
65527
65516
65511
65522
65519
65519
65524
65511
65516
65520
65527
65519
65508
65527
65524
65519
65511
65526
65518
65525
65532
65527
65519
65524
65516
65511
65527
65519
65516
65506
65508
65525
65535
65516
65519
65511
65519
65517
65525
65510
65505
65504
65515
65519
65511
65502
65516
65516
65533
65526
65510
65518
65511
65516
65517
65516
65508
65511
65519
65518
65524
65521
65527
65502
65508
65526
65514
65524
65526
65518
65518
65524
65509
65527
65513
65527
65511
65518
65514
65527
65512
65508
65516
65513
65511
65511
65511
65511
65519
65511
65519
65519
65508
65517
65524
65519
65516
65508
65517
65517
65516
65510
65526
65524
65525
65516
65504
65518
65510
65519
65519
65511
65508
65519
65517
65511
65509
65511
65504
65511
65516
65512
65527
65527
65510
65516
65525
65517
65519
65519
65519
65524
65519
65527
65519
65518
65516
65515
65511
65527
65521
65514
65510
65535
65519
65511
65508
65517
65511
65504
65519
65527
65519
65500
65527
65516
65511
65519
65527
65516
65511
65508
65516
65531
65510
65517
65506
65511
65527
65519
65519
65511
65516
65511
65519
65519
65526
65510
65516
65527
65519
65513
65510
65514
65517
65519
65519
65517
65519
65511
65519
65511
65519
65519
65513
65519
65527
65527
65504
65517
65511
65519
65519
65527
65519
65525
65511
65508
65527
65516
65527
65511
65523
65510
65504
65508
65514
65513
65511
65513
65504
65508
65514
65519
65510
65508
65519
65516
65519
65510
65519
65517
65511
65508
65524
65505
65519
65511
65511
65514
65512
65516
65526
65518
65519
65519
65511
65517
65511
65511
65503
65519
65527
65516
65519
65511
65519
65519
65516
65518
65519
65510
65511
65519
65511
65508
65515
65519
65516
65518
65508
65511
65516
65509
65511
65511
65525
65498
65517
65508
65516
65511
65516
65502
65516
65511
65511
65519
65516
65511
65517
65511
65508
65511
65512
65524
65508
65519
65511
65508
65516
65511
65527
65511
65511
65519
65511
65511
65515
65511
65506
65511
65519
65505
65504
65519
65511
65527
65516
65508
65504
65515
65500
65525
65519
65508
65519
65511
65519
65511
65527
65518
65508
65505
65508
65517
65525
65510
65510
65508
65516
65519
65510
65516
65516
65516
65518
65514
65516
65519
65511
65519
65518
65516
65511
65527
65527
65527
65527
65506
65511
65500
65511
65506
65511
65514
65519
65511
65508
65511
65508
65513
65518
65511
65505
65503
65509
65505
65511
65508
65525
65511
65524
65508
65517
65511
65517
65511
65518
65500
65510
65510
65519
65509
65519
65511
65510
65511
65524
65519
65511
65518
65516
65502
65511
65516
65501
65506
65508
65510
65517
65511
65519
65509
65516
65511
65513
65503
65508
65516
65519
65508
65508
65510
65511
65527
65527
65525
65518
65519
65510
65516
65508
65519
65510
65503
65518
65510
65500
65511
65505
65471
65447
65452
65408
65415
65415
65384
65391
65375
65358
65423
65334
65335
65311
65301
65349
65269
65263
65247
65231
65285
65183
65199
65182
65156
65143
65015
65116
65089
65070
65061
65031
65023
65351
64894
64967
64948
64942
64920
64743
64884
64868
64839
65321
64702
64801
64775
64767
65276
64631
64711
64694
64676
64647
64487
64631
64486
64598
64564
64551
64519
64391
64508
64500
64495
64455
64287
64430
64391
64405
64372
64350
64331
64318
64316
64287
64103
64287
64246
64236
64219
64039
64189
64164
64140
64092
64103
64111
64087
64069
63877
63934
64031
63997
63838
63990
63941
63827
63927
63909
63719
63869
63855
63846
63409
63791
63799
63311
63716
63751
63423
63710
63644
63703
63652
63574
63599
63615
63580
63252
63404
63559
63516
63551
63492
63471
62972
63260
63423
63388
63428
63383
63395
63334
63362
63288
63302
63263
63095
63263
63202
63231
63178
63175
62365
63035
63156
63086
62967
63087
63028
63062
62983
62983
62508
62937
62983
62916
62861
62892
62855
62901
62798
62725
62855
62775
62743
62797
62719
62589
62754
62684
62662
62063
62580
62659
62566
62541
62515
62527
62543
61524
62343
62543
62439
62423
62471
62382
62367
61743
62255
62407
62278
62204
62183
62247
62279
61398
62060
62247
62143
61991
62119
62100
62100
62006
62037
62044
61564
61973
62023
61239
61935
61911
61684
61886
61930
61831
61668
61820
61791
61815
61167
61703
61788
61680
61695
61639
61615
61599
61543
60967
61548
61644
61539
61527
61476
61447
60596
61431
61479
61386
61319
61439
61340
61372
61303
61139
61381
61254
61279
61178
61031
61256
61159
61169
60650
61047
61141
61053
60927
61100
61007
60833
61071
60956
60935
60551
60895
60984
60828
60734
60893
60812
60799
60743
60671
60698
60679
60807
60671
60580
60740
60597
60607
60655
60575
60551
60423
60514
60492
60423
60463
60380
60485
60399
60316
60423
60345
60327
59629
60183
60311
59194
60212
60231
60110
60167
60112
60196
60101
60084
59781
60039
60095
60004
59979
59800
59911
60007
59911
59779
59932
59852
59869
58783
59623
59791
59774
59780
59716
59718
58887
59502
59750
59620
59581
59628
59555
59551
59527
59525
59431
59541
59463
59502
58375
59271
59483
59330
59399
58245
59143
59391
59242
59194
59255
59213
59215
58919
59135
59199
59090
58964
59015
59031
59111
58997
58996
58941
58836
58826
58916
58935
58279
58686
58927
58823
58812
58141
58592
58743
58718
58785
58661
58748
58631
58717
58591
58608
58557
58543
58487
58343
58565
58461
58431
58270
58410
58436
58351
58196
58315
58276
58367
58247
58119
58303
58207
58196
58070
58148
58150
57452
58031
58116
58039
57852
58090
57991
57807
58015
57926
57901
57863
57859
57812
57887
57798
57863
57755
57703
57767
57687
57670
57536
57575
57348
57478
57559
57567
57524
57527
56479
57335
57499
57428
57436
56390
57239
57420
57335
57319
56519
57263
57284
57207
57069
57189
57156
57185
57118
57023
57092
57054
57095
57007
56927
56998
56935
56839
56959
56886
56927
56837
56868
56640
55868
56780
56743
56786
56687
56672
56624
56509
56629
56567
56628
56546
56547
56494
56319
56527
56423
56376
56388
56367
56388
55788
56149
56317
56271
56263
55991
56199
56229
55181
56031
56199
56093
55989
56103
56036
55998
55725
55919
56009
55911
55975
55868
55871
55142
55677
55847
55775
55815
55728
55742
55687
55662
55285
55496
55378
55428
55594
55542
55534
55006
55407
55506
55430
55469
55364
55261
55108
55184
55231
55286
55303
55239
55255
54535
55144
55234
55135
55151
55084
54919
55095
55023
55071
54984
54967
54775
54910
54948
54887
54791
54879
54823
54839
54773
54596
54791
54700
54723
54657
54517
54372
54580
54645
54559
54391
54582
54492
54502
53673
54438
54436
54391
54357
53940
54318
54340
54279
54269
53343
54135
54151
54140
54223
54119
54004
54083
54055
54065
53127
53839
54023
53941
53955
53383
53888
53908
52928
53679
53876
53767
53615
53799
53699
53591
53725
53181
53621
53623
53582
53565
53435
53563
53500
53494
53487
53423
53254
53460
53373
53359
53318
53148
53244
53255
53255
53203
53079
53221
53147
53127
52917
53081
53095
52191
53012
53039
52303
52938
52987
52077
52839
52895
51983
52686
52839
52777
52796
52734
52589
52741
52662
52645
52564
52606
52583
52383
52551
52520
52095
52460
52476
52416
52252
52406
52343
52220
52342
52293
52260
52172
52199
52223
51686
51988
52175
52100
52093
51439
51887
52063
51975
52021
51942
51967
51447
51881
51883
50980
51786
51839
51767
51591
51766
51691
51679
51655
51623
51553
51566
51549
51439
51556
51486
51332
51485
51415
51391
51387
51383
51333
51262
51327
51271
51167
51234
51175
51167
51014
51183
51093
51062
51039
51035
51027
50734
50951
50965
50910
50775
50933
50839
50836
50719
50775
50783
50735
50759
50676
50694
50644
50627
50583
50596
50540
50535
50500
50495
50455
50420
49571
50247
50055
50333
50372
50292
50157
50198
50215
50247
50174
50183
50136
50159
50079
50071
50022
49900
49815
49953
49988
49917
49927
49125
49725
49868
49799
49829
49746
49722
49443
49663
49703
49639
49631
49344
49511
49575
49529
49535
49471
49457
49232
49379
49415
49356
49223
49348
49287
49244
49271
49218
49204
49173
49190
49127
48975
49108
49063
48943
48965
48991
48973
48767
48927
48927
48626
48864
48839
48039
48716
48807
48732
48588
48726
48665
48541
48596
48590
48609
48551
48388
48468
48487
48485
48433
48299
48421
48370
48348
48103
48295
48294
47879
48212
48226
48168
48007
48165
48116
47951
48070
48037
47879
48022
47964
47876
47959
47911
47796
47879
47829
47700
47825
47751
47600
47740
47094
47670
47679
47189
47573
47615
47556
47404
47551
47483
47476
46802
47284
47394
47359
47367
47313
47255
46927
47111
47141
47204
47215
46510
47016
47124
47095
47047
46916
46986
47005
46975
46972
46910
46765
46914
46855
46816
46655
46765
46791
46735
46588
46532
46631
46663
45948
46526
46599
46539
46423
46526
46486
46478
45931
46316
46384
46365
46359
46303
46197
46244
46252
46239
46199
46087
46087
46123
46122
45431
45951
46020
46015
46007
45955
45828
45718
45775
45866
45879
45822
45716
45749
45751
45740
45700
45565
45701
45629
45567
45546
45535
45575
45518
45365
45510
45447
45319
45346
45365
45374
45095
45308
45309
44869
45231
45207
45189
45163
45152
45063
45092
45060
44748
44908
44599
44948
44975
44470
44887
44907
44408
44830
44826
44788
44647
44740
44711
44713
44151
44543
44543
44589
44612
44551
44435
44516
44471
44457
44055
44303
44383
44356
44357
43956
44276
44295
44253
44236
43655
44074
44070
44126
44135
44085
44063
43847
43995
44007
43969
43971
43927
43854
43566
43813
43839
43799
43804
43745
43749
43697
43669
43095
43508
43580
43586
43574
43527
43446
43349
43436
43466
43429
43354
43255
43350
43349
42794
43183
43047
43111
43117
43175
43132
43079
43071
42999
42623
43067
43015
43039
42967
42974
42925
42927
42878
42878
42831
42820
42796
42775
42208
42647
42468
42640
42644
42620
42519
42500
42548
42542
42503
42371
42433
42420
42423
42391
42375
41983
42203
42149
42260
42246
42209
42206
41671
42036
42104
42102
42103
41567
41943
41991
41987
41982
41708
41895
41905
41869
41735
41810
41793
41732
41708
41733
41715
41339
41623
41639
41095
41533
41579
41041
41411
41495
41461
41447
41255
41399
41380
40851
41196
41303
41270
41267
41222
41210
40767
41041
41095
41100
41095
41070
41015
40839
40967
40966
40951
40928
40892
40838
40639
40796
40781
40767
40751
40623
40710
40703
40409
40647
40623
40580
40532
40366
40510
40510
40485
40399
40429
40411
40327
40327
40337
40327
40283
40225
40161
40205
40199
39743
40085
40125
40092
40087
40047
40029
39841
39937
39901
39923
39911
39471
39815
39815
39803
39799
39758
39637
39730
39279
39585
39633
39618
39621
39455
39551
39495
39502
39493
39463
39089
39336
39359
39373
39335
39300
39295
39210
39223
39208
39113
39188
38919
39110
39102
39083
38975
38933
39011
38977
38963
38896
38909
38860
38863
38847
38815
38775
38743
38758
38738
38566
38679
38663
38559
38607
38596
38465
38539
38523
38191
38466
38454
38407
38414
38151
38330
38319
38303
38247
38105
38151
38151
38189
38175
38135
38037
38023
38071
38052
38023
38015
37631
37947
37932
37885
37783
37839
37833
37820
37735
37687
37724
37719
37695
37590
37631
37631
37519
37563
37555
37546
37303
37447
37446
37443
37427
37060
37301
37295
37319
37311
37191
37254
37171
37188
37195
37166
36887
37039
37058
37062
37047
37007
36934
36731
36871
36871
36887
36892
36604
36804
36783
36772
36767
36735
36636
36625
36655
36614
36613
36591
36567
36532
36348
36423
36447
36449
36425
36400
36391
36194
36273
36250
36282
36252
36229
36223
35885
36103
36103
36103
36095
36062
35989
35884
35964
35887
35943
35917
35903
35873
35692
35815
35792
35767
35757
35599
35642
35580
35644
35620
35613
35603
35372
35500
35476
35487
35463
35435
35423
35395
35383
35140
35292
35195
35234
35159
35197
35183
35183
35158
34920
35076
35058
35063
35046
34999
34965
34839
34941
34924
34877
34823
34783
34820
34791
34491
34703
34615
34695
34687
34508
34629
34617
34471
34549
34503
34513
34471
34351
34436
34413
34143
34353
34326
34311
34303
34139
34239
34209
34205
34183
33943
34119
34089
34076
34063
34015
33970
33868
33959
33924
33903
33910
33859
33816
33649
33773
33719
33743
33729
33700
33662
33458
33621
33594
33581
33574
33478
33519
33454
33402
33442
33394
33299
33364
33308
33322
33276
33269
33268
33220
33179
33125
33159
33134
32880
33063
33020
33041
33011
32993
32971
32775
32900
32861
32863
32863
32725
32798
32772
32747
32711
32708
32484
32647
32608
32604
32567
32519
32542
32500
32428
32462
32428
32349
32407
32382
32174
32319
32263
32263
32281
32131
32199
32187
32007
32133
32108
31886
32063
32039
31812
31983
31951
31951
31916
31870
31879
31844
31813
31801
31767
31729
31743
31719
31487
31660
31623
31613
31589
31484
31557
31513
31404
31479
31455
31221
31409
31364
31359
31359
31156
31293
31267
31033
31206
31105
31175
31149
31139
31087
30954
31063
31031
30839
30980
30943
30943
30930
30764
30860
30785
30823
30781
30775
30760
30551
30686
30599
30654
30611
30607
30598
30439
30545
30493
30495
30458
30383
30420
30407
30247
30343
30290
30295
30271
30155
30228
30199
30183
30175
29942
30103
30002
30065
30018
30017
29997
29807
29942
29831
29894
29867
29859
29831
29814
29603
29766
29730
29671
29677
29615
29636
29622
29459
29562
29546
29351
29494
29467
29447
29412
29357
29375
29351
29285
29305
29275
29206
29243
29220
29093
29158
29134
29115
29095
28904
29039
28910
28991
28897
28946
28909
28898
28896
28748
28829
28791
28779
28761
28589
28711
28612
28673
28635
28630
28597
28578
28551
28446
28518
28487
28359
28436
28419
28388
28353
28262
28314
28246
28271
28236
28228
28207
28071
28151
28053
28103
28038
28055
28004
28005
27971
27967
27941
27918
27908
27886
27847
27828
27815
27683
27754
27716
27714
27694
27589
27645
27594
27593
27573
27554
27535
27431
27476
27455
27433
27410
27329
27368
27335
27323
27298
27274
27266
27124
27207
27183
27155
27140
27103
27103
26970
27034
26999
27001
26983
26942
26932
26860
26886
26860
26736
26813
26799
26767
26756
26676
26707
26671
26657
26647
26516
26584
26555
26541
26516
26498
26479
26389
26424
26407
26375
26370
26311
26316
26311
26249
26247
26229
26171
26183
26151
26058
26109
26065
26057
26055
25959
26007
25972
25953
25935
25899
25881
25872
25796
25812
25799
25767
25759
25707
25701
25684
25663
25651
25559
25591
25574
25543
25526
25484
25479
25471
25412
25415
25401
25316
25335
25311
25308
25285
25255
25241
25207
25194
25159
25142
25131
25071
25083
25059
25030
25013
24987
24961
24956
24925
24903
24879
24852
24833
24814
24789
24764
24743
24724
24711
24671
24655
24626
24607
24599
24557
24540
24532
24492
24479
24460
24427
24423
24391
24364
24353
24308
24298
24284
24254
24239
24199
24198
24176
24141
24132
24102
24096
24065
24038
24011
23994
23979
23946
23933
23902
23895
23855
23838
23830
23799
23778
23750
23748
23711
23675
23663
23655
23622
23607
23575
23558
23543
23507
23490
23487
23447
23431
23404
23390
23382
23349
23320
23300
23276
23268
23223
23214
23204
23175
23141
23143
23098
23087
23053
23047
23017
23007
22980
22943
22934
22915
22884
22873
22863
22817
22807
22807
22764
22739
22716
22694
22693
22649
22638
22631
22580
22571
22558
22516
22503
22487
22483
22438
22415
22388
22375
22354
22333
22349
22292
22279
22284
22215
22212
22190
22188
22148
22119
22125
22078
22063
22045
22047
21991
21974
21966
21983
21909
21892
21915
21850
21831
21851
21779
21767
21747
21785
21703
21687
21718
21632
21631
21619
21565
21555
21534
21523
21561
21465
21456
21439
21462
21383
21378
21367
21319
21310
21286
21327
21236
21225
21234
21178
21159
21134
21126
21109
21087
21052
21112
21022
20997
20957
20956
20945
20908
20894
20947
20865
20831
20807
20794
20762
20749
20749
20710
20695
20647
20654
20647
20605
20589
20583
20541
20535
20524
20487
20462
20494
20418
20403
20426
20357
20340
20380
20298
20287
20352
20247
20225
20245
20179
20163
20219
20122
20101
20071
20060
20044
20017
20001
19988
20063
19930
19922
19923
20007
19848
19847
19866
19796
19780
19805
19726
19724
19714
19676
19664
19653
19663
19593
19585
19570
19533
19530
19512
19482
19478
19487
19409
19410
19405
19356
19351
19359
19285
19293
19283
19249
19236
19234
19179
19188
19181
19130
19124
19168
19060
19063
19148
19021
18997
19085
18960
18932
18905
18913
18884
18853
18855
18881
18793
18791
18812
18733
18731
18857
18703
18689
18637
18638
18628
18591
18583
18681
18529
18517
18661
18481
18463
18566
18422
18407
18518
18372
18350
18497
18324
18303
18267
18251
18373
18214
18193
18285
18153
18148
18175
18116
18167
18083
18220
18033
18002
18001
17963
17952
17925
17908
17900
17900
17858
17833
17808
17812
17798
17783
17755
17732
17712
17732
17661
17674
17638
17606
17610
17587
17615
17538
17541
17498
17671
17463
17473
17434
17616
17407
17382
17547
17347
17329
17384
17287
17276
17380
17236
17223
17355
17194
17164
17253
17131
17115
17121
17059
17074
17044
17016
17012
16988
17005
16941
16952
16916
16887
16885
16858
16886
16819
16837
16791
16896
16753
16746
16838
16694
16698
16842
16668
16632
16604
16612
16585
16559
16549
16552
16492
16518
16487
16455
16453
16439
16399
16412
16415
16345
16352
16332
16293
16293
16272
16259
16219
16225
16196
16404
16158
16163
16123
16091
16095
16076
16042
16052
16010
15988
15994
15971
16051
15924
15919
15900
15862
15868
15837
15770
15806
15774
16007
15754
15741
15954
15706
15686
15806
15639
15642
15681
15583
15581
15599
15538
15548
15524
15487
15500
15463
15434
15435
15405
15379
15397
15348
15335
15336
15314
15278
15298
15268
15241
15239
15238
15195
15170
15137
15155
15243
15097
15091
15063
15049
15028
15026
15076
14997
14973
14942
14962
14933
14914
14949
14892
14849
14853
14831
15082
14795
14946
14755
14741
14719
14728
14746
14678
14661
14889
14643
14611
14597
14606
14587
14549
14534
14510
14506
14681
14488
14471
14431
14426
14526
14395
14372
14349
14366
14334
14300
14323
14333
14251
14250
14220
14239
14223
14179
14195
14157
14134
14146
14115
14084
14083
14064
14340
14039
14021
14138
13988
13976
14023
13938
13934
13961
13887
13908
13875
13854
13858
13818
14089
13796
13794
13777
14035
13735
13728
13858
13678
13674
13754
13647
13639
13677
13598
13599
13792
13562
13540
13516
13511
13667
13485
13471
13718
13458
13418
13684
13407
13374
13361
13375
13372
13333
13303
13287
13311
13279
13239
13238
13326
13200
13202
13422
13175
13151
13135
13135
13138
13095
13083
13383
13063
13032
13361
13028
12996
12981
12998
12957
12933
12927
12918
13221
12901
12869
13156
12861
12838
13011
12807
12799
12895
12762
12748
13027
12729
12716
12964
12693
12671
12805
12633
12628
12608
12611
12580
12568
12572
12778
12538
12545
12510
12491
12509
12513
12452
12434
12416
12441
12419
12382
12372
12353
12371
12334
12321
12323
12290
12467
12263
12258
12354
12242
12215
12203
12212
12165
12151
12172
12148
12122
12107
12399
12099
12075
12049
12063
12171
12022
12029
12125
11982
11983
11963
11937
11964
11954
11901
11911
11976
11876
11861
11898
11844
11814
12161
11808
11774
11761
11788
11778
11725
11717
11991
11695
11676
11655
11682
11684
11636
11616
11935
11622
11589
11563
11572
11619
11528
11529
11607
11501
11495
11575
11451
11463
11611
11434
11415
11401
11421
11398
11368
11391
11364
11334
11345
11318
11300
11311
11308
11257
11269
11343
11233
11217
11518
11206
11187
11176
11192
11159
11142
11135
11488
11137
11106
11087
11107
11087
11045
11074
11155
11024
11005
10994
10996
11276
10989
10973
10948
10960
10972
10917
10910
10908
10889
10868
10865
11218
10871
10826
10820
10821
10796
10780
10786
10903
10780
10737
10733
10711
10723
10709
10701
10723
10695
10662
10676
10657
10641
10620
10652
10642
10597
10587
10574
10590
10582
10553
10537
10581
10578
10518
10513
10650
10498
10484
10775
10483
10443
10443
10459
10527
10420
10404
10738
10407
10379
10551
10381
10349
10335
10335
10464
10326
10305
10607
10299
10274
10266
10287
10251
10235
10258
10224
10504
10216
10194
10183
10217
10268
10186
10151
10149
10183
10153
10134
10127
10209
10099
10105
10149
10068
10077
10402
10069
10048
10037
10056
10048
10024
10017
10397
10023
10010
9970
9988
9978
9959
9952
9940
9959
9965
9920
9937
9894
9890
9923
9892
9874
9876
10244
9887
9898
9842
9838
10147
9838
9822
9802
9833
9829
9791
9783
9780
9796
9893
9767
9741
9746
9744
10132
9758
9715
9705
9722
9693
9682
9714
9677
9663
9694
9683
9633
9646
9645
9664
9648
9962
9627
9600
9594
9632
9905
9601
9575
9568
9561
9581
9622
9549
9548
9936
9537
9517
9518
9539
9531
9495
9503
9497
9516
9620
9497
9460
9466
9479
9670
9466
9439
9442
9461
9423
9414
9454
9400
9406
9436
9391
9385
9417
9425
9386
9408
9372
9354
9367
9400
9350
9359
9445
9342
9328
9330
9339
9316
9303
9312
9308
9343
9334
9288
9284
9277
9315
9292
9265
9285
9286
9256
9277
9650
9241
9252
9234
9245
9224
9221
9268
9245
9210
9231
9250
9188
9198
9431
9204
9198
9495
9202
9172
9177
9206
9158
9169
9188
9163
9158
9173
9158
9153
9187
9158
9131
9150
9241
9121
9143
9198
9132
9127
9108
9138
9103
9109
9137
9135
9096
9089
9087
9119
9101
9087
9085
9501
9100
9097
9073
9062
9067
9100
9083
9053
9058
9461
9077
9049
9054
9051
9049
9074
9199
9051
9025
9039
9040
9029
9065
9037
9026
9041
9029
9055
9097
9029
9012
9015
9051
9028
9014
9026
9006
9005
9009
9151
8995
9006
9261
9010
9001
8997
9030
8993
8988
9000
9417
9019
9013
8982
8998
9205
8999
8991
8987
8991
8983
9010
9010
8983
8973
8976
8997
8982
8962
8977
8979
9000
8964
8972
8988
9204
8979
8978
9181
8983
8969
8972
9006
8978
8969
8990
9090
8970
8972
9261
8977
8969
9343
8998
8986
8964
9007
8980
8972
8975
8978
8974
9345
8994
8988
8983
8983
9318
9005
9147
8988
8974
8969
8978
8981
9006
8969
9381
9002
8966
8988
9005
8987
8988
9017
9020
8981
8994
9038
8997
9010
8996
9190
9006
9012
9013
8999
9029
8998
9409
9017
9002
9318
9017
9004
9002
9057
9067
9017
9021
9012
9029
9342
9036
9019
9022
9039
9028
9060
9032
9036
9069
9034
9042
9068
9039
9051
9058
9385
9067
9060
9361
9068
9060
9061
9073
9442
9094
9157
9085
9073
9074
9093
9253
9091
9090
9494
9101
9097
9221
9101
9100
9441
9136
9110
9110
9135
9210
9116
9142
9253
9134
9138
9359
9145
9133
9547
9156
9148
9520
9158
9158
9159
9179
9162
9155
9172
9180
9298
9173
9203
9177
9184
9217
9196
9200
9219
9204
9194
9220
9600
9235
9228
9214
9238
9346
9257
9252
9234
9257
9294
9254
9255
9247
9275
9412
9277
9259
9267
9291
9317
9279
9291
9308
9282
9317
9292
9295
9305
9318
9625
9317
9318
9605
9316
9343
9355
9322
9367
9357
9350
9369
9629
9392
9379
9362
9378
9765
9385
9366
9385
9411
9433
9395
9408
9509
9403
9428
9426
9418
9445
9441
9630
9447
9436
9833
9461
9467
9518
9445
9469
9496
9473
9500
9839
9514
9483
9499
9542
9519
9510
9527
9764
9540
9517
9537
9562
9545
9548
9591
9655
9566
9579
9867
9597
9575
9592
9609
9714
9605
9619
9966
9656
9625
9649
9654
9649
9662
9703
9712
9673
9659
9690
9686
9687
9714
10048
9742
9932
9758
9764
9743
9737
9751
9785
9801
9764
9783
10113
9804
9828
9803
9798
9802
9820
9814
9844
10100
9867
9935
9862
9864
9865
9892
10114
9903
9879
9887
9923
10151
9926
9920
9933
9983
9949
9955
9979
9967
10352
10004
10001
9995
10004
10008
10051
10043
10035
10048
10344
10067
10061
10306
10081
10085
10087
10114
10494
10149
10175
10133
10148
10149
10148
10160
10182
10308
10203
10186
10197
10220
10374
10223
10220
10243
10279
10348
10280
10271
10271
10289
10294
10331
10426
10330
10314
10334
10383
10377
10355
10377
10622
10395
10398
10768
10441
10444
10424
10437
10658
10459
10448
10461
10481
10482
10495
10497
10520
10730
10532
10525
10534
10580
10668
10577
10591
10784
10618
10608
10606
10629
10973
10659
10639
10648
10695
10738
10697
10692
10694
10701
10715
10731
10809
10738
10793
10766
10766
10788
10983
10795
10821
11182
10845
10841
10843
10882
10861
11202
10897
10887
10896
10921
11251
10946
10941
10941
10991
10959
10979
10999
11260
11019
11004
11016
11050
11099
11049
11054
11075
11100
11097
11087
11111
11184
11123
11159
11143
11153
11187
11175
11538
11206
11192
11211
11247
11229
11334
11287
11265
11277
11311
11285
11654
11318
11323
11682
11355
11355
11367
11399
11379
11386
11401
11418
11423
11423
11463
11462
11461
11500
11526
11489
11540
11507
11514
11562
11573
11554
11582
11623
11586
11611
11646
11611
11659
11641
12002
11666
11679
12041
11714
11714
11712
11742
11749
11865
11756
11770
11920
11796
11805
12045
11825
11840
12191
11881
11883
11887
11920
11908
11908
11932
11927
11974
11965
11966
12020
12007
12002
12055
12031
12036
12071
12066
12406
12100
12111
12122
12117
12161
12150
12157
12199
12177
12197
12231
12218
12347
12239
12276
12263
12590
12302
12303
12351
12346
12336
12633
12369
12372
12391
12422
12537
12431
12429
12443
12459
12518
12475
12509
12509
12544
12523
12559
12554
12685
12572
12602
12599
12614
12655
12639
12683
12663
12700
12692
12943
12736
12731
12740
12773
12775
12774
12790
12957
12815
12838
13072
12858
12870
13114
12909
12916
13185
12943
12943
12948
12994
12975
12991
13031
13015
13043
13062
13347
13089
13094
13107
13106
13129
13148
13452
13175
13178
13187
13222
13214
13227
13270
13287
13277
13295
13545
13321
13323
13339
13367
13651
13398
13397
13405
13439
13434
13743
13483
13478
13483
13514
13766
13559
13591
13556
13561
13581
13603
13903
13655
13681
13645
13672
13826
13705
13699
13723
13759
13875
13765
13776
13781
13809
13809
13839
14074
13880
13910
13887
13901
13913
13954
14124
13976
14101
14010
14278
14041
14132
14063
14091
14081
14090
14108
14111
14117
14177
14227
14172
14181
14479
14231
14228
14232
14264
14268
14316
14319
14303
14333
14336
14389
14384
14374
14407
14574
14436
14447
14495
14492
14493
14490
14527
14625
14545
14561
14683
14599
14622
14618
14635
14727
14657
14681
14905
14701
14727
14923
14745
14770
14782
14816
14828
14822
14853
15007
14879
14886
14893
14938
14962
14942
14969
15203
15003
15005
15021
15056
15108
15060
15079
15275
15123
15130
15133
15155
15154
15197
15279
15215
15234
15198
15274
15361
15297
15310
15311
15358
15382
15360
15399
15463
15416
15422
15444
15474
15527
15487
15507
15744
15553
15550
15566
15595
15598
15601
15649
15673
15652
15687
15729
15715
15710
15829
15745
15783
15844
15791
15817
16042
15861
15877
15871
15909
16006
15924
15949
16192
15985
16007
16001
16023
16265
16050
16071
16072
16120
16125
16119
16167
16170
16174
16215
16208
16210
16256
16281
16263
16319
16310
16316
16339
16426
16367
16379
16614
16423
16439
16505
16474
16486
16706
16534
16537
16541
16555
16688
16598
16606
16815
16659
16742
16691
16717
16715
16727
16726
16769
16863
16775
16806
16826
16847
16854
16859
16903
16944
16913
16931
16941
16966
16978
17007
17179
17050
17079
17065
17087
17095
17116
17127
17169
17249
17178
17199
17201
17245
17448
17284
17318
17293
17314
17329
17356
17391
17366
17395
17401
17436
17471
17481
17650
17511
17607
17537
17556
17565
17575
17588
17615
17629
17634
17652
17682
17849
17731
17767
17744
17761
17765
17791
17790
17831
17937
17863
17873
18061
17904
17921
17978
17955
17989
17994
18012
18040
18080
18085
18074
18086
18114
18156
18170
18300
18196
18220
18213
18233
18233
18279
18324
18303
18317
18324
18346
18509
18403
18503
18422
18482
18448
18466
18479
18507
18668
18547
18570
18568
18595
18594
18619
18625
18658
18815
18695
18788
18727
18753
18749
18777
18887
18806
18839
18837
18865
18870
18887
18902
18927
19060
18978
19017
19001
19024
19031
19063
19055
19085
19160
19124
19141
19145
19182
19238
19202
19217
19319
19265
19277
19286
19315
19432
19353
19368
19374
19383
19401
19417
19551
19458
19489
19483
19501
19508
19540
19655
19583
19633
19615
19646
19631
19653
19654
19687
19743
19717
19742
19749
19765
19823
19795
19815
19823
19849
19853
19887
19883
19911
20034
19957
19972
19978
20007
20055
20031
20060
20073
20091
20203
20131
20148
20148
20165
20281
20212
20231
20231
20266
20286
20292
20311
20423
20350
20367
20361
20390
20491
20431
20462
20458
20477
20490
20510
20599
20563
20593
20579
20604
20680
20640
20652
20665
20689
20714
20722
20743
20816
20779
20801
20799
20834
20807
20863
20905
20885
20908
21010
20957
20988
20989
21059
21029
21069
21044
21074
21140
21107
21126
21161
21148
21190
21223
21211
21231
21242
21271
21363
21308
21335
21330
21353
21427
21383
21407
21420
21445
21508
21477
21507
21502
21526
21583
21571
21583
21589
21617
21676
21658
21682
21689
21708
21720
21742
21753
21780
21788
21817
21897
21853
21901
21883
21903
21911
21937
22015
21974
21997
21999
22021
22038
22061
22137
22111
22149
22135
22161
22170
22196
22215
22246
22242
22295
22275
22315
22315
22335
22356
22374
22412
22405
22433
22495
22469
22492
22487
22515
22527
22553
22551
22593
22644
22623
22645
22711
22678
22695
22727
22726
22756
22759
22789
22847
22822
22849
22855
22878
22918
22895
22939
22966
22963
22986
23015
23014
23037
23084
23068
23097
23149
23137
23157
23162
23177
23196
23216
23239
23276
23264
23298
23331
23322
23354
23388
23378
23399
23422
23439
23476
23475
23497
23527
23526
23552
23554
23575
23622
23612
23635
23665
23663
23695
23702
23725
23746
23746
23774
23815
23815
23838
23840
23870
23917
23906
23930
23963
23954
23978
23983
24018
24039
24054
24075
24066
24102
24116
24137
24148
24167
24194
24207
24229
24226
24263
24267
24291
24325
24327
24359
24359
24389
24395
24428
24427
24467
24463
24492
24494
24525
24541
24565
24580
24595
24609
24635
24658
24666
24687
24694
24725
24742
24759
24775
24802
24805
24829
24838
24867
24886
24892
24915
24940
24940
24967
24988
24991
25010
25039
25056
25079
25095
25113
25135
25143
25159
25167
25199
25223
25235
25247
25265
25287
25302
25318
25340
25367
25380
25391
25411
25431
25436
25483
25487
25503
25516
25531
25554
25573
25583
25604
25618
25647
25662
25645
25694
25719
25726
25751
25767
25703
25807
25818
25835
25849
25868
25908
25917
25927
25951
25958
25986
26001
25995
26045
26054
26076
26086
26100
26119
26145
26145
26188
26199
26210
26238
26254
26268
26286
26302
26322
26342
26360
26375
26375
26422
26422
26431
26474
26490
26500
26532
26543
26540
26564
26587
26612
26623
26625
26668
26695
26699
26721
26737
26757
26779
26759
26823
26822
26831
26869
26865
26899
26910
26945
26949
26983
26993
26985
27027
27047
27075
27071
27098
27125
27110
27161
27172
27199
27206
27197
27247
27255
27271
27318
27319
27337
27367
27343
27390
27415
27437
27444
27451
27492
27491
27490
27551
27550
27574
27592
27603
27647
27647
27678
27680
27683
27731
27687
27759
27714
27799
27738
27843
27851
27879
27876
27923
27921
27947
27964
27975
28001
27983
28036
27975
28077
28092
28119
28119
28150
28167
28157
28204
28167
28228
28207
28261
28212
28311
28279
28350
28313
28380
28335
28427
28447
28470
28476
28505
28507
28516
28551
28519
28583
28599
28621
28636
28647
28677
28671
28709
28675
28741
28691
28802
28813
28812
28840
28839
28878
28891
28921
28916
28954
28964
28980
29001
29029
29027
29067
29031
29107
29106
29150
29153
29151
29191
29173
29219
29157
29263
29176
29310
29321
29323
29351
29378
29403
29420
29399
29447
29477
29476
29507
29511
29550
29493
29575
29543
29614
29518
29670
29679
29681
29703
29663
29765
29759
29775
29799
29730
29837
29856
29873
29903
29895
29927
29871
29991
29987
30004
30028
29927
30077
30083
29989
30133
30133
30140
30183
30142
30212
30127
30257
30252
30299
30311
30295
30339
30265
30394
30397
30404
30435
30389
30458
30487
30501
30531
30524
30567
30523
30595
30454
30636
30656
30631
30693
30707
30725
30756
30695
30791
30804
30823
30851
30807
30863
30894
30911
30935
30915
30972
30919
30999
31023
31023
31063
30975
31110
31121
31136
31036
31165
31195
31207
31231
31250
31198
31279
31307
31333
31349
31295
31380
31391
31405
31439
31357
31468
31490
31527
31530
31468
31588
31589
31600
31603
31639
31508
31687
31697
31654
31725
31596
31789
31788
31761
31809
31839
31871
31879
31794
31932
31941
31938
31975
31903
32027
32034
31924
32039
32074
32103
32148
32143
32135
32169
32065
32223
32234
32231
32276
32142
32319
32333
32324
32372
32243
32415
32429
32326
32466
32485
32437
32515
32542
32551
32570
32590
32596
32609
32642
32611
32671
32691
32703
32732
32593
32783
32807
32760
32837
32719
32878
32899
32903
32927
32882
32961
32850
32996
33013
33018
33054
32935
33100
33106
33118
33150
33092
33158
33204
33245
33239
33255
33279
33300
33314
33339
33211
33383
33388
33415
33425
33431
33471
33413
33490
33516
33535
33555
33516
33579
33613
33627
33655
33600
33661
33706
33724
33743
33652
33790
33796
33797
33832
33647
33876
33895
33769
33956
33944
33951
33991
33983
34021
33835
34071
34071
34071
34114
33978
34151
34143
34196
34201
34207
34023
34256
34257
34094
34324
34332
34308
34330
34384
34388
34400
34260
34470
34471
34462
34496
34526
34543
34559
34427
34601
34615
34615
34639
34540
34675
34707
34711
34735
34650
34735
34782
34814
34807
34668
34874
34894
34871
34907
34820
34927
34970
34978
34996
34987
34997
35057
35073
35095
35102
35122
35111
35148
35140
35156
35023
35229
35002
35279
35277
35292
35315
35243
35323
35175
35407
35398
35426
35447
35409
35439
35253
35522
35526
35545
35559
35526
35562
35372
35653
35654
35644
35673
35433
35718
35732
35684
35760
35793
35815
35825
35799
35842
35627
35911
35914
35887
35911
35969
36005
36007
35962
35996
35831
36041
35937
36131
36130
36166
36167
36199
36203
36219
36241
36215
36255
36038
36313
36318
36343
36359
36383
36395
36404
36431
36424
36471
36463
36503
36476
36487
36370
36556
36327
36615
36637
36665
36660
36687
36702
36713
36719
36583
36756
36782
36775
36775
36823
36821
36822
36900
36918
36937
36943
36956
36871
36980
37007
37039
37042
36993
37094
37114
37103
37091
37159
37167
37180
37160
37201
37247
37243
37277
37150
37307
37332
37364
37364
37377
37399
37396
37423
37351
37423
37339
37458
37316
37510
37327
37588
37594
37327
37637
37639
37651
37676
37588
37697
37732
37764
37767
37767
37796
37762
37782
37571
37881
37895
37810
37861
37630
37972
37974
37991
38007
37991
38013
37780
38083
38087
38115
38129
38116
38150
38103
38141
37895
38242
38255
38269
38279
38301
38294
38215
38305
38351
38403
38404
38407
38388
38253
38490
38481
38447
38463
38438
38566
38569
38589
38599
38481
38652
38660
38654
38663
38535
38740
38741
38751
38715
38791
38815
38819
38751
38828
38873
38871
38839
38919
38919
38942
38871
38991
39007
38937
39040
39062
39035
39033
39106
39129
39140
39087
39119
39188
39212
39195
38919
39261
39266
39229
39215
39316
39341
39340
39341
39327
39087
39424
39414
39447
39458
39372
39410
39511
39529
39530
39530
39569
39551
39535
39622
39659
39654
39650
39651
39460
39726
39739
39775
39767
39695
39815
39815
39847
39846
39878
39879
39879
39839
39927
39943
39943
39960
39604
40023
40035
40061
40065
40063
40085
39979
40027
39759
40173
40179
40174
40113
39913
40244
40251
40274
40266
40111
40293
40338
40356
40348
40335
40316
40407
40447
40422
40039
40507
40498
40514
40519
40366
40539
40574
40591
40610
40623
40639
40596
40595
40676
40711
40727
40740
40749
40737
40687
40401
40802
40487
40751
40679
40799
40879
40927
40911
40935
40935
40866
40941
40997
41023
41031
40967
40967
40617
41109
41110
41106
41063
41159
41183
41172
41127
41124
40782
41263
41268
41276
41205
40963
41330
41332
41375
41334
40967
41412
41423
41403
41351
41220
41492
41479
41511
41479
41076
41571
41580
41599
41605
41612
41556
41351
41675
41694
41714
41710
41701
41711
41699
41789
41787
41812
41759
41759
41731
41767
41503
41834
41479
41833
41771
41847
41655
41884
41838
41917
41951
41947
41780
42070
42107
42119
42125
42157
42159
42167
42148
42135
42175
42151
42175
42259
42292
42287
42295
42261
42196
42340
42375
42404
42395
42422
42442
42471
42459
42415
42390
42119
42531
42535
42563
42523
42101
42613
42591
42324
42647
42663
42682
42682
42682
42605
42620
42655
42410
42691
42286
42710
42556
42718
42711
42831
42831
42820
42822
42831
42417
42918
42960
42986
42988
43031
43020
43007
42933
43079
43103
43063
42724
43130
43140
43163
43174
43196
43203
43215
43220
43254
43250
43271
43287
43311
43302
43319
43332
43334
43319
43311
43295
42988
43447
43445
43463
43476
43486
43423
43174
43527
43547
43572
43519
43060
43615
43607
43622
43525
43655
43687
43685
43639
43610
43728
43757
43751
43748
43679
43804
43825
43828
43718
43859
43876
43900
43860
43717
43943
43924
43967
43974
44007
43916
43694
44015
44038
44071
44084
44087
44103
44112
44143
44087
43879
44076
44183
44213
44204
44159
44215
44260
44230
44181
44295
44317
44293
44255
44239
43794
44391
44270
44401
43845
44444
44437
44452
44492
44478
44504
44518
44535
44167
44545
44551
44461
44607
44578
44623
44630
44647
44647
44698
44695
44700
44734
44382
44743
44754
44758
44775
44686
44829
44236
44807
44884
44862
44875
44911
44725
44919
44935
44855
44961
44910
44996
44997
44895
45030
45031
44935
45082
45063
44974
45079
45127
45143
44902
45110
45188
45180
45183
45159
45223
45175
45274
45255
45259
45317
45207
45316
45293
45319
45346
45275
45407
45391
45287
45412
45419
45429
45301
45447
45495
44956
45397
45447
45535
45550
45446
45567
45588
45380
45597
45614
45618
45639
45543
45703
45182
45699
45735
45135
45695
45780
45143
45711
45804
45786
45751
45844
45245
45850
45879
45855
45871
45893
45870
45925
45821
45967
45949
45845
46012
46007
45973
46045
45703
46031
46077
45995
46087
46110
45767
46050
46127
46151
46183
46174
46202
46191
46134
45895
46087
46215
46248
46284
46271
46316
46309
46308
46150
46311
46367
46359
46261
46318
46404
46439
46423
46359
46338
46430
46508
46471
46375
46501
46511
46548
46378
46551
46599
46574
46592
46387
46566
46647
46639
46662
46596
46681
46695
46471
46663
46748
46734
46687
46546
46764
46789
46119
46679
46823
46818
46847
46844
46756
46897
46878
46884
46915
46815
46961
46932
46867
46982
46967
46909
47016
46998
46890
47048
47028
47043
47068
46788
47076
47095
46695
47071
47162
46450
47015
47111
47170
47197
47111
47103
47229
47206
47111
47246
47239
47279
46596
47158
47295
47279
47239
47246
47314
47356
47328
47220
47389
47367
47390
46723
47279
47355
47407
47449
47444
47479
47466
47407
47207
47464
47535
47517
47535
47532
47420
47244
47567
47492
47581
47616
47044
47543
47663
47623
47591
47671
47677
47540
47647
47702
47730
47725
47652
47730
47751
47794
47783
47735
47820
47788
47822
47599
47835
47866
47287
47859
47887
47204
47876
47898
47921
47918
47811
47975
47252
47937
47999
47981
47871
48007
48007
47983
47911
48038
48079
47380
48037
48111
48084
47973
48135
48108
48036
48173
48151
48046
48191
48161
48081
48236
48196
48226
47979
48225
48277
47530
48223
48304
48263
48173
48327
48311
48229
48355
48338
48215
48391
48373
48248
48380
48389
48437
47733
48327
48469
48436
48466
48325
48479
48511
48494
48532
48516
48538
48519
48410
48543
48558
48580
47863
48484
48545
48617
48647
48620
48644
48575
48647
48669
48647
48683
48697
48700
48631
48463
48599
48730
48775
48647
48767
48814
48770
48808
48092
48678
48815
48809
48871
48854
48740
48887
48861
48867
48897
48898
48791
48956
48903
48931
48759
48947
49012
48966
49007
48999
48903
49039
49008
49071
49031
49052
48388
48972
49103
49070
49107
48422
48984
49105
49125
49159
49119
49159
49151
49143
48956
49140
49223
49188
49176
49179
48799
49111
49215
49239
49278
49261
49271
49143
49288
49344
49279
48927
49327
49335
49370
49214
49380
49356
49415
49377
49390
49079
49335
49447
49411
49459
49431
49335
49193
49375
49494
49479
49527
49494
49543
49499
49543
49519
49559
49537
49551
49191
49535
49607
49567
49455
49511
49588
49639
49615
49661
49626
49655
49647
49636
49316
49527
49692
49671
49719
49671
49671
49507
49670
49759
49740
49735
49639
49734
49809
49767
49772
49781
49799
49349
49742
49843
49819
49855
49823
49693
49847
49839
49908
49861
49862
49151
49750
49901
49903
49927
49158
49840
49982
49927
49969
49948
49844
49988
49967
50023
49962
50016
49987
50020
50004
49945
49607
49963
50084
50050
50055
49301
49927
50055
50084
50126
50100
50108
49452
49994
50138
50143
50159
50143
50144
49980
50158
50183
49769
50182
50199
50038
50199
50199
50225
50215
50238
49543
50134
50247
50247
50285
50268
50254
50223
50284
50341
50311
50356
50305
50340
50324
50224
50358
50351
50374
50359
50254
50305
50349
50420
50388
50423
50178
50351
50455
50437
50439
50359
50439
50473
50438
50463
50475
49879
50392
50518
50487
50542
50509
50375
50547
50535
50541
49809
50479
50599
50566
50615
50564
50589
50095
50471
50591
50581
50647
50597
50659
50621
50620
50534
50631
50692
50650
50695
50663
50622
50455
50599
50732
50695
50756
50711
50741
49991
50599
50783
50757
50763
50231
50624
50740
50752
50823
50780
50655
50803
50802
50839
50156
50678
50866
50821
50849
50359
50796
50886
50850
50883
50263
50875
50927
50877
50911
50900
50799
50837
50899
50940
50932
50967
50116
50825
50959
50951
51003
50959
50823
50941
50975
51031
50988
51019
50183
50871
50975
51018
51071
51036
50999
50869
50942
51095
51069
51111
51048
51079
50333
50935
50932
50975
50895
50998
51119
51119
51175
51131
51199
51148
51175
50415
51028
51163
51175
51238
51175
51185
51175
51191
51200
50669
51207
51262
51207
51239
50406
51180
50890
51151
51184
51262
51287
51269
51149
51319
51293
51335
51288
51147
51351
51323
51335
50485
51287
51351
51335
51404
51335
51396
51355
51367
50823
51319
51429
51380
51439
51388
51425
51415
51463
51407
51317
51175
51391
51492
51447
51454
50774
51350
51428
51447
51524
51487
51426
51278
51365
51327
51351
51497
51450
51536
51519
51573
51512
51556
51047
51398
51536
51551
51605
51558
51591
51099
51487
51645
51591
51558
51399
51527
51655
51613
51644
51607
51488
51674
51639
51693
51629
51660
51639
51517
51573
51559
51631
51675
51719
51670
51734
51703
51738
51687
51764
51719
51747
51695
51683
50979
51583
51746
51735
51788
51744
51788
51759
51791
51028
51623
51492
51631
51418
51676
51694
51751
51855
51807
51868
51817
51858
51837
51761
51361
51695
51844
51844
51911
51847
51879
51071
51719
51918
51883
51937
51884
51874
51821
51894
51929
51911
51922
51907
51917
51662
51906
51972
51932
51945
51060
51791
51972
51951
51989
51967
51965
51582
51932
52028
51987
52042
51975
52071
51996
52063
51991
52066
52013
52052
52005
52017
52012
51956
51452
51915
51671
52063
52044
51527
52060
52060
52102
52039
52060
52143
52055
52071
51935
51686
51942
51975
51965
51920
51966
52171
52116
52154
52127
52175
52132
52071
51764
52013
52199
52132
52205
52159
52151
51295
52050
51990
52042
52007
52035
52095
52149
52260
52180
52228
52199
52263
52204
52252
52220
52215
52197
52223
52215
52293
52102
52231
52279
52231
52263
52303
52263
52183
52188
52206
52335
52266
52326
52278
52301
52268
52308
51889
52262
52359
52292
52313
51649
52276
52375
52315
52327
52071
52299
52391
52331
52348
52277
52328
52369
52327
52227
52397
52351
52388
52356
52347
52103
52292
52400
52357
52446
52381
52460
52385
52422
52391
52256
52405
52404
52453
52406
52430
51655
52348
52343
52359
52468
52415
52468
52437
52452
52427
52487
52440
52495
52442
52455
52158
52444
52487
52447
52477
51653
52335
52519
52471
52511
52476
52437
52199
52466
52549
52485
52509
51719
52453
52554
52507
52513
51948
52372
52558
52517
52580
52504
52525
51956
52534
52567
52535
52391
52587
52540
52565
52187
52423
52607
52548
52599
52556
52423
52585
52423
52093
52520
52631
52570
52582
51835
52439
52588
52577
52623
52566
52583
52455
52545
52645
52572
52591
51772
52455
52615
52586
52631
51708
52487
52655
52598
52591
52579
52598
52662
52599
52621
51751
52487
52613
52588
52631
51889
52583
52668
51764
52451
52660
52615
52620
52295
52598
52671
52609
52455
52684
52623
52679
52631
52641
52611
52629
52591
52628
52634
51988
52479
52433
52607
52671
52620
52591
52695
52628
52639
51782
52487
52679
52629
52647
52639
52703
52643
52647
52628
52487
52531
52615
52707
52647
52700
52647
52487
52596
52647
52695
52660
52687
52652
52693
52647
52679
52650
52686
52671
52678
52652
52671
52652
52684
52652
52666
51822
52596
52428
52535
52726
52679
52719
52660
52513
52725
52676
52711
52670
52637
52479
52671
52725
52678
52673
52668
52542
52615
52674
52719
52679
52700
52682
52636
51815
52635
52292
52559
52732
52686
52710
52679
52572
52661
52682
52703
52458
52637
52743
52691
52575
52703
52679
52716
52687
52696
52678
52655
52358
52684
52743
52692
52731
52708
52650
52555
52647
52743
52692
52743
52703
52703
52693
52567
52447
52686
52719
52455
52684
52708
52703
52694
52708
52715
52679
52734
52703
52602
52654
52695
52743
52693
52719
51911
52559
52597
52544
52412
52551
52511
52550
52676
52707
52743
52687
52556
52735
52716
52710
52214
52676
52743
52692
52727
51972
52684
52756
52696
52564
52694
52695
52743
52695
52714
52679
52692
52710
51932
52569
52743
52679
52692
52406
52660
52735
52679
52608
52738
52688
52743
52685
52719
51829
52565
52729
52687
52743
52687
52711
52262
52607
52743
52673
52670
52667
52677
52716
52687
52559
52599
52679
52727
51911
52620
52743
52664
52572
52727
52673
52686
52477
52653
52692
52159
52519
52719
52663
52510
52719
52668
52682
51887
52543
52623
52666
52669
52630
52655
52655
52695
52647
52517
52708
52646
52535
52711
52650
52559
52703
52639
52673
51863
52507
52711
52636
52623
52631
52644
52687
52646
52633
52615
52637
52684
52631
52473
52679
52615
52605
51751
52558
52676
52615
52653
51836
52559
52655
52615
52527
52571
52607
52660
52599
52471
52644
52607
52631
52607
52468
52589
52580
52668
52604
52629
51918
52590
52647
52598
52597
52485
52559
52637
52583
52605
52276
52574
52615
51847
52476
52624
52575
52591
51959
52435
52432
52567
52646
52575
52607
52564
52570
52447
52567
52623
52572
52599
52583
52580
52191
52540
52572
52303
52566
52604
52564
52452
52503
52562
52605
52543
52559
52351
52538
52609
52542
52599
52542
52584
52551
52583
52546
52555
51752
52460
52389
52426
52575
52527
52589
52539
52565
52532
52486
52226
52388
52053
52383
52393
52406
52486
52527
52596
52523
52581
52532
52544
52519
52500
52007
52381
52439
52437
52511
52499
52559
52519
52383
52543
52487
52551
52504
52485
52526
52507
52566
52519
52375
52567
52497
52391
52333
52500
52567
52499
52468
52518
52487
52516
51975
52407
52405
52468
52532
52479
52340
52550
52476
52515
52220
52476
52551
52478
52447
52335
52454
52529
52487
52511
51646
52320
52461
52476
52551
52484
52487
52479
52487
52484
52500
52468
52327
52496
52471
52511
52469
52387
52039
52316
52359
52407
52453
52468
52527
52463
52518
52447
52465
52445
52447
51975
52308
52359
52434
52507
52439
52479
51607
52444
51585
52316
52460
52444
52487
52447
52455
51631
52292
52294
52431
52487
52447
52476
52431
52388
52158
52407
52471
52428
52487
52437
52460
52423
52381
52425
52423
52463
52423
51831
52439
52423
52463
52335
51988
52429
52415
52455
52340
52421
52423
52429
52399
51540
52462
52279
52407
52447
52407
52429
52391
52390
51780
52246
51951
52257
52447
52390
52437
52387
52428
52399
52293
52286
52311
52436
52391
52439
52374
52423
51591
52231
52357
52273
52404
52383
52435
52369
52367
52060
