EGG
41437
41429
41002
41319
41062
41351
41127
41343
41057
41286
41199
41273
40988
41327
41315
41321
41307
41311
41295
41295
41271
41281
41249
41252
41239
41247
41223
41215
41213
41207
41199
41189
41181
41170
41157
41167
41148
41134
41135
41131
41105
41125
41092
41092
41012
41074
41085
41063
41044
41041
41016
41029
41015
41017
41007
40991
40994
40991
40967
40956
40940
40935
40931
40935
40931
40924
40919
40900
40895
40895
40895
40871
40878
40847
40859
40468
40823
40503
40802
40806
40810
40803
40788
40779
40782
40760
40757
40748
40767
40739
40727
40711
40711
40701
40698
40663
40685
40653
40655
40644
40626
40647
40615
40583
40455
40543
40379
40514
40452
40507
40468
40530
40538
40559
40545
40519
40524
40511
40491
40491
40455
40471
40415
40432
40382
40428
40375
40428
40394
40399
40384
40389
40390
40391
40386
40359
40335
40214
40335
40340
40297
40270
40316
40319
40286
40283
40278
40223
40130
40259
40242
40245
40218
40179
40170
40143
40167
40212
40193
40151
40002
40163
40157
40103
40069
40132
40111
40046
39796
40092
39988
40043
40055
40069
40068
40039
40006
39799
39972
39820
39975
39987
39995
39980
39969
39908
39959
39720
39687
39932
39927
39911
39911
39841
39830
39840
39888
39871
39870
39838
39711
39532
39828
39814
39807
39809
39778
39720
39755
39774
39776
39748
39716
39660
39627
39668
39687
39701
39655
39492
39373
39390
39660
39654
39655
39638
39633
39619
39631
39621
39599
39533
39532
39495
39558
39415
39525
39215
39540
39452
39527
39540
39170
39505
39159
39495
39487
39479
39460
39428
39455
39423
39429
39428
39431
39423
39415
39364
39401
39376
39375
39330
39359
39326
39335
39285
39348
39356
39332
39327
39133
39253
39259
39254
39199
39227
38988
39263
38943
39207
38943
39175
39150
39244
39238
39220
39223
39204
39134
39123
39199
39143
39175
39183
39175
39172
39159
39144
39141
39121
38983
39089
39039
39106
39085
39099
39106
39090
39040
38863
39014
39023
39068
39067
39047
39052
38794
39031
39039
39036
39022
38735
38953
38935
38998
38983
38974
38939
38958
38983
38955
38971
38967
38937
38825
38614
38631
38591
38929
38934
38910
38902
38892
38853
38860
38911
38871
38836
38663
38879
38877
38869
38847
38852
38855
38821
38783
38818
38535
38783
38663
38775
38767
38791
38807
38805
38732
38735
38791
38775
38780
38791
38503
38773
38760
38742
38711
38687
38509
38758
38748
38759
38733
38719
38681
38735
38729
38719
38704
38685
38610
38547
38391
38695
38684
38628
38629
38627
38620
38663
38683
38663
38677
38655
38663
38655
38655
38654
38644
38631
38645
38629
38631
38622
38631
38621
38598
38638
38618
38629
38609
38604
38591
38599
38589
38593
38589
38593
38568
38565
38527
38551
38564
38575
38548
38557
38511
38407
38561
38552
38549
38519
38549
38546
38439
38303
38543
38547
38524
38517
38527
38491
38355
38511
38503
38535
38534
38407
38516
38527
38291
38475
38476
38516
38509
38500
38506
38343
38503
38476
38492
38471
38443
38478
38479
38490
38500
38204
38445
38420
38483
38479
38479
38459
38387
38458
38443
38463
38471
38458
38471
38185
38423
38254
38431
38407
38445
38452
38443
38449
38207
38407
38423
38436
38439
38444
38449
38145
38404
38407
38433
38421
38407
38431
38422
38439
38431
38435
38197
38386
38356
38423
38415
38422
38426
38127
38386
38407
38407
38438
38321
38407
38403
38412
38421
38406
38423
38116
38407
38239
38362
38270
38371
38382
38383
38127
38399
38399
38407
38396
38353
38303
38399
38407
38407
38407
38395
38357
38247
38373
38309
38397
38383
38401
38412
38107
38358
38319
38383
38375
38402
38347
38407
38387
38397
38407
38404
38407
38179
38388
38399
38407
38407
38406
38407
38143
38353
38317
38398
38399
38407
38407
38407
38420
38245
38388
38239
38375
38305
38392
38345
38388
38407
38423
38431
38407
38431
38414
38407
38263
38407
38386
38407
38405
38407
38439
38433
38439
38194
38399
38401
38438
38429
38439
38449
38436
38452
38176
38399
38351
38429
38399
38436
38453
38460
38458
38167
38415
38221
38415
38365
38455
38447
38463
38462
38459
38476
38471
38476
38306
38431
38444
38479
38493
38202
38478
38478
38478
38479
38479
38471
38458
38443
38498
38493
38487
38459
38383
38503
38495
38220
38501
38242
38503
38503
38471
38383
38482
38431
38527
38498
38514
38507
38525
38495
38519
38395
38491
38244
38519
38324
38499
38535
38561
38547
38559
38547
38575
38556
38567
38552
38575
38564
38535
38299
38519
38434
38540
38535
38567
38564
38590
38569
38582
38598
38591
38580
38585
38583
38602
38591
38604
38570
38602
38606
38620
38619
38616
38604
38503
38612
38567
38626
38626
38620
38655
38647
38604
38571
38618
38657
38569
38671
38659
38647
38663
38663
38655
38630
38660
38596
38636
38386
38711
38695
38694
38691
38692
38663
38644
38689
38668
38714
38716
38709
38729
38735
38725
38733
38700
38739
38682
38718
38691
38733
38727
38759
38727
38731
38642
38718
38485
38772
38492
38779
38618
38780
38799
38799
38815
38805
38812
38816
38812
38535
38782
38827
38831
38823
38791
38727
38839
38831
38855
38844
38855
38860
38871
38855
38791
38869
38885
38877
38878
38836
38853
38871
38900
38885
38844
38814
38628
38911
38919
38869
38941
38919
38935
38910
38940
38919
38948
38963
38951
38964
38759
38916
38855
38948
38936
38974
38986
38992
38969
38919
38983
39007
38727
38983
38980
39005
38990
38918
38976
38935
39007
39012
39015
38807
38781
39043
39043
39031
39039
39047
39044
38999
39063
39060
39036
38980
38899
39069
39062
39047
38899
39062
39070
39079
39093
38977
39071
39079
39107
39108
38831
39077
39093
39109
39127
39117
39124
38903
39111
38886
39105
38980
39098
39070
39148
39097
39130
39135
39156
39157
39158
39128
39063
39155
39141
39175
39167
39175
39183
39175
39183
39204
39204
39209
39210
39209
39196
39207
39196
39175
39214
39223
39207
39196
39052
39221
39231
39239
39207
39243
39251
39227
39103
39246
39242
39260
39252
39277
39255
39247
39243
39134
39282
39279
39277
39240
39276
39298
39291
39292
39289
39284
39253
39215
39076
39310
39315
39303
39284
39311
39329
39311
39297
39231
39335
39326
39335
39332
39335
39343
39362
39355
39367
39351
39311
39295
39287
39151
39356
39338
39367
39385
39388
39376
39391
39356
39279
39255
39393
39399
39388
39399
39399
39396
39374
39399
39421
39405
39431
39206
39420
39247
39412
39388
39425
39401
39431
39415
39451
39212
39444
39447
39431
39460
39460
39431
39303
39466
39465
39448
39455
39444
39489
39468
39427
39473
39483
39479
39446
39431
39489
39495
39492
39477
39421
39492
39494
39500
39519
39341
39501
39517
39519
39520
39359
39508
39428
39511
39451
39527
39518
39535
39527
39543
39536
39543
39383
39547
39557
39555
39546
39547
39527
39551
39575
39572
39574
39573
39559
39525
39407
39569
39590
39415
39552
39549
39580
39575
39590
39583
39524
39597
39579
39599
39591
39599
39607
39619
39622
39399
39581
39487
39597
39586
39617
39622
39630
39623
39624
39620
39623
39615
39637
39623
39622
39639
39628
39625
39639
39645
39644
39534
39660
39648
39648
39627
39626
39659
39669
39665
39662
39615
39431
39676
39651
39674
39678
39666
39623
39534
39463
39685
39677
39670
39663
39677
39707
39700
39687
39675
39668
39590
39476
39716
39701
39711
39711
39699
39687
39687
39733
39727
39723
39733
39710
39605
39727
39727
39724
39700
39749
39755
39726
39729
39682
39753
39756
39750
39663
39751
39733
39774
39774
39767
39796
39590
39746
39692
39780
39788
39793
39758
39716
39789
39791
39582
39782
39783
39797
39815
39623
39786
39793
39815
39822
39823
39823
39847
39841
39831
39827
39850
39847
39850
39818
39759
39635
39852
39860
39855
39855
39844
39861
39842
39852
39849
39884
39892
39895
39892
39911
39901
39905
39911
39903
39878
39810
39732
39911
39919
39922
39925
39942
39919
39930
39903
39941
39943
39964
39943
39934
39962
39901
39964
39902
39985
39977
39975
39951
39966
39987
39941
39975
40007
39964
39975
40011
39983
40023
40012
39780
40016
40005
40043
39975
40047
40032
40060
40005
40047
40055
40061
40035
39999
40075
40079
40079
40079
40079
40077
40077
40090
40093
40068
40097
40128
40127
40132
40122
40124
40114
40094
40015
39943
39913
40142
40157
40167
40167
40174
40171
40166
40183
40172
40183
40172
40174
40221
40215
40223
40214
40207
40214
40217
40212
40167
40092
40015
40235
40250
40255
40259
40263
40030
40252
40167
40271
40252
40282
40302
40309
40303
40229
40319
40311
40314
40334
40309
40307
40159
40318
40351
40151
40348
40366
40364
40332
40323
40361
40391
40289
40382
40407
40414
40413
40401
40398
40420
40412
40428
40436
40447
40451
40452
40449
40447
40436
40429
40422
40444
40445
40455
40469
40482
40476
40479
40455
40476
40483
40484
40486
40529
40523
40495
40533
40535
40519
40508
40462
40407
40391
40374
40300
40570
40575
40573
40564
40599
40606
40599
40607
40615
40612
40602
40509
40597
40508
40604
40604
40636
40647
40653
40670
40647
40662
40677
40674
40668
40695
40685
40694
40573
40687
40522
40700
40703
40711
40729
40548
40711
40711
40734
40743
40757
40775
40756
40772
40775
40775
40599
40757
40751
40799
40805
40807
40785
40647
40798
40666
40812
40800
40828
40823
40830
40839
40851
40854
40861
40853
40863
40879
40857
40861
40634
40903
40887
40903
40894
40908
40901
40926
40923
40922
40922
40938
40940
40943
40936
40966
40951
40959
40947
40967
40847
40967
40967
40986
40998
40989
40734
41007
41006
41021
41020
40998
41023
41015
41009
40999
41023
40962
41026
40993
41053
41013
41043
40987
41047
40997
41063
41045
41076
41032
41086
41095
41091
41109
41110
41134
41120
41122
41111
41131
41128
41135
41124
41135
41150
41148
41158
41165
41156
41171
41173
41180
41175
41190
41180
41171
41191
41180
41199
41194
41197
41205
41211
41207
41217
41194
41219
41223
41223
41239
41223
41247
41095
41223
41211
41246
41246
41263
41275
41259
41260
41286
41260
41279
41266
41287
41287
41287
41289
41319
41274
41311
41295
41317
41263
41300
41236
41326
41314
41319
41343
41333
41337
41151
41331
41277
41335
41256
41331
41207
41335
41221
41342
41239
41330
41362
41383
41380
41373
41377
41207
41364
41405
41399
41159
41403
41397
41410
41299
41407
41365
41391
41287
41389
41303
41403
41181
41439
41431
41433
41233
41417
41305
41415
41259
41435
41367
41445
41431
41459
41440
41453
41463
41471
41463
41273
41455
41297
41447
41422
41452
41460
41476
41479
41474
41497
41477
41487
41292
41468
41415
41492
41422
41471
41407
41479
41431
41478
41380
41479
41326
41527
41511
41517
41303
41479
41479
41511
41532
41510
41496
41463
41511
41510
41527
41526
41517
41528
41527
41543
41533
41530
41325
41519
41318
41526
41542
41555
41543
41543
41540
41540
41551
41553
41543
41538
41533
41399
41559
41543
41550
41543
41551
41548
41565
41557
41571
41550
41562
41547
41566
41565
41575
41567
41538
41466
41559
41551
41559
41562
41564
41567
41428
41551
41454
41559
41556
41556
41564
41574
41550
41564
41548
41573
41527
41565
41555
41575
41573
41563
41557
41548
41553
41575
41559
41561
41510
41342
41566
41567
41543
41559
41575
41559
41543
41463
41380
41564
41559
41549
41583
41562
41535
41461
41556
41560
41549
41572
41569
41556
41519
41423
41413
41543
41551
41540
41542
41556
41558
41556
41521
41471
41439
41548
41534
41542
41527
41530
41524
41523
41550
41548
41543
41540
41543
41527
41524
41529
41532
41532
41493
41479
41503
41422
41524
41514
41511
41494
41519
41511
41513
41511
41439
41479
41511
41494
41479
41511
41492
41479
41478
41486
41455
41466
41468
41479
41462
41463
41479
41452
41473
41301
41447
41383
41432
41366
41431
41358
41415
41391
41432
41407
41420
41413
41406
41412
41415
41399
41404
41399
41396
41401
41383
41380
41383
41364
41372
41343
41366
41358
41375
41359
41351
41343
41343
41351
41330
41334
41301
41311
41256
41316
41251
41303
41255
41303
41299
41169
41291
41277
41277
41262
41265
41183
41247
41151
41269
41247
41223
41243
41223
41223
41191
41215
41223
41233
41211
41123
41204
41194
41191
41190
41125
41183
41175
41154
41161
41047
41167
41151
41117
41125
41133
41124
41125
41052
41103
41111
41127
41095
41103
41093
41076
41068
40991
41069
40989
41047
40966
41059
40999
41041
40981
41007
41013
41023
41021
40999
40997
41001
41002
40980
40987
40966
40956
40965
40961
40949
40959
40945
40935
40935
40922
40863
40912
40895
40897
40894
40887
40887
40879
40863
40863
40863
40846
40839
40839
40847
40830
40834
40817
40830
40699
40793
40711
40782
40725
40769
40756
40762
40750
40743
40756
40659
40711
40683
40708
40702
40698
40638
40679
40671
40676
40666
40661
40636
40594
40643
40607
40623
40623
40615
40615
40583
40605
40588
40583
40564
40564
40518
40548
40478
40542
40446
40519
40497
40490
40507
40508
40484
40398
40455
40439
40455
40447
40431
40434
40413
40428
40404
40412
40399
40404
40375
40367
40348
40359
40312
40341
40327
40327
40309
40310
40309
40230
40291
40263
40268
40260
40151
40242
40213
40236
40215
40206
40199
40144
40180
40172
40164
40142
40144
40145
40111
40123
40103
40092
40094
40087
40082
40031
40047
40055
40047
40027
40005
40006
40015
39990
39994
39940
39970
39957
39935
39943
39927
39933
39918
39908
39905
39847
39869
39861
39860
39848
39836
39840
39828
39815
39799
39799
39783
39771
39775
39633
39745
39711
39725
39735
39657
39700
39687
39671
39664
39658
39651
39627
39629
39613
39607
39602
39588
39583
39575
39559
39557
39551
39527
39533
39495
39503
39495
39473
39482
39447
39445
39458
39428
39421
39399
39399
39404
39343
39378
39361
39350
39348
39335
39315
39315
39301
39292
39277
39265
39263
39247
39231
39229
39221
39198
39191
39190
39175
39165
39159
39141
39132
39122
39118
39117
39089
39091
39079
39060
39056
39044
39039
39030
39020
39015
39007
38991
38987
38970
38964
38932
38919
38913
38910
38900
38890
38903
38875
38878
38855
38843
38843
38828
38759
38791
38780
38791
38772
38763
38759
38743
38735
38729
38698
38687
38695
38678
38655
38667
38628
38644
38636
38603
38607
38575
38586
38577
38567
38535
38534
38524
38517
38500
38501
38479
38474
38468
38466
38462
38439
38445
38407
38397
38388
38383
38372
38357
38349
38336
38327
38316
38308
38300
38303
38294
38265
38279
38269
38263
38245
38212
38195
38183
38183
38160
38151
38151
38141
38140
38127
38127
38119
38078
38074
38059
38055
38047
38031
38041
38003
38009
37979
37980
38004
37954
37954
37924
37930
37909
37895
37895
37877
37870
37895
37844
37861
37829
37828
37796
37805
37780
37795
37756
37759
37730
37735
37705
37707
37724
37687
37692
37654
37652
37629
37633
37673
37612
37631
37588
37583
37562
37557
37581
37531
37543
37505
37498
37545
37491
37508
37455
37471
37426
37444
37482
37418
37429
37383
37404
37351
37363
37327
37349
37311
37335
37294
37300
37269
37279
37245
37254
37236
37226
37193
37207
37263
37185
37191
37141
37151
37182
37121
37127
37086
37086
37127
37066
37079
37039
37039
37010
37027
36999
36987
37031
36971
37006
36949
36965
36918
36934
36899
36895
36954
36871
36909
36847
36866
36816
36831
36799
36807
36780
36783
36755
36756
36719
36731
36763
36713
36795
36687
36727
36667
36708
36638
36693
36631
36654
36580
36615
36569
36615
36550
36632
36530
36595
36503
36565
36484
36556
36463
36550
36445
36526
36423
36502
36399
36423
36359
36387
36342
36358
36415
36334
36343
36293
36288
36383
36265
36288
36242
36236
36313
36215
36253
36199
36231
36159
36251
36253
36127
36118
36103
36103
36092
36076
36081
36074
36100
36097
36132
36013
35997
35975
35975
35975
35951
35943
35943
35940
35916
35921
35922
35939
35974
35861
35847
35847
35830
35819
35825
35869
35892
35878
35751
35738
35719
35718
35717
35703
35695
35688
35690
35703
35719
35685
35748
35599
35593
35598
35582
35599
35666
35551
35527
35531
35501
35508
35519
35547
35591
35460
35431
35508
35420
35406
35508
35415
35386
35357
35373
35341
35328
35443
35316
35367
35299
35397
35268
35242
35239
35223
35239
35207
35196
35273
35180
35199
35162
35143
35220
35132
35107
35095
35094
35078
35066
35079
35119
35133
35013
35017
35009
34983
34975
34968
34983
34958
34927
34927
34908
34900
34919
34876
34862
34863
34839
34839
34822
34807
34858
34797
34850
34771
34802
34730
34758
34708
34703
34703
34687
34677
34671
34655
34660
34623
34628
34716
34606
34689
34583
34678
34558
34597
34516
34541
34499
34503
34481
34483
34459
34461
34439
34436
34408
34406
34383
34397
34375
34375
34351
34351
34332
34325
34420
34295
34382
34281
34348
34255
34279
34223
34231
34198
34199
34173
34173
34155
34171
34132
34143
34111
34103
34095
34080
34155
34068
34044
34086
34023
34104
34021
34039
33978
34031
33957
33948
34003
33927
34011
33908
33967
33887
33921
33860
33895
33839
33855
33819
33829
33791
33790
33773
33758
33815
33727
33799
33713
33748
33689
33671
33663
33639
33654
33695
33613
33625
33598
33592
33671
33577
33586
33540
33535
33608
33513
33517
33571
33485
33524
33461
33471
33436
33429
33461
33407
33403
33369
33379
33403
33350
33363
33333
33340
33305
33317
33286
33286
33253
33255
33237
33223
33287
33214
33244
33189
33213
33164
33184
33142
33151
33106
33126
33095
33117
33083
33103
33051
33103
33029
33071
33015
32985
33007
32978
32996
32959
32966
32927
32935
32892
32911
32886
32900
32861
32871
32847
32852
32827
32830
32791
32799
32771
32765
32742
32748
32720
32724
32687
32693
32703
32663
32689
32636
32631
32607
32597
32639
32588
32612
32557
32583
32530
32547
32509
32501
32468
32467
32462
32452
32438
32426
32426
32431
32420
32413
32357
32330
32332
32315
32307
32284
32285
32276
32263
32236
32236
32220
32204
32197
32186
32182
32167
32158
32135
32127
32113
32106
32107
32095
32092
32075
32070
32066
32028
32029
31971
32001
31966
31958
31940
31927
31916
31900
31894
31879
31863
31854
31843
31832
31828
31810
31799
31793
31781
31745
31735
31719
31727
31735
31698
31694
31671
31659
31661
31631
31638
31607
31602
31581
31581
31567
31543
31551
31523
31524
31503
31510
31468
31469
31438
31438
31428
31407
31404
31372
31377
31371
31341
31343
31327
31316
31290
31282
31280
31260
31256
31239
31230
31213
31199
31182
31170
31161
31142
31135
31125
31108
31095
31099
31079
31057
31052
31022
31015
30999
30999
30986
30967
30959
30943
30940
30924
30901
30900
30879
30866
30855
30853
30835
30822
30797
30791
30781
30772
30764
30749
30739
30711
30711
30687
30679
30648
30657
30628
30637
30617
30605
30583
30580
30568
30553
30547
30525
30526
30439
30490
30471
30449
30457
30417
30423
30393
30391
30399
30375
30361
30343
30339
30317
30316
30299
30273
30295
30260
30245
30215
30215
30204
30180
30182
30155
30155
30133
30121
30100
30103
30078
30071
30068
30048
30019
30014
30007
29986
29982
29970
29946
29940
29905
29916
29919
29893
29886
29841
29844
29817
29811
29783
29791
29774
29771
29718
29741
29689
29723
29694
29686
29670
29659
29644
29647
29626
29607
29598
29579
29575
29557
29535
29534
29505
29506
29476
29479
29456
29447
29423
29421
29398
29391
29387
29366
29357
29343
29319
29311
29303
29279
29284
29259
29250
29181
29223
29204
29191
29173
29179
29143
29154
29124
29125
29103
29089
29074
29061
29029
29037
28956
29003
28972
28985
28965
28943
28953
28916
28907
28897
28892
28870
28855
28844
28818
28822
28787
28787
28755
28750
28714
28727
28700
28711
28677
28679
28654
28655
28636
28629
28612
28591
28577
28559
28567
28536
28540
28519
28507
28466
28486
28452
28453
28447
28431
28401
28391
28388
28367
28366
28335
28332
28297
28315
28295
28284
28269
28252
28241
28223
28201
28202
28167
28181
28157
28167
28122
28112
28111
28084
28084
28050
28063
28034
28038
28004
28005
27996
27976
27932
27954
27935
27916
27892
27903
27883
27868
27866
27839
27845
27812
27813
27814
27783
27783
27754
27756
27729
27725
27704
27701
27686
27679
27655
27653
27625
27622
27599
27603
27527
27564
27539
27546
27527
27518
27503
27506
27476
27469
27460
27445
27428
27423
27391
27399
27383
27368
27367
27339
27335
27327
27316
27287
27300
27264
27263
27236
27244
27223
27211
27203
27189
27179
27164
27159
27153
27127
27110
27091
27093
27075
27070
27046
27046
27023
27023
27007
26993
26975
26970
26951
26949
26943
26913
26902
26900
26879
26871
26855
26853
26827
26823
26814
26795
26753
26773
26759
26759
26727
26732
26731
26708
26703
26690
26680
26652
26662
26644
26631
26613
26605
26607
26582
26567
26555
26538
26545
26511
26509
26495
26492
26479
26474
26455
26437
26447
26415
26406
26389
26394
26383
26361
26352
26340
26339
26313
26308
26303
26279
26281
26273
26255
26247
26227
26238
26199
26206
26188
26176
26161
26163
26151
26132
26109
26109
26086
26095
26074
26073
26044
26065
26033
26026
26017
26012
25998
25991
25972
25972
25942
25929
25926
25914
25911
25884
25889
25863
25871
25853
25859
25831
25845
25802
25788
25796
25765
25771
25756
25755
25736
25759
25714
25732
25693
25709
25667
25700
25656
25670
25636
25642
25625
25618
25604
25607
25567
25570
25582
25547
25559
25517
25541
25504
25503
25484
25486
25465
25463
25446
25439
25420
25431
25415
25409
25383
25383
25359
25372
25342
25367
25332
25345
25319
25334
25295
25278
25281
25260
25262
25237
25244
25223
25239
25213
25196
25182
25203
25175
25163
25175
25147
25157
25125
25147
25103
25106
25087
25007
25061
25095
25050
25072
25031
25017
25019
25035
25002
24999
24983
24977
24961
24965
24941
24946
24925
24910
24911
24911
24887
24880
24871
24860
24881
24846
24866
24835
24839
24812
24815
24793
24792
24775
24775
24799
24756
24772
24740
24734
24723
24724
24706
24726
24700
24675
24665
24662
24674
24652
24665
24634
24646
24612
24619
24606
24623
24580
24583
24567
24570
24559
24574
24534
24540
24518
24519
24501
24515
24493
24479
24476
24471
24458
24462
24359
24437
24397
24423
24455
24418
24407
24388
24397
24385
24374
24410
24360
24394
24351
24375
24325
24344
24316
24302
24335
24293
24311
24292
24289
24261
24274
24243
24251
24287
24231
24243
24216
24215
24201
24194
24214
24189
24180
24167
24172
24155
24157
24143
24135
24159
24125
24122
24104
24098
24141
24091
24101
24067
24071
24058
24051
24071
24046
24045
24023
24023
24009
24018
24045
24000
23985
23986
23975
23983
23956
23965
23975
23950
23947
23927
23942
23983
23933
23903
23911
23947
23897
23914
23891
23890
23874
23876
23856
23858
23906
23846
23875
23841
23828
23812
23831
23805
23803
23857
23795
23823
23782
23814
23777
23772
23770
23759
23808
23754
23753
23732
23741
23727
23719
23729
23711
23723
23700
23695
23648
23689
23749
23686
23693
23666
23679
23651
23668
23655
23655
23628
23643
23618
23622
23618
23613
23610
23611
23601
23605
23637
23588
23595
23583
23591
23569
23575
23559
23559
23559
23556
23577
23539
23543
23535
23542
23559
23530
23527
23521
23518
23543
23509
23511
23498
23495
23485
23493
23517
23487
23500
23479
23482
23463
23472
23463
23462
23444
23459
23503
23441
23454
23437
23436
23466
23423
23453
23418
23431
23420
23413
23465
23409
23430
23396
23396
23381
23392
23383
23431
23385
23395
23367
23366
23356
23367
23398
23365
23367
23399
23363
23378
23343
23346
23337
23348
23340
23319
23332
23383
23327
23372
23326
23324
23309
23316
23298
23319
23368
23304
23343
23304
23319
23293
23302
23287
23302
23265
23282
23261
23274
23339
23265
23271
23253
23255
23243
23249
23236
23247
23235
23241
23265
23237
23236
23215
23219
23302
23222
23249
23211
23250
23210
23239
23198
23229
23202
23218
23199
23207
23182
23189
23264
23186
23228
23174
23186
23167
23175
23207
23169
23188
23159
23172
23157
23165
23212
23159
23185
23152
23175
23146
23167
23149
23173
23148
23182
23141
23172
23143
23219
23148
23188
23142
23185
23126
23164
23130
23140
23124
23126
23112
23125
23117
23151
23132
23154
23123
23106
23123
23117
23143
23115
23177
23111
23177
23115
23168
23109
23176
23104
23188
23111
23194
23109
23101
23127
23100
23167
23101
23173
23094
23135
23087
23124
23095
23109
23092
23106
23090
23125
23086
23145
23095
23110
23086
23091
23138
23078
23137
23079
23175
23085
23156
23090
23142
23080
23102
23081
23101
23083
23097
23087
23104
23077
23088
23079
23087
23114
23091
23131
23090
23135
23089
23122
23082
23124
23087
23086
23079
23086
23076
23087
23109
23088
23093
23096
23095
23091
23098
23133
23183
23085
23084
23089
23103
23106
23103
23103
23098
23094
23108
23089
23097
23188
23107
23167
23083
23103
23199
23112
23143
23114
23125
23113
23117
23099
23111
23171
23125
23185
23110
23156
23119
23166
23126
23155
23123
23208
23128
23175
23127
23118
23126
23114
23135
23119
23132
23123
23140
23183
23133
23145
23132
23143
23134
23155
23106
23151
23198
23154
23166
23140
23166
23145
23146
23238
23157
23228
23159
23170
23155
23168
23226
23160
23175
23174
23172
23156
23180
23224
23170
23175
23180
23189
23228
23181
23181
23175
23192
23269
23196
23266
23202
23302
23206
23260
23201
23238
23201
23217
23205
23215
23200
23208
23210
23207
23215
23261
23230
23324
23231
23213
23238
23328
23238
23317
23239
23316
23251
23332
23253
23297
23249
23274
23255
23259
23250
23260
23241
23269
23260
23274
23337
23285
23325
23283
23338
23292
23311
23290
23315
23287
23305
23295
23298
23291
23314
23375
23315
23414
23329
23311
23324
23316
23335
23324
23337
23303
23343
23426
23350
23408
23355
23393
23364
23370
23344
23363
23429
23378
23411
23383
23391
23385
23391
23390
23406
23391
23410
23397
23412
23493
23425
23460
23427
23460
23427
23452
23439
23450
23553
23452
23492
23463
23471
23461
23473
23467
23479
23582
23493
23556
23495
23527
23497
23523
23511
23519
23510
23542
23519
23540
23578
23535
23570
23550
23583
23551
23575
23567
23588
23574
23594
23583
23604
23595
23596
23604
23615
23615
23623
23702
23641
23708
23655
23668
23647
23666
23657
23674
23663
23687
23783
23700
23741
23703
23724
23706
23714
23711
23729
23716
23750
23742
23755
23751
23773
23839
23780
23828
23787
23819
23779
23801
23798
23810
23900
23820
23860
23836
23843
23839
23861
23920
23865
23898
23879
23889
23918
23889
23901
23977
23913
23932
23914
23937
24031
23954
23975
23958
23974
23975
23977
23986
23997
24013
24007
24033
24055
24066
24077
24087
24133
24154
24133
24149
24150
24163
24174
24199
24092
24110
24097
24114
24125
24138
24158
24155
24155
24172
24173
24193
24187
24213
24195
24214
24198
24223
24286
24244
24251
24251
24256
24365
24287
24327
24294
24302
24307
24311
24407
24333
24397
24359
24363
24353
24362
24403
24381
24391
24455
24411
24425
24421
24431
24426
24452
24535
24471
24499
24468
24495
24487
24500
24597
24519
24559
24533
24546
24543
24548
24643
24583
24611
24583
24599
24671
24620
24637
24624
24645
24672
24650
24665
24765
24693
24703
24709
24717
24699
24733
24799
24747
24789
24765
24804
24772
24792
24783
24802
24870
24827
24852
24831
24849
24845
24871
24941
24885
24921
24899
24913
24910
24930
24933
24950
24967
24967
24979
24993
24996
25028
25067
25013
25031
25030
25058
25063
25070
25107
25155
25108
25107
25123
25119
25142
25148
25157
25148
25174
25275
25195
25210
25206
25225
25223
25234
25222
25261
25348
25284
25359
25297
25335
25316
25335
25335
25344
25345
25361
25414
25388
25439
25399
25423
25419
25447
25434
25465
25469
25489
25540
25498
25511
25503
25517
25577
25541
25563
25556
25585
25613
25607
25670
25631
25640
25635
25655
25652
25678
25711
25701
25743
25704
25726
25797
25746
25824
25761
25849
25784
25863
25808
25852
25826
25862
25851
25870
25863
25895
25879
25899
25959
25921
25950
25943
25959
25950
25975
25974
26001
26075
26018
26095
26041
26091
26062
26086
26073
26087
26087
26119
26148
26137
26158
26149
26170
26221
26202
26215
26213
26239
26232
26260
26245
26279
26332
26301
26334
26311
26342
26332
26351
26358
26382
26375
26408
26404
26434
26420
26445
26440
26454
26455
26491
26549
26510
26538
26529
26569
26533
26561
26568
26587
26591
26619
26609
26630
26629
26655
26726
26681
26749
26703
26733
26723
26743
26741
26751
26759
26780
26828
26800
26821
26870
26839
26876
26862
26895
26878
26903
26951
26922
26951
26943
26959
26956
26995
26970
26999
27047
27028
27046
27052
27074
27095
27084
27135
27101
27131
27127
27157
27143
27175
27239
27197
27231
27217
27238
27233
27258
27252
27279
27293
27286
27316
27325
27336
27388
27364
27402
27388
27415
27411
27431
27479
27452
27490
27474
27485
27483
27507
27548
27531
27559
27558
27575
27577
27591
27636
27623
27655
27652
27670
27655
27678
27713
27707
27733
27724
27743
27772
27770
27796
27809
27839
27815
27851
27853
27868
27868
27894
27892
27911
27911
27933
27935
27962
27970
28004
27999
28006
28038
28036
28059
28057
28077
28085
28101
28101
28117
28119
28146
28187
28167
28205
28197
28230
28221
28247
28245
28266
28271
28290
28291
28318
28318
28337
28337
28364
28391
28383
28416
28415
28439
28423
28466
28461
28487
28494
28511
28513
28535
28537
28565
28563
28591
28601
28611
28634
28627
28650
28655
28679
28679
28706
28705
28727
28732
28766
28767
28783
28782
28799
28818
28834
28845
28860
28868
28887
28891
28911
28915
28943
28942
28958
28979
28980
28994
29002
29023
29026
29047
29071
29084
29097
29107
29120
29126
29131
29143
29171
29161
29185
29198
29215
29216
29236
29253
29269
29274
29301
29306
29327
29319
29334
29338
29383
29362
29392
29407
29422
29421
29435
29441
29460
29485
29493
29487
29516
29514
29548
29548
29551
29567
29591
29591
29605
29615
29631
29650
29649
29676
29664
29700
29703
29724
29734
29743
29743
29775
29725
29797
29735
29815
29828
29839
29847
29868
29891
29893
29911
29915
29946
29943
29953
29955
29972
29988
30021
30023
30023
30054
30049
30071
30055
30087
30092
30111
30131
30142
30135
30165
30181
30197
30195
30209
30238
30237
30255
30263
30279
30276
30303
30311
30333
30343
30354
30350
30374
30375
30410
30398
30429
30439
30463
30458
30445
30503
30503
30507
30507
30556
30555
30566
30590
30531
30612
30576
30639
30639
30654
30654
30679
30693
30711
30663
30727
30735
30759
30767
30789
30781
30800
30803
30823
30799
30840
30828
30872
30858
30896
30865
30914
30852
30959
30954
30983
30979
31003
30999
31021
30999
31040
31052
31074
31079
31097
31111
31112
31135
31108
31159
31141
31177
31151
31207
31188
31234
31214
31257
31239
31278
31287
31303
31316
31332
31349
31303
31372
31354
31393
31399
31404
31436
31436
31463
31414
31477
31489
31511
31511
31537
31532
31551
31558
31573
31594
31559
31599
31623
31644
31609
31655
31623
31687
31659
31719
31713
31735
31750
31695
31773
31776
31799
31815
31805
31847
31841
31871
31878
31895
31900
31918
31910
31943
31933
31956
31964
31992
31991
32001
32020
32026
32044
32047
31992
32071
32079
32117
32103
32129
32140
32127
32151
32111
32183
32186
32215
32223
32229
32233
32236
32255
32211
32282
32191
32314
32334
32327
32351
32285
32385
32384
32393
32404
32391
32425
32375
32443
32375
32494
32484
32501
32514
32493
32528
32483
32559
32493
32586
32587
32610
32614
32625
32631
32609
32658
32599
32683
32695
32715
32708
32735
32741
32692
32757
32688
32787
32796
32822
32825
32823
32849
32791
32887
32887
32871
32919
32887
32927
32867
32948
32943
32987
32987
33007
32981
33028
32958
33049
32967
33063
33076
33100
33102
33135
33137
33145
33012
33167
33172
33195
33204
33215
33213
33249
33140
33254
33186
33279
33222
33300
33255
33332
33319
33356
33359
33378
33401
33405
33427
33343
33435
33357
33465
33453
33498
33507
33510
33537
33423
33535
33495
33575
33543
33604
33604
33630
33636
33652
33670
33663
33698
33693
33699
33727
33719
33748
33752
33769
33769
33790
33783
33821
33799
33853
33837
33871
33873
33893
33917
33916
33919
33857
33944
33890
33959
33940
34012
34002
34031
34055
33914
34054
34022
34091
34055
34116
34116
34139
34167
34053
34183
34153
34209
34213
34231
34229
34260
34279
34280
34303
34311
34335
34172
34328
34309
34366
34359
34405
34399
34439
34439
34439
34491
34356
34486
34471
34511
34499
34540
34526
34564
34575
34589
34597
34613
34631
34647
34661
34618
34676
34695
34695
34717
34690
34747
34710
34772
34770
34799
34716
34839
34836
34823
34863
34847
34885
34846
34908
34906
34929
34931
34959
34935
35007
34980
35023
35014
35046
35076
34942
35092
35093
35103
35134
35143
35133
35079
35163
35142
35201
35196
35227
35252
35252
35270
35186
35286
35289
35327
35303
35348
35358
35383
35383
35396
35421
35349
35434
35428
35477
35476
35495
35502
35524
35523
35542
35575
35405
35589
35439
35604
35471
35623
35579
35656
35588
35687
35679
35720
35684
35747
35735
35773
35787
35800
35822
35819
35842
35845
35877
35710
35875
35779
35919
35776
35921
35819
35959
35867
35974
35927
36009
35940
36033
35935
36080
36092
36111
36126
36135
36143
36103
36143
36039
36196
36203
36215
36231
36191
36249
36229
36271
36282
36249
36311
36261
36349
36339
36383
36391
36398
36414
36419
36426
36453
36447
36482
36500
36508
36517
36415
36532
36543
36567
36589
36600
36596
36551
36639
36631
36664
36687
36700
36708
36690
36683
36643
36758
36775
36783
36796
36810
36815
36839
36860
36871
36884
36895
36871
36807
36927
36941
36954
36961
36966
36981
36999
37031
37047
37062
37071
37095
37097
37100
37095
37035
37140
37151
37150
37173
37199
37206
37206
37175
37141
37106
37268
37284
37295
37157
37301
37255
37347
37323
37369
37373
37396
37409
37424
37451
37332
37459
37482
37478
37493
37414
37524
37524
37548
37567
37577
37581
37607
37631
37638
37639
37558
37661
37671
37691
37703
37738
37567
37731
37735
37781
37781
37807
37822
37661
37835
37837
37850
37874
37879
37919
37847
37921
37933
37951
37983
37975
37979
37980
38017
38032
38044
38051
37911
38062
38080
38103
38093
38090
38135
38151
38160
38151
38151
38207
38197
38225
38221
38255
38244
38273
38287
38284
38311
38322
38342
38350
38361
38369
38375
38383
38407
38417
38447
38255
38439
38381
38474
38479
38502
38527
38535
38559
38447
38567
38589
38580
38583
38575
38619
38655
38653
38648
38601
38687
38701
38557
38708
38727
38738
38754
38766
38780
38805
38731
38818
38816
38662
38842
38838
38868
38894
38901
38913
38919
38940
38959
38973
38823
38972
38975
39005
39019
39023
39055
39047
39047
39052
39076
39099
39103
39122
39124
39141
39012
39157
39025
39167
39055
39197
39066
39225
39131
39247
39139
39271
39250
39303
39319
39331
39331
39319
39359
39391
39383
39396
39255
39401
39421
39431
39441
39407
39471
39501
39405
39507
39509
39533
39559
39444
39556
39559
39579
39601
39622
39617
39633
39478
39647
39581
39674
39687
39708
39727
39527
39713
39686
39747
39756
39772
39799
39799
39807
39813
39739
39719
39741
39687
39687
39724
39727
39892
39910
39920
39943
39797
39786
39983
39809
39858
39847
39943
39927
39967
39975
40032
40067
40089
40087
40101
40132
40141
40155
40149
40159
40163
40172
40182
40160
40111
40221
40243
40128
40193
40257
40269
40284
40308
40295
40327
40335
40334
40335
40374
40366
40375
40373
40388
40391
40411
40416
40431
40431
40455
40484
40504
40508
40508
40524
40535
40549
40567
40581
40580
40589
40603
40602
40598
40604
40621
40637
40647
40663
40538
40679
40663
40703
40685
40726
40709
40741
40751
40758
40767
40774
40780
40804
40823
40831
40847
40844
40863
40692
40888
40780
40889
40887
40917
40935
40920
40943
40827
40954
40837
40967
40848
40982
40946
41007
40960
41039
41006
41063
41084
40925
41079
41061
41095
41092
41119
41130
41142
41159
40967
41178
41173
41183
41070
41180
41159
41223
41199
41238
41223
41252
41216
41253
41255
41283
41295
41315
41307
41321
41327
41325
41343
41219
41351
41303
41369
41295
41386
41363
41415
41410
41415
41436
41449
41436
41472
41478
41465
41479
41493
41501
41507
41527
41520
41541
41541
41399
41539
41359
41574
41469
41575
41548
41583
41508
41603
41573
41623
41605
41639
41607
41658
41668
41670
41703
41692
41688
41650
41716
41735
41734
41735
41541
41758
41585
41759
41711
41787
41735
41799
41791
41813
41797
41830
41815
41847
41802
41852
41828
41863
41870
41887
41882
41898
41916
41908
41935
41819
41934
41950
41951
41964
41965
41960
41945
41991
42005
41934
42006
42031
41955
42033
42047
41934
42047
42052
42060
42071
42079
42094
41945
42095
42101
42108
42111
42069
42141
42133
42159
42157
42135
42137
42175
42183
42196
42175
42092
42186
42151
42198
42187
42237
42239
42243
42247
42257
42247
42236
42279
42279
42283
42298
42107
42293
42290
42298
42319
42334
42352
42335
42348
42348
42355
42351
42375
42243
42375
42399
42397
42394
42247
42402
42403
42412
42412
42398
42429
42432
42439
42452
42308
42452
42455
42471
42476
42487
42503
42490
42503
42503
42495
42356
42503
42421
42534
42519
42547
42541
42551
42572
42431
42559
42564
42575
42587
42407
42575
42567
42613
42595
42620
42631
42619
42629
42631
42650
42653
42630
42590
42650
42580
42653
42634
42669
42674
42679
42682
42692
42692
42708
42684
42639
42692
42699
42727
42735
42727
42730
42623
42727
42651
42743
42710
42743
42747
42766
42776
42774
42791
42599
42775
42716
42791
42794
42804
42798
42657
42791
42732
42805
42703
42826
42663
42823
42719
42828
42718
42836
42743
42830
42804
42856
42807
42862
42847
42865
42865
42884
42874
42886
42901
42897
42908
42900
42901
42915
42927
42906
42927
42743
42911
42863
42924
42918
42932
42934
42783
42927
42908
42937
42951
42949
42972
42839
42965
42871
42956
42902
42965
42948
42991
42964
42980
42983
42988
42980
42977
42986
42996
43007
43014
43005
43007
43003
43014
42927
43014
43013
43015
43015
43015
43009
43028
43036
43047
43036
43045
43044
43047
43061
43046
43055
43058
43044
43063
43052
43068
43037
43071
43033
43068
43076
43108
43090
43098
43087
43068
43092
42975
43099
43106
43113
43097
43117
43110
43105
43124
43079
43096
43124
43135
43128
43140
43136
43124
43140
43143
43130
43108
43157
43143
43173
43164
43167
43151
43159
43170
43108
43165
43058
43182
43178
43191
43168
43182
43180
43204
43183
43183
43118
43202
43171
43191
43101
43179
43140
43191
43116
43218
43143
43219
43206
43228
43213
43230
43232
43234
43250
43087
43220
43062
43255
43233
43263
43246
43242
43132
43242
43127
43249
43127
43258
43094
43271
43107
43271
43156
43293
43266
43293
43281
43292
43271
43271
43271
43295
43295
43296
43299
43305
43300
43303
43303
43304
43198
43289
43271
43303
43239
43311
43188
43335
43175
43349
43327
43335
43327
43343
43327
43193
43315
43341
43330
43348
43343
43332
43343
43351
43348
43357
43351
43351
43362
43348
43348
43349
43363
43375
43351
43362
43367
43367
43365
43372
43373
43367
43304
43364
43356
43375
43383
43382
43386
43383
43382
43380
43371
43396
43381
43397
43375
43383
43378
43389
43398
43394
43407
43395
43395
43360
43413
43413
43417
43415
43413
43415
43407
43426
43335
43425
43367
43429
43419
43420
43422
43431
43375
43421
43435
43437
43431
43349
43436
43399
43439
43420
43431
43444
43439
43461
43439
43453
43370
43428
43412
43457
43455
43447
43431
43447
43460
43458
43404
43462
43463
43459
43477
43396
43461
43464
43447
43463
43399
43459
43479
43459
43479
43324
43455
43437
43469
43462
43471
43488
43393
43474
43462
43485
43477
43476
43476
43478
43493
43397
43490
43471
43487
43484
43492
43476
43418
43493
43495
43492
43500
43502
43479
43429
43495
43506
43492
43495
43422
43509
43492
43493
43498
43506
43503
43509
43504
43516
43399
43503
43493
43510
43499
43508
43509
43509
43509
43517
43523
43511
43524
43391
43498
43367
43516
43415
43510
43471
43503
43502
43524
43511
43523
43527
43519
43511
43511
43527
43511
43527
43511
43534
43415
43525
43463
43522
43527
43521
43526
43523
43527
43527
43543
43523
43527
43518
43527
43527
43519
43524
43516
43540
43527
43520
43551
43399
43519
43484
43527
43527
43527
43557
43396
43523
43487
43519
43455
43527
43489
43526
43526
43527
43527
43351
43520
43399
43527
43470
43527
43503
43534
43527
43527
43527
43431
43515
43470
43512
43449
43519
43398
43524
43527
43551
43523
43536
43542
43511
43519
43527
43549
43527
43545
43362
43514
43488
43509
43452
43521
43519
43527
43509
43524
43526
43526
43547
43527
43526
43527
43527
43518
43538
43527
43527
43519
43527
43335
43515
43441
43508
43455
43511
43492
43527
43527
43519
43527
43349
43502
43389
43494
43441
43511
43508
43513
43524
43519
43495
43460
43516
43519
43500
43495
43473
43509
43522
43503
43519
43510
43516
43503
43513
43503
43510
43493
43514
43503
43503
43499
43511
43495
43500
43500
43485
43460
43500
43500
43495
43484
43487
43492
43493
43491
43489
43479
43487
43502
43479
43463
43467
43482
43493
43492
43454
43452
43482
43479
43484
43479
43470
43499
43287
43455
43243
43466
43478
43474
43469
43485
43325
43453
43410
43461
43456
43469
43463
43335
43441
43430
43455
43475
43449
43462
43295
43429
43399
43439
43436
43446
43431
43348
43421
43352
43435
43438
43436
43426
43296
43430
43399
43420
43436
43422
43436
43175
43412
43423
43431
43430
43421
43423
43421
43423
43161
43388
43296
43398
43374
43399
43412
43389
43397
43311
43384
43399
43399
43359
43327
43390
43399
43391
43355
43324
43381
43375
43373
43391
43368
43388
43382
43387
43372
43363
43101
43349
43189
43335
43144
43364
43349
43359
43351
43323
43151
43310
43343
43334
43355
43138
43295
43302
43316
43332
43308
43318
43325
43199
43007
43294
43289
43285
43254
43287
43299
43271
43271
43258
43261
43244
43196
43084
43055
43259
43246
43236
43218
43252
43235
43074
43027
42951
43214
43187
43215
43207
43228
43223
43186
43082
43197
43191
43189
43208
43191
43143
43111
43183
43174
43175
43166
43167
43165
43157
43172
42844
43109
43110
43142
43116
43143
43137
43132
43127
42925
43111
42941
42911
43107
43113
43093
43079
43103
43044
42847
43079
43071
43055
43082
43073
43071
43069
43061
43079
43053
43045
42948
43036
43048
42876
43015
43038
43015
42999
42901
43007
43015
42688
42951
42991
42999
42993
42684
42953
42911
42964
42978
42957
42964
42772
42943
42926
42943
42944
42935
42892
42863
42916
42911
42916
42932
42601
42900
42597
42863
42671
42871
42615
42887
42887
42882
42645
42823
42727
42831
42804
42834
42825
42846
42829
42823
42826
42822
42823
42498
42759
42799
42796
42783
42783
42759
42777
42775
42759
42774
42751
42759
42583
42708
42639
42727
42703
42727
42718
42711
42687
42687
42619
42669
42687
42691
42695
42351
42615
42630
42663
42659
42647
42663
42641
42639
42391
42579
42541
42607
42575
42607
42618
42591
42612
42287
42551
42579
42559
42567
42230
42503
42481
42543
42548
42539
42534
42503
42469
42444
42503
42502
42455
42500
42480
42431
42364
42183
42463
42452
42437
42439
42429
42388
42421
42415
42362
42316
42212
42168
42375
42375
42359
42363
42351
42346
42303
42292
42319
42339
42327
42309
42260
42304
42286
42287
42151
42276
42256
42247
42262
42234
42196
42200
42213
42231
42207
42143
42170
42183
42191
41924
42119
42028
42141
42146
42138
42135
42127
42143
41799
42098
41793
42083
41767
42063
41767
42031
41732
42039
41860
41990
41991
42020
42008
42004
41991
41983
41975
41965
41975
41962
41960
41943
41945
41599
41891
41908
41914
41911
41655
41823
41770
41858
41857
41852
41863
41845
41837
41821
41825
41821
41799
41604
41735
41667
41758
41765
41743
41759
41541
41721
41727
41713
41719
41694
41695
41479
41639
41543
41644
41636
41643
41647
41623
41627
41620
41621
41602
41574
41495
41562
41556
41559
41543
41543
41543
41530
41540
41519
41508
41207
41435
41396
41438
41421
41455
41440
41444
41453
41417
41444
41415
41407
41399
41379
41147
41351
41309
41341
41317
41332
41327
41337
41332
41321
41311
41271
41293
40967
41223
41039
41220
41207
41223
41220
41222
41210
41211
41199
41197
41204
41183
40988
41167
41155
41062
41095
41135
41124
41110
41068
41092
41095
41082
41090
40775
41025
41023
41045
40988
41015
41005
41014
41005
41008
40852
40999
40978
40708
40966
40951
40710
40951
40941
40834
40919
40907
40901
40912
40895
40892
40569
40857
40615
40827
40759
40816
40807
40828
40821
40815
40820
40796
40799
40775
40791
40765
40753
40759
40749
40731
40729
40711
40711
40701
40694
40677
40661
40661
40648
40660
40643
40638
40639
40623
40588
40591
40549
40583
40513
40567
40565
40567
40524
40526
40503
40503
40407
40508
40436
40468
40413
40489
40455
40470
40472
40455
40479
40444
40407
40300
40388
40406
40415
40391
40401
40389
40389
40391
40381
40377
40363
40335
40340
40349
40332
40324
40310
40324
40308
40301
40283
40295
40270
40276
40260
40256
40260
40242
40223
40231
40215
40223
39932
40163
40124
40164
40131
40135
40087
40126
40045
40110
39989
40097
39863
40119
40111
40086
40079
40003
40051
40069
40058
40053
40068
40039
40038
40028
40017
40012
39991
39983
39975
39982
39943
39943
39732
39927
39878
39927
39917
39927
39919
39927
39908
39911
39911
39632
39857
39815
39806
39679
39703
39854
39844
39838
39839
39828
39815
39783
39767
39806
39791
39783
39751
39717
39645
39756
39754
39755
39742
39751
39722
39715
39724
39726
39698
39532
39696
39685
39644
39453
39638
39496
39623
39612
39652
39647
39627
39631
39619
39598
39525
39609
39602
39333
39542
39413
39540
39534
39555
39556
39555
39535
39533
39527
39529
39530
39515
39511
39499
39495
39266
39460
39223
39467
39295
39431
39402
39449
39431
39431
39415
39431
39415
39421
39396
39415
39398
39399
39398
39133
39348
39227
39335
39226
39324
39226
39327
39268
39335
39316
39319
39321
39319
39316
39296
39303
39300
39303
39121
39249
39167
39287
39259
39235
39157
39239
39168
39231
39239
39227
39239
39221
39224
38961
39191
39070
39178
39156
39187
39164
39158
39185
39169
39166
39151
39151
38892
39096
38989
39108
39047
39108
39099
39108
39111
38905
39081
39061
39087
39079
39079
39077
38871
39024
39031
39047
39047
39044
39055
38791
38993
39007
39021
39031
39015
38981
38954
39004
39013
38754
38974
38974
38996
38963
38885
38972
38968
38951
38913
38919
38919
38914
38847
38673
38936
38935
38919
38887
38911
38906
38900
38870
38855
38799
38703
38791
38878
38878
38871
38864
38732
38870
38875
38758
38855
38868
38849
38847
38839
38815
38727
38767
38791
38711
38805
38757
38788
38759
38803
38781
38791
38780
38777
38782
38780
38781
38765
38785
38773
38760
38767
38733
38764
38748
38745
38767
38543
38735
38748
38484
38711
38720
38737
38724
38549
38706
38693
38727
38709
38703
38707
38532
38692
38691
38692
38658
38608
38676
38663
38670
38679
38675
38673
38660
38671
38511
38656
38647
38658
38662
38476
38645
38629
38631
38654
38388
38600
38597
38625
38594
38610
38628
38612
38626
38602
38594
38497
38603
38596
38599
38597
38591
38604
38479
38591
38580
38580
38550
38535
38575
38559
38529
38564
38581
38370
38556
38519
38567
38551
38551
38559
38543
38556
38381
38540
38501
38543
38555
38447
38535
38543
38530
38539
38532
38519
38375
38505
38503
38529
38521
38506
38519
38519
38494
38297
38486
38450
38511
38503
38504
38479
38470
38503
38509
38260
38476
38449
38500
38503
38503
38503
38287
38479
38463
38485
38479
38336
38477
38455
38479
38479
38351
38459
38476
38216
38434
38440
38460
38456
38444
38462
38209
38429
38356
38447
38462
38238
38431
38439
38435
38407
38380
38426
38189
38431
38423
38380
38399
38420
38415
38407
38407
38364
38431
38406
38396
38367
38406
38383
38401
38343
38399
38362
38385
38275
38374
38363
38399
38223
38383
38374
38366
38377
38347
38373
38331
38365
38126
38355
38383
38362
38361
38342
38373
38335
38359
38354
38135
38331
38361
38333
38341
38344
38212
38319
38347
38342
38315
38343
38335
38332
38267
38335
38309
38322
38150
38311
38340
38324
38087
38327
38301
38318
38231
38333
38290
38310
38215
38310
38311
38303
38311
38250
38302
38289
38308
38295
38255
38287
38308
38295
38303
38291
38266
38223
38284
38231
38284
38272
38273
38261
38296
38275
38287
38287
38279
38301
38051
38247
38053
38279
38279
38260
38124
38270
38279
38256
38245
38147
38263
38251
38251
38273
38055
38239
38217
38254
38271
38265
38262
38243
38225
38261
38263
38246
38247
38246
38243
38237
38208
38151
38090
38054
37996
38239
38242
38239
38246
38241
38231
38228
38247
38054
38242
38231
38223
38230
38224
38233
38222
38231
38220
38231
38232
38223
38237
38229
38223
38221
38220
38223
38199
38186
38188
38189
38231
38231
38227
38228
38237
38225
38220
38221
38235
38220
38220
38223
38216
38215
38211
38188
38151
38212
38199
38202
38194
38103
38207
38183
38196
38206
38199
38191
38116
38196
38214
38100
38181
38170
38177
38197
38191
38151
38182
38191
38101
38197
38203
38183
38151
38171
38191
38151
38177
37969
38183
38197
37991
38171
38196
38116
38170
38173
38180
38025
38174
38180
38087
38172
38186
38028
38175
38172
37979
38156
38165
38175
38129
38151
38171
38164
38166
38133
38075
38151
38158
38167
38175
38151
38173
37927
38125
38055
38151
38148
38151
38145
37996
38129
38143
38151
38150
38079
38147
38150
37996
38135
38140
38151
38140
38076
38133
38119
38135
38151
37966
38134
38113
38127
38151
37996
38132
38135
37940
38137
38127
38131
38111
38019
38127
38123
38126
38131
38126
38134
38132
38132
38107
38142
38143
38135
38150
38138
38151
38108
38102
38108
38127
38124
38118
38100
38117
38151
38149
38143
38145
38134
38127
38113
38047
37996
38135
38129
38129
38138
38119
38129
38132
38147
38132
38092
38004
38133
38138
38151
38140
38142
38143
38144
38134
38143
38140
38127
38135
38116
38127
38151
38151
38133
38135
38127
38143
38159
38149
38143
38119
38037
37985
37980
37945
38164
38172
38179
38180
38169
38159
38146
38181
38174
38197
37959
38163
38167
38180
38201
38096
38207
38204
38191
38182
38071
38175
38132
38194
38199
38205
38213
38175
38204
38224
38055
38193
38193
38220
38235
38116
38227
38239
38227
38238
38146
38228
38239
38231
38239
38171
38255
38262
38253
38236
38215
38264
38265
38271
38271
38095
38271
38298
38151
38279
38263
38252
38307
38301
38180
38293
38312
38247
38301
38324
38308
38102
38319
38318
38319
38323
38113
38143
38149
38167
38196
38246
38167
38207
38364
38356
38363
38370
38365
38374
38375
38365
38375
38382
38391
38386
38399
38391
38394
38404
38398
38407
38407
38407
38407
38407
38407
38399
38407
38452
38433
38449
38453
38454
38438
38403
38313
38407
38465
38487
38342
38462
38431
38482
38502
38501
38509
38509
38516
38515
38496
38407
38523
38532
38530
38535
38535
38511
38548
38543
38551
38554
38555
38567
38583
38581
38584
38588
38588
38587
38585
38581
38589
38623
38612
38621
38623
38646
38639
38641
38651
38640
38647
38651
38663
38663
38663
38662
38663
38663
38641
38662
38662
38657
38685
38716
38716
38703
38713
38703
38702
38714
38727
38709
38596
38735
38745
38748
38767
38761
38769
38770
38783
38777
38767
38770
38772
38772
38782
38789
38791
38809
38810
38822
38820
38835
38828
38835
38823
38831
38832
38836
38877
38889
38892
38873
38805
38708
38903
38911
38910
38919
38919
38919
38911
38950
38958
38941
38937
38837
38966
38959
38973
38978
38855
38983
38975
38999
38989
38907
39000
39012
39028
39036
39043
39047
38893
39019
39017
39054
39081
39031
39073
39092
39087
39075
39055
39100
39125
39020
39117
39145
39066
39143
39146
39035
39143
39152
38949
39151
39175
39182
39175
39130
39210
39206
39211
39206
39143
39226
39247
39103
39223
39246
39259
39231
39263
39271
39245
39265
39287
39287
39300
39313
39175
39319
39317
39321
39319
39340
39348
39341
39327
39294
39363
39355
39374
39382
39383
39399
39399
39420
39429
39431
39214
39411
39429
39431
39460
39303
39423
39487
39478
39491
39490
39486
39494
39453
39357
39343
39333
39521
39533
39532
39545
39542
39524
39533
39547
39549
39539
39559
39600
39607
39615
39620
39623
39622
39611
39566
39393
39644
39639
39396
39660
39663
39670
39687
39684
39695
39687
39703
39708
39703
39708
39727
39745
39748
39746
39750
39765
39772
39779
39783
39783
39797
39756
39805
39815
39829
39827
39791
39830
39782
39815
39847
39852
39857
39825
39847
39723
39892
39901
39759
39884
39885
39917
39940
39933
39935
39943
39943
39934
39943
39978
39981
39989
39991
39991
39983
39943
39894
39803
39767
40038
40031
40052
40055
40043
40037
40047
40055
40049
40063
40084
40087
40063
40090
40095
40096
40122
40103
40127
40138
40182
40172
40178
40195
40199
40212
40215
40212
40228
40228
40189
40220
40222
40243
40238
40254
40238
40256
40253
40274
40284
40271
40263
40303
40327
40329
40322
40325
40311
40353
40367
40219
40353
40370
40381
40365
40359
40406
40429
40208
40412
40420
40451
40447
40455
40455
40263
40455
40224
40468
40383
40479
40455
40516
40519
40526
40540
40541
40563
40365
40532
40407
40567
40561
40580
40591
40397
40564
40529
40599
40575
40637
40641
40645
40661
40663
40651
40547
40658
40671
40691
40692
40693
40711
40487
40721
40731
40734
40705
40711
40748
40703
40574
40508
40767
40787
40788
40797
40798
40815
40818
40827
40839
40839
40827
40855
40791
40797
40785
40679
40642
40894
40887
40897
40907
40869
40677
40933
40935
40932
40951
40932
40916
40956
40975
40991
40978
40927
40852
40726
40994
41013
41019
40992
41015
41039
41040
40886
41012
40983
41059
41041
41071
41012
41051
40861
41070
40935
41071
40931
41080
40988
41102
40870
41148
41136
41112
40948
41140
41168
41173
41180
40898
41143
41140
41199
41202
41209
41215
41031
41222
41231
41244
40967
40957
41047
41143
41239
41283
41287
41287
41292
41279
41277
41292
41269
41160
41132
41325
41325
41339
41351
41341
41343
41361
41091
41364
41382
41090
41379
41391
41399
41399
41415
41173
41375
41385
41422
41435
41444
41452
41452
41471
41468
41477
41478
41479
41479
41495
41492
41503
41512
41513
41519
41521
41530
41540
41549
41548
41547
41550
41573
41551
41567
41583
41575
41578
41580
41591
41615
41621
41618
41607
41581
41479
41447
41511
41574
41640
41651
41652
41637
41639
41615
41517
41443
41689
41709
41700
41705
41717
41711
41723
41732
41721
41735
41743
41719
41709
41732
41717
41733
41762
41772
41772
41783
41802
41801
41807
41828
41804
41787
41837
41835
41820
41780
41652
41671
41692
41555
41863
41863
41884
41887
41888
41861
41735
41863
41795
41903
41887
41922
41930
41926
41895
41859
41943
41942
41951
41940
41864
41961
41967
41972
41946
41965
41987
41949
41930
42007
42023
42023
41973
42023
42031
41999
42042
41759
42020
42042
42043
42023
42049
42074
42070
42076
42087
42039
42092
42100
42094
42109
42099
41863
42045
42032
42047
42052
42028
42073
42085
42078
42055
42116
42126
42135
42148
42151
42168
42170
42165
42063
41941
41916
42211
42198
42198
42213
42218
42215
42199
42181
42199
42238
42244
42247
42255
42229
42077
41978
42273
42255
42279
42255
42279
42282
42282
42290
42293
42295
42316
42295
42295
42317
42310
42323
42318
42325
42323
42325
42323
42334
42318
42298
42323
42335
42311
42319
42319
42353
42353
42359
42356
42347
42371
42388
42388
42391
42404
42398
42407
42405
42423
42415
42423
42415
42436
42414
42431
42428
42443
42399
42407
42455
42453
42455
42463
42425
42461
42423
42471
42468
42490
42479
42476
42489
42495
42494
42499
42495
42498
42484
42471
42486
42484
42469
42463
42527
42534
42543
42543
42543
42549
42559
42565
42556
42556
42551
42575
42548
42575
42588
42573
42599
42591
42607
42583
42588
42529
42549
42557
42566
42503
42493
42499
42343
42397
42502
42582
42567
42525
42535
42519
42516
42485
42361
42351
42660
42664
42666
42657
42675
42652
42663
42683
42652
42648
42674
42701
42700
42687
42651
42694
42695
42693
42702
42710
42703
42687
42687
42709
42743
42740
42707
42753
42753
42757
42746
42747
42727
42658
42599
42567
42503
42576
42496
42526
42775
42783
42780
42779
42781
42799
42799
42759
42811
42820
42813
42797
42708
42609
42827
42819
42831
42828
42831
42799
42836
42839
42844
42580
42818
42770
42858
42828
42861
42861
42871
42885
42884
42887
42661
42847
42749
42855
42887
42887
42911
42903
42900
42903
42916
42917
42895
42807
42919
42887
42918
42887
42917
42864
42911
42830
42914
42902
42943
42901
42948
42950
42958
42969
42951
42969
42972
42991
42962
42989
42983
42983
42703
42956
42915
42991
42983
42990
43010
42993
43015
42999
43023
42810
43004
43015
43015
42996
43015
43038
43037
43031
43036
42758
43023
43035
43037
43052
43047
43062
42812
43062
43061
43028
42929
43063
43068
43071
43071
42911
43057
43079
43071
43087
42885
43048
42983
43083
43094
42991
43084
43051
43090
43087
43092
43111
42854
43099
42858
43084
43004
43111
43078
43111
43095
43113
43127
43123
43136
43121
43139
43119
43128
42903
43114
43106
43140
43133
42883
43110
42979
43132
43143
43143
43148
43137
43113
43119
43148
43167
43157
43137
43134
43170
43159
43139
43040
42982
43163
43161
43159
43167
43169
43171
43175
43167
43168
43187
43191
42969
43173
43191
43174
43155
43122
43177
43198
43195
43167
43105
43178
43199
43197
43196
43135
43183
43204
43148
43194
43204
43199
43175
43197
43206
43202
43002
43191
43206
43215
43170
43173
43207
43213
43054
43215
43207
43208
43187
43204
43205
43185
43143
43209
43212
43199
43207
43161
43215
43231
42988
43196
43211
43207
43203
43211
43219
43220
43148
43207
43237
43206
43236
43231
43215
43229
43230
43223
43222
43220
43223
43204
43184
43151
43159
43132
43071
43015
43231
43222
43220
43220
43087
43223
43220
43222
43015
43010
43025
43222
43212
43225
43207
43218
43231
43211
43212
43219
43221
43212
43223
43207
43203
43207
43207
43212
43196
43196
43199
43204
43215
43223
43215
43212
43212
43207
43215
43206
43198
43207
43186
43161
43117
43196
43207
43214
43196
43201
43044
43180
43078
43197
43178
43193
43205
43194
43199
43032
43184
43116
43204
43069
43173
43121
43188
43207
43188
43183
43190
43174
43174
43201
42979
43154
43076
43159
43160
43181
43159
43175
43178
43154
43149
43143
43167
43167
43143
43157
43087
43162
43143
43148
43139
43104
43153
43155
43079
43143
43143
43128
43116
43082
43121
43143
43122
43115
43111
43125
43100
43101
43126
43117
43047
43111
43126
43008
43111
43116
43112
43108
42999
43096
43087
43092
43079
43071
43098
43092
43047
43076
43091
43055
43078
43068
43075
43063
42996
43084
43045
43055
43046
43052
43060
43051
43037
43055
43052
43044
43034
43020
42980
42984
42990
42954
42974
42949
43015
43012
43009
43014
43009
43011
42998
43012
43013
43002
43004
42985
42983
42956
42919
42965
42973
42967
42951
42955
42908
42791
42958
42955
42949
42950
42954
42956
42773
42926
42930
42939
42927
42750
42927
42885
42920
42927
42935
42924
42802
42917
42911
42909
42884
42869
42901
42887
42740
42879
42863
42869
42887
42868
42855
42855
42853
42868
42861
42863
42860
42831
42784
42823
42847
42823
42815
42772
42816
42814
42812
42820
42711
42807
42811
42799
42799
42807
42788
42756
42679
42774
42769
42759
42748
42732
42759
42748
42724
42694
42636
42743
42730
42746
42721
42719
42711
42704
42703
42693
42703
42684
42690
42703
42687
42687
42676
42679
42662
42663
42659
42645
42659
42597
42639
42612
42623
42614
42625
42612
42602
42519
42610
42573
42599
42581
42578
42575
42406
42543
42524
42565
42548
42533
42527
42514
42521
42527
42512
42519
42487
42471
42476
42476
42449
42460
42367
42375
42388
42383
42358
42425
42433
42426
42420
42423
42354
42399
42399
42389
42375
42306
42374
42335
42363
42357
42348
42358
42258
42329
42305
42323
42318
42303
42303
42301
42292
42219
42257
42265
42263
42268
42164
42242
42191
42234
42153
42230
42218
42155
42212
42191
42181
42195
42168
42171
42165
42160
42175
42097
42138
42130
42127
42118
42119
42108
42116
42095
42039
42087
42075
42075
42068
42055
42063
42050
42033
42036
42020
42022
42023
41990
41991
41991
41991
41981
41969
41954
41920
41950
41936
41941
41940
41919
41915
41900
41885
41894
41876
41891
41869
41868
41861
41809
41845
41842
41827
41817
41829
41823
41799
41796
41781
41781
41735
41758
41735
41746
41751
41679
41719
41717
41716
41719
41697
41707
41642
41679
41668
41663
41646
41652
41655
41635
41631
41607
41607
41583
41599
41582
41579
41575
41507
41559
41540
41547
41531
41532
41533
41518
41479
41501
41479
41468
41479
41479
41434
41463
41438
41407
41439
41412
41385
41407
41388
41373
41383
41357
41351
41359
41343
41341
41327
41324
41313
41310
41191
41293
41278
41243
41277
41245
41223
41253
41236
41200
41223
41209
41201
41183
41169
41171
41172
41162
41148
41133
41126
41100
41119
41089
41087
41079
41076
41060
41067
41049
41055
41028
41002
41026
40996
40999
40990
40967
40988
40963
40949
40943
40932
40935
40934
40911
40884
40903
40886
40839
40871
40855
40839
40838
40814
40807
40805
40797
40796
40783
40767
40764
40753
40745
40727
40709
40727
40702
40695
40677
40667
40676
40647
40636
40647
40631
40605
40623
40595
40583
40583
40567
40571
40552
40532
40533
40525
40495
40495
40493
40495
40479
40386
40444
40445
40431
40428
40407
40407
40394
40382
40387
40350
40341
40356
40340
40267
40327
40295
40301
40284
40284
40271
40244
40257
40239
40217
40212
40199
40199
40175
40174
40158
40141
40149
40126
40131
40114
40115
40092
40071
40087
40063
40056
40052
40027
40047
40018
40010
39996
39982
39991
39967
39967
39938
39927
39943
39916
39909
39903
39890
39887
39869
39847
39853
39861
39830
39836
39813
39815
39783
39789
39758
39758
39759
39745
39745
39716
39718
39703
39687
39700
39682
39679
39651
39641
39622
39609
39643
39617
39603
39574
39588
39557
39557
39579
39532
39540
39516
39509
39511
39479
39495
39461
39469
39444
39431
39414
39407
39431
39388
39399
39359
39367
39384
39348
39361
39310
39327
39303
39303
39332
39283
39295
39257
39255
39220
39223
39239
39212
39215
39175
39166
39199
39163
39195
39143
39142
39117
39123
39100
39105
39122
39083
39093
39057
39047
39015
39037
39058
39015
39017
38984
38989
38975
38980
38960
38964
38959
38935
38919
38916
38919
38919
38919
38895
38852
38851
38831
38823
38821
38812
38802
38772
38791
38790
38782
38764
38759
38779
38768
38767
38751
38627
38724
38735
38708
38715
38628
38629
38622
38615
38607
38607
38619
38631
38556
38562
38543
38551
38532
38515
38511
38496
38496
38484
38484
38477
38492
38451
38422
38436
38423
38423
38399
38394
38381
38407
38357
38396
38356
38383
38324
38373
38313
38325
38284
38306
38250
38279
38236
38240
38284
38231
38281
38212
38255
38191
38238
38175
38190
38151
38151
38126
38135
38158
38092
38133
38079
38094
38055
38087
38044
38076
38031
38055
38005
38018
37980
38009
37983
37991
37953
37972
37941
37955
37919
37928
37895
37922
37877
37911
37858
37858
37879
37832
37855
37809
37831
37799
37780
37857
37766
37799
37759
37748
37804
37722
37756
37711
37711
37694
37686
37754
37671
37700
37639
37663
37628
37628
37611
37619
37639
37586
37597
37614
37574
37599
37543
37540
37524
37517
37503
37507
37493
37476
37469
37471
37463
37455
37446
37450
37444
37447
37447
37444
37380
37395
37366
37356
37393
37335
37350
37311
37326
37357
37305
37319
37268
37286
37255
37251
37292
37223
37225
37281
37207
37238
37193
37191
37180
37169
37197
37158
37159
37141
37127
37189
37110
37114
37154
37085
37093
37052
37050
37099
37037
37035
37019
37015
37061
36996
37033
36977
37030
36970
36991
36939
36951
36931
36926
36907
36893
36946
36887
36902
36859
36871
36917
36851
36871
36820
36827
36866
36804
36836
36782
36816
36767
36781
36756
36751
36778
36738
36756
36719
36719
36702
36679
36733
36677
36679
36654
36644
36684
36623
36639
36644
36599
36630
36583
36589
36614
36560
36591
36546
36583
36532
36543
36516
36511
36487
36478
36525
36471
36479
36447
36454
36487
36429
36447
36406
36443
36392
36396
36374
36375
36395
36357
36359
36332
36343
36308
36311
36295
36300
36336
36273
36311
36263
36282
36251
36247
36230
36228
36206
36207
36193
36183
36173
36165
36209
36148
36140
36133
36167
36125
36143
36103
36116
36079
36103
36061
36078
36058
36059
36025
36047
36007
36029
35993
36007
35999
35983
35974
35969
35940
35951
35975
35943
35951
35919
35924
35893
35891
35877
35879
35906
35867
35863
35837
35839
35815
35815
35837
35794
35796
35778
35781
35797
35759
35777
35735
35751
35719
35742
35708
35711
35692
35695
35671
35671
35687
35663
35671
35626
35637
35615
35608
35631
35585
35590
35604
35564
35583
35554
35559
35531
35521
35529
35503
35521
35493
35487
35500
35463
35484
35447
35455
35434
35430
35453
35394
35413
35383
35384
35407
35375
35372
35348
35354
35324
35323
35347
35311
35324
35284
35303
35276
35258
35295
35255
35271
35236
35214
35242
35207
35207
35184
35174
35189
35156
35165
35172
35136
35143
35115
35111
35120
35094
35102
35076
35077
35021
35047
35046
35021
35031
35022
35018
34997
34982
34982
34959
34939
34948
34941
34951
34930
34934
34922
34900
34886
34881
34814
34847
34838
34823
34804
34804
34793
34790
34786
34779
34772
34767
34759
34740
34733
34708
34708
34691
34681
34685
34661
34655
34635
34656
34636
34634
34610
34598
34575
34577
34576
34555
34566
34556
34527
34524
34511
34497
34511
34482
34479
34464
34453
34462
34426
34433
34413
34409
34399
34404
34375
34367
34367
34349
34344
34324
34327
34310
34303
34301
34271
34261
34262
34250
34255
34234
34220
34219
34196
34199
34183
34177
34159
34143
34149
34137
34117
34131
34100
34102
34079
34083
34055
34055
34031
34051
34023
34014
34007
34003
33984
33980
33964
33971
33943
33935
33911
33910
33926
33901
33899
33873
33867
33847
33847
33839
33823
33820
33799
33781
33786
33773
33761
33764
33748
33748
33709
33719
33695
33695
33692
33670
33665
33669
33642
33642
33621
33611
33599
33599
33583
33581
33580
33563
33543
33525
33535
33518
33489
33484
33472
33473
33458
33453
33431
33430
33418
33423
33390
33381
33383
33359
33341
33345
33310
33338
33325
33308
33295
33287
33267
33269
33242
33213
33231
33209
33211
33201
33195
33172
33151
33151
33141
33135
33114
33106
33097
33095
33075
33063
33060
33057
33031
33031
33023
33004
33002
32964
32982
32961
32951
32946
32930
32925
32911
32900
32879
32871
32878
32858
32839
32847
32821
32763
32798
32798
32755
32775
32748
32697
32730
32722
32704
32705
32691
32692
32658
32654
32658
32638
32612
32627
32602
32587
32596
32557
32555
32553
32526
32535
32509
32492
32486
32478
32482
32454
32395
32433
32423
32405
32386
32380
32380
32359
32333
32357
32333
32315
32311
32295
32290
32270
32247
32247
32231
32196
32223
32199
32175
32191
32164
32153
32148
32135
32079
32111
32111
32071
32083
32060
32059
32031
32039
32027
32007
31986
31983
31975
31950
31961
31943
31916
31903
31889
31903
31877
31879
31855
31843
31835
31820
31825
31799
31790
31785
31738
31767
31748
31719
31727
31711
31683
31695
31670
31663
31659
31631
31631
31621
31572
31595
31583
31561
31563
31548
31528
31527
31511
31495
31495
31484
31470
31448
31445
31439
31431
31415
31394
31399
31372
31367
31359
31340
31325
31332
31317
31287
31301
31282
31275
31271
31248
31238
31220
31207
31196
31205
31180
31175
31162
31156
31140
31126
31119
31092
31087
31084
31071
31066
31057
31041
31030
31023
31009
31005
30985
30983
30966
30959
30937
30941
30815
30911
30895
30887
30887
30858
30871
30847
30839
30803
30821
30812
30795
30796
30774
30771
30737
30747
30741
30727
30715
30699
30701
30687
30681
30663
30650
30631
30631
30620
30614
30604
30596
30581
30575
30571
30551
30556
30520
30519
30517
30485
30507
30467
30471
30464
30439
30431
30439
30435
30407
30407
30391
30391
30365
30375
30367
30351
30319
30340
30310
30310
30286
30298
30279
30251
30274
30253
30251
30215
30235
30226
30204
30193
30183
30169
30171
30164
30155
30139
30127
30112
30117
30113
30087
30087
30064
30077
30051
30052
30038
30024
30024
30016
30001
29994
29979
29977
29959
29956
29935
29954
29923
29923
29919
29896
29899
29885
29882
29865
29869
29845
29844
29842
29815
29820
29802
29790
29789
29781
29771
29766
29763
29748
29738
29734
29718
29716
29713
29691
29697
29670
29674
29663
29660
29658
29642
29638
29624
29615
29604
29607
29595
29590
29575
29567
29561
29550
29540
29522
29526
29518
29513
29495
29500
29480
29479
29477
29459
29450
29447
29461
29431
29441
29412
29404
29413
29397
29399
29375
29382
29365
29364
29342
29350
29296
29334
29311
29317
29319
29301
29295
29282
29285
29263
29265
29259
29252
29247
29225
29226
29223
29213
29191
29202
29191
29190
29163
29163
29175
29150
29145
29148
29141
29133
29127
29076
29110
29103
29094
29096
29071
29077
29069
29070
29057
29051
29039
29045
29023
29028
29007
29012
28995
28996
28940
28991
28997
28967
28979
28959
28957
28953
28935
28946
28921
28926
28919
28927
28902
28892
28895
28884
28884
28863
28871
28871
28867
28858
28857
28847
28851
28839
28743
28811
28793
28807
28805
28785
28786
28797
28783
28784
28783
28774
28762
28748
28740
28726
28732
28719
28724
28719
28719
28703
28705
28711
28703
28701
28687
28677
28691
28669
28629
28658
28655
28647
28635
28631
28630
28644
28613
28623
28609
28614
28593
28603
28591
28573
28583
28591
28571
28573
28549
28554
28562
28555
28551
28542
28525
28535
28525
28524
28514
28514
28513
28509
28518
28490
28502
28481
28492
28486
28471
28484
28461
28479
28461
28460
28455
28455
28455
28437
28439
28423
28434
28418
28427
28415
28420
28403
28359
28406
28391
28397
28382
28399
28376
28375
28370
28375
28361
28372
28364
28361
28348
28354
28338
28343
28329
28335
28325
28327
28317
28332
28314
28309
28308
28301
28316
28290
28294
28299
28292
28293
28285
28283
28279
28291
28278
28277
28266
28263
28260
28259
28247
28255
28247
28254
28250
28243
28250
28221
28237
28218
28228
28229
28229
28214
28217
28217
28193
28218
28196
28215
28203
28205
28191
28188
28199
28187
28180
28183
28179
28167
28179
28167
28167
28158
28183
28159
28167
28147
28166
28144
28152
28144
28155
28135
28149
28135
28140
28135
28136
28140
28143
28117
28133
28122
28127
28122
28129
28127
28112
28113
28100
28115
28103
28110
28098
28106
28105
28102
28106
28086
28102
28095
28081
28098
28084
28078
28079
28084
28086
28086
28074
28084
28087
28078
28080
28068
28071
28075
28069
28068
28063
28060
28075
28059
28068
28047
28064
28042
28057
28065
28057
28059
28039
28053
28037
28049
28046
28047
28038
28047
28037
28031
28037
28039
28045
28032
28039
28036
28039
28034
28042
28023
28039
28025
28038
28039
28025
28031
28023
28035
28033
28027
28038
28023
28035
28029
28031
28027
28044
28015
28025
28027
28022
28012
28017
28016
28021
28031
28020
28025
28017
28025
28015
28012
28007
28021
28014
28020
28019
28005
28008
28006
28014
28004
28005
28006
28011
28002
28007
28007
28003
27998
27997
27991
27996
27996
27994
27998
27996
27985
27995
27977
27985
27966
27984
27969
27991
27996
27975
27974
27980
27982
27975
27989
27974
27987
27973
27981
27931
27983
27983
27975
27991
27975
27985
27978
27974
27975
27983
27982
27967
27987
27963
27983
27963
27975
27967
27983
27972
27981
27975
27970
27994
27971
27971
27893
27970
27983
27976
27972
27966
27975
27971
27940
27971
27983
27965
27972
27974
27980
27974
27976
27967
27977
27972
27977
27975
27972
27980
27967
27980
27976
27975
27974
27974
27984
27971
27975
27967
27979
27972
27973
27981
27974
27978
27980
27986
27980
27990
27975
27983
27972
27987
27980
27988
27988
27986
27989
27975
27986
27988
27994
27980
27994
27974
27996
27975
27991
27983
27994
27995
28007
27981
28005
27983
27992
27991
28000
27991
27999
28001
27998
28007
27996
27997
28003
28007
28005
28007
28012
28006
27991
28019
28013
28007
28020
28012
28015
28023
28007
28025
28014
28030
28023
28036
28021
28011
28014
28015
28020
28013
28034
28025
28036
28030
28039
28021
28033
28011
28039
28041
28034
28053
28038
28049
27995
28034
28036
28045
28042
28049
28064
28049
28058
28049
28057
28045
28056
28060
28058
28009
28063
28023
28055
28061
28059
28068
28071
28071
28063
28085
28074
28071
28079
28079
28081
28072
28076
28077
28064
28093
27991
28091
28095
28087
28102
28083
28102
28096
28103
28090
28111
28101
28095
28097
28103
28107
28117
28094
28095
28114
28103
28126
28115
28117
28125
28119
28116
28127
28126
28121
28126
28100
28128
28124
28138
28127
28132
28120
28143
28135
28135
28136
28155
28130
28146
28135
28149
28150
28138
28158
28145
28159
28156
28151
28156
28159
28164
28162
28164
28162
28165
28172
28177
28081
28167
28167
28176
28175
28167
28188
28182
28188
28185
28182
28196
28186
28189
28198
28201
28183
28207
28198
28214
28211
28215
28207
28228
28212
28230
28214
28213
28215
28230
28226
28221
28231
28231
28230
28238
28236
28249
28247
28245
28247
28243
28258
28253
28263
28248
28263
28271
28263
28272
28271
28279
28273
28273
28283
28287
28295
28294
28294
28286
28303
28294
28308
28301
28303
28295
28313
28301
28321
28322
28326
28323
28332
28333
28334
28326
28348
28355
28351
28328
28357
28346
28361
28348
28368
28376
28383
28367
28384
28375
28393
28391
28404
28383
28412
28410
28412
28403
28415
28419
28431
28423
28435
28439
28438
28439
28447
28454
28442
28453
28469
28476
28472
28470
28474
28477
28471
28490
28479
28497
28485
28496
28508
28507
28501
28525
28540
28519
28531
28527
28533
28541
28551
28548
28559
28557
28567
28561
28570
28568
28583
28578
28602
28581
28609
28599
28612
28606
28615
28626
28623
28621
28626
28647
28641
28652
28643
28668
28647
28656
28676
28674
28679
28679
28694
28698
28706
28702
28718
28705
28724
28728
28732
28743
28736
28749
28741
28751
28758
28753
28771
28775
28788
28775
28788
28788
28804
28799
28807
28821
28812
28831
28823
28839
28839
28849
28843
28852
28877
28870
28889
28875
28890
28892
28905
28903
28907
28907
28927
28919
28935
28935
28935
28937
28948
28948
28959
28964
28972
28983
28985
28990
28990
29008
29008
29004
29015
29012
29031
29029
29039
29057
29042
29063
29060
29063
29071
29087
29071
29098
29102
29100
29108
29120
29111
29137
29135
29127
29140
29158
29151
29165
29152
29172
29185
29188
29204
29199
29206
29188
29215
29225
29217
29232
29239
29255
29245
29266
29263
29280
29264
29294
29284
29301
29295
29311
29303
29319
29325
29329
29342
29346
29341
29351
29359
29366
29371
29382
29382
29403
29398
29408
29418
29418
29421
29442
29445
29447
29454
29447
29462
29463
29480
29473
29503
29498
29518
29509
29521
29523
29540
29500
29538
29543
29540
29564
29561
29583
29575
29591
29595
29599
29607
29615
29617
29624
29643
29639
29655
29656
29662
29597
29671
29684
29679
29700
29693
29703
29716
29712
29723
29739
29738
29751
29745
29764
29764
29779
29764
29780
29769
29794
29799
29807
29815
29829
29816
29834
29838
29837
29858
29863
29831
29891
29889
29887
29897
29895
29900
29911
29927
29921
29943
29942
29946
29947
29967
29972
29982
29994
30003
29991
30013
30004
30025
30019
30036
30031
30049
30047
30055
30060
30068
30087
30085
30100
30087
30101
30108
30121
30121
30132
30136
30149
30148
30159
30153
30177
30141
30183
30181
30198
30207
30207
30223
30201
30229
30225
30239
30250
30250
30262
30255
30276
30267
30285
30286
30303
30302
30306
30311
30324
30324
30343
30341
30362
30351
30375
30371
30386
30385
30391
30389
30407
30407
30418
30409
30435
30435
30436
30449
30454
30459
30463
30463
30437
30485
30485
30495
30517
30503
30519
30507
30524
30534
30532
30543
30541
30567
30558
30571
30567
30578
30588
30599
30589
30598
30620
30612
30634
30622
30642
30631
30655
30644
30655
30620
30670
30591
30695
30692
30697
30699
30717
30714
30727
30720
30727
30727
30751
30751
30759
30765
30784
30768
30772
30788
30791
30791
30798
30815
30813
30823
30815
30828
30839
30838
30849
30850
30862
30852
30877
30879
30871
30887
30897
30888
30899
30909
30917
30913
30918
30921
30944
30927
30941
30956
30943
30980
30963
30980
30972
30994
30983
30998
30997
30998
31011
31013
31031
31024
31029
31039
31036
31052
31049
31071
31055
31077
31072
31090
31084
31101
31095
31112
31116
31124
31125
31122
31125
31148
31133
31162
31146
31175
31159
31159
31154
31166
31191
31172
31193
31207
31202
31207
31201
31175
31204
31227
31233
31239
31246
31255
31231
31231
31236
31247
31259
31270
31275
31271
31284
31283
31275
31287
31294
31302
31316
31309
31329
31332
31343
31343
31341
31351
31335
31335
31345
31343
31354
31359
31359
31372
31379
31380
31393
31383
31403
31405
31404
31399
31409
31412
31423
31437
31423
31431
31439
31449
31449
31457
31460
31471
31473
31461
31468
31463
31479
31495
31487
31494
31482
31495
31521
31503
31526
31519
31522
31511
31529
31545
31537
31556
31535
31551
31538
31564
31575
31565
31572
31556
31553
31580
31575
31587
31564
31582
31617
31594
31602
31588
31596
31631
31599
31617
31596
31605
31640
31606
31628
31615
31620
31614
31623
31655
31624
31654
31634
31645
31631
31649
31643
31653
31647
31644
31685
31650
31681
31641
31668
31657
31677
31658
31673
31670
31684
31669
31684
31666
31686
31709
31683
31689
31674
31702
31687
31689
31679
31687
31687
31687
31740
31695
31734
31695
31731
31707
31714
31698
31697
31765
31700
31718
31726
31719
31717
31708
31706
31743
31724
31738
31720
31725
31751
31719
31737
31725
31748
31727
31740
31727
31748
31727
31742
31722
31748
31742
31748
31737
31751
31747
31759
31734
31764
31741
31768
31746
31783
31744
31768
31746
31783
31758
31826
31751
31743
31780
31764
31820
31751
31751
31768
31751
31769
31751
31770
31751
31785
31751
31791
31751
31781
31759
31796
31765
31803
31751
31783
31751
31780
31751
31758
31810
31760
31806
31774
31807
31751
31789
31751
31772
31767
31771
31762
31764
31819
31767
31814
31772
31802
31751
31791
31751
31768
31767
31772
31751
31764
31837
31759
31791
31750
31763
31829
31775
31786
31751
31771
31751
31763
31751
31751
31839
31759
31771
31751
31751
31781
31751
31759
31743
31751
31809
31751
31785
31740
31764
31739
31741
31719
31751
31805
31749
31773
31735
31751
31730
31734
31780
31726
31751
31724
31767
31722
31717
31772
31717
31719
31766
31723
31813
31732
31711
31729
31713
31774
31701
31695
31778
31708
31697
31773
31695
31687
31727
31698
31687
31722
31696
31677
31732
31684
31679
31687
31677
31737
31686
31669
31723
31671
31655
31719
31670
31650
31707
31651
31637
31674
31645
31647
31652
31631
31672
31640
31631
31623
31639
31630
31610
31643
31628
31599
31666
31611
31607
31675
31593
31597
31620
31584
31640
31600
31578
31603
31580
31583
31615
31580
31572
31545
31599
31559
31556
31642
31574
31546
31550
31618
31551
31541
31520
31575
31525
31524
31607
31534
31524
31495
31524
31511
31601
31504
31494
31543
31500
31478
31519
31485
31551
31479
31467
31538
31467
31452
31513
31471
31578
31471
31455
31441
31495
31443
31426
31492
31431
31415
31471
31425
31389
31460
31401
31391
31487
31396
31386
31494
31391
31377
31479
31389
31359
31465
31356
31355
31411
31359
31316
31372
31335
31421
31334
31327
31359
31317
31443
31319
31306
31419
31302
31293
31397
31290
31289
31375
31287
31284
31383
31270
31259
31340
31255
31239
31276
31239
31335
31235
31228
31307
31223
31228
31227
31212
31239
31221
31198
31239
31207
31188
31220
31205
31186
31178
31175
31231
31167
31154
31231
31159
31156
31169
31151
31135
31144
31135
31213
31122
31114
31155
31119
31236
31103
31103
31189
31103
31092
31140
31095
31069
31135
31087
31073
31144
31068
31063
31173
31065
31047
31204
31047
31047
31191
31052
31026
31124
31029
31014
31143
31036
31013
31111
31008
30999
31109
30999
30988
30977
31039
30977
30967
31040
30959
30957
31031
30956
30934
30991
30962
31086
30942
30947
31099
30933
30923
30983
30905
30895
30931
30907
30886
30919
30881
30867
30973
30881
30863
30949
30871
30838
30977
30854
30852
30839
30861
30839
30965
30829
30828
30885
30821
30804
30820
30799
30889
30807
30785
30846
30781
30799
30799
30772
30766
30762
30834
30751
30736
30763
30756
30855
30725
30745
30727
30734
30719
30831
30703
30711
30727
30716
30829
30692
30676
30742
30697
30873
30665
30661
30703
30663
30817
30655
30642
30727
30647
30634
30751
30623
30626
30639
30623
30765
30610
30596
30668
30599
30580
30663
30583
30566
30639
30591
30551
30574
30564
30727
30559
30540
30684
30535
30541
30629
30535
30526
30702
30509
30511
30668
30489
30502
30695
30513
30483
30460
30571
30466
30457
30630
30473
30456
30441
30512
30431
30431
30559
30426
30429
30559
30412
30420
30526
30399
30398
30494
30391
30373
30488
30378
30372
30563
30380
30359
30485
30372
30351
30327
30359
30325
30522
30339
30327
30536
30319
30319
30287
30341
30311
30280
30303
30297
30410
30283
30260
30311
30274
30465
30253
30241
30256
30242
30369
30229
30213
30235
30214
30343
30215
30388
30199
30193
30335
30175
30175
30195
30173
30271
30167
30150
30163
30146
30249
30148
30118
30142
30137
30341
30140
30116
30262
30100
30091
30118
30097
30308
30087
30073
30114
30070
30287
30062
30051
30178
30046
30018
30117
30031
30010
30116
30015
30022
30231
30012
29999
29980
30006
29989
30031
29981
29978
30202
29958
29948
30135
29930
29940
30151
29930
29918
30031
29912
29917
30126
29911
29895
30000
29902
29942
29870
29891
29863
29862
30071
29876
29989
29857
29911
29828
29837
29818
29826
29812
29812
30009
29798
30041
29783
29990
29780
29946
29783
29834
29763
29780
29732
29741
29725
29737
29930
29737
29765
29703
29703
29692
29703
29854
29689
29727
29666
29679
29652
29655
29782
29652
29660
29627
29689
29647
29614
29614
29748
29598
29604
29820
29575
29607
29828
29827
29558
29552
29550
29533
29534
29537
29529
29524
29511
29506
29512
29499
29519
29516
29509
29513
29495
29499
29477
29465
29455
29447
29461
29434
29441
29421
29421
29423
29405
29412
29506
29398
29414
29389
29389
29361
29367
29588
29371
29383
29348
29349
29601
29349
29404
29320
29333
29295
29327
29388
29290
29301
29503
29289
29334
29261
29271
29343
29237
29230
29229
29224
29212
29205
29205
29207
29191
29187
29179
29167
29173
29191
29173
29286
29147
29151
29137
29164
29319
29115
29127
29115
29159
29290
29084
29090
29090
29078
29086
29237
29093
29063
29097
29295
29031
29028
29033
29023
29063
29191
28991
28999
29007
28982
29008
29150
28962
28956
28961
29001
28924
28932
28935
28919
29001
28893
28901
28913
28893
28916
29115
28860
28867
28867
28870
28948
29031
28823
28841
28827
28875
29084
28803
28813
28847
29055
28774
29031
28771
28769
28956
28748
28737
28794
28732
28730
28714
28771
28725
28687
28727
28707
28672
28688
28679
28831
28642
28669
28649
28778
28612
28631
28630
28841
28597
28618
28595
28841
28828
28567
28561
28586
28556
28527
28588
28526
28503
28577
28511
28754
28492
28463
28525
28466
28431
28447
28447
28510
28423
28410
28468
28419
28639
28390
28362
28457
28375
28340
28343
28348
28449
28340
28310
28314
28278
28357
28294
28510
28280
28259
28262
28248
28319
28247
28460
28212
28208
28235
28191
28303
28192
28164
28185
28167
28338
28138
28128
28142
28124
28188
28111
28225
28103
28068
28076
28062
28111
28065
28237
28030
28018
28027
28009
28220
27998
27974
28035
27965
27978
27956
28034
27935
27932
27931
27940
28040
27902
27906
27887
27948
27856
27872
27864
28091
27839
27836
27927
27820
27797
27821
27798
27987
27768
27767
27821
27770
27732
27758
27738
27969
27718
27703
27783
27704
27672
27908
27729
27655
27668
27641
27649
27637
27767
27624
27593
27647
27596
27811
27578
27548
27553
27547
27617
27543
27513
27525
27515
27740
27493
27478
27567
27478
27457
27444
27446
27508
27439
27640
27425
27406
27438
27404
27606
27371
27362
27367
27349
27415
27341
27479
27322
27514
27305
27511
27279
27263
27263
27272
27247
27454
27242
27202
27222
27205
27206
27187
27188
27159
27161
27143
27156
27132
27143
27114
27185
27119
27267
27101
27287
27067
27057
27129
27066
27234
27042
27006
27030
27001
27075
26991
27119
26975
26999
27156
26939
26940
26942
26933
27043
26902
26906
26885
26919
27036
26847
26847
26846
26831
26839
26909
26791
26810
26789
26812
26878
26766
26756
26829
26719
26727
26717
26737
26693
26693
26696
26672
26753
26644
26652
26645
26684
26807
26604
26613
26596
26478
26565
26571
26554
26613
26674
26524
26510
26522
26631
26482
26491
26468
26534
26446
26445
26430
26424
26502
26391
26409
26390
26423
26533
26351
26330
26383
26479
26321
26311
26366
26279
26282
26279
26303
26243
26261
26234
26268
26389
26197
26212
26193
26360
26171
26160
26159
26279
26119
26132
26105
26187
26079
26085
26077
26140
26043
26055
26030
26167
26007
26011
26007
26095
25971
25980
25963
25989
25921
25921
25920
25931
25876
25882
25863
25911
25847
25852
25842
25871
25978
25801
25825
25802
25778
25766
25767
25734
25765
25735
25702
25704
25700
25814
25685
25681
25781
25668
25651
25742
25633
25770
25619
25589
25709
25598
25563
25565
25615
25553
25524
25527
25510
25585
25488
25476
25484
25470
25567
25463
25435
25441
25421
25548
25407
25396
25523
25377
25358
25457
25348
25332
25469
25319
25308
25449
25287
25268
25351
25265
25247
25263
25246
25213
25230
25199
25255
25193
25166
25166
25148
25158
25133
25148
25111
25133
25095
25196
25095
25186
25049
25063
25050
25036
25039
25069
25161
24988
24983
24981
24984
24967
25011
24935
24935
24935
24923
24972
24892
24891
24879
24903
24999
24859
24834
24866
24805
24814
24806
24884
24766
24783
24767
24799
24740
24740
24727
24788
24702
24709
24694
24671
24675
24662
24715
24639
24647
24632
24647
24741
24591
24603
24579
24673
24551
24556
24550
24576
24458
24505
24506
24500
24495
24528
24596
24447
24444
24461
24443
24483
24407
24404
24395
24423
24356
24381
24363
24361
24455
24326
24327
24332
24284
24295
24287
24285
24261
24258
24252
24319
24214
24223
24201
24223
24314
24183
24182
24178
24301
24139
24140
24155
24107
24108
24103
24125
24067
24077
24067
24051
24037
24167
24020
24007
24077
23991
23977
23986
23968
23982
23959
24087
23935
23918
23955
23903
23889
23899
23887
23975
23859
23844
23844
23829
23846
23827
23884
23813
23780
23843
23764
23748
23759
23742
23788
23732
23710
23716
23711
23813
23685
23663
23705
23659
23645
23641
23618
23652
23616
23588
23597
23581
23573
23578
23553
23590
23543
23607
23516
23493
23505
23487
23493
23473
23521
23437
23460
23438
23494
23406
23423
23425
23380
23383
23431
23367
23377
23396
23327
23338
23317
23427
23297
23283
23303
23279
23397
23255
23243
23252
23237
23364
23206
23191
23237
23180
23169
23202
23154
23141
23167
23132
23108
23106
23108
23159
23100
23071
23063
23046
23097
23047
23169
23014
23013
23043
22997
23114
22972
22972
22994
22950
22934
22933
22918
22921
22906
22943
22895
22876
22875
22857
22863
22843
22889
22839
22919
22826
22790
22791
22773
22782
22768
22778
22749
22738
22727
22745
22719
22772
22703
22827
22669
22658
22674
22659
22757
22637
22619
22626
22615
22689
22596
22572
22567
22549
22567
22543
22604
22535
22630
22643
22505
22493
22503
22450
22472
22463
22455
22568
22431
22427
22420
22543
22396
22399
22377
22454
22354
22363
22358
22374
22466
22323
22317
22305
22349
22276
22271
22265
22268
22264
22315
22218
22235
22226
22224
22288
22166
22172
22171
22178
22163
22174
22290
22124
22116
22110
22121
22210
22087
22090
22076
22075
22187
22044
22042
22026
22041
22144
21994
22008
21980
21997
21960
21969
21956
21948
22050
21908
21907
21922
21895
21981
21869
21874
21875
21860
21855
21895
21932
21818
21818
21813
21837
21783
21793
21767
21815
21745
21759
21751
21749
21836
21702
21726
21706
21745
21676
21681
21669
21660
21674
21798
21642
21629
21650
21605
21615
21596
21677
21581
21585
21575
21726
21543
21556
21535
21619
21509
21519
21508
21564
21483
21483
21473
21454
21580
21430
21450
21430
21506
21403
21399
21410
21397
21550
21374
21358
21445
21341
21357
21329
21384
21316
21308
21305
21327
21287
21278
21285
21269
21296
21237
21255
21243
21219
21211
21229
21199
21356
21183
21185
21261
21183
21153
21159
21133
21169
21139
21287
21119
21087
21098
21095
21092
21173
21074
21054
21061
21069
21042
21041
21087
21212
21010
21021
21006
21023
21161
20977
20978
20961
21052
20939
20956
20934
20978
20921
20921
20911
20926
21012
20884
20891
20871
20916
20855
20871
20851
20921
20822
20842
20819
20885
20804
20814
20795
20845
20765
20772
20772
20783
20852
20751
20749
20794
20715
20713
20708
20715
20684
20691
20690
20672
20706
20652
20644
20640
20682
20622
20623
20614
20611
20606
20705
20583
20575
20580
20572
20580
20556
20551
20615
20518
20519
20528
20505
20524
20615
20480
20485
20484
20471
20561
20447
20439
20453
20439
20419
20508
20397
20394
20413
20401
20498
20374
20374
20389
20349
20339
20359
20341
20368
20313
20323
20316
20303
20329
20445
20279
20268
20282
20268
20261
20301
20231
20252
20242
20238
20215
20220
20220
20207
20387
20196
20179
20337
20169
20177
20179
20154
20159
20146
20198
20135
20115
20145
20128
20103
20107
20089
20163
20092
20162
20068
20057
20075
20056
20047
20044
20045
20170
20029
20025
20197
20030
20006
20008
19989
19974
20035
19967
19975
19958
19944
19934
19943
19947
20068
19927
19909
19915
19903
19924
19903
19994
19907
19883
19883
19868
19918
19886
20063
19860
19844
19931
19851
19823
19829
19826
19878
19833
19810
19812
19790
19806
19983
19783
19789
19775
19847
19762
19761
19821
19754
19753
19750
19831
19730
19729
19727
19717
19893
19701
19713
19726
19689
19689
19695
19687
19766
19675
19684
19663
19684
19839
19654
19666
19646
19803
19637
19649
19622
19665
19613
19635
19620
19783
19600
19618
19600
19603
19659
19581
19585
19572
19579
19738
19556
19572
19547
19683
19543
19565
19551
19655
19529
19543
19535
19517
19635
19509
19534
19511
19710
19502
19505
19515
19690
19486
19497
19518
19470
19578
19474
19460
19515
19482
19451
19463
19456
19646
19455
19440
19502
19450
19574
19442
19430
19436
19428
19551
19409
19428
19420
19407
19404
19411
19401
19525
19400
19398
19396
19550
19431
19391
19373
19380
19365
19386
19375
19351
19365
19375
19343
19364
19358
19350
19382
19345
19328
19424
19329
19332
19367
19343
19311
19327
19338
19316
19314
19486
19324
19310
19300
19304
19301
19311
19307
19298
19305
19289
19297
19284
19291
19289
19292
19278
19284
19281
19302
19285
19313
19442
19264
19262
19270
19269
19276
19267
19260
19256
19265
19261
19268
19273
19252
19243
19255
19391
19254
19261
19238
19247
19230
19241
19417
19250
19239
19233
19236
19418
19253
19287
19235
19235
19386
19236
19231
19375
19239
19245
19220
19241
19237
19220
19243
19400
19247
19268
19223
19219
19227
19244
19244
19218
19231
19309
19236
19231
19221
19247
19350
19238
19254
19227
19236
19231
19231
19370
19244
19233
19231
19240
19369
19234
19253
19415
19251
19250
19242
19266
19335
19266
19271
19245
19259
19445
19271
19294
19261
19266
19263
19268
19407
19271
19278
19265
19295
19336
19283
19292
19280
19283
19284
19295
19284
19302
19414
19303
19317
19302
19308
19436
19323
19463
19342
19400
19335
19389
19348
19356
19333
19344
19332
19363
19385
19354
19361
19537
19376
19377
19372
19380
19381
19367
19405
19433
19388
19399
19572
19419
19423
19428
19436
19439
19451
19447
19452
19450
19448
19453
19511
19631
19639
19621
19587
19555
19591
19597
19679
19650
19503
19487
19507
19499
19697
19520
19527
19519
19525
19542
19562
19555
19562
19557
19573
19583
19605
19641
19655
19648
19621
19631
19657
19628
19634
19626
19646
19648
19670
19686
19710
19726
19722
19723
19748
19787
19818
19838
19882
19895
19709
19724
19882
19916
19906
19874
19884
19841
19828
19850
19926
19923
19860
19812
19804
19815
19829
19836
19847
19850
19871
19876
19892
19902
19945
19966
19951
19934
19957
19942
19943
19932
19933
19945
19951
19967
19973
19985
19977
19975
19999
20003
20007
20024
20039
20031
20049
20034
20060
20059
20058
20077
20077
20084
20095
20108
20119
20131
20134
20141
20151
20150
20163
20183
20185
20193
20199
20199
20212
20220
20231
20247
20265
20277
20295
20299
20324
20351
20443
20298
20414
20309
20324
20330
20341
20367
20359
20385
20395
20393
20407
20535
20412
20422
20447
20457
20557
20473
20496
20483
20522
20505
20519
20519
20543
20565
20545
20563
20554
20582
20697
20598
20614
20610
20625
20725
20655
20680
20654
20671
20823
20699
20703
20698
20714
20735
20735
20763
20814
20756
20779
20853
20804
20815
20820
20837
20931
20855
20863
20863
20886
20874
20896
20898
20927
21060
20956
21054
20973
20989
20980
21006
20995
21022
21031
21045
21036
21067
21143
21099
21111
21098
21108
21113
21137
21263
21159
21196
21164
21189
21185
21220
21334
21246
21319
21266
21284
21268
21299
21293
21319
21312
21340
21418
21364
21391
21379
21403
21395
21409
21489
21425
21447
21532
21473
21492
21606
21508
21518
21596
21541
21548
21618
21573
21596
21724
21615
21627
21635
21658
21776
21679
21702
21686
21708
21818
21743
21745
21751
21769
21843
21798
21823
21805
21837
21833
21854
21981
21879
21914
21887
21925
22026
21949
21973
21960
21975
21973
22015
22090
22047
22051
22031
22066
22099
22087
22098
22096
22139
22215
22158
22179
22170
22182
22198
22207
22286
22241
22249
22257
22292
22343
22301
22324
22319
22343
22341
22373
22421
22375
22415
22528
22433
22471
22444
22471
22471
22502
22535
22521
22549
22542
22552
22561
22596
22695
22622
22635
22629
22661
22662
22686
22734
22708
22792
22731
22742
22751
22785
22845
22807
22832
22819
22833
22944
22867
22957
22890
22898
22939
22942
22943
22975
22983
23015
23005
23017
23021
23046
23047
23076
23076
23111
23107
23144
23138
23180
23175
23196
23194
23249
23238
23285
23248
23271
23268
23300
23297
23324
23335
23360
23382
23367
23404
23405
23431
23431
23449
23454
23475
23526
23505
23524
23519
23551
23601
23559
23585
23622
23608
23631
23702
23670
23698
23682
23703
23791
23741
23760
23745
23762
23815
23807
23821
23827
23859
23847
23881
23954
23887
23923
23924
23943
24020
23978
23996
24090
24018
24044
24042
24070
24062
24101
24139
24114
24130
24150
24156
24179
24265
24207
24237
24273
24251
24284
24278
24302
24319
24319
24342
24397
24357
24391
24433
24404
24414
24439
24498
24467
24500
24572
24521
24535
24542
24575
24593
24607
24640
24651
24671
24685
24661
24692
24695
24757
24711
24732
24755
24799
24843
24788
24811
24826
24880
24859
24865
24900
24882
24917
24950
24932
24956
24968
24975
24997
25019
25005
25054
25051
25055
25119
25095
25108
25175
25143
25156
25153
25189
25198
25201
25237
25230
25237
25298
25287
25291
25343
25319
25338
25395
25366
25377
25382
25421
25418
25431
25455
25484
25467
25507
25510
25570
25542
25556
25604
25577
25594
25627
25623
25635
25677
25652
25722
25708
25707
25734
25746
25757
25762
25796
25837
25807
25817
25854
25857
25863
25924
25897
25916
25920
25957
25956
25991
25991
25989
26027
26034
25916
26055
26067
26119
26095
26108
26138
26147
26151
26187
26183
26194
26221
26239
26281
26283
26272
26305
26303
26313
26351
26355
26359
26383
26391
26399
26438
26438
26448
26453
26500
26497
26504
26513
26560
26565
26569
26574
26615
26619
26631
26631
26661
26671
26702
26701
26708
26734
26735
26760
26781
26789
26823
26825
26823
26860
26861
26894
26887
26900
26917
26927
26948
26959
26986
27010
26998
27037
27047
27044
27073
27075
27085
27111
27119
27143
27151
27157
27183
27191
27220
27223
27255
27252
27254
27300
27297
27301
27332
27342
27349
27375
27380
27394
27420
27431
27438
27461
27475
27473
27508
27516
27527
27543
27553
27559
27609
27607
27605
27629
27641
27647
27687
27687
27694
27719
27732
27734
27773
27767
27783
27810
27807
27824
27847
27860
27858
27884
27900
27924
27934
27941
27966
27974
27986
28007
28007
27934
28045
28059
28068
28094
28087
28117
28116
28133
28166
28155
28153
28195
28196
28231
28229
28247
28269
28277
28285
28319
28318
28339
28343
28337
28375
28383
28397
28417
28431
28437
28452
28455
28478
28494
28519
28518
28524
28551
28551
28577
28588
28606
28615
28626
28631
28661
28657
28679
28702
28703
28725
28726
28743
28770
28775
28777
28804
28799
28835
28838
28863
28873
28879
28895
28917
28916
28942
28951
28958
28975
28983
28995
29020
29023
29034
29054
29063
29079
29079
29093
29127
29121
29139
29155
29159
29181
29186
29202
29227
29223
29235
29255
29262
29276
29292
29309
29324
29327
29338
29362
29380
29387
29402
29389
29444
29436
29441
29468
29470
29493
29513
29511
29511
29551
29546
29574
29573
29588
29607
29630
29638
29647
29660
29669
29685
29703
29703
29719
29735
29758
29759
29768
29783
29805
29813
29819
29831
29854
29856
29884
29892
29820
29919
29922
29951
29950
29959
29991
29998
30005
30024
29942
30044
30054
30075
30087
30092
30113
30126
30126
30151
30159
30172
30181
30215
30198
30215
30236
30259
30259
30280
30287
30294
30314
30327
30348
30350
30369
30385
30383
30397
30410
30439
30447
30455
30471
30471
30508
30501
30543
30533
30538
30567
30570
30595
30595
30616
30634
30644
30630
30652
30679
30687
30695
30708
30727
30744
30745
30764
30783
30791
30797
30831
30815
30831
30873
30879
30843
30887
30909
30921
30899
30929
30964
30966
30983
31008
31015
31033
31028
31035
31066
31067
31089
31087
31103
31141
31133
31133
31172
31167
31195
31187
31206
31218
31223
31265
31257
31265
31284
31287
31307
31317
31333
31338
31362
31375
31369
31404
31399
31421
31431
31463
31460
31463
31493
31495
31502
31527
31540
31554
31568
31571
31587
31595
31588
31631
31628
31636
31663
31671
31677
31713
31698
31709
31747
31735
31748
31783
31780
31803
31799
31813
31820
31838
31876
31855
31877
31899
31910
31916
31924
31936
31949
31953
31966
31976
31983
32028
32009
32036
32047
32048
32084
32079
32088
32119
32119
32140
32135
32172
32171
32167
32201
32204
32204
32223
32225
32254
32261
32255
32292
32293
32322
32315
32312
32354
32359
32359
32396
32396
32420
32413
32420
32436
32439
32477
32465
32473
32493
32486
32518
32519
32532
32545
32559
32574
32591
32621
32607
32615
32647
32623
32642
32663
32695
32676
32703
32724
32712
32724
32759
32796
32759
32775
32804
32823
32801
32822
32844
32855
32875
32858
32874
32901
32895
32934
32922
32948
32947
32948
32988
32985
32986
33021
33012
33051
33041
33044
33073
33069
33067
33102
33111
33139
33124
33125
33153
33159
33165
33188
33191
33212
33217
33222
33255
33251
33254
33287
33275
33287
33319
33311
33351
33343
33339
33383
33367
33380
33397
33396
33413
33450
33425
33429
33455
33455
33481
33511
33501
33511
33541
33536
33534
33578
33581
33566
33583
33618
33620
33606
33652
33631
33637
33683
33669
33671
33703
33708
33700
33743
33736
33729
33775
33768
33761
33799
33799
33799
33836
33829
33831
33863
33861
33862
33897
33892
33919
33917
33927
33948
33937
33951
33977
33964
34003
33991
34015
34007
34003
34045
34029
34066
34055
34071
34093
34101
34101
34130
34123
34128
34159
34162
34159
34196
34193
34181
34191
34245
34236
34243
34236
34276
34260
34269
34311
34295
34302
34307
34348
34340
34341
34379
34367
34365
34380
34407
34402
34401
34439
34435
34442
34470
34463
34463
34492
34492
34492
34498
34540
34516
34523
34565
34557
34557
34585
34583
34587
34615
34611
34638
34629
34634
34662
34661
34658
34695
34687
34689
34711
34706
34742
34724
34727
34757
34750
34756
34791
34787
34817
34807
34815
34853
34823
34823
34875
34863
34870
34883
34903
34894
34894
34933
34922
34935
34963
34943
34947
34983
34974
34970
35007
34997
35004
35040
35026
35028
35055
35045
35079
35079
35079
35109
35100
35103
35135
35127
35129
35172
35159
35156
35183
35165
35179
35205
35199
35199
35238
35223
35221
35252
35247
35271
35278
35285
35269
35304
35286
35295
35335
35319
35330
35351
35346
35335
35383
35378
35405
35397
35399
35423
35431
35423
35466
35447
35441
35471
35463
35447
35495
35492
35522
35508
35508
35556
35532
35535
35559
35550
35586
35566
35574
35599
35582
35591
35630
35605
35644
35626
35623
35663
35638
35640
35703
35662
35669
35719
35695
35695
35742
35723
35719
35772
35749
35755
35789
35765
35759
35815
35788
35783
35812
35801
35817
35837
35821
35796
35847
35847
35847
35881
35877
35875
35904
35890
35900
35919
35919
35914
35934
35942
35932
35963
35951
35944
35991
35975
35970
36006
35988
36004
36020
36007
36022
36054
36045
36036
36075
36050
36066
36103
36087
36078
36103
36100
36095
36103
36103
36163
36125
36133
36167
36132
36137
36187
36167
36166
36153
36189
36191
36170
36183
36207
36207
36199
36246
36220
36197
36262
36238
36236
36244
36276
36239
36246
36287
36268
36265
36307
36288
36279
36322
36295
36299
36357
36327
36308
36359
36327
36326
36375
36351
36341
36389
36359
36359
36410
36384
36368
36412
36380
36374
36423
36399
36396
36439
36411
36359
36434
36431
36469
36441
36440
36474
36460
36450
36479
36460
36475
36487
36524
36484
36508
36526
36493
36506
36541
36551
36522
36519
36562
36519
36526
36575
36555
36541
36589
36562
36564
36597
36580
36572
36599
36588
36625
36599
36607
36644
36615
36606
36604
36637
36615
36615
36646
36628
36662
36646
36685
36660
36646
36687
36661
36702
36711
36671
36679
36699
36727
36671
36699
36711
36751
36699
36713
36732
36711
36735
36734
36766
36734
36741
36759
36748
36757
36759
36775
36798
36763
36772
36790
36811
36820
36784
36783
36800
36830
36794
36807
36820
36853
36812
36817
36817
36839
36871
36823
36838
36844
36871
36870
36847
36889
36863
36851
36893
36863
36836
36885
36868
36905
36870
36868
36887
36871
36924
36893
36895
36923
36911
36913
36946
36917
36906
36935
36924
36966
36929
36935
36935
36935
36967
36945
36934
36973
36943
36945
36983
36956
36963
36972
36975
36958
36989
36962
37031
36980
36981
37015
36981
36982
36999
36997
37028
37012
36996
37036
37006
37006
37030
37018
37007
37033
37012
37062
37027
37025
37039
37029
37071
37039
37030
37076
37045
37031
37062
37052
37048
37057
37059
37053
37100
37070
37067
37066
37095
37072
37063
37087
37064
37111
37081
37103
37084
37086
37108
37086
37133
37101
37127
37095
37090
37103
37079
37125
37103
37095
37109
37094
37143
37123
37103
37150
37115
37106
37132
37119
37111
37127
37119
37164
37125
37118
37147
37127
37164
37141
37127
37162
37127
37127
37158
37140
37180
37142
37143
37151
37135
37178
37157
37151
37183
37150
37147
37194
37171
37156
37159
37177
37167
37159
37187
37179
37159
37165
37178
37175
37166
37183
37167
37191
37185
37210
37182
37180
37196
37180
37228
37193
37183
37207
37191
37188
37205
37172
37219
37194
37191
37215
37199
37228
37211
37190
37220
37219
37223
37213
37211
37247
37209
37207
37215
37214
37230
37231
37223
37247
37215
37212
37231
37222
37253
37227
37228
37252
37231
37263
37226
37222
37233
37237
37261
37239
37285
37245
37229
37261
37239
37265
37241
37284
37253
37279
37247
37270
37258
37255
37271
37263
37255
37263
37271
37288
37262
37263
37285
37263
37247
37279
37271
37310
37286
37279
37306
37286
37271
37316
37285
37319
37298
37279
37297
37299
37309
37295
37289
37325
37307
37289
37319
37305
37333
37301
37296
37319
37300
37335
37317
37345
37319
37318
37333
37312
37332
37327
37349
37320
37351
37320
37327
37355
37335
37271
37343
37327
37358
37348
37335
37356
37346
37335
37348
37351
37367
37359
37351
37356
37356
37332
37375
37364
37357
37375
37364
37364
37372
37364
37383
37369
37364
37383
37367
37383
37375
37366
37381
37366
37396
37377
37383
37383
37383
37383
37383
37407
37383
37407
37383
37403
37415
37383
37399
37415
37414
37394
37383
37420
37413
37392
37404
37411
37412
37404
37407
37420
37416
37415
37423
37428
37416
37420
37417
37437
37423
37429
37439
37429
37428
37431
37439
37445
37433
37445
37432
37447
37460
37442
37439
37448
37445
37459
37447
37447
37455
37447
37455
37447
37455
37446
37449
37469
37454
37468
37439
37467
37478
37463
37484
37454
37468
37481
37453
37476
37478
37465
37486
37479
37478
37499
37487
37485
37479
37479
37500
37486
37486
37501
37467
37502
37503
37485
37501
37471
37508
37508
37482
37497
37507
37503
37503
37511
37503
37511
37505
37514
37511
37516
37513
37516
37518
37511
37517
37518
37533
37525
37527
37535
37473
37527
37543
37530
37537
37540
37540
37543
37525
37543
37543
37543
37540
37551
37540
37540
37557
37551
37551
37541
37559
37551
37555
37567
37542
37558
37573
37565
37564
37556
37567
37583
37547
37574
37571
37570
37579
37511
37574
37578
37579
37579
37550
37567
37575
37590
37591
37551
37591
37585
37586
37589
37593
37588
37591
37603
37591
37591
37588
37594
37591
37596
37597
37599
37590
37600
37589
37586
37588
37579
37572
37598
37599
37609
37599
37607
37607
37611
37606
37615
37629
37622
37615
37607
37591
37591
37583
37604
37598
37603
37525
37623
37618
37621
37631
37607
37624
37637
37623
37623
37622
37631
37623
37622
37634
37639
37635
37636
37633
37622
37623
37634
37631
37635
37639
37562
37557
37628
37634
37639
37638
37639
37639
37633
37639
37639
37638
37639
37651
37653
37639
37639
37649
37639
37647
37639
37639
37652
37639
37644
37655
37660
37674
37668
37650
37647
37619
37582
37605
37605
37655
37659
37661
37569
37676
37667
37663
37663
37660
37634
37669
37639
37679
37668
37591
37666
37605
37672
37683
37669
37669
37647
37672
37684
37669
37676
37633
37677
37671
37670
37670
37622
37671
37675
37669
37691
37671
37679
37630
37678
37679
37666
37683
37679
37684
37679
37660
37596
37676
37663
37679
37671
37669
37695
37561
37679
37660
37679
37679
37679
37679
37639
37686
37685
37668
37671
37631
37685
37671
37675
37667
37665
37652
37639
37639
37636
37628
37614
37634
37606
37575
37678
37679
37676
37679
37684
37695
37679
37677
37671
37679
37684
37649
37681
37687
37674
37664
37613
37684
37670
37673
37676
37674
37668
37639
37677
37698
37571
37674
37656
37676
37679
37615
37671
37653
37670
37679
37661
37671
37595
37655
37607
37660
37659
37658
37668
37657
37668
37655
37681
37599
37671
37663
37661
37647
37622
37657
37673
37583
37649
37652
37659
37669
37599
37653
37639
37637
37652
37582
37639
37625
37639
37654
37585
37635
37650
37569
37636
37639
37575
37612
37639
37572
37611
37492
37559
37545
37591
37565
37583
37580
37571
37557
37517
37535
37542
37557
37539
37479
37461
37471
37476
37501
37516
37529
37518
37535
37549
37551
37553
37564
37565
37568
37550
37567
37564
37567
37543
37562
37532
37531
37525
37527
37524
37535
37531
37534
37527
37535
37527
37509
37431
37479
37509
37527
37506
37493
37501
37493
37503
37493
37494
37495
37487
37479
37459
37487
37477
37463
37452
37463
37467
37461
37444
37446
37445
37444
37451
37447
37413
37434
37441
37309
37423
37423
37302
37407
37429
37319
37397
37423
37343
37407
37383
37372
37383
37380
37376
37371
37364
37375
37364
37340
37335
37327
37319
37311
37253
37351
37351
37343
37341
37348
37344
37335
37318
37319
37327
37319
37319
37323
37301
37308
37303
37295
37276
37292
37280
37283
37279
37279
37284
37271
37279
37268
37268
37265
37267
37263
37263
37252
37233
37240
37234
37251
37235
37227
37231
37225
37228
37215
37213
37219
37196
37090
37093
37127
37166
37153
37172
37174
37181
37175
37186
37151
37167
37157
37159
37158
37135
37029
37019
37030
37022
37060
37067
37080
37090
37115
37103
37100
37106
37107
37102
37074
37072
37078
37068
37069
37071
37062
37057
37047
37054
37047
37039
37031
36879
36914
36961
36969
36970
36933
36927
36871
37008
36999
36995
36983
36991
36975
36969
36971
36862
36847
36871
36867
36853
36831
36853
36863
36842
36845
36894
36860
36871
36890
36871
36871
36871
36860
36852
36871
36863
36861
36863
36863
36852
36839
36790
36843
36839
36717
36820
36799
36817
36807
36788
36796
36782
36795
36708
36772
36767
36761
36768
36764
36762
36743
36743
36725
36743
36718
36723
36716
36716
36711
36707
36695
36693
36679
36685
36675
36675
36652
36663
36647
36647
36647
36639
36631
36615
36628
36607
36604
36604
36603
36595
36588
36583
36573
36574
36564
36561
36564
36551
36423
36459
36477
36479
36487
36487
36494
36495
36501
36479
36479
36471
36472
36468
36463
36464
36442
36436
36438
36436
36423
36426
36411
36419
36409
36412
36396
36395
36388
36368
36359
36347
36369
36359
36345
36324
36348
36319
36340
36339
36323
36317
36255
36311
36295
36287
36279
36231
36279
36284
36118
36260
36250
36136
36260
36255
36119
36231
36229
36212
36199
36202
36047
36182
36135
36187
36189
36062
36167
36182
36039
36162
36156
36140
36143
36121
36127
36119
36036
36103
36103
35980
36092
36086
36081
36070
36039
36081
36063
36056
36036
36039
36042
36039
36030
36028
35900
36007
35949
36004
35956
35996
35988
35983
35991
35895
35969
35962
35943
35940
35906
35943
35939
35935
35924
35823
35895
35916
35916
35908
35885
35891
35895
35877
35879
35877
35871
35724
35751
35763
35789
35813
35825
35823
35820
35821
35825
35819
35807
35815
35802
35786
35782
35783
35765
35767
35764
35653
35687
35727
35740
35737
35743
35713
35716
35714
35725
35701
35609
35588
35585
35649
35652
35675
35679
35671
35678
35651
35646
35655
35652
35650
35631
35631
35527
35591
35611
35611
35605
35607
35607
35575
35572
35571
35559
35567
35559
35553
35544
35549
35431
35391
35423
35455
35517
35518
35526
35503
35503
35495
35495
35477
35367
35439
35455
35463
35466
35452
35447
35442
35437
35439
35412
35422
35431
35428
35415
35415
35407
35407
35401
35377
35222
35302
35351
35378
35377
35351
35364
35343
35335
35335
35335
35316
35229
35296
35299
35308
35290
35292
35307
35276
35284
35277
35267
35268
35143
35191
35227
35250
35253
35239
35249
35222
35223
35215
35129
35169
35206
35207
35207
35184
35195
35183
35061
35115
35158
35172
35153
35143
34975
35103
35141
35127
35118
35118
35024
35091
35099
35111
35079
35090
35091
35070
34977
35013
35033
35059
35077
35037
35039
35047
35025
34923
34991
35007
35034
35007
34998
34999
35003
35007
34991
34983
34832
34863
34923
34964
34966
34949
34957
34839
34919
34941
34925
34927
34929
34921
34916
34906
34790
34815
34879
34892
34884
34890
34887
34870
34862
34860
34852
34858
34847
34855
34838
34715
34762
34797
34807
34831
34791
34792
34799
34797
34797
34661
34665
34679
34734
34735
34755
34758
34758
34763
34727
34735
34743
34727
34733
34723
34717
34711
34566
34583
34596
34595
34687
34683
34671
34675
34663
34668
34655
34655
34497
34537
34575
34605
34599
34612
34629
34643
34615
34612
34611
34596
34595
34583
34439
34467
34490
34492
34511
34511
34525
34524
34519
34517
34509
34519
34534
34515
34540
34522
34532
34517
34506
34497
34510
34490
34495
34491
34473
34445
34463
34447
34452
34439
34447
34437
34452
34436
34437
34430
34417
34409
34411
34420
34420
34405
34391
34386
34388
34386
34375
34371
34360
34355
34369
34366
34371
34359
34356
34343
34341
34333
34331
34311
34311
34295
34275
34279
34277
34263
34269
34285
34295
34271
34263
34252
34251
34250
34263
34252
34247
34242
34236
34234
34217
34219
34217
34215
34215
34218
34204
34207
34197
34196
34188
34183
34004
34084
34140
34175
34167
34141
34151
34155
34146
34142
34131
33982
34031
34061
34102
34119
34122
34111
34099
34106
34097
33967
34054
34082
34063
34090
34055
34069
34053
33883
33991
34013
34044
34050
34043
34023
34020
34023
34029
34023
34017
33875
33924
33957
33941
33847
33991
33995
33985
33967
33967
33983
33975
33958
33933
33887
33942
33909
33950
33947
33937
33939
33927
33941
33917
33932
33757
33903
33829
33902
33903
33899
33892
33883
33879
33823
33879
33827
33877
33871
33764
33875
33841
33863
33861
33764
33852
33831
33858
33843
33695
33831
33799
33830
33839
33711
33815
33783
33799
33727
33799
33799
33667
33783
33757
33791
33799
33611
33778
33684
33779
33772
33633
33764
33735
33759
33759
33628
33743
33694
33747
33749
33620
33732
33741
33601
33729
33711
33717
33701
33668
33716
33705
33538
33692
33624
33695
33692
33693
33687
33668
33685
33676
33583
33671
33671
33529
33663
33621
33665
33669
33524
33647
33622
33648
33652
33560
33636
33626
33623
33620
33539
33621
33543
33628
33610
33612
33626
33503
33607
33594
33582
33601
33409
33577
33567
33585
33575
33478
33567
33539
33558
33537
33509
33555
33564
33413
33543
33527
33541
33552
33446
33540
33525
33517
33515
33487
33519
33519
33506
33516
33372
33495
33463
33492
33506
33404
33491
33476
33495
33503
33479
33493
33377
33483
33447
33480
33447
33479
33469
33318
33453
33367
33463
33414
33461
33436
33455
33443
33447
33445
33331
33443
33445
33321
33447
33437
33434
33460
33287
33423
33391
33437
33386
33430
33422
33431
33431
33279
33420
33364
33418
33396
33423
33441
33287
33415
33366
33415
33428
33407
33422
33409
33395
33354
33415
33381
33407
33407
33415
33387
33375
33405
33405
33406
33401
33263
33391
33298
33379
33347
33402
33366
33399
33383
33409
33415
33220
33400
33287
33397
33364
33395
33397
33399
33399
33389
33379
33317
33399
33364
33404
33371
33391
33324
33389
33409
33338
33387
33280
33391
33338
33415
33355
33396
33394
33395
33415
33261
33396
33347
33410
33383
33394
33390
33391
33419
33402
33429
33407
33428
33399
33423
33276
33403
33311
33398
33349
33407
33382
33423
33403
33359
33427
33415
33423
33410
33391
33425
33423
33343
33434
33443
33415
33415
33425
33445
33437
33422
33415
33416
33436
33443
33447
33447
33447
33455
33447
33446
33443
33447
33463
33470
33471
33470
33476
33471
33477
33460
33484
33472
33488
33485
33484
33487
33492
33506
33506
33490
33479
33447
33447
33402
33374
33335
33491
33511
33507
33503
33507
33454
33525
33519
33523
33533
33518
33527
33383
33540
33527
33543
33541
33533
33535
33476
33562
33551
33447
33566
33368
33567
33428
33543
33518
33567
33551
33582
33595
33443
33571
33535
33598
33599
33421
33588
33543
33610
33564
33620
33589
33612
33637
33493
33619
33575
33626
33606
33631
33635
33653
33652
33646
33663
33537
33647
33517
33670
33513
33652
33516
33671
33540
33701
33514
33685
33647
33703
33690
33716
33727
33726
33735
33729
33734
33735
33751
33735
33765
33617
33745
33735
33773
33773
33775
33783
33783
33780
33733
33788
33814
33795
33791
33757
33811
33828
33751
33835
33816
33837
33868
33735
33860
33879
33741
33881
33876
33895
33880
33871
33895
33926
33773
33918
33926
33758
33939
33933
33942
33969
33851
33956
33945
33980
33991
33828
33995
33991
34007
33993
33998
34022
34023
34029
34036
34037
34029
34055
34055
34023
34083
34073
34103
34100
34052
34118
34126
33986
34130
34105
34156
34172
34031
34167
34151
34190
34197
34205
34199
34148
34233
34236
34247
34260
34113
34263
34151
34282
34295
34213
34309
34308
34311
34311
34280
34343
34372
34252
34364
34379
34388
34372
34363
34409
34415
34248
34415
34415
34447
34459
34475
34499
34345
34487
34499
34511
34527
34430
34540
34553
34445
34567
34588
34463
34557
34567
34580
34587
34593
34564
34594
34597
34615
34583
34565
34551
34516
34567
34600
34613
34629
34643
34647
34631
34683
34679
34646
34807
34661
34823
34844
34852
34866
34865
34852
34881
34911
34929
34940
34951
34951
34965
34967
34988
34999
34999
35020
35028
35033
35036
35034
35020
35015
35035
35051
35063
35062
35046
35027
34957
35149
35169
35172
35188
35199
35202
35207
35034
35058
35111
35127
35164
35157
35143
35175
35197
35137
35345
35356
35370
35380
35391
35399
35413
35417
35434
35434
35463
35462
35475
35479
35479
35519
35539
35558
35564
35559
35583
35588
35588
35599
35625
35639
35639
35654
35657
35654
35674
35683
35716
35738
35751
35737
35700
35673
35665
35628
35663
35693
35640
35621
35708
35751
35775
35804
35789
35868
35847
35864
35899
35886
35919
35943
35925
35894
36028
36047
36068
36080
36086
36097
36115
35959
36059
36110
36147
36173
36181
36175
36155
36193
36222
36238
36245
36242
36258
36247
36231
36244
36223
36359
36246
36374
36396
36416
36398
36406
36458
36460
36268
36484
36478
36533
36519
36479
36558
36567
36591
36583
36604
36634
36627
36629
36637
36645
36662
36674
36707
36694
36718
36719
36757
36788
36802
36823
36831
36844
36860
36869
36885
36902
36924
36925
36947
36962
36967
36989
36996
37022
37023
37038
37055
37076
37081
37105
36848
36869
36905
36961
37023
36992
37047
37148
37215
37237
37254
37277
37277
37288
37263
37314
37327
37355
37364
37371
37394
37405
37194
37237
37246
37295
37286
37364
37426
37440
37463
37500
37511
37551
37588
37607
37639
37655
37667
37632
37639
37659
37679
37693
37699
37695
37733
37755
37767
37774
37823
37844
37857
37844
37879
37857
37895
37934
37936
37959
37975
37794
37895
38005
38015
38023
38059
38072
38103
38112
38142
38142
38151
38175
38181
38199
38213
38237
38247
38267
38275
38275
38279
38267
38289
38321
38351
38378
38398
38407
38421
38436
38455
38476
38486
38498
38503
38519
38511
38535
38543
38524
38559
38605
38613
38638
38615
38648
38679
38642
38692
38719
38737
38638
38772
38791
38596
38815
38836
38773
38855
38893
38783
38903
38939
38623
38917
38945
38980
39002
38893
39023
39043
39041
39037
39038
39109
39085
39073
39139
39157
39175
39151
39209
38887
39191
39202
39253
39099
39303
39204
39315
39363
39167
39370
39393
39079
39362
39415
39430
39431
39454
39487
39455
39508
39526
39505
39559
39291
39567
39613
39617
39623
39617
39671
39684
39353
39687
39733
39735
39752
39775
39783
39799
39797
39831
39833
39830
39831
39839
39903
39919
39934
39943
39943
39887
39987
40004
40035
40039
40035
39999
40089
40095
40116
40135
39862
40132
40156
40197
40221
39999
40191
40199
40270
40284
40146
40307
40327
40348
40300
40284
40372
40407
40423
40429
40275
40455
40479
40199
40490
40535
40241
40533
40564
40476
40594
40588
40599
40637
40604
40627
40687
40683
40692
40727
40692
40658
40775
40797
40583
40798
40827
40839
40866
40874
40863
40881
40663
40944
40945
40895
40926
40703
40999
41015
41031
40996
40966
41084
41093
41095
41126
40812
41094
41068
41167
41184
41191
41223
40930
41192
41197
41268
41287
41299
41317
41310
41308
41294
41351
41391
41396
41419
41417
41441
41454
41458
41446
41447
41406
41444
41478
41447
41463
41395
41375
41319
41601
41627
41628
41636
41637
41670
41678
41687
41405
41510
41576
41604
41636
41727
41771
41800
41819
41831
41839
41856
41869
41858
41842
41876
41919
41909
41928
41949
41963
41898
41978
42004
41678
42005
42036
42055
42015
42083
41952
42091
42111
42023
42132
42159
41789
42119
42172
42193
42223
41982
42217
42233
42260
42214
42239
42287
42292
42143
42312
42287
42357
42358
42380
42345
42382
42391
42431
42438
42388
42446
42459
42439
42477
42503
42527
42525
42419
42492
42503
42566
42599
42595
42613
42612
42628
42293
42593
42589
42663
42687
42359
42659
42670
42724
42735
42652
42750
42775
42782
42789
42759
42812
42828
42727
42839
42859
42823
42869
42895
42902
42911
42919
42932
42938
42950
42964
42954
42959
42982
42981
42997
43012
43004
43006
43037
43012
43092
43092
43119
43124
43133
43138
43159
43163
43095
43047
42939
42919
42869
43215
43235
43221
42901
42980
43075
43065
42943
43299
43287
43319
43309
43321
43332
43351
43293
43367
43389
43302
43395
43423
43204
43415
43438
43302
43459
43463
43335
43477
43494
43499
43471
43511
43525
43511
43471
43543
43540
43511
43575
43604
43375
43594
43616
43321
43589
43631
43655
43665
43679
43684
43689
43699
43700
43706
43725
43703
43746
43743
43756
43767
43773
43779
43783
43797
43807
43809
43783
43711
43686
43823
43839
43852
43847
43855
43875
43788
43884
43893
43871
43909
43876
43917
43935
43892
43929
43940
43953
43837
43974
43993
43783
43996
44000
43975
44003
43982
44029
44020
44033
44066
43811
44039
44053
44068
44093
43903
44035
44058
44081
44125
44124
44127
44143
44141
44159
44149
44076
43996
43842
43820
44183
44187
44179
44191
43840
44215
44205
44175
44167
44215
44222
44255
44256
44239
44244
44003
44268
44278
44295
44293
44295
43991
44254
44287
44309
44332
44331
44292
44270
44342
44356
44359
44311
44359
44375
44380
44361
44343
44358
44383
44405
44413
44423
44423
44412
44435
44394
44400
44429
44447
44436
44460
44364
44405
44423
44449
44467
44454
44463
44506
44519
44508
44508
44508
44501
44524
44538
44199
44487
44500
44551
44567
44550
44533
44577
44583
44532
44447
44551
44442
44550
44293
44612
44340
44607
44615
44615
44646
44647
44652
44390
44641
44662
44669
44607
44476
44633
44638
44684
44706
44679
44661
44591
44711
44708
44727
44702
44503
44735
44734
44741
44551
44735
44750
44757
44772
44755
44764
44551
44764
44789
44663
44748
44807
44788
44766
44801
44807
44814
44722
44829
44834
44831
44807
44689
44838
44857
44735
44847
44871
44859
44887
44628
44870
44877
44887
44842
44871
44895
44910
44911
44871
44861
44900
44924
44735
44924
44940
44847
44935
44935
44903
44934
44924
44887
44959
44980
44772
44967
44996
44981
44950
44970
44975
44959
44990
44998
45006
44991
45011
45010
44788
44992
45015
45030
45039
45045
45013
45039
45055
45015
45023
45048
45041
45052
45063
45063
45044
45087
45085
44807
45078
45100
45087
45079
45092
45092
45117
44860
45101
45116
45102
45108
45051
45125
45143
45127
45103
45140
45151
45111
45055
45151
45159
44874
45133
45165
45165
45175
45183
45155
45045
45164
45183
45191
45175
45044
45186
45204
44988
45215
45207
45221
45190
45223
45223
45191
45183
45211
45241
45108
45234
45244
45255
45258
45223
45222
45246
45238
45258
45261
45255
45262
45277
45269
45265
45276
45271
45272
45279
45292
45292
45295
45285
45279
45303
45303
45305
45319
45311
45311
45308
45319
45341
45319
45345
45302
45287
45311
45316
45317
45311
45313
45336
45343
45333
45342
45332
45350
45214
45337
45319
45365
45359
45363
45380
45144
45349
45348
45366
45380
45111
45340
45297
45381
45388
45391
45367
45349
45391
45405
45139
45398
45412
45226
45398
45411
45404
45381
45412
45411
45415
45415
45405
45420
45415
45413
45421
45415
45421
45415
45429
45422
45423
45416
45431
45421
45439
45436
45439
45438
45431
45181
45366
45395
45439
45463
45459
45459
45456
45447
45455
45445
45414
45436
45460
45462
45444
45346
45470
45455
45447
45479
45468
45252
45470
45476
45447
45492
45476
45279
45479
45479
45482
45463
45476
45503
45455
45270
45490
45484
45486
45505
45455
45479
45498
45473
45493
45495
45468
45252
45505
45495
45505
45501
45287
45485
45479
45505
45498
45488
45500
45471
45511
45511
45431
45507
45479
45463
45500
45511
45490
45519
45502
45274
45508
45495
45527
45511
45475
45279
45505
45516
45486
45519
45461
45503
45518
45511
45503
45526
45319
45522
45506
45519
45293
45500
45499
45500
45366
45524
45523
45425
45511
45526
45512
45494
45531
45487
45509
45511
45468
45495
45511
45520
45495
45274
45516
45507
45522
45504
45332
45509
45514
45508
45507
45516
45520
45503
45494
45505
45457
45495
45341
45503
45511
45495
45511
45503
45508
45508
45508
45501
45508
45511
45503
45515
45492
45497
45503
45492
45494
45500
45509
45503
45503
45487
45492
45500
45495
45487
45485
45478
45487
45480
45484
45465
45494
45479
45463
45427
45479
45484
45478
45490
45479
45461
45463
45479
45487
45377
45471
45478
45268
45458
45462
45474
45476
45463
45483
45460
45471
45316
45444
45404
45452
45461
45455
45450
45403
45439
45471
45335
45439
45455
45447
45445
45220
45431
45436
45437
45419
45429
45423
45413
45431
45423
45412
45420
45420
45397
45428
45199
45399
45415
45409
45390
45375
45413
45414
45404
45407
45409
45407
45407
45406
45404
45390
45391
45385
45389
45166
45172
45253
45255
45294
45244
45180
45187
45358
45196
45196
45170
45366
45366
45343
45354
45345
45348
45340
45329
45319
45357
45349
45351
45335
45335
45335
45319
45333
45334
45319
45311
45242
45266
45213
45229
45238
45239
45203
45182
45131
45167
45212
45239
45247
45222
45213
45212
45255
45271
45283
45283
45263
45268
45249
45233
45231
45215
45215
45239
45236
45230
45231
45221
45213
45215
45196
45191
45159
45188
45188
45060
45183
45177
45180
45159
45159
45148
45147
45150
45151
45127
45131
45127
45118
45030
45123
45109
45092
45116
45095
45095
44951
45092
45031
45063
45062
45083
45060
45052
45061
45063
45052
44908
45018
44934
45008
44967
45031
45023
45015
44991
45005
45002
44994
44807
44959
44896
44965
44967
44955
44983
44783
44935
44902
44935
44932
44927
44935
44734
44916
44903
44903
44903
44847
44886
44900
44882
44871
44788
44862
44853
44861
44852
44775
44839
44829
44807
44807
44823
44807
44807
44783
44802
44793
44796
44780
44772
44756
44750
44753
44727
44695
44582
44721
44727
44711
44710
44716
44710
44679
44647
44679
44668
44673
44671
44660
44644
44655
44636
44636
44615
44631
44615
44615
44598
44584
44597
44583
44577
44575
44551
44564
44567
44459
44548
44533
44534
44547
44519
44517
44511
44504
44490
44487
44486
44487
44343
44447
44469
44455
44449
44341
44441
44415
44418
44413
44410
44380
44357
44386
44380
44388
44369
44367
44343
44349
44341
44343
44335
44308
44236
44295
44292
44289
44308
44278
44253
44207
44247
44252
44247
44237
44148
44213
44198
44205
44185
44189
44196
44113
44167
44164
44167
44142
44111
44125
44105
44119
44127
44119
44124
44003
44098
44073
44072
44079
43886
44039
44031
44038
44031
43940
44015
43991
44003
43991
43959
43966
43983
43959
43934
43943
43942
43935
43741
43903
43900
43889
43886
43719
43852
43811
43854
43835
43842
43819
43822
43812
43807
43783
43783
43783
43771
43770
43749
43764
43627
43743
43710
43714
43717
43548
43689
43692
43676
43655
43639
43655
43647
43637
43637
43630
43598
43569
43578
43578
43574
43572
43548
43550
43342
43526
43381
43493
43399
43487
43466
43471
43473
43444
43463
43254
43423
43399
43399
43404
43399
43397
43187
43364
43333
43351
43333
43338
43342
43319
43311
43212
43295
43279
43266
43270
43247
43261
43243
43225
43129
43192
43108
43178
43154
43175
43138
43156
43034
43126
42960
43135
43111
43111
42879
43098
43076
43050
42939
43043
42965
43029
43028
43014
43007
42796
42967
42884
42961
42871
42957
42948
42932
42921
42927
42919
42911
42895
42863
42879
42862
42855
42861
42838
42841
42643
42789
42731
42796
42759
42774
42759
