EDA
22983
22989
22992
22987
22986
22986
22988
22985
22991
22986
22978
22977
22983
22983
22996
22983
22983
22982
22983
22979
22980
22988
22983
22986
22977
22985
22980
22986
22986
22978
22983
22975
22982
22975
22986
22977
22976
22980
22988
22972
22983
22977
22986
22982
22974
22981
22975
22981
22973
22980
22975
22981
22977
22984
22981
22972
22982
22983
22985
22991
22983
22991
22983
22982
22977
22980
22977
22986
22975
22978
22976
22986
22986
22982
22976
22968
22991
22979
22969
22979
22983
22972
22980
22972
22981
22970
22976
22971
22975
22969
22978
22991
22983
22979
22974
22972
22967
22978
22963
22975
22969
22975
22969
22973
22958
22979
22980
22971
22978
22967
22977
22965
22976
22972
22982
22977
22981
22979
22986
22978
22976
22975
22978
22975
22980
22981
22993
22972
22964
22975
22967
22977
22964
22974
22964
22978
22969
22976
22983
22978
22991
22980
22981
22974
22981
22971
22983
22982
22987
22983
22983
22975
22978
22970
22977
22963
22971
22964
22975
22963
22972
22965
22972
22986
22980
22999
22969
22989
22979
22977
22965
22974
22965
22975
22965
22980
22977
22983
22977
22989
22975
22972
22972
22963
22974
22968
22981
22973
22960
22973
22965
22980
22978
22964
22975
22967
22980
22966
22959
22967
22971
22974
22962
22969
22963
22967
22959
22968
22959
22975
22957
22972
22971
22976
22980
22959
22965
22965
22967
22959
22967
22962
22966
22964
22972
22965
22966
22960
22971
22978
22974
22954
22969
22961
22967
22959
22970
22961
22968
22963
22966
22958
22963
22957
22972
22961
22969
22960
22970
22959
22965
22959
22969
22957
22969
22957
22972
22961
22972
22960
22969
22959
22961
22955
22967
22953
22963
22956
22964
22959
22971
22967
22956
22961
22953
22956
22972
22964
22963
22958
22967
22959
22959
22964
22967
22967
22959
22961
22958
22954
22963
22953
22975
22960
22954
22971
22957
22951
22964
22959
22951
22964
22950
22961
22950
22959
22948
22957
22946
22957
22948
22957
22961
22956
22969
22956
22961
22954
22959
22950
22951
22948
22949
22951
22951
22951
22955
22943
22951
22948
22948
22958
22951
22957
22949
22953
22970
22956
22954
22949
22956
22959
22948
22956
22942
22949
22956
22944
22949
22958
22945
22953
22945
22951
22956
22940
22950
22950
22943
22957
22949
22945
22949
22940
22951
22957
22945
22950
22971
22946
22952
22940
22950
22943
22949
22957
22943
22948
22955
22940
22948
22940
22948
22941
22951
22943
22948
22937
22951
22957
22949
22954
22945
22939
22955
22941
22951
22940
22949
22939
22948
22940
22947
22939
22948
22938
22949
22940
22945
22970
22940
22951
22940
22945
22940
22948
22966
22949
22957
22950
22957
22954
22951
22956
22949
22948
22950
22948
22965
22945
22935
22945
22939
22940
22921
22953
22946
22934
22943
22966
22947
22946
22929
22939
22933
22948
22956
22951
22948
22939
22938
22959
22938
22948
22931
22945
22943
22938
22941
22935
22942
22965
22943
22950
22933
22941
22932
22949
22951
22935
22945
22931
22943
22946
22927
22940
22931
22940
22953
22941
22951
22948
22951
22949
22928
22943
22944
22930
22941
22925
22940
22929
22937
22938
22932
22937
22956
22938
22943
22929
22932
22927
22930
22938
22924
22935
22926
22934
22927
22939
22943
22929
22941
22927
22937
22924
22930
22945
22927
22937
22925
22932
22925
22932
22927
22941
22942
22927
22935
22923
22941
22926
22943
22939
22928
22937
22926
22932
22925
22929
22926
22924
22951
22938
22939
22922
22935
22919
22924
22935
22929
22935
22921
22935
22924
22932
22941
22930
22941
22918
22926
22920
22921
22937
22920
22932
22918
22929
22932
22938
22943
22926
22933
22920
22933
22919
22931
22918
22935
22937
22919
22935
22919
22926
22921
22926
22935
22935
22944
22938
22927
22923
22927
22936
22919
22934
22921
22932
22929
22922
22923
22934
22918
22931
22941
22921
22932
22913
22933
22929
22919
22926
22951
22930
22933
22919
22929
22916
22928
22915
22922
22918
22924
22917
22932
22935
22919
22930
22918
22925
22916
22925
22943
22927
22933
22916
22929
22910
22924
22943
22931
22931
22927
22925
22916
22925
22911
22919
22932
22917
22923
22917
22923
22933
22918
22924
22918
22924
22946
22922
22920
22913
22919
22911
22918
22929
22913
22925
22911
22924
22929
22912
22922
22911
22924
22941
22915
22917
22908
22923
22913
22917
22918
22902
22918
22927
22919
22922
22909
22919
22908
22917
22909
22921
22921
22909
22916
22910
22915
22940
22918
22926
22912
22919
22913
22924
22908
22912
22909
22915
22920
22909
22913
22928
22917
22923
22911
22917
22907
22909
22933
22916
22917
22909
22908
22905
22908
22907
22919
22919
22919
22921
22908
22913
22901
22911
22902
22914
22919
22907
22918
22913
22912
22906
22908
22903
22913
22901
22906
22902
22916
22916
22909
22913
22901
22914
22907
22908
22901
22908
22898
22911
22901
22910
22903
22915
22907
22908
22930
22908
22903
22908
22900
22916
22903
22919
22906
22916
22916
22919
22907
22906
22913
22904
22911
22903
22911
22900
22911
22906
22905
22921
22915
22916
22913
22916
22919
22913
22919
22929
22907
22896
22909
22902
22908
22900
22910
22901
22908
22900
22915
22900
22912
22897
22906
22898
22906
22903
22908
22900
22902
22896
22903
22895
22908
22910
22903
22911
22900
22911
22897
22905
22900
22910
22893
22911
22894
22918
22901
22916
22905
22965
22912
22902
22914
22900
22917
22894
22919
22900
22922
22897
22918
22896
22917
22985
22940
22935
22918
22934
22917
22933
22910
22929
22914
22924
22904
22916
22929
22911
22918
22911
22918
22922
22907
22919
22910
22915
22905
22914
22907
22916
22905
22914
22914
22900
22911
22919
22903
22910
22925
22911
22914
22909
22916
22911
22901
22914
22905
22906
22900
22917
22908
22909
22910
22901
22911
22911
22903
22909
22902
22911
22903
22907
22901
22905
22902
22911
22900
22908
22901
22904
22895
22903
22899
22903
22900
22903
22894
22903
22897
22905
22901
22900
22908
22898
22907
22899
22904
22897
22899
22889
22903
22900
22901
22895
22906
22892
22900
22895
22909
22893
22900
22893
22913
22908
22908
22903
22897
22909
22913
22907
22911
22908
22894
22898
22893
22901
22894
22902
22893
22898
22895
22896
22893
22905
22891
22901
22895
22896
22900
22894
22900
22900
22888
22901
22892
22894
22908
22892
22896
22919
22898
22903
22895
22898
22894
22906
22903
22887
22897
22900
22892
22898
22889
22892
22908
22899
22900
22883
22900
22897
22903
22892
22898
22900
22902
22903
22908
22900
22908
22895
22901
22892
22903
22892
22900
22902
22888
22900
22894
22901
22905
22893
22887
22897
22920
22906
22906
22895
22902
22889
22897
22918
22895
22903
22885
22898
22890
22901
22908
22892
22903
22887
22898
22904
22889
22900
22895
22898
22898
22905
22902
22890
22894
22887
22896
22892
22894
22886
22900
22887
22902
22896
22888
22895
22887
22902
22894
22908
22901
22893
22906
22890
22902
22892
22897
22885
22908
22897
22887
22897
22894
22901
22898
22919
22898
22887
22906
22888
22909
22895
22886
22897
22887
22903
22886
22897
22908
22918
22888
22889
22893
22888
22901
22886
22899
22887
22896
22887
22901
22900
22885
22890
22887
22895
22884
22895
22890
22903
22895
22908
22891
22886
22890
22883
22887
22884
22886
22882
22887
22908
22886
22883
22890
22885
22887
22884
22894
22882
22887
22896
22893
22895
22895
22894
22889
22894
22887
22895
22881
22892
22885
22889
22878
22888
22889
22895
22893
22879
22891
22882
22881
22876
22892
22883
22878
22884
22878
22890
22879
22893
22876
22887
22874
22885
22893
22883
22887
22879
22885
22876
22887
22879
22882
22876
22887
22886
22877
22884
22872
22884
22882
22889
22891
22879
22886
22874
22880
22879
22890
22874
22884
22875
22886
22873
22877
22876
22879
22877
22881
22871
22881
22871
22882
22878
22865
22887
22887
22879
22872
22873
22883
22879
22878
22871
22899
22885
22877
22871
22870
22873
22873
22881
22879
22878
22887
22870
22868
22897
22887
22884
22876
22879
22874
22878
22871
22882
22871
22884
22871
22884
22870
22880
22871
22878
22873
22877
22868
22878
22870
22885
22868
22879
22868
22879
22868
22879
22864
22875
22864
22874
22871
22875
22863
22874
22870
22885
22871
22881
22871
22890
22879
22868
22880
22869
22876
22865
22879
22881
22879
22888
22873
22869
22876
22862
22878
22868
22873
22858
22876
22863
22882
22865
22876
22874
22882
22871
22863
22874
22860
22878
22876
22885
22867
22863
22871
22867
22876
22861
22880
22871
22879
22874
22876
22876
22895
22868
22861
22878
22859
22876
22865
22874
22866
22883
22859
22877
22863
22876
22876
22885
22869
22861
22872
22859
22874
22868
22860
22878
22874
22889
22867
22856
22873
22861
22871
22866
22876
22871
22860
22871
22868
22869
22862
22863
22879
22865
22861
22866
22861
22871
22860
22868
22855
22869
22859
22868
22863
22868
22863
22871
22859
22867
22860
22872
22865
22856
22867
22861
22863
22860
22868
22858
22871
22863
22876
22863
22860
22867
22855
22865
22860
22871
22863
22871
22856
22862
22859
22874
22857
22874
22863
22877
22857
22884
22865
22855
22865
22860
22870
22870
22882
22863
22855
22865
22859
22876
22876
22860
22865
22852
22861
22855
22865
22857
22862
22855
22870
22858
22879
22861
22855
22865
22858
22862
22852
22868
22855
22865
22857
22878
22867
22856
22857
22849
22867
22852
22864
22862
22854
22862
22852
22863
22855
22863
22853
22860
22857
22863
22853
22868
22854
22860
22854
22862
22852
22856
22850
22863
22856
22869
22858
22868
22863
22863
22866
22875
22868
22867
22864
22871
22868
22886
22857
22855
22863
22879
22868
22862
22854
22862
22855
22857
22848
22863
22852
22863
22852
22852
22871
22862
22863
22860
22869
22854
22863
22850
22858
22849
22857
22846
22856
22846
22856
22848
22852
22847
22857
22846
22857
22845
22853
22846
22858
22845
22858
22852
22853
22846
22853
22847
22858
22842
22855
22849
22855
22847
22858
22854
22857
22852
22855
22847
22853
22839
22863
22855
22845
22855
22846
22856
22839
22854
22842
22853
22844
22848
22850
22855
22845
22852
22851
22861
22855
22846
22848
22845
22855
22845
22855
22844
22854
22847
22858
22853
22860
22845
22854
22845
22852
22847
22848
22842
22852
22839
22852
22843
22852
22871
22852
22855
22837
22849
22844
22851
22853
22853
22858
22853
22855
22844
22860
22844
22855
22847
22843
22846
22839
22855
22841
22853
22844
22855
22841
22853
22842
22853
22839
22854
22836
22847
22842
22853
22846
22851
22847
22857
22855
22853
22860
22855
22855
22860
22855
22852
22844
22854
22838
22854
22838
22848
22838
22855
22839
22849
22837
22848
22839
22839
22837
22842
22836
22843
22837
22847
22840
22839
22836
22839
22829
22847
22845
22837
22849
22845
22852
22847
22846
22839
22848
22831
22853
22857
22842
22847
22888
22857
22859
22852
22860
22833
22860
22838
22857
22832
22857
22836
22853
22837
22852
22838
22853
22841
22860
22840
22869
22845
22868
22844
22860
22846
22874
22875
22845
22860
22847
22860
22884
22858
22851
22860
22868
22867
22856
22855
22862
22852
22860
22846
22854
22843
22852
22847
22851
22844
22850
22853
22846
22855
22844
22852
22854
22847
22847
22846
22849
22847
22845
22851
22848
22849
22843
22845
22853
22843
22851
22839
22847
22844
22847
22852
22841
22847
22838
22844
22837
22855
22844
22844
22847
22838
22844
22841
22844
22836
22842
22837
22845
22859
22845
22851
22839
22844
22838
22847
22836
22846
22839
22847
22846
22844
22852
22853
22851
22854
22849
22850
22837
22850
22838
22843
22837
22847
22838
22845
22836
22854
22834
22845
22838
22844
22843
22845
22839
22847
22838
22846
22833
22841
22836
22844
22842
22842
22836
22841
22837
22844
22833
22847
22836
22845
22831
22847
22834
22844
22837
22845
22833
22836
22836
22850
22839
22839
22834
22846
22836
22848
22837
22845
22838
22850
22842
22849
22847
22851
22841
22847
22844
22844
22836
22852
22837
22845
22830
22841
22855
22843
22850
22834
22847
22836
22849
22858
22842
22860
22846
22857
22847
22833
22839
22852
22842
22850
22841
22852
22834
22851
22836
22846
22847
22854
22853
22859
22840
22834
22841
22845
22849
22853
22844
22852
22839
22847
22833
22847
22854
22839
22847
22849
22836
22847
22832
22848
22831
22845
22837
22842
22871
22847
22855
22839
22854
22836
22850
22836
22846
22830
22851
22851
22836
22845
22832
22848
22832
22844
22857
22857
22863
22848
22852
22836
22845
22831
22844
22827
22845
22855
22841
22848
22836
22846
22869
22850
22855
22842
22853
22837
22854
22838
22850
22839
22852
22839
22847
22841
22844
22833
22845
22862
22844
22850
22845
22852
22841
22846
22834
22846
22831
22845
22832
22843
22832
22841
22866
22848
22855
22842
22851
22841
22846
22837
22852
22839
22844
22836
22844
22837
22846
22838
22848
22835
22841
22839
22844
22830
22837
22837
22844
22851
22836
22847
22840
22846
22835
22841
22829
22838
22829
22839
22831
22838
22836
22839
22836
22847
22849
22838
22844
22833
22841
22837
22844
22832
22841
22830
22837
22832
22841
22855
22835
22843
22831
22843
22831
22833
22826
22837
22859
22844
22841
22836
22837
22834
22841
22846
22828
22845
22836
22839
22829
22838
22829
22839
22831
22843
22847
22823
22844
22829
22843
22842
22830
22840
22826
22838
22830
22836
22831
22842
22830
22836
22827
22837
22825
22838
22833
22843
22832
22835
22831
22839
22839
22828
22842
22839
22826
22831
22852
22830
22835
22847
22832
22836
22832
22839
22852
22843
22849
22839
22839
22831
22838
22822
22833
22851
22837
22844
22822
22843
22824
22838
22842
22826
22839
22826
22841
22839
22831
22836
22830
22831
22844
22834
22839
22829
22843
22839
22828
22839
22826
22839
22856
22843
22844
22827
22837
22823
22840
22838
22826
22830
22831
22836
22837
22826
22836
22822
22845
22836
22831
22833
22824
22840
22844
22823
22832
22843
22825
22832
22847
22833
22840
22829
22841
22825
22843
22839
22824
22834
22823
22835
22845
22836
22836
22826
22838
22826
22836
22855
22837
22834
22827
22834
22823
22836
22841
22825
22838
22823
22837
22822
22831
22849
22829
22839
22820
22832
22826
22837
22839
22831
22841
22827
22833
22817
22836
22825
22829
22823
22839
22839
22825
22833
22825
22833
22844
22838
22835
22828
22834
22823
22832
22820
22836
22823
22836
22823
22836
22828
22832
22827
22833
22823
22831
22823
22828
22821
22836
22823
22833
22821
22827
22823
22831
22851
22832
22843
22837
22843
22823
22836
22835
22842
22823
22831
22827
22842
22831
22852
22830
22823
22829
22821
22828
22818
22837
22823
22832
22820
22829
22819
22828
22820
22833
22822
22831
22821
22830
22823
22827
22846
22825
22831
22820
22831
22817
22826
22845
22827
22833
22823
22826
22847
22829
22837
22818
22833
22823
22827
22822
22826
22849
22836
22838
22828
22825
22825
22828
22817
22830
22821
22837
22824
22836
22817
22825
22820
22825
22821
22825
22831
22823
22830
22824
22830
22822
22825
22850
22823
22828
22815
22823
22815
22833
22829
22817
22828
22816
22826
22825
22821
22827
22836
22821
22829
22812
22828
22818
22825
22832
22820
22833
22823
22836
22817
22832
22821
22825
22820
22824
22818
22831
22829
22817
22828
22812
22827
22814
22820
22815
22828
22837
22829
22827
22809
22830
22822
22820
22814
22823
22831
22814
22831
22831
22812
22823
22816
22820
22836
22825
22819
22819
22842
22831
22828
22822
22830
22815
22823
22818
22828
22823
22845
22822
22815
22823
22817
22823
22813
22820
22809
22822
22815
22823
22814
22828
22821
22831
22821
22814
22819
22814
22821
22810
22821
22809
22823
22841
22817
22833
22831
22844
22823
22842
22824
22827
22817
22823
22807
22821
22823
22815
22828
22828
22825
22820
22822
22809
22820
22808
22824
22814
22820
22813
22813
22808
22820
22837
22818
22822
22817
22823
22807
22819
22812
22820
22829
22822
22822
22813
22820
22812
22823
22809
22823
22819
22823
22806
22821
22808
22821
22819
22827
22812
22821
22804
22821
22805
22815
22807
22815
22804
22815
22813
22820
22823
22813
22822
22811
22821
22807
22818
22809
22822
22804
22822
22812
22832
22821
22836
22830
22838
22836
22837
22826
22838
22820
22839
22820
22834
22820
22845
22843
22822
22833
22890
22842
22847
22823
22833
22820
22841
22826
22839
22825
22836
22827
22839
22841
22829
22837
22824
22836
22822
22831
22823
22829
22834
22824
22829
22815
22827
22817
22822
22820
22823
22814
22820
22830
22818
22823
22823
22825
22815
22827
22815
22817
22814
22819
22827
22823
22813
22819
22810
22817
22791
22823
22823
22817
22821
22812
22826
22818
22820
22820
22822
22812
22822
22828
22820
22823
22815
22815
22807
22819
22810
22821
22808
22816
22814
22817
22823
22821
22820
22806
22821
22809
22821
22810
22818
22807
22821
22807
22823
22822
22812
22822
22822
22823
22823
22834
22820
22828
22818
22815
22813
22824
22814
22808
22812
22809
22812
22805
22821
22812
22822
22815
22828
22820
22821
22812
22817
22810
22815
22799
22810
22807
22822
22823
22810
22818
22807
22820
22807
22813
22806
22810
22810
22813
22829
22823
22805
22812
22804
22821
22818
22805
22823
22804
22813
22809
22815
22805
22814
22806
22813
22805
22815
22815
22807
22819
22820
22827
22823
22820
22809
22815
22809
22821
22804
22817
22805
22819
22807
22818
22806
22823
22807
22818
22807
22820
22818
22793
22815
22812
22803
22818
22802
22812
22806
22815
22803
22815
22804
22820
22815
22821
22810
22826
22808
22805
22815
22807
22813
22798
22810
22810
22819
22821
22803
22818
22807
22820
22802
22813
22804
22813
22801
22815
22799
22810
22805
22814
22804
22811
22804
22816
22820
22806
22813
22807
22817
22797
22815
22807
22814
22804
22812
22825
22817
22826
22820
22830
22820
22823
22809
22814
22806
22815
22802
22815
22800
22813
22806
22812
22823
22821
22819
22809
22822
22814
22818
22808
22817
22806
22813
22800
22808
22803
22811
22825
22806
22820
22803
22817
22800
22815
22805
22815
22808
22812
22809
22820
22809
22815
22807
22820
22808
22817
22806
22811
22804
22815
22805
22814
22806
22812
22806
22831
22806
22820
22813
22815
22813
22812
22796
22810
22804
22810
22827
22805
22807
22804
22815
22799
22813
22802
22812
22799
22806
22825
22804
22796
22807
22803
22814
22799
22804
22797
22818
22812
22801
22809
22794
22809
22812
22800
22807
22797
22807
22814
22800
22804
22798
22810
22818
22806
22815
22810
22815
22801
22813
22812
22811
22805
22812
22801
22807
22797
22804
22796
22804
22797
22800
22791
22805
22791
22799
22798
22802
22820
22814
22809
22797
22804
22796
22800
22808
22805
22812
22805
22796
22803
22792
22798
22795
22804
22791
22803
22796
22800
22821
22810
22805
22801
22810
22796
22810
22806
22796
22804
22801
22811
22805
22813
22807
22817
22811
22816
22811
22812
22812
22813
22805
22813
22812
22813
22797
22807
22791
22798
22815
22797
22809
22795
22801
22791
22810
22804
22791
22798
22788
22805
22807
22791
22798
22791
22804
22806
22788
22799
22791
22811
22807
22791
22803
22794
22795
22808
22794
22804
22791
22799
22791
22810
22804
22791
22800
22795
22801
22791
22804
22790
22804
22797
22801
22790
22799
22791
22798
22788
22799
22805
22789
22806
22795
22804
22799
22786
22800
22806
22806
22793
22794
22788
22803
22789
22795
22791
22794
22812
22798
22804
22795
22804
22797
22784
22801
22794
22797
22790
22799
22788
22792
22811
22786
22794
22790
22798
22788
22793
22801
22789
22797
22791
22801
22807
22788
22801
22787
22799
22792
22802
22789
22804
22794
22801
22791
22805
22788
22803
22802
22804
22795
22804
22797
22805
22801
22811
22791
22813
22801
22812
22795
22785
22791
22791
22799
22791
22798
22782
22796
22787
22785
22807
22791
22798
22783
22796
22785
22792
22788
22798
22782
22804
22790
22786
22799
22790
22802
22793
22815
22791
22816
22804
22797
22796
22804
22785
22803
22785
22798
22791
22809
22788
22781
22792
22782
22804
22780
22800
22791
22804
22788
22794
22783
22792
22781
22791
22784
22789
22785
22791
22783
22794
22781
22791
22783
22792
22780
22789
22786
22795
22818
22796
22799
22797
22783
22791
22781
22784
22778
22791
22802
22785
22796
22783
22802
22797
22801
22800
22821
22795
22782
22790
22782
22784
22807
22794
22801
22784
22794
22781
22794
22783
22791
22776
22785
22779
22801
22797
22791
22796
22784
22796
22782
22791
22780
22791
22782
22794
22781
22795
22779
22789
22774
22786
22778
22788
22773
22791
22785
22794
22788
22788
22794
22774
22782
22776
22783
22778
22788
22777
22791
22779
22794
22781
22781
22788
22780
22790
22780
22794
22790
22791
22785
22775
22790
22780
22787
22788
22795
22791
22791
22795
22779
22789
22779
22788
22783
22788
22777
22787
22776
22791
22780
22792
22791
22807
22783
22775
22786
22781
22782
22775
22788
22775
22783
22777
22786
22776
22783
22801
22784
22771
22783
22778
22791
22791
22803
22788
22809
22781
22780
22781
22770
22783
22775
22780
22777
22783
22776
22783
22775
22791
22783
22770
22780
22775
22782
22773
22780
22778
22787
22789
22773
22783
22772
22779
22777
22784
22770
22785
22772
22783
22785
22772
22780
22769
22783
22768
22784
22771
22784
22775
22790
22775
22803
22784
22802
22774
22799
22774
22794
22778
22788
22809
22807
22861
22792
22849
22813
22847
22794
22785
22804
22783
22802
22782
22806
22784
22802
22791
22794
22788
22796
22823
22811
22807
22791
22797
22783
22791
22802
22788
22791
22782
22783
22805
22788
22791
22783
22789
22768
22795
22797
22790
22797
22793
22794
22796
22799
22789
22790
22790
22788
22780
22788
22780
22785
22780
22788
22783
22791
22782
22791
22776
22785
22778
22784
22779
22788
22779
22783
22783
22786
22775
22784
22778
22780
22788
22781
22785
22778
22788
22774
22775
22773
22783
22777
22783
22771
22783
22772
22781
22774
22780
22774
22778
22789
22786
22788
22781
22782
22773
22781
22773
22783
22784
22796
22778
22773
22777
22772
22778
22768
22782
22780
22783
22780
22785
22781
22788
22783
22783
22783
22786
22781
22788
22773
22791
22779
22771
22778
22770
22778
22773
22771
22770
22775
22769
22778
22773
22778
22773
22778
22769
22780
22772
22776
22771
22780
22772
22777
22778
22783
22774
22777
22767
22775
22773
22783
22775
22781
22772
22783
22772
22785
22772
22780
22777
22778
22772
22780
22773
22788
22783
22795
22788
22793
22788
22785
22783
22794
22778
22765
22785
22771
22778
22766
22783
22772
22783
22776
22790
22777
22771
22780
22767
22785
22782
22771
22777
22771
22785
22772
22777
22767
22780
22770
22778
22773
22780
22790
22783
22787
22781
22785
22778
22785
22774
22786
22773
22780
22767
22781
22770
22781
22772
22781
22774
22778
22772
22789
22791
22780
22788
22788
22799
22783
22791
22779
22775
22780
22775
22782
22772
22789
22783
22790
22772
22786
22770
22788
22772
22780
22770
22788
22773
22780
22772
22780
22771
22780
22775
22778
22773
22782
22772
22787
22785
22798
22777
22766
22774
22767
22783
22770
22777
22765
22776
22763
22777
22774
22781
22783
22772
22788
22776
22783
22778
22798
22781
22782
22769
22779
22764
22769
22766
22772
22763
22778
22787
22771
22781
22771
22775
22763
22776
22764
22778
22783
22766
22776
22762
22773
22791
22772
22777
22762
22779
22762
22766
22760
22774
22759
22766
22764
22772
22764
22772
22762
22775
22775
22767
22775
22764
22769
22763
22770
22761
22769
22760
22772
22775
22759
22772
22758
22762
22762
22766
22759
22767
22783
22769
22773
22758
22769
22758
22764
22759
22772
22775
22760
22774
22762
22767
22762
22772
22759
22767
22758
22767
22757
22760
22759
22767
22779
22765
22771
22757
22767
22763
22767
22757
22772
22758
22765
22775
22764
22770
22762
22770
22774
22778
22761
22757
22771
22761
22772
22756
22772
22766
22772
22769
22782
22764
22760
22764
22753
22763
22756
22767
22748
22763
22757
22765
22753
22766
22758
22773
22756
22774
22758
22772
22764
22772
22772
22773
22772
22780
22772
22774
22774
22788
22761
22758
22767
22756
22770
22761
22773
22763
22767
22759
22760
22753
22769
22760
22769
22759
22767
22756
22764
22759
22769
22753
22765
22757
22762
22759
22767
22757
22763
22775
22772
22768
22765
22765
22759
22765
22756
22771
22753
22769
22757
22769
22765
22786
22773
22777
22768
22754
22764
22756
22764
22759
22758
22757
22759
22758
22757
22785
22773
22771
22759
22767
22748
22765
22755
22759
22750
22764
22753
22771
22756
22767
22759
22775
22764
22760
22759
22762
22752
22761
22754
22771
22751
22765
22756
22768
22755
22772
22751
22761
22753
22766
22770
22756
22767
22755
22766
22759
22771
22767
22746
22760
22754
22758
22785
22773
22767
22762
22767
22755
22772
22756
22764
22756
22763
22750
22760
22750
22758
22756
22752
22745
22757
22748
22756
22752
22759
22759
22767
22764
22753
22762
22748
22757
22748
22759
22766
22759
22762
22751
22758
22769
22760
22764
22756
22765
22757
22757
22753
22759
22750
22766
22764
22748
22765
22750
22759
22751
22767
22751
22758
22748
22763
22749
22759
22762
22781
22756
22749
22759
22746
22763
22752
22760
22747
22766
22752
22758
22748
22759
22749
22759
22769
22751
22759
22750
22761
22757
22762
22746
22763
22758
22760
22750
22762
22756
22762
22752
22765
22761
22773
22758
22762
22757
22762
22750
22758
22754
22752
22767
22765
22764
22753
22760
22754
22758
22751
22760
22754
22757
22743
22759
22747
22762
22759
22780
22760
22775
22752
22744
22757
22754
22754
22775
22758
22765
22747
22757
22747
22753
22743
22754
22743
22756
22746
22757
22746
22759
22760
22740
22758
22724
22762
22767
22759
22769
22759
22758
22750
22758
22746
22758
22749
22757
22743
22750
22741
22751
22745
22751
22739
22751
22742
22746
22764
22757
22761
22747
22758
22746
22759
22743
22756
22748
22755
22741
22763
22741
22759
22741
22756
22743
22748
22740
22759
22749
22746
22751
22734
22758
22756
22742
22757
22739
22756
22747
22753
22750
22754
22748
22751
22743
22755
22743
22750
22741
22753
22741
22748
22743
22753
22743
22747
22741
22751
22742
22743
22761
22747
22752
22740
22747
22735
22747
22732
22750
22740
22747
22754
22745
22753
22743
22748
22735
22750
22740
22748
22734
22749
22753
22748
22752
22740
22753
22735
22742
22735
22743
22739
22745
22755
22734
22738
22733
22738
22733
22742
22732
22743
22759
22738
22738
22733
22746
22734
22750
22735
22742
22734
22748
22751
22735
22751
22731
22748
22729
22745
22732
22750
22730
22751
22729
22746
22804
22770
22785
22755
22764
22738
22759
22730
22760
22737
22756
22738
22756
22743
22757
22740
22756
22816
22774
22777
22755
22772
22744
22759
22736
22761
22742
22763
22748
22756
22741
22751
22747
22751
22735
22745
22742
22742
22741
22754
22749
22738
22747
22742
22748
22738
22756
22751
22741
22740
22738
22748
22740
22748
22741
22747
22741
22745
22753
22734
22746
22738
22739
22746
22736
22742
22735
22743
22730
22743
22734
22741
22735
22741
22734
22739
22751
22748
22742
22747
22743
22737
22739
22737
22741
22735
22740
22735
22738
22729
22735
22729
22737
22735
22740
22733
22738
22732
22743
22729
22741
22731
22739
22745
22741
22735
22736
22741
22741
22744
22739
22734
22732
22735
22727
22734
22727
22739
22726
22745
22739
22732
22740
22732
22737
22728
22735
22726
22734
22745
22735
22736
22726
22734
22727
22733
22727
22734
22725
22730
22727
22739
22740
22734
22743
22728
22742
22730
22742
22724
22730
22724
22732
22737
22728
22738
22727
22735
22722
22733
22735
22727
22736
22728
22736
22724
22730
22720
22730
22729
22732
22722
22734
22720
22732
22724
22725
22726
22732
22724
22740
22741
22727
22732
22722
22732
22726
22733
22725
22728
22722
22735
22727
22741
22737
22727
22735
22732
22741
22730
22727
22732
22723
22735
22723
22731
22722
22730
22727
22728
22720
22734
22726
22742
22735
22728
22731
22720
22733
22722
22726
22754
22738
22735
22724
22737
22726
22734
22725
22735
22718
22732
22719
22732
22724
22725
22726
22729
22754
22730
22749
22732
22725
22731
22722
22728
22727
22733
22730
22733
22734
22742
22724
22727
22732
22718
22731
22726
22734
22726
22732
22726
22732
22731
22748
22727
22723
22727
22746
22729
22737
22724
22735
22734
22718
22725
22719
22726
22714
22726
22714
22727
22718
22734
22726
22734
22730
22730
22728
22727
22731
22735
22724
22729
22717
22725
22712
22719
22726
22714
22721
22716
22724
22722
22717
22726
22716
22724
22726
22722
22724
22715
22724
22711
22723
22709
22717
22710
22725
22720
22710
22716
22727
22711
22719
22706
22714
22720
22710
22720
22711
22719
22720
22712
22726
22710
22720
22711
22719
22724
22708
22722
22706
22721
22719
22708
22720
22704
22715
22707
22715
22718
22706
22718
22703
22714
22704
22723
22723
22706
22714
22703
22714
22706
22708
22708
22711
22720
22703
22719
22706
22721
22719
22709
22718
22702
22717
22704
22710
22703
22708
22732
22711
22717
22703
22712
22699
22721
22719
22697
22714
22700
22714
22704
22719
22708
22714
22706
22714
22707
22712
22704
22710
22702
22714
22700
22709
22706
22716
22719
22703
22715
22705
22716
22714
22701
22716
22701
22716
22705
22708
22705
22709
22724
22717
22714
22715
22718
22711
22716
22702
22717
22703
22711
22702
22709
22700
22713
22702
22702
22697
22708
22697
22698
22702
22698
22711
22701
22709
22707
22711
22700
22711
22695
22715
22697
22709
22702
22710
22700
22709
22699
22711
22693
22714
22697
22713
22695
22709
22695
22703
22694
22709
22697
22707
22702
22711
22697
22708
22697
22706
22697
22704
22718
22708
22714
22693
22710
22708
22716
22713
22719
22704
22726
22704
22698
22703
22727
22705
22695
22703
22698
22704
22695
22707
22693
22709
22693
22713
22707
22695
22701
22691
22703
22695
22698
22694
22715
22707
22699
22705
22694
22703
22689
22696
22695
22707
22709
22705
22709
22695
22710
22699
22708
22696
22708
22708
22694
22701
22688
22697
22718
22708
22704
22695
22702
22692
22701
22692
22703
22697
22703
22690
22702
22690
22702
22692
22697
22690
22698
22703
22692
22699
22688
22699
22698
22695
22699
22689
22698
22689
22708
22713
22693
22705
22695
22701
22688
22703
22692
22705
22692
22698
22687
22706
22694
22707
22695
22704
22694
22700
22700
22721
22700
22710
22701
22711
22694
22693
22696
22686
22695
22688
22690
22690
22694
22685
22693
22686
22695
22685
22695
22666
22705
22698
22688
22696
22687
22692
22711
22702
22697
22688
22700
22687
22698
22685
22692
22686
22695
22688
22694
22684
22694
22684
22692
22685
22696
22687
22697
22682
22695
22681
22695
22687
22694
22684
22691
22687
22695
22685
22695
22683
22703
22689
22706
22682
22694
22685
22694
22687
22696
22703
22684
22693
22679
22689
22714
22692
22687
22686
22689
22687
22687
22694
22685
22692
22680
22695
22684
22695
22679
22695
22682
22695
22679
22693
22683
22693
22682
22688
22681
22690
22701
22692
22693
22687
22691
22679
22686
22679
22684
22716
22689
22693
22686
22694
22679
22688
22677
22695
22674
22695
22679
22692
22683
22691
22678
22693
22681
22690
22673
22691
22680
22687
22689
22680
22695
22695
22684
22695
22676
22693
22684
22708
22682
22678
22689
22680
22684
22692
22683
22684
22676
22687
22696
22687
22689
22679
22692
22675
22684
22678
22694
22690
22676
22684
22701
22687
22684
22676
22686
22676
22691
22693
22682
22690
22677
22685
22678
22684
22671
22684
22679
22682
22689
22679
22684
22673
22687
22685
22671
22680
22677
22683
22699
22692
22692
22685
22689
22681
22685
22674
22687
22686
22673
22677
22673
22695
22692
22671
22680
22673
22685
22684
22670
22683
22684
22679
22684
22689
22674
22687
22673
22680
22676
22682
22669
22682
22668
22680
22670
22694
22692
22668
22684
22671
22686
22671
22700
22707
22671
22699
22671
22693
22674
22695
22668
22692
22671
22684
22673
22693
22673
22695
22675
22699
22675
22709
22677
22698
22679
22694
22677
22693
22679
22692
22676
22694
22694
22676
22687
22676
22686
22690
22683
22691
22671
22684
22674
22683
22687
22679
22682
22693
22684
22687
22675
22677
22689
22676
22679
22687
22671
22680
22685
22674
22681
22676
22680
22687
22674
22679
22671
22683
22684
22672
22679
22692
22675
22674
22676
22682
22681
22672
22684
22671
22678
22666
22684
22679
22669
22680
22676
22678
22679
22667
22678
22689
22670
22675
22665
22677
22669
22671
22667
22671
22676
22669
22679
22661
22671
22660
22679
22681
22673
22679
22668
22674
22664
22676
22664
22675
22686
22673
22676
22663
22680
22663
22674
22677
22665
22679
22674
22662
22676
22676
22665
22668
22683
22667
22668
22663
22674
22674
22658
22676
22679
22663
22670
22680
22663
22676
22663
22670
22688
22671
22674
22663
22670
22662
22667
22671
22657
22677
22671
22661
22666
22663
22671
22676
22662
22671
22657
22671
22663
22666
22660
22669
22686
22671
22671
22662
22664
22663
22671
22672
22668
22668
22661
22670
22659
22668
22663
22674
22656
22671
22655
22668
22662
22664
22658
22672
22674
22654
22669
22663
22673
22658
22671
22657
22668
22660
22670
22655
22675
22654
22670
22659
22664
22673
22655
22663
22672
22668
22668
22661
22668
22656
22670
22672
22654
22664
22676
22662
22668
22654
22667
22658
22668
22674
22655
22668
22654
22667
22679
22659
22668
22654
22668
22660
22658
22671
22676
22652
22669
22658
22650
22655
22652
22659
22669
22660
22661
22663
22668
22657
22654
22657
22659
22665
22663
22663
22666
22651
22652
22661
22660
22663
22669
22650
22649
22658
22655
22668
22657
22659
22671
22665
22651
22660
22654
22663
22661
22653
22661
22676
22654
22668
22655
22665
22653
22665
22652
22660
22651
22658
22652
22654
22681
22663
22663
22647
22661
22655
22657
22647
22659
22675
22657
22663
22652
22661
22657
22663
22644
22655
22669
22650
22655
22649
22655
22658
22645
22655
22646
22652
22663
22652
22667
22652
22657
22646
22656
22646
22649
22644
22648
22641
22650
22668
22644
22652
22637
22647
22639
22657
22657
22656
22660
22655
22667
22644
22660
22653
22665
22654
22663
22657
22661
22641
22652
22643
22640
22655
22637
22646
22639
22646
22654
22639
22655
22639
22651
22638
22648
22652
22645
22654
22639
22647
22633
22651
22652
22639
22649
22636
22651
22648
22638
22644
22636
22652
22644
22635
22643
22655
22637
22645
22658
22637
22649
22643
22644
22656
22650
22661
22646
22655
22645
22652
22638
22645
22637
22638
22636
22649
22647
22638
22649
22639
22652
22636
22646
22631
22644
22633
22643
22667
22644
22644
22637
22641
22631
22637
22650
22650
22647
22637
22644
22633
22641
22632
22633
22654
22636
22637
22628
22639
22631
22637
22629
22652
22642
22629
22636
22659
22635
22639
22630
22645
22641
22629
22637
22663
22634
22641
22626
22636
22630
22648
22640
22631
22638
22631
22639
22652
22641
22641
22629
22639
22631
22639
22628
22633
22659
22639
22654
22635
22659
22631
22638
22625
22637
22626
22630
22641
22629
22636
22646
22623
22644
22630
22639
22641
22628
22641
22658
22630
22641
22628
22638
22628
22629
22641
22643
22642
22623
22625
22645
22636
22633
22629
22641
22626
22629
22640
22643
22636
22625
22638
22639
22624
22633
22657
22642
22638
22625
22629
22627
22635
22604
22631
22638
22629
22639
22623
22636
22621
22628
22649
22624
22630
22626
22624
22633
22651
22625
22631
22641
22626
22631
22643
22623
22634
22644
22631
22636
22619
22631
22625
22630
22633
22622
22631
22632
22624
22633
22651
22627
22631
22625
22638
22642
22623
22629
22636
22620
22628
22620
22633
22635
22621
22627
22621
22634
22634
22625
22632
22618
22628
22651
22628
22637
22621
22630
22642
22623
22631
22623
22631
22623
22630
22637
22630
22633
22618
22628
22620
22629
22623
22628
22653
22637
22634
22624
22631
22648
22623
22628
22621
22627
22632
22616
22622
22631
22621
22630
22623
22627
22646
22625
22635
22625
22632
22625
22636
22634
22621
22629
22647
22636
22634
22621
22631
22622
22631
22620
22630
22621
22631
22620
22633
22629
22638
22628
22637
22622
22638
22625
22642
22636
22657
22626
22615
22626
22619
22624
22639
22628
22633
22618
22626
22618
22631
22630
22615
22628
22612
22624
22639
22621
22628
22615
22627
22612
22631
22638
22625
22632
22622
22628
22623
22633
22634
22618
22630
22616
22629
22616
22625
22617
22619
22628
22615
22628
22609
22626
22618
22615
22643
22631
22634
22628
22614
22619
22630
22627
22626
22623
22629
22618
22622
22612
22623
22610
22621
22619
22617
22615
22620
22638
22623
22624
22618
22622
22636
22621
22624
22612
22622
22612
22620
22622
22610
22623
22614
22622
22610
22622
22610
22616
22613
22617
22612
22620
22609
22616
22628
22619
22612
22614
22612
22620
22624
22615
22625
22617
22628
22615
22624
22612
22622
22612
22621
22627
22615
22621
22636
22624
22624
22626
22625
22618
22622
22614
22620
22612
22623
22604
22615
22605
22618
22621
22605
22620
22607
22619
22607
22612
22633
22617
22621
22610
22618
22606
22613
22607
22612
22602
22615
22607
22620
22636
22619
22640
22615
22625
22619
22629
22623
22607
22609
22632
22609
22626
22608
22635
22610
22628
22606
22630
22601
22626
22601
22617
22677
22637
22636
22606
22637
22604
22627
22610
22624
22610
22636
22676
22637
22641
22634
22639
22615
22630
22617
22630
22610
22620
22615
22619
22612
22621
22609
22622
22613
22617
22613
22615
22615
22614
22611
22615
22612
22620
22606
22618
22609
22615
22611
22608
22613
22615
22612
22615
22622
22619
22620
22607
22615
22607
22614
22607
22618
22619
22618
22613
22616
22605
22619
22613
22612
22605
22614
22620
22606
22613
22607
22617
22618
22625
22604
22606
22614
22618
22612
22613
22605
22615
22601
22606
22626
22609
22610
22598
22606
22599
22607
22599
22610
22598
22606
22599
22606
22597
22607
22602
22607
22598
22606
22599
22607
22601
22601
22604
22605
22603
22604
22612
22604
22607
22599
22608
22610
22601
22606
22597
22605
22613
22604
22614
22601
22606
22595
22602
22599
22599
22593
22600
22586
22607
22605
22595
22612
22599
22602
22596
22610
22609
22598
22605
22596
22604
22596
22607
22594
22603
22595
22602
22591
22603
22587
22602
22591
22607
22599
22606
22586
22606
22595
22605
22602
22604
22605
22607
22599
22604
22596
22605
22593
22607
22588
22595
22588
22596
22592
22602
22587
22603
22589
22599
22585
22599
22593
22603
22588
22597
22593
22603
22599
22599
22594
22606
22603
22605
22598
22588
22606
22596
22588
22594
22585
22598
22588
22599
22583
22597
22589
22596
22591
22596
22590
22596
22589
22602
22588
22598
22593
22607
22594
22605
22590
22600
22593
22605
22605
22608
22602
22599
22585
22594
22586
22590
22581
22596
22582
22594
22621
22595
22596
22583
22597
22600
22589
22598
22591
22596
22587
22594
22606
22593
22601
22590
22599
22585
22595
22591
22599
22585
22596
22585
22599
22577
22591
22578
22591
22620
22591
22613
22593
22579
22596
22611
22592
22612
22594
22615
22599
22599
22587
22593
22581
22594
22578
22588
22587
22598
22578
22590
22578
22591
22581
22588
22580
22589
22599
22593
22592
22585
22592
22574
22591
22577
22585
22577
22584
22578
22583
22574
22578
22572
22589
22593
22577
22587
22577
22589
22579
22585
22572
22579
22575
22576
22587
22584
22594
22584
22566
22584
22576
22584
22570
22580
22574
22575
22569
22580
22589
22587
22588
22582
22582
22570
22575
22571
22587
22573
22581
22566
22586
22567
22583
22574
22577
22571
22583
22579
22572
22582
22581
22585
22575
22577
22569
22579
22563
22580
22566
22569
22590
22583
22582
22575
22580
22575
22567
22579
22577
22565
22580
22574
22566
22579
22565
22573
22565
22579
22565
22570
22570
22572
22561
22575
22565
22574
22564
22575
22578
22567
22580
22565
22578
22561
22575
22567
22570
22583
22576
22593
22567
22558
22571
22560
22568
22563
22568
22560
22573
22565
22567
22581
22566
22572
22558
22567
22566
22564
22593
22572
22561
22580
22576
22558
22571
22559
22572
22561
22575
22574
22564
22566
22575
22559
22564
22578
22560
22571
22561
22565
22558
22566
22590
22577
22577
22561
22569
22559
22573
22559
22567
22556
22565
22574
22558
22564
22558
22562
22558
22564
22579
22562
22571
22556
22570
22559
22565
22560
22568
22575
22561
22566
22559
22560
22567
22551
22561
22573
22553
22564
22549
22567
22569
22558
22567
22551
22560
22574
22561
22571
22557
22563
22576
22560
22569
22556
22561
22571
22569
22572
22560
22565
22557
22566
22553
22564
22553
22564
22558
22567
22565
22554
22559
22545
22556
22550
22563
22547
22564
22573
22558
22551
22558
22570
22560
22572
22567
22574
22562
22556
22554
22548
22560
22557
22553
22549
22560
22543
22559
22553
22561
22577
22559
22527
22561
22576
22563
22551
22558
22556
22553
22553
22554
22554
22556
22551
22559
22547
22561
22580
22560
22566
22548
22560
22546
22551
22564
22548
22554
22550
22552
22565
22551
22556
22548
22562
22551
22559
22551
22561
22547
22553
22545
22554
22547
22558
22571
22560
22562
22548
22559
22550
22556
22554
22561
22547
22556
22548
22558
22541
22558
22548
22559
22545
22556
22544
22554
22544
22556
22549
22556
22544
22558
22543
22552
22540
22555
22540
22559
22551
22546
22544
22548
22543
22549
22577
22556
22564
22553
22562
22557
22559
22565
22572
22559
22556
22540
22557
22548
22551
22548
22556
22544
22556
22535
22557
22546
22565
22561
22556
22551
22561
22540
22552
22540
22552
22539
22546
22535
22543
22542
22552
22550
22549
22551
22534
22546
22538
22551
22541
22535
22559
22543
22541
22552
22548
22535
22564
22549
22544
22546
22552
22539
22551
22543
22547
22535
22542
22535
22545
22534
22549
22551
22533
22551
22543
22535
22540
22550
22557
22549
22548
22533
22549
22535
22544
22534
22543
22535
22543
22562
22541
22543
22533
22546
22529
22545
22533
22542
22532
22535
22530
22541
22530
22540
22533
22545
22535
22546
22544
22552
22537
22534
22535
22534
22546
22532
22547
22528
22545
22528
22545
22561
22549
22549
22548
22549
22537
22548
22535
22540
22529
22535
22551
22535
22543
22532
22543
22533
22537
22525
22533
22533
22544
22528
22535
22533
22545
22551
22533
22535
22530
22542
22530
22543
22527
22543
22535
22554
22534
22522
22539
22527
22532
22521
22528
22525
22534
22544
22540
22533
22531
22522
22532
22527
22535
22527
22538
22525
22543
22521
22535
22524
22534
22527
22542
22528
22549
22538
22554
22535
22555
22525
22556
22529
22549
22524
22559
22530
22546
22522
22556
22533
22561
22533
22559
22530
22564
22564
22569
22554
22566
22540
22567
22546
22562
22535
22555
22538
22552
22537
22545
22538
22547
22535
22546
22533
22541
22533
22539
22533
22535
22550
22543
22540
22542
22543
22531
22535
22529
22533
22529
22535
22553
22535
22532
22535
22527
22534
22527
22534
22548
22543
22535
22529
22534
22524
22532
22519
22534
22522
22530
22527
22533
22527
22533
22522
22532
22528
22532
22534
22528
22532
22524
22527
22521
22528
22520
22527
22524
22527
22524
22535
22525
22535
22535
22545
22530
22524
22529
22524
22532
22513
22531
22521
22528
22516
22523
22512
22534
22518
22530
22514
22530
22517
22527
22525
22540
22525
22518
22523
22519
22521
22523
22527
22516
22528
22519
22524
22526
22533
22535
22532
22534
22535
22522
22514
22527
22516
22523
22519
22530
22520
22532
22518
22531
22526
22535
22523
22510
22530
22513
22525
22511
22534
22527
22534
22524
22531
22521
22524
22517
22527
22513
22524
22511
22525
22513
22523
22510
22521
22516
22525
22513
22515
22542
22526
22527
22527
22527
22517
22526
22516
22525
22521
22510
22524
22522
22529
22530
22513
22522
22510
22527
22513
22523
22508
22532
22527
22511
22521
22511
22524
22512
22527
22527
22535
22519
22511
22520
22508
22527
22517
22531
22530
22529
22511
22525
22506
22522
22510
22524
22508
22517
22506
22521
22507
22522
22509
22519
22509
22527
22532
22518
22532
22519
22529
22532
22547
22519
22502
22516
22509
22519
22511
22521
22509
22525
22509
22524
22509
22522
22506
22516
22522
22523
22532
22519
22526
22511
22520
22505
22516
22510
22518
22527
22515
22522
22505
22512
22535
22515
22524
22511
22519
22508
22515
22514
22515
22505
22516
22509
22514
22503
22526
22525
22518
22519
22503
22516
22502
22516
22502
22509
22505
22514
22506
22514
22503
22518
22511
22517
22502
22514
22502
22511
22499
22509
22532
22519
22523
22510
22516
22508
22511
22504
22511
22522
22515
22516
22503
22512
22503
22509
22502
22510
22501
22507
22498
22508
22507
22516
22503
22516
22501
22509
22500
22515
22502
22513
22516
22500
22506
22501
22507
22498
22510
22502
22511
22507
22517
22502
22511
22499
22509
22503
22503
22495
22508
22501
22505
22496
22508
22497
22506
22492
22498
22495
22502
22495
22514
22498
22501
22495
22503
22500
22506
22496
22503
22488
22501
22493
22497
22500
22509
22498
22508
22511
22516
22508
22523
22503
22495
22496
22495
22505
22493
22503
22495
22500
22515
22508
22508
22497
22502
22492
22508
22499
22507
22500
22502
22501
22508
22498
22511
22494
22503
22492
22502
22490
22501
22490
22506
22516
22492
22489
22499
22493
22502
22490
22500
22491
22496
22490
22505
22508
22497
22503
22493
22497
22490
22502
22489
22501
22495
22507
22488
22497
22491
22497
22520
22507
22490
22502
22503
22503
22508
22496
22503
22499
22503
22507
22490
22498
22487
22498
22487
22506
22497
22505
22497
22489
22498
22520
22502
22507
22501
22505
22498
22500
22498
22487
22496
22484
22503
22487
22501
22494
22508
22502
22503
22491
22500
22481
22498
22486
22493
22485
22488
22485
22500
22498
22486
22495
22485
22493
22484
22494
22480
22490
22483
22492
22485
22495
22484
22493
22474
22495
22482
22499
22484
22496
22485
22494
22488
22498
22486
22484
22500
22505
22495
22497
22482
22494
22497
22515
22484
22479
22490
22484
22489
22479
22484
22511
22497
22500
22486
22491
22476
22488
22483
22490
22478
22488
22484
22485
22478
22489
22479
22482
22478
22486
22477
22487
22480
22495
22479
22495
22495
22454
22486
22479
22486
22484
22492
22479
22489
22491
22498
22487
22492
22478
22489
22483
22499
22487
22479
22487
22475
22484
22472
22491
22481
22494
22498
22503
22485
22477
22485
22475
22487
22479
22485
22472
22489
22479
22481
22468
22484
22473
22481
22470
22481
22470
22481
22508
22479
22510
22479
22476
22486
22476
22481
22479
22494
22480
22474
22479
22470
22484
22472
22482
22477
22487
22480
22489
22486
22489
22480
22494
22478
22454
22480
22487
22488
22469
22479
22469
22477
22472
22485
22466
22481
22468
22489
22482
22482
22471
22480
22471
22481
22463
22482
22468
22483
22471
22486
22474
22484
22471
22490
22482
22487
22467
22486
22479
22482
22481
22496
22484
22495
22473
22464
22471
22470
22477
22468
22471
22470
22474
22461
22470
22470
22477
22471
22471
22468
22479
22470
22473
22495
22474
22478
22474
22478
22463
22474
22466
22473
22466
22482
22484
22477
22487
22470
22467
22472
22463
22476
22465
22473
22461
22473
22461
22478
22484
22476
22481
22475
22488
22468
22464
22471
22469
22486
22471
22466
22471
22465
22479
22471
22465
22468
22466
22478
22468
22462
22476
22471
22460
22473
22468
22479
22468
22462
22472
22463
22473
22467
22458
22472
22463
22471
22457
22469
22461
22474
22476
22456
22469
22461
22467
22452
22467
22454
22469
22457
22468
22455
22466
22462
22471
22462
22453
22457
22450
22468
22465
22452
22466
22454
22462
22455
22469
22453
22474
22458
22476
22461
22473
22455
22469
22458
22470
22458
22486
22485
22460
22476
22462
22498
22501
22484
22500
22490
22500
22483
22508
22481
22501
22468
22494
22477
22497
22476
22492
22486
22498
22486
22471
22480
22471
22479
22468
22476
22472
22484
22473
22482
22478
22487
22471
22463
22459
22471
22466
22468
22468
22471
22471
22471
22486
22460
22484
22478
22476
22471
22463
22470
22461
22466
22459
22469
22455
22460
22457
22470
22457
22468
22453
22462
22453
22465
22460
22468
22463
22470
22469
22474
22455
22455
22464
22454
22467
22448
22454
22457
22460
22455
22462
22460
22466
22470
22447
22460
22459
22470
22467
22473
22465
22452
22456
22452
22461
22453
22467
22460
22466
22454
22452
22455
22451
22463
22448
22465
22456
22459
22448
22458
22447
22459
22454
22461
22446
22459
22448
22460
22452
22446
22453
22446
22455
22447
22452
22450
22454
22448
22454
22447
22452
22444
22458
22444
22452
22444
22448
22443
22452
22444
22450
22463
22455
22460
22438
22454
22442
22455
22447
22452
22440
22446
22444
22457
22460
22452
22462
22439
22448
22463
22445
22449
22447
22452
22443
22452
22443
22457
22470
22453
22465
22454
22460
22445
22455
22444
22458
22440
22446
22443
22449
22444
22449
22441
22453
22444
22449
22441
22452
22442
22456
22439
22461
22446
22457
22447
22452
22447
22459
22459
22472
22449
22438
22450
22458
22446
22460
22450
22454
22443
22452
22440
22450
22440
22458
22463
22447
22459
22450
22454
22442
22452
22439
22452
22438
22453
22437
22453
22441
22455
22441
22454
22446
22452
22442
22451
22439
22449
22436
22449
22439
22449
22438
22447
22442
22453
22451
22471
22447
22420
22445
22441
22449
22438
22450
22436
22447
22434
22448
22438
22446
22436
22445
22439
22441
22470
22446
22433
22458
22452
22447
22452
22445
22454
22438
22449
22444
22452
22441
22454
22443
22457
22439
22447
22437
22448
22438
22449
22443
22452
22452
22463
22440
22434
22439
22436
22443
22437
22446
22433
22445
22437
22441
22438
22441
22436
22445
22437
22448
22445
22449
22437
22434
22442
22436
22441
22431
22439
22434
22447
22439
22464
22441
22433
22438
22437
22439
22439
22431
22439
22436
22444
22446
22430
22440
22435
22438
22439
22447
22439
22458
22439
22438
22441
22433
22445
22433
22439
22430
22439
22432
22444
22435
22439
22432
22446
22436
22441
22436
22447
22429
22442
22434
22445
22432
22439
22429
22439
22429
22440
22428
22437
22431
22447
22444
22439
22446
22433
22445
22437
22428
22442
22426
22444
22445
22452
22449
22452
22433
22428
22431
22447
22439
22456
22438
22427
22431
22455
22439
22438
22431
22438
22422
22443
22426
22438
22428
22440
22445
22439
22428
22439
22438
22443
22455
22443
22448
22440
22453
22445
22439
22431
22439
22430
22437
22426
22431
22428
22445
22448
22435
22424
22434
22422
22436
22425
22440
22430
22441
22431
22438
22425
22436
22427
22432
22425
22434
22429
22439
22427
22436
22434
22441
22437
22449
22439
22439
22437
22441
22438
22453
22430
22426
22428
22420
22438
22437
22430
22439
22428
22439
22428
22439
22431
22441
22436
22441
22435
22442
22421
22429
22422
22432
22438
22422
22435
22420
22431
22420
22431
22420
22430
22420
22434
22419
22425
22415
22432
22421
22432
22417
22430
22420
22429
22422
22437
22436
22453
22424
22415
22428
22415
22427
22418
22427
22417
22425
22415
22428
22423
22434
22425
22433
22416
22433
22420
22438
22433
22416
22426
22423
22429
22420
22431
22413
22428
22415
22425
22416
22423
22443
22428
22431
22423
22431
22419
22428
22420
22427
22415
22431
22421
22427
22423
22433
22429
22443
22423
22409
22420
22420
22422
22418
22423
22413
22423
22447
22425
22409
22422
22415
22423
22414
22419
22417
22426
22412
22415
22414
22423
22429
22421
22429
22416
22428
22412
22425
22410
22418
22417
22419
22439
22426
22427
22414
22421
22415
22419
22411
22425
22427
22415
22425
22413
22421
22412
22417
22412
22420
22436
22431
22431
22424
22440
22425
22414
22421
22413
22433
22431
22418
22428
22409
22424
22408
22417
22447
22430
22428
22414
22429
22410
22422
22410
22420
22409
22423
22413
22416
22412
22420
22411
22420
22415
22425
22411
22427
22423
22408
22423
22425
22408
22423
22418
22402
22421
22429
22407
22418
22406
22410
22422
22407
22421
22422
22411
22425
22422
22405
22417
22404
22415
22423
22401
22416
22405
22414
22422
22406
22410
22404
22415
22420
22405
22407
22418
22402
22416
22416
22401
22407
22414
22420
22401
22413
22415
22403
22412
22416
22406
22410
22419
22407
22413
22406
22413
22407
22425
22406
22410
22401
22407
22428
22405
22409
22399
22407
22411
22403
22408
22417
22396
22412
22418
22402
22407
22415
22399
22406
22401
22412
22409
22402
22407
22420
22399
22408
22413
22397
22407
22401
22410
22407
22393
22409
22416
22394
22411
22399
22407
22419
22401
22406
22396
22407
22412
22397
22403
22404
22407
22412
22404
22412
22395
22407
22397
22407
22409
22396
22413
22412
22393
22414
22407
22399
22406
22397
22407
22410
22392
22407
22402
22390
22406
22407
22406
22423
22399
22395
22399
22390
22402
22390
22404
22395
22397
22391
22404
22391
22411
22417
22398
22410
22391
22406
22393
22408
22388
22412
22396
22415
22389
22408
22396
22410
22478
22405
22431
22411
22431
22433
22469
22437
22485
22412
22404
22419
22454
22416
22433
22401
22416
22406
22421
22427
22416
22423
22407
22417
22410
22419
22413
22415
22407
22415
22401
22411
22410
22408
22406
22409
22399
22409
22396
22404
22398
22402
22401
22412
22413
22396
22407
22397
22407
22397
22404
22399
22405
22398
22399
22396
22404
22406
22399
22405
22393
22401
22406
22399
22399
22391
22405
22407
22391
22401
22394
22399
22396
22404
22405
22396
22403
22390
22399
22389
22398
22389
22400
22406
22389
22400
22406
22390
22399
22407
22394
22404
22387
22396
22404
22397
22403
22397
22393
22396
22399
22405
22389
22400
22400
22384
22407
22401
22402
22413
22404
22407
22395
22404
22396
22404
22397
22415
22390
22397
22382
22395
22384
22393
22407
22401
22398
22390
22399
22391
22399
22383
22394
22386
22406
22399
22383
22395
22380
22398
22398
22392
22404
22399
22397
22396
22399
22389
22388
22388
22402
22400
22382
22394
22383
22394
22399
22383
22399
22395
22383
22396
22388
22398
22401
22383
22398
22387
22394
22396
22381
22388
22393
22383
22391
22383
22395
22388
22382
22393
22379
22397
22399
22387
22391
22376
22393
22407
22390
22397
22381
22396
22381
22390
22399
22385
22390
22383
22388
22396
22382
22389
22380
22391
22394
22383
22393
22378
22391
22394
22396
22407
22388
22396
22383
22391
22382
22394
22403
22396
22397
22384
22397
22382
22388
22401
22381
22391
22383
22388
22381
22394
22383
22391
22401
22385
22393
22382
22396
22385
22390
22413
22385
22391
22387
22388
22379
22389
22380
22392
22412
22392
22383
22389
22380
22391
22375
22385
22381
22391
22376
22390
22374
22386
22378
22394
22378
22386
22379
22396
22386
22398
22385
22378
22391
22381
22391
22385
22402
22382
22375
22380
22378
22383
22373
22380
22375
22383
22372
22382
22370
22387
22375
22384
22375
22395
22384
22403
22383
22373
22381
22374
22378
22374
22379
22375
22380
22372
22383
22391
22379
22383
22373
22387
22371
22373
22369
22377
22369
22380
22395
22385
22391
22380
22383
22369
22380
22364
22379
22374
22386
22374
22399
22378
22371
22380
22366
22377
22390
22387
22390
22379
22368
22372
22366
22372
22365
22370
22399
22372
22366
22373
22370
22372
22365
22375
22362
22372
22367
22372
22380
22372
22375
22364
22372
22362
22372
22362
22377
22379
22367
22375
22364
22371
22383
22378
22380
22359
22374
22362
22370
22362
22373
22380
22367
22372
22359
22370
22359
22372
22361
22375
22373
22359
22370
22361
22372
22355
22377
22378
22364
22375
22359
22372
22362
22370
22361
22377
22375
22365
22372
22364
22372
22359
22367
22389
22361
22375
22364
22373
22362
22373
22356
22363
22375
22361
22374
22365
22370
22356
22375
22361
22374
22375
22378
22372
22383
22374
22380
22363
22362
22366
22359
22369
22359
22370
22367
22375
22356
22372
22351
22370
22357
22366
22359
22370
22358
22365
22359
22359
22355
22362
22353
22371
22379
22364
22371
22354
22365
22359
22371
22374
22368
22373
22361
22375
22367
22370
22367
22375
22372
22383
22366
22380
22368
22383
22363
22354
22359
22351
22357
22351
22361
22351
22367
22370
22352
22372
22366
22350
22362
22350
22361
22352
22359
22348
22367
22348
22361
22350
22357
22351
22361
22388
22359
22359
22355
22355
22364
22372
22366
22369
22357
22364
22351
22361
22354
22358
22349
22364
22345
22359
22345
22363
22351
22367
22356
22366
22362
22367
22353
22366
22351
22360
22348
22359
22346
22358
22348
22358
22348
22355
22345
22361
22340
22352
22366
22356
22362
22349
22354
22341
22357
22343
22362
22374
22365
22361
22349
22365
22359
22362
22351
22362
22362
22343
22353
22346
22357
22345
22359
22350
22367
22351
22346
22351
22349
22352
22345
22350
22351
22354
22351
22360
22351
22367
22350
22343
22356
22355
22368
22351
22343
22349
22383
22350
22343
22353
22342
22355
22341
22354
22343
22356
22337
22358
22352
22343
22351
22343
22350
22342
22356
22343
22357
22353
22362
22343
22365
22354
22350
22384
22351
22340
22362
22362
22351
22359
22348
22359
22358
22364
22348
22342
22353
22343
22364
22352
22336
22351
22341
22349
22339
22353
22342
22351
22338
22351
22338
22355
22337
22354
22343
22345
22338
22350
22339
22351
22348
22362
22351
22359
22359
22361
22354
22353
22359
22337
22348
22337
22344
22339
22347
22338
22348
22343
22351
22341
22351
22337
22343
22337
22349
22332
22348
22344
22364
22355
22335
22341
22366
22349
22354
22347
22357
22343
22353
22354
22336
22345
22337
22345
22337
22349
22337
22351
22339
22348
22343
22347
22340
22346
22341
22348
22342
22351
22343
22351
22349
22339
22348
22344
22337
22344
22339
22344
22335
22340
22362
22349
22347
22339
22345
22336
22347
22335
22346
22340
22342
22332
22345
22336
22348
22337
22351
22341
22351
22348
22356
22343
22351
22347
22362
22340
22332
22345
22335
22342
22332
22351
22337
22335
22346
22340
22367
22343
22331
22338
22337
22345
22357
22338
22335
22345
22337
22342
22330
22338
22359
22345
22347
22335
22340
22338
22347
22330
22340
22328
22340
22348
22351
22348
22343
22361
22341
22329
22338
22333
22353
22348
22325
22346
22331
22354
22358
22331
22346
22325
22343
22327
22349
22332
22365
22399
22362
22370
22348
22391
22359
22380
22361
22337
22354
22334
22367
22347
22372
22356
22367
22359
22369
22352
22388
22355
22385
22348
22373
22343
22366
22348
22353
22345
22345
22340
22350
22335
22342
22350
22343
22345
22337
22347
22328
22340
22341
22345
22343
22348
22335
22342
22332
22337
22331
22336
22333
22340
22337
22344
22337
22345
22335
22340
22337
22342
22340
22335
22337
22327
22341
22330
22342
22334
22340
22332
22343
22336
22343
22342
22332
22341
22331
22342
22335
22341
22334
22343
22335
22340
22334
22340
22343
22340
22343
22328
22335
22339
22337
22336
22333
22324
22337
22325
22333
22326
22334
22319
22334
22324
22335
22322
22336
22328
22340
22340
22351
22339
22327
22326
22303
22332
22322
22328
22323
22330
22324
22334
22332
22341
22323
22333
22325
22335
22324
22335
22323
22328
22316
22337
22321
22333
22334
22329
22328
22325
22327
22337
22324
22328
22322
22340
22332
22319
22326
22340
22322
22334
22324
22324
22332
22330
22319
22332
22332
22322
22325
22327
22344
22323
22329
22341
22326
22327
22337
22318
22333
22337
22319
22327
22333
22316
22334
22332
22318
22328
22332
22319
22326
22335
22316
22327
22340
22318
22326
22335
22318
22327
22317
22323
22324
22316
22326
22317
22322
22332
22318
22333
22324
22316
22318
22330
22353
22321
22328
22317
22326
22335
22314
22320
22332
22318
22320
22327
22318
22322
22326
22316
22319
22340
22327
22313
22322
22312
22332
22319
22331
22315
22326
22315
22324
22317
22330
22318
22326
22334
22316
22321
22333
22315
22328
22326
22309
22322
22322
22313
22327
22330
22308
22334
22331
22311
22323
22313
22322
22327
22312
22319
22328
22309
22324
22330
22311
22332
22331
22314
22326
22327
22309
22331
22322
22309
22316
22323
22309
22316
22325
22310
22323
22311
22319
22322
22308
22319
22305
22314
22324
22311
22327
22317
22324
22311
22313
22307
22315
22332
22313
22316
22303
22309
22317
22308
22310
22330
22305
22317
22326
22303
22321
22319
22318
22308
22315
22318
22300
22307
22308
22313
22321
22305
22305
22308
22316
22298
22302
22301
22313
22302
22304
22309
22314
22300
22311
22310
22298
22301
22303
22314
22303
22314
22294
22313
22303
22311
22294
22310
22298
22310
22297
22303
22300
22308
22299
22302
22298
22307
22300
22305
22296
22308
22297
22311
22294
22308
22303
22306
22295
22308
22290
22301
22300
22311
22303
22311
22315
22323
22311
22326
22308
22311
22305
22308
22295
22309
22300
22311
22299
22309
22305
22310
22303
22310
22301
22303
22293
22308
22292
22298
22297
22300
22289
22303
22295
22308
22295
22303
22298
22308
22309
22305
22309
22308
22303
22308
22303
22305
22297
22311
22308
22287
22302
22294
22307
22300
22305
22314
22298
22284
22298
22286
22299
22291
22297
22288
22309
22298
22313
22310
22326
22299
22324
22298
22294
22298
22292
22302
22291
22308
22303
22303
22308
22300
22287
22303
22308
22298
22285
22295
22287
22301
22308
22291
22300
22289
22297
22291
22294
22318
22305
22308
22303
22301
22301
22315
22292
22287
22300
22284
22295
22283
22295
22283
22299
22288
22297
22289
22300
22285
22295
22282
22298
22285
22293
22286
22295
22288
22300
22304
22296
22301
22291
22303
22288
22301
22278
22295
22282
22297
22287
22289
22308
22291
22285
22295
22282
22295
22287
22295
22279
22293
22284
22293
22283
22289
22286
22295
22296
22286
22293
22276
22286
22304
22284
22289
22284
22292
22276
22301
22298
22286
22297
22287
22290
22300
22279
22287
22279
22295
22279
22292
22276
22294
22281
22292
22281
22289
22284
22289
22284
22287
22278
22288
22278
22287
22311
22300
22295
22278
22294
22277
22284
22279
22291
22276
22287
22277
22293
22300
22278
22286
22308
22294
22301
22291
22295
22291
22277
22295
22284
22278
22286
22279
22289
22279
22289
22277
22294
22276
22287
22279
22292
22279
22286
22274
22289
22272
22287
22275
22288
22279
22279
22278
22284
22279
22288
22277
22287
22275
22283
22279
22285
22278
22281
22274
22284
22272
22287
22276
22287
22279
22289
22280
22297
22286
22289
22279
22294
22279
22286
22287
22292
22284
22301
22293
22308
22284
22275
22283
22274
22287
22271
22287
22277
22294
22286
22307
22283
22269
22283
22276
22281
22279
22293
22301
22287
22287
22276
22285
22271
22279
22271
22279
22265
22282
22268
22287
22266
22291
22290
22276
22279
22262
22280
22269
22274
22269
22279
22303
22278
22300
22291
22287
22291
22273
22284
22287
22292
22284
22301
22288
22269
22283
22268
22284
22278
22284
22287
22270
22273
22292
22275
22284
22271
22284
22270
22279
22269
22278
22270
22279
22267
22279
22267
22284
22287
22271
22276
22271
22276
22244
22287
22282
22274
22279
22276
22279
22271
22276
22266
22276
22266
22272
22262
22282
22269
22278
22281
22287
22267
22279
22264
22278
22266
22271
22298
22287
22278
22275
22279
22269
22276
22250
22276
22260
22277
22284
22274
22263
22274
22264
22278
22262
22276
22271
22278
22274
22290
22271
22264
22272
22263
22278
22264
22284
22265
22276
22277
22282
22266
22276
22268
22278
22270
22279
22263
22273
22276
22283
22261
22263
22260
22267
22261
22257
22292
22277
22269
22268
22257
22257
22300
22279
22279
22261
22278
22256
22281
22272
22260
22273
22257
22282
22259
22292
22274
22292
22278
22308
22289
22348
22293
22314
22273
22263
22283
22261
22275
22263
22278
22263
22285
22268
22290
22270
22293
22268
22290
22271
22284
22271
22281
22270
22282
22271
22275
22269
22283
22270
22279
22279
22270
22279
22266
22275
22270
22286
22276
22270
22271
22287
22277
22279
22272
22279
22276
22274
22270
22278
22278
22275
22276
22274
22279
22266
22274
22262
22276
22265
22273
22264
22273
22263
22269
22263
22276
22266
22276
22262
22265
22266
22285
22272
22282
22267
22280
22270
22261
22270
22263
22260
22271
22260
22270
22255
22268
22260
22262
22259
22263
22255
22263
22255
22266
22260
22262
22252
22272
22273
22267
22270
22267
22276
22271
22268
22252
22268
22255
22262
22255
22261
22256
22265
22256
22268
22256
22263
22257
22269
22261
22255
22257
22247
22257
22252
22260
22255
22263
22253
22263
22251
22263
22249
22266
22249
22265
22255
22268
22262
22263
22254
22259
22255
22261
22250
22254
22246
22255
22252
22260
22248
22261
22258
22265
22254
22253
22260
22247
22261
22244
22259
22252
22260
22246
22262
22251
22256
22254
22271
22260
22266
22255
22263
22250
22267
22252
22265
22246
22261
22246
22252
22247
22253
22244
22261
22247
22255
22244
22261
22247
22262
22245
22260
22246
22267
22248
22263
22255
22278
22249
22248
22253
22247
22250
22249
22255
22245
22255
22244
22251
22244
22261
22247
22260
22251
22260
22246
22255
22247
22259
22246
22257
22246
22260
22245
22256
22244
22257
22244
22258
22250
22257
22242
22254
22246
22248
22246
22253
22247
22254
22245
22252
22260
22250
22258
22244
22255
22238
22260
22242
22256
22246
22257
22245
22254
22239
22255
22244
22255
22245
22255
22243
22246
22240
22248
22276
22259
22244
22247
22238
22251
22276
22251
22242
22251
22243
22244
22239
22243
22269
22254
22239
22242
22239
22250
22235
22250
22242
22250
22234
22253
22244
22250
22237
22251
22239
22244
22238
22252
22249
22241
22242
22238
22245
22236
22247
22247
22257
22250
22260
22251
22252
22243
22247
22243
22255
22251
22221
22241
22233
22246
22251
22238
22252
22245
22252
22249
22257
22242
22249
22239
22249
22248
22251
22252
22248
22244
22245
22237
22245
22232
22245
22235
22244
22233
22247
22239
22246
22244
22261
22244
22226
22237
22228
22245
22256
22241
22245
22235
22245
22239
22247
22236
22240
22232
22249
22240
22244
22245
22259
22242
22228
22238
22260
22239
22260
22247
22247
22245
22247
22237
22247
22244
22249
22242
22245
22239
22257
22239
22245
22233
22245
22229
22244
22229
22245
22225
22239
22223
22239
22226
22237
22256
22236
22247
22233
22241
22227
22242
22228
22237
22230
22237
22227
22233
22223
22234
22224
22230
22225
22233
22222
22234
22261
22244
22238
22239
22254
22231
22228
22235
22249
22240
22258
22246
22245
22232
22237
22222
22240
22222
22236
22228
22237
22220
22235
22223
22231
22223
22233
22220
22229
22240
22227
22239
22223
22236
22222
22232
22246
22243
22244
22236
22242
22223
22233
22254
22235
22243
22223
22237
22226
22223
22232
22237
22245
22241
22250
22231
22221
22231
22217
22228
22218
22231
22218
22234
22218
22234
22216
22231
22223
22222
22252
22239
22239
22222
22234
22213
22234
22219
22231
22219
22231
22226
22236
22218
22236
22216
22226
22215
22228
22214
22225
22220
22233
22246
22223
22244
22235
22247
22232
22218
22225
22238
22227
22228
22214
22230
22212
22237
22229
22212
22221
22242
22219
22224
22214
22219
22245
22225
22226
22215
22226
22215
22231
22218
22231
22214
22225
22214
22230
22220
22236
22229
22228
22214
22225
22212
22224
22213
22222
22249
22216
22222
22215
22224
22215
22213
22212
22231
22230
22210
22225
22212
22218
22239
22222
22227
22213
22227
22211
22219
22210
22229
22226
22208
22218
22209
22218
22212
22220
22212
22218
22241
22214
22220
22212
22227
22216
22220
22210
22216
22209
22212
22209
22218
22242
22214
22210
22215
22239
22220
22222
22218
22235
22214
22245
22216
22207
22216
22233
22222
22222
22217
22223
22214
22222
22214
22220
22214
22228
22218
22224
22220
22220
22215
22223
22225
22226
22222
22202
22217
22208
22213
22201
22215
22200
22213
22223
22207
22221
22214
22226
22210
22201
22211
22205
22218
22240
22221
22230
22212
22205
22214
22202
22214
22204
22214
22202
22215
22205
22221
22225
22204
22215
22202
22216
22212
22222
22213
22206
22220
22218
22199
22211
22199
22220
22207
22219
22221
22222
22216
22199
22209
22220
22210
22220
22205
22220
22202
22212
22202
22215
22199
22218
22218
22228
22220
22231
22209
22196
22209
22199
22212
22196
22208
22199
22209
22199
22212
22195
22206
22200
22212
22220
22207
22217
22209
22215
22212
22219
22206
22215
22199
22209
22196
22210
22199
22213
22197
22208
22203
22208
22233
22200
22206
22196
22207
22198
22206
22192
22205
22198
22210
22214
22204
22213
22197
22208
22195
22207
22202
22208
22212
22204
22214
22196
22206
22193
22210
22196
22204
22212
22199
22211
22197
22207
22199
22207
22189
22207
22191
22210
22207
22215
22197
22212
22192
22209
22196
22211
22193
22203
22196
22198
22191
22204
22199
22207
22229
22199
22194
22202
22196
22199
22191
22198
22189
22204
22185
22194
22203
22194
22202
22191
22194
22195
22197
22189
22196
22219
22199
22207
22191
22207
22191
22209
22188
22212
22192
22191
22215
22193
22236
22202
22190
22224
22207
22193
22235
22212
22191
22219
22189
22226
22227
22198
22217
22197
22215
22195
22206
22235
22210
22232
22212
22231
22203
22219
22207
22211
22218
22205
22212
22200
22212
22199
22207
22225
22210
22209
22197
22206
22193
22205
22208
22198
22207
22194
22201
22209
22204
22211
22193
22204
22192
22206
22212
22200
22210
22199
22211
22196
22196
22215
22205
22212
22198
22205
22204
22201
22195
22205
22196
22199
22215
22197
22212
22201
22207
22194
22207
22191
22194
22215
22193
22207
22191
22199
22205
22195
22194
22189
22201
22201
22190
22196
22191
22207
22207
22191
22200
22191
22201
22204
22191
22203
22186
22203
22188
22198
22189
22196
22215
22194
22207
22192
22200
22190
22195
22191
22195
22196
22191
22209
22202
22207
22191
22196
22185
22198
22185
22194
22188
22199
22184
22198
22190
22198
22211
22198
22205
22187
22196
22188
22195
22183
22194
22181
22196
22180
22192
22185
22205
22212
22188
22216
22195
22214
22201
22186
22193
22183
22194
22186
22191
22180
22190
22186
22191
22181
22194
22179
22189
22180
22188
22195
22196
22196
22191
22209
22188
22197
22180
22193
22183
22194
22181
22191
22211
22192
22203
22193
22195
22186
22196
22185
22192
22187
22201
22188
22199
22196
22180
22192
22181
22193
22188
22193
22183
22203
22190
22199
22191
22202
22198
22201
22188
22207
22193
22182
22193
22182
22192
22184
22194
22181
22196
22191
22196
22191
22207
22188
22178
22197
22183
22193
22180
22197
22180
22199
22185
22181
22194
22180
22191
22180
22199
22182
22194
22183
22191
22176
22198
22185
22199
22196
22181
22187
22177
22194
22196
22181
22193
22180
22191
22182
22200
22197
22215
22185
22179
22195
22183
22201
22186
22180
22195
22182
22197
22189
22208
22191
22179
22190
22174
22193
22175
22194
22196
22182
22183
22182
22185
22175
22185
22177
22183
22175
22186
22177
22191
22182
22201
22185
22180
22191
22185
22175
22187
22191
22183
22181
22191
22183
22182
22174
22183
22180
22177
22172
22172
22174
22196
22172
22183
22175
22178
22178
22193
22190
22179
22182
22172
22179
22175
22183
22168
22186
22171
22180
22169
22183
22167
22182
22174
22174
22167
22177
22195
22180
22197
22184
22181
22173
22183
22169
22180
22175
22177
22165
22179
22167
22180
22168
22179
22166
22176
22169
22179
22195
22170
22177
22166
22179
22172
22175
22180
22166
22183
22167
22178
22167
22173
22167
22178
22167
22171
22165
22175
22170
22175
22164
22171
22187
22165
22175
22171
22178
22165
22181
22182
22163
22169
22199
22175
22183
22169
22180
22167
22178
22167
22181
22162
22174
22189
22175
22175
22167
22177
22165
22180
22161
22179
22165
22175
22164
22174
22165
22170
22163
22167
22159
22171
22186
22182
22189
22179
22161
22173
22157
22175
22183
22165
22172
22161
22167
22163
22179
22175
22173
22180
22180
22180
22163
22177
22161
22167
22158
22164
22158
22175
22173
22163
22173
22157
22169
22165
22167
22158
22171
22161
22180
22165
22168
22157
22174
22169
22185
22170
22177
22153
22169
22159
22168
22164
22173
22174
22166
22169
22167
22176
22156
22164
22155
22167
22159
22167
22157
22167
22152
22165
22158
22167
22154
22175
22158
22169
22159
22170
22160
22165
22187
22158
22170
22156
22169
22162
22167
22159
22173
22159
22171
22157
22174
22161
22169
22159
22168
22169
22169
22163
22172
22150
22168
22152
22166
22153
22158
22180
22169
22168
22154
22164
22151
22162
22173
22161
22167
22151
22164
22150
22165
22148
22160
22153
22154
22151
22164
22149
22163
22155
22161
22151
22161
22151
22159
22154
22159
22185
22170
22167
22150
22162
22148
22165
22150
22162
22151
22162
22151
22164
22151
22161
22149
22162
22174
22162
22151
22170
22173
22159
22170
22154
22169
22158
22167
22151
22158
22148
22156
22150
22163
22150
22163
22149
22158
22172
22158
22148
22161
22150
22164
22182
22158
22182
22174
22166
22167
22150
22159
22150
22159
22150
22165
22164
22151
22159
22149
22166
22169
22145
22158
22151
22157
22171
22154
22161
22149
22158
22149
22161
22150
22157
22144
22157
22143
22153
22180
22164
22168
22155
22161
22149
22161
22143
22152
22146
22152
22149
22164
22161
22150
22154
22146
22162
22162
22148
22151
22156
22155
22160
22149
22157
22177
22161
22167
22146
22154
22144
22151
22174
22153
22161
22153
22162
22155
22166
22152
22162
22151
22162
22159
22160
22156
22164
22159
22164
22151
22160
22149
22156
22148
22165
22150
22164
22150
22167
22149
22151
22144
22148
22151
22154
22163
22159
22159
22144
22157
22147
22159
22145
22156
22146
22151
22146
22157
22161
22156
22161
22150
22159
22149
22157
22148
22153
22165
22148
22159
22147
22155
22169
22157
22160
22149
22162
22142
22155
22164
22142
22157
22174
22143
22151
22143
22151
22163
22147
22152
22148
22162
22164
22144
22163
22157
22151
22155
22159
22143
22155
22158
22142
22156
22143
22154
22137
22148
22175
22151
22157
22143
22150
22137
22151
22143
22149
22182
22148
22145
22155
22149
22160
22162
22149
22160
22144
22161
22151
22167
22141
22167
22151
22171
22148
22166
22152
22167
22151
22167
22151
22174
22154
22175
22154
22183
22158
22175
22162
22185
22159
22189
22162
22183
22164
22179
22165
22183
22191
22167
22187
22172
22184
22175
22183
22170
22174
22166
22179
22170
22170
22162
22171
22159
22166
22153
22164
22159
22166
22159
22167
22153
22165
22159
22164
22148
22159
22164
22156
22165
22151
22162
22162
22156
22166
22157
22167
22151
22162
22151
22159
22155
22161
22154
22167
22175
22162
22169
22152
22167
22153
22161
22155
22153
22167
22156
22167
22154
22167
22167
22151
22153
22183
22153
22163
22158
22162
22166
22153
22166
22151
22154
22150
22162
22156
22156
22150
22159
22173
22163
22167
22151
22161
22151
22162
22154
22162
22151
22165
22162
22149
22161
22165
22145
22169
22150
22163
22150
22160
22166
22151
22169
22165
22165
22154
22163
22149
22164
22151
22159
22158
22162
22165
22164
22170
22152
22164
22151
22158
22154
22159
22151
22169
22174
22159
22150
22159
22151
22161
22154
22161
22148
22169
22157
22170
22169
22187
22160
22152
22161
22151
22168
22151
22172
22172
22151
22165
22151
22167
22154
22154
22193
22160
22164
22155
22160
22191
22168
22174
22158
22169
22155
22163
22153
22156
22189
22168
22165
22154
22175
22157
22167
22161
22167
22157
22175
22175
22159
22172
22156
22163
22156
22160
22183
22173
22188
22169
22175
22162
22175
22161
22175
22157
22168
22156
22169
22159
22167
22161
22171
22190
22168
22169
22161
22175
22159
22176
22172
22183
22185
22188
22169
22166
22178
22165
22177
22168
22163
22166
22160
22175
22164
22169
22164
22170
22154
22170
22164
22186
22188
22173
22181
22167
22172
22164
22180
22164
22171
22163
22183
22181
22181
22188
22180
22201
22186
22183
22175
22180
22169
22186
22172
22183
22173
22189
22191
22200
22175
22172
22182
22199
22181
22191
22179
22199
22175
22199
22182
22185
22180
22187
22188
22191
22184
22199
22183
22184
22170
22183
22168
22178
22174
22180
22167
22181
22172
22182
22185
22176
22186
22178
22184
22174
22186
22180
22183
22175
22185
22168
22180
22173
22183
22179
22187
22184
22196
22180
22175
22184
22190
22181
22183
22183
22186
22180
22189
22183
22186
22176
22186
22173
22187
22180
22191
22183
22180
22183
22175
22180
22177
22182
22175
22180
22196
22183
22191
22193
22196
22186
22191
22184
22186
22187
22190
22183
22195
22183
22173
22188
22177
22191
22180
22186
22183
22191
22189
22195
22182
22200
22183
22173
22188
22177
22192
22192
22175
22190
22179
22213
22188
22175
22185
22181
22188
22182
22189
22183
22182
22180
22191
22198
22193
22180
22185
22174
22185
22180
22191
22180
22194
22182
22193
22178
22191
22202
22180
22198
22186
22188
22199
22196
22199
22187
22197
22182
22191
22183
22193
22184
22190
22182
22188
22184
22197
22183
22194
22188
22201
22192
22183
22189
22186
22190
22182
22197
22184
22196
22185
22197
22185
22199
22185
22204
22190
22197
22191
22203
22196
22187
22197
22190
22190
22189
22197
22188
22192
22189
22196
22185
22196
22188
22199
22190
22196
22184
22201
22190
22206
22198
22191
22199
22191
22206
22190
22202
22188
22205
22204
22207
22204
22211
22191
22211
22201
22210
22196
22205
22197
22204
22196
22204
22191
22204
22194
22197
22199
22205
22193
22204
22191
22204
22197
22203
22193
22206
22193
22207
22197
22209
22196
22205
22196
22205
22189
22203
22193
22218
22207
22194
22197
22204
22208
22208
22214
22197
22197
22199
22219
22212
22214
22207
22207
22207
22206
22215
22207
22212
22203
22215
22205
22218
22220
22204
22211
22202
22207
22201
22217
22199
22225
22214
22220
22210
22224
22207
22196
22217
22201
22212
22204
22213
22204
22217
22205
22224
22218
22216
22212
22223
22216
22204
22219
22204
22219
22206
22232
22211
22204
22217
22213
22242
22215
22200
22224
22215
22208
22226
22218
22243
22211
22207
22220
22211
22216
22241
22215
22212
22216
22204
22212
22208
22219
22207
22218
22212
22218
22207
22218
22212
22220
22210
22226
22224
22227
22213
22222
22213
22220
22212
22222
22215
22227
22220
22234
22231
22237
22219
22231
22216
22223
22212
22223
22215
22221
22212
22221
22213
22217
22234
22222
22229
22215
22228
22215
22221
22214
22222
22245
22219
22214
22229
22217
22228
22217
22227
22214
22229
22234
22223
22236
22218
22228
22212
22226
22215
22232
22223
22212
22237
22225
22218
22231
22218
22228
22215
22229
22239
22221
22234
22218
22228
22218
22229
22221
22229
22238
22229
22231
22220
22231
22224
22236
22223
22230
22221
22235
22217
22230
22219
22243
22239
22228
22236
22235
22238
22222
22234
22233
22241
22238
22221
22240
22221
22236
22228
22233
22222
22233
22225
22229
22252
22238
22241
22233
22247
22246
22255
22242
22246
22232
22242
22234
22242
22227
22239
22225
22235
22265
22235
22247
22230
22233
22246
22231
22241
22250
22234
22241
22266
22236
22242
22232
22236
22230
22233
22209
22248
22253
22245
22248
22239
22229
22239
22231
22242
22233
22246
22232
22247
22241
22249
22247
22250
22237
22248
22230
22247
22233
22247
22235
22244
22295
22266
22294
22259
22238
22266
22243
22258
22238
22265
22237
22266
22255
22298
22279
22244
22263
22246
22271
22251
22269
22250
22260
22303
22269
22301
22265
22255
22262
22257
22263
22275
22264
22271
22255
22270
22248
22258
22247
22257
22246
22269
22269
22263
22263
22263
22263
22255
22262
22261
22253
22255
22274
22261
22255
22250
22263
22252
22261
22252
22256
22250
22255
22247
22257
22252
22261
22250
22258
22252
22257
22263
22260
22262
22255
22258
22245
22255
22248
22259
22248
22257
22252
22257
22246
22257
22250
22265
22264
22256
22265
22253
22260
22244
22262
22253
22263
22252
22260
22251
22264
22262
22267
22255
22278
22264
22255
22265
22263
22269
22268
22267
22269
22260
22260
22270
22268
22270
22255
22271
22274
22274
22269
22271
22259
22266
22259
22261
22252
22271
22270
22263
22271
22255
22265
22256
22258
22275
22271
22266
22263
22271
22261
22269
22255
22271
22254
22268
22243
22265
22272
22271
22279
22258
22276
22260
22270
22257
22264
22260
22268
22277
22263
22273
22259
22273
22260
22266
22279
22263
22266
22261
22268
22263
22272
22261
22271
22262
22276
22262
22270
22299
22284
22279
22276
22272
22264
22278
22263
22278
22263
22274
22263
22274
22264
22271
22303
22279
22297
22279
22264
22275
22266
22277
22268
22286
22279
22286
22279
22290
22277
22280
22285
22265
22274
22265
22277
22270
22279
22300
22281
22289
22284
22285
22284
22292
22279
22285
22277
22293
22273
22279
22268
22282
22274
22281
22309
22276
22275
22287
22292
22273
22291
22270
22284
22273
22279
22301
22279
22292
22274
22290
22274
22285
22273
22290
22276
22291
22294
22274
22290
22279
22295
22289
22294
22279
22295
22290
22294
22285
22289
22279
22288
22270
22282
22279
22281
22284
22276
22279
22270
22279
22311
22281
22294
22284
22286
22277
22295
22292
22278
22288
22279
22286
22274
22287
22292
22276
22291
22279
22288
22279
22295
22279
22292
22277
22285
22306
22279
22295
22279
22290
22279
22291
22268
22282
22279
22283
22279
22287
22272
22286
22277
22287
22275
22285
22272
22286
22276
22282
22277
22292
22292
22303
22286
22277
22309
22290
22292
22279
22292
22278
22292
22279
22287
22271
22285
22278
22282
22284
22283
22306
22295
22291
22292
22292
22285
22300
22295
22295
22295
22301
22285
22287
22279
22290
22278
22287
22279
22285
22303
22286
22297
22287
22291
22279
22293
22277
22287
22277
22293
22281
22286
22311
22300
22295
22287
22293
22289
22289
22282
22290
22302
22286
22295
22276
22298
22282
22298
22279
22294
22284
22289
22278
22292
22279
22295
22299
22289
22296
22285
22287
22287
22292
22278
22287
22305
22287
22297
22279
22293
22284
22296
22302
22288
22295
22277
22297
22285
22303
22294
22284
22292
22284
22303
22298
22289
22303
22293
22300
22287
22302
22285
22297
22287
22298
22284
22297
22287
22295
22287
22291
22283
22297
22289
22305
22305
22282
22293
22287
22296
22287
22301
22293
22305
22303
22310
22292
22302
22287
22299
22288
22295
22285
22298
22311
22295
22295
22288
22298
22286
22303
22290
22299
22287
22309
22309
22292
22295
22287
22308
22303
22289
22300
22289
22306
22307
22321
22298
22293
22303
22296
22289
22305
22298
22306
22299
22295
22303
22293
22307
22298
22322
22295
22290
22302
22287
22300
22292
22298
22292
22296
22326
22303
22285
22298
22293
22300
22295
22311
22311
22295
22304
22293
22303
22279
22301
22309
22297
22310
22311
22292
22297
22313
22299
22313
22290
22310
22295
22298
22292
22300
22294
22304
22292
22310
22307
22295
22305
22287
22300
22295
22303
22297
22300
22311
22300
22305
22295
22305
22319
22302
22311
22293
22306
22293
22303
22292
22298
22295
22309
22331
22310
22313
22307
22310
22300
22302
22295
22306
22311
22295
22300
22297
22303
22313
22299
22310
22294
22305
22300
22311
22319
22297
22310
22299
22304
22314
22296
22309
22298
22307
22301
22303
22313
22302
22315
22309
22315
22299
22319
22298
22311
22300
22311
22305
22314
22303
22318
22313
22314
22300
22310
22300
22313
22299
22303
22303
22319
22297
22308
22303
22305
22297
22321
22313
22306
22317
22306
22303
22311
22303
22311
22303
22314
22300
22316
22297
22312
22303
22319
22316
22319
22315
22327
22321
22316
22310
22315
22303
22315
22303
22317
22311
22326
22313
22300
22314
22308
22318
22315
22297
22313
22300
22316
22316
22300
22309
22301
22311
22301
22314
22311
22301
22308
22292
22311
22308
22321
22310
22301
22310
22311
22300
22310
22301
22316
22298
22317
22310
22303
22310
22300
22315
22301
22324
22318
22303
22311
22303
22311
22300
22311
22298
22311
22303
22310
22299
22306
22328
22308
22313
22308
22319
22298
22310
22300
22312
22307
22319
22305
22320
22310
22316
22302
22319
22308
22311
22332
22316
22317
22300
22309
22298
22310
22300
22311
22303
22313
22308
22317
22305
22318
22311
22312
22311
22324
22318
22302
22309
22301
22305
22318
22310
22318
22303
22315
22310
22310
22299
22314
22317
22311
22308
22321
22317
22319
22319
22305
22310
22303
22311
22308
22324
22308
22303
22319
22311
22320
22311
22302
22315
22305
22310
22303
22308
22304
22317
22300
22313
22303
22311
22305
22315
22314
22303
22313
22305
22315
22303
22319
22315
22340
22310
22302
22325
22313
22333
22312
22303
22321
22303
22332
22313
22338
22303
22327
22302
22327
22302
22327
22306
22331
22309
22337
22320
22341
22314
22345
22319
22342
22319
22347
22340
22380
22345
22348
22337
22349
22340
22339
22336
22343
22327
22319
22325
22319
22331
22327
22310
22321
22310
22327
22309
22322
22313
22322
22314
22319
22334
22313
22323
22319
22324
22313
22317
22316
22321
22317
22319
22319
22319
22326
22316
22321
22316
22321
22319
22335
22317
22314
22322
22312
22323
22313
22320
22317
22319
22317
22320
22316
22324
22315
22322
22311
22319
22310
22318
22315
22319
22312
22325
22311
22316
22314
22318
22340
22318
22327
22322
22329
22324
22332
22324
22327
22316
22324
22312
22319
22310
22320
22313
22315
22338
22317
22321
22314
22319
22322
22313
22317
22316
22318
22310
22322
22312
22319
22311
22319
22311
22319
22308
22319
22309
22322
22343
22325
22333
22316
22322
22313
22319
22310
22319
22313
22327
22310
22324
22312
22326
22320
22323
22314
22324
22309
22323
22311
22324
22314
22329
22326
22311
22320
22308
22319
22324
22311
22328
22315
22326
22311
22326
22309
22325
22317
22322
22318
22325
22319
22330
22312
22326
22310
22321
22311
22317
22311
22323
22314
22327
22327
22325
22327
22313
22332
22322
22338
22332
22336
22321
22330
22313
22329
22325
22334
22316
22319
22325
22316
22321
22292
22327
22332
22312
22330
22315
22326
22317
22321
22319
22325
22313
22330
22324
22316
22319
22316
22327
22313
22328
22320
22338
22319
22309
22327
22315
22326
22315
22330
22311
22326
22321
22313
22315
22333
22330
22313
22322
22313
22326
22319
22325
22311
22318
22317
22323
22317
22324
22312
22326
22332
22323
22332
22318
22331
22319
22333
22335
22341
22323
22327
22317
22324
22311
22323
22314
22325
22332
22324
22332
22313
22325
22308
22323
22315
22327
22308
22320
22313
22318
22305
22318
22340
22327
22334
22327
22341
22330
22329
22319
22325
22313
22316
22315
22318
22310
22320
22311
22319
22311
22321
22337
22326
22326
22321
22319
22325
22324
22319
22342
22330
22323
22317
22323
22308
22318
22309
22322
22319
22315
22322
22314
22324
22313
22321
22308
22323
22313
22325
22311
22324
22315
22327
22311
22317
22308
22324
22324
22333
22317
22321
22308
22316
22311
22316
22303
22308
22308
22313
22334
22323
22306
22318
22307
22311
22333
22313
22300
22312
22332
22314
22314
22310
22315
22303
22313
22306
22318
22305
22314
22279
22321
22316
22303
22325
22303
22319
22305
22319
22305
22317
22309
22311
22303
22310
22303
22310
22300
22313
22306
22316
22302
22319
22296
22313
22303
22313
22302
22308
22303
22309
22301
22313
22300
22315
22303
22313
22303
22316
22311
22319
22315
22325
22309
22302
22303
22295
22307
22297
22310
22303
22308
22303
22310
22300
22309
22300
22310
22303
22309
22303
22311
22321
22309
22332
22316
22298
22314
22301
22311
22305
22314
22305
22315
22301
22319
22307
22319
22311
22317
22310
22314
22308
22319
22311
22319
22317
22309
22319
22297
22303
22333
22309
22326
22316
22314
22310
22316
22301
22315
22300
22315
22298
22309
22303
22307
22295
22309
22335
22311
22314
22307
22317
22300
22317
22300
22303
22333
22306
22310
22300
22310
22300
22304
22298
22303
22324
22305
22316
22306
22314
22314
22318
22319
22290
22308
22297
22304
22295
22308
22297
22302
22300
22303
22315
22303
22311
22300
22308
22303
22311
22295
22306
22295
22305
22299
22309
22323
22311
22296
22306
22298
22309
22295
22310
22310
22298
22302
22294
22307
22290
22304
22300
22319
22311
22292
22303
22298
22305
22295
22301
22299
22314
22300
22317
22312
22324
22308
22312
22295
22302
22295
22303
22293
22314
22318
22308
22310
22317
22317
22308
22293
22302
22293
22301
22294
22307
22290
22309
22308
22292
22305
22308
22293
22310
22308
22293
22300
22309
22292
22301
22291
22300
22325
22296
22305
22291
22306
22289
22305
22292
22303
22310
22292
22300
22292
22304
22306
22291
22311
22290
22308
22290
22307
22307
22310
22307
22291
22301
22294
22301
22291
22293
22287
22295
22293
22298
22284
22299
22286
22302
22289
22302
22294
22297
22291
22295
22292
22294
22290
22303
22315
22298
22307
22296
22317
22299
22294
22294
22290
22299
22307
22298
22303
22300
22311
22303
22308
22310
22306
22294
22311
22292
22311
22288
22296
22286
22299
22287
22301
22286
22293
22282
22306
22303
22290
22302
22290
22299
22309
22303
22306
22286
22302
22291
22300
22287
22296
22289
22297
22290
22299
22292
22295
22287
22303
22283
22297
22290
22308
22295
22314
22292
22285
22290
22285
22291
22279
22294
22282
22303
22287
22294
22294
22306
22304
22282
22295
22287
22292
22280
22291
22287
22291
22284
22293
22283
22292
22286
22288
22283
22293
22284
22295
22279
22291
22303
22287
22297
22279
22293
22282
22300
22302
22291
22295
22287
22292
22308
22292
22297
22294
22303
22287
22295
22283
22294
22286
22293
22279
22290
22284
22293
22279
22293
22290
22302
22295
22300
22292
22299
22290
22298
22299
22279
22289
22282
22290
22285
22291
22300
22285
22292
22279
22301
22292
22299
22295
22284
22298
22288
22283
22290
22284
22292
22279
22291
22284
22291
22275
22290
22284
22287
22279
22293
22287
22290
22281
22292
22279
22294
22279
22284
22279
22285
22274
22287
22276
22286
22279
22286
22271
22284
22274
22285
22300
22281
22287
22273
22284
22269
22289
22295
22284
22292
22279
22296
22277
22303
22295
22303
22300
22274
22279
22358
22310
22317
22294
22308
22274
22302
22273
22301
22269
22300
22273
22298
22275
22303
22279
22305
22279
22305
22281
22302
22286
22311
22297
22314
22292
22308
22293
22300
22279
22286
22275
22286
22279
22289
22277
22287
22279
22291
22283
22287
22293
22283
22285
22287
22288
22278
22284
22277
22287
22288
22284
22292
22284
22292
22279
22269
22282
22279
22284
22275
22283
22273
22283
22275
22283
22275
22280
22277
22279
22271
22281
22274
22279
22273
22284
22272
22284
22275
22281
22279
22276
22274
22279
22289
22279
22281
22272
22279
22278
22276
22279
22271
22279
22264
22278
22268
22284
22287
22278
22290
22279
22287
22287
22273
22274
22269
22278
22279
22275
22271
22264
22277
22262
22275
22269
22274
22264
22273
22289
22275
22264
22274
22265
22275
22266
22272
22260
22272
22276
22269
22275
22263
22277
22260
22277
22265
22274
22262
22273
22261
22275
22263
22266
22263
22271
22276
22267
22274
22259
22275
22261
22267
22260
22272
22289
22278
22277
22271
22273
22260
22270
22295
22277
22277
22262
22271
22267
22275
22271
22279
22264
22272
22270
22275
22267
22276
22265
22275
22257
22270
22259
22273
22261
22272
22270
22275
22270
22275
22266
22278
22269
22276
22268
22273
22263
22275
22267
22272
22259
22271
22261
22273
22260
22268
22257
22267
22293
22273
22274
22263
22269
22256
22266
22259
22270
22260
22259
22270
22260
22273
22268
22279
22264
22255
22258
22260
22271
22260
22271
22260
22275
22278
22251
22263
22259
22260
22257
22265
22260
22264
22259
22266
22255
22270
22254
22273
22256
22269
22254
22268
22258
22268
22260
22274
22261
22271
22260
22268
22275
22260
22265
22255
22271
22261
22272
22263
22275
22259
22276
22261
22264
22254
22261
22270
22254
22265
22256
22256
22278
22259
22268
22260
22265
22254
22263
22252
22262
22247
22266
22254
22269
22261
22279
22255
22251
22255
22248
22255
22278
22263
22264
22252
22257
22247
22256
22245
22255
22276
22263
22265
22240
22252
22257
22243
22254
22242
22250
22243
22260
22240
22257
22260
22257
22260
22247
22257
22243
22255
22247
22257
22249
22251
22240
22251
22241
22246
22253
22246
22252
22239
22247
22242
22251
22237
22247
22253
22243
22247
22237
22246
22239
22247
22239
22247
22237
22251
22242
22244
22268
22246
22255
22243
22250
22239
22251
22236
22247
22239
22251
22248
22245
22246
22241
22263
22241
22235
22253
22253
22239
22251
22229
22245
22234
22247
22236
22241
22234
22245
22233
22246
22238
22248
22245
22247
22231
22244
22232
22239
22245
22229
22238
22231
22238
22236
22253
22247
22245
22247
22249
22263
22249
22253
22249
22252
22239
22253
22239
22230
22238
22229
22246
22230
22244
22236
22230
22238
22233
22239
22231
22257
22232
22226
22237
22227
22241
22228
22242
22224
22241
22236
22244
22231
22237
22225
22239
22226
22239
22231
22239
22229
22241
22232
22225
22228
22221
22231
22224
22235
22223
22235
22225
22236
22228
22237
22229
22220
22233
22220
22226
22218
22230
22220
22227
22245
22227
22232
22224
22236
22215
22230
22217
22228
22246
22232
22236
22218
22225
22217
22222
22215
22224
22218
22224
22219
22222
22220
22222
22223
22231
22212
22231
22217
22229
22215
22223
22221
22230
22213
22231
22211
22224
22213
22227
22212
22220
22213
22234
22234
22223
22227
22220
22228
22213
22219
22207
22223
22213
22224
22216
22222
22207
22223
22215
22233
22225
22209
22220
22209
22228
22226
22212
22216
22242
22211
22225
22212
22218
22209
22220
22223
22209
22220
22212
22211
22234
22219
22230
22210
22218
22208
22227
22213
22219
22212
22218
22211
22220
22212
22216
22207
22216
22208
22218
22207
22215
22206
22214
22207
22222
22223
22209
22220
22210
22215
22207
22220
22211
22212
22237
22220
22219
22213
22216
22207
22219
22213
22220
22214
22227
22219
22231
22209
22219
22205
22214
22200
22211
22221
22201
22213
22199
22209
22223
22210
22214
22199
22212
22204
22211
22202
22209
22199
22205
22199
22213
22222
22219
22214
22205
22214
22210
22214
22197
22215
22196
22212
22199
22213
22205
22218
22213
22224
22204
22195
22207
22195
22207
22197
22205
22202
22209
22232
22216
22215
22196
22215
22201
22213
22204
22212
22203
22211
22199
22213
22197
22207
22192
22212
22214
22212
22215
22215
22207
22196
22212
22201
22210
22194
22207
22190
22214
22202
22207
22199
22207
22205
22220
22204
22191
22200
22192
22202
22191
22201
22221
22207
22207
22204
22207
22196
22206
22193
22199
22188
22201
22186
22196
22188
22193
22191
22199
22186
22207
22211
22207
22191
22204
22211
22202
22203
22196
22207
22186
22201
22191
22198
22185
22196
22183
22194
22182
22198
22185
22199
22201
22188
22196
22189
22197
22189
22188
22191
22190
22202
22193
22200
22189
22193
22184
22203
22183
22195
22200
22184
22197
22186
22204
22187
22192
22222
22193
22203
22187
22199
22191
22196
22196
22204
22189
22191
22182
22196
22181
22190
22181
22190
22180
22192
22181
22201
22196
22201
22186
22181
22193
22185
22194
22196
22179
22186
22178
22188
22182
22195
22174
22191
22187
22197
22199
22176
22191
22177
22198
22193
22207
22181
22181
22187
22176
22183
22180
22189
22183
22197
22178
22191
22179
22185
22180
22187
22177
22184
22176
22189
22179
22187
22172
22185
22170
22181
22202
22187
22191
22185
22191
22179
22187
22180
22188
22172
22183
22173
22181
22167
22184
22173
22188
22172
22189
22175
22190
22176
22193
22173
22201
22181
22203
22173
22201
22173
22194
22169
22189
22174
22199
22174
22203
22178
22202
22177
22204
22179
22228
22193
22181
22187
22255
22196
22182
22190
22186
22195
22177
22192
22180
22186
22177
22191
22196
22187
22197
22195
22191
22188
22202
22188
22203
22189
22199
22182
22174
22183
22177
22182
22179
22191
22175
22183
22175
22180
22180
22187
22181
22190
22183
22185
22183
22173
22173
22172
22180
22169
22177
22172
22181
22187
22187
22180
22191
22175
22169
22175
22171
22178
22172
22176
22182
22160
22165
22182
22178
22168
22165
22175
22168
22172
22165
22177
22168
22175
22167
22178
22174
22179
22170
22172
22165
22170
22157
22177
22175
22163
22178
22167
22176
22166
22177
22164
22174
22161
22173
22161
22174
22157
22167
22190
22170
22174
22167
22177
22166
22172
22176
22155
22168
22156
22172
22158
22167
22161
22169
22156
22169
22165
22168
22159
22166
22159
22177
22189
22172
22175
22158
22175
22158
22165
22156
22177
22173
22151
22163
22156
22168
22174
22154
22164
22154
22167
22151
22163
22155
22162
22180
22162
22169
22151
22159
22166
22152
22167
22151
22161
22151
22164
22154
22160
22151
22159
22149
22161
22188
22156
22188
22161
22167
22169
22152
22152
22172
22159
22159
22149
22165
22147
22164
22149
22158
22146
22154
22151
22154
22145
22159
22148
22157
22181
22167
22180
22172
22165
22150
22163
22148
22159
22150
22155
22181
22156
22158
22143
22162
22144
22159
22149
22153
22168
22158
22159
22142
22158
22142
22154
22145
22158
22148
22165
22150
22165
22151
22161
22151
22164
22151
22167
22163
22159
22151
22159
22154
22173
22157
22173
22161
22162
22151
22161
22147
22161
22140
22157
22137
22153
22137
22150
22126
22160
22142
22148
22139
22149
22138
22150
22154
22140
22153
22141
22148
22138
22159
22141
22158
22163
22173
22158
22157
22149
22138
22144
22132
22143
22133
22151
22138
22148
22149
22173
22146
22136
22145
22135
22148
22133
22146
22131
22147
22134
22149
22134
22147
22133
22146
22137
22146
22133
22144
22136
22147
22149
22148
22130
22147
22126
22137
22132
22135
22149
22136
22149
22132
22141
22127
22140
22124
22143
22127
22143
22133
22127
22130
22130
22132
22122
22134
22126
22140
22159
22143
22141
22130
22140
22128
22132
22124
22130
22126
22138
22122
22137
22127
22129
22123
22136
22140
22133
22143
22126
22142
22126
22136
22124
22138
22132
22153
22140
22151
22132
22127
22132
22124
22140
22139
22122
22140
22123
22135
22120
22132
22119
22130
22116
22135
22121
22135
22121
22134
22120
22135
22119
22133
22121
22131
22119
22127
22119
22129
22146
22127
22116
22123
22119
22127
22119
22127
22118
22127
22119
22126
22123
22126
22115
22124
22113
22129
22113
22131
22123
22129
22116
22129
22116
22135
22125
22151
22135
22137
22117
22127
22115
22120
22116
22120
22136
22124
22127
22111
22127
22116
22129
22127
22132
22126
22136
22128
22129
22119
22132
22122
22130
22126
22129
22129
22132
22119
22115
22119
22115
22117
22110
22113
22109
22125
22111
22119
22101
22119
22108
22117
22107
22117
22110
22123
22109
22119
22106
22119
22118
22122
22122
22109
22116
22103
22125
22104
22124
22110
22125
22116
22125
22106
22118
22111
22119
22109
22119
22110
22127
22112
22124
22109
22124
22118
22107
22118
22126
22103
22118
22116
22100
22124
22111
22108
22124
22109
22119
22106
22106
22127
22116
22116
22106
22115
22100
22102
22129
22119
22116
22113
22098
22116
22102
22113
22106
22109
22101
22111
22096
22111
22137
22116
22135
22107
22102
22107
22101
22107
22100
22103
22106
22106
22103
22105
22095
22107
22106
22093
22108
22095
22110
22098
22108
22102
22111
22097
22109
22135
22108
22115
22096
22115
22092
22109
22095
22103
22095
22107
22098
22109
22095
22103
22091
22099
22094
22105
22095
22107
22090
22108
22095
22101
22093
22111
22111
22101
22105
22089
22103
22085
22102
22090
22095
22109
22111
22106
22102
22106
22087
22105
22087
22096
22125
22094
22103
22093
22100
22103
22092
22106
22087
22098
22085
22103
22088
22097
22111
22087
22097
22082
22093
22087
22093
22106
22086
22099
22087
22107
22106
22092
22100
22089
22097
22087
22092
22084
22096
22111
22106
22106
22085
22103
22079
22095
22087
22098
22100
22087
22095
22083
22086
22116
22096
22115
22089
22103
22085
22103
22086
22098
22080
22095
22082
22095
22081
22095
22077
22091
22084
22091
22077
22089
22079
22094
22103
22096
22096
22084
22094
22080
22091
22081
22089
22078
22095
22087
22095
22085
22095
22079
22089
22079
22087
22081
22092
22096
22090
22095
22087
22076
22087
22078
22085
22057
22092
22108
22094
22096
22085
22077
22085
22074
22082
22077
22083
22099
22084
22092
22082
22086
22077
22089
22071
22084
22078
22086
22080
22096
22090
22082
22087
22071
22084
22078
22082
22073
22095
22113
22087
22086
22074
22084
22072
22086
22076
22083
22088
22079
22079
22070
22084
22071
22086
22085
22074
22084
22087
22075
22084
22069
22082
22071
22087
22087
22078
22087
22071
22081
22074
22084
22103
22081
22087
22069
22076
22095
22076
22076
22077
22087
22095
22088
22091
22070
22082
22068
22076
22068
22077
22065
22077
22067
22074
22067
22073
22089
22069
22071
22062
22070
22081
22059
22075
22095
22071
22077
22063
22073
22092
22085
22087
22083
22080
22074
22087
22079
22087
22077
22091
22069
22084
22066
22079
22115
22074
22092
22071
22086
22074
22113
22109
22084
22103
22074
22090
22077
22110
22119
22095
22111
22084
22096
22079
22106
22104
22091
22109
22085
22095
22084
22087
22082
22088
22076
22087
22079
22089
22079
22087
22069
22087
22086
22087
22074
22080
22078
22077
22077
22083
22067
22084
22073
22081
22082
22100
22079
22071
22076
22070
22077
22068
22079
22071
22086
22075
22079
22073
22079
22070
22076
22069
22073
22067
22074
22066
22068
22065
22071
22063
22070
22063
22082
22077
22068
22082
22065
22079
22059
22068
22063
22071
22081
22068
22079
22060
22070
22076
22071
22074
22060
22074
22058
22071
22060
22067
22062
22071
22062
22069
22058
22073
22061
22066
22068
22081
22070
22076
22077
22084
22065
22057
22068
22060
22063
22063
22071
22053
22068
22058
22072
22058
22063
22054
22068
22056
22066
22057
22067
22057
22073
22070
22082
22059
22052
22065
22054
22071
22063
22055
22065
22057
22068
22055
22068
22055
22071
22055
22079
22056
22037
22058
22052
22063
22057
22075
22063
22050
22063
22057
22060
22055
22063
22058
22066
22053
22068
22061
22070
22062
22068
22054
22068
22053
22065
22048
22065
22056
22071
22066
22063
22063
22051
22055
22052
22063
22054
22066
22054
22063
22061
22045
22058
22052
22054
22052
22052
22047
22057
22046
22055
22031
22069
22063
22052
22063
22047
22057
22047
22059
22047
22064
22050
22066
22051
22065
22050
22063
22052
22062
22053
22063
22053
22054
22044
22060
22049
22054
22046
22054
22045
22051
22041
22052
22047
22065
22045
22055
22082
22059
22061
22046
22057
22047
22056
22042
22059
22044
22057
22047
22055
22043
22054
22040
22054
22041
22054
22040
22054
22042
22047
22020
22059
22069
22046
22039
22050
22047
22050
22036
22052
22041
22053
22047
22061
22051
22071
22054
22045
22051
22043
22045
22042
22051
22039
22047
22038
22053
22046
22055
22035
22052
22037
22055
22039
22054
22042
22071
22049
22039
22050
22039
22049
22034
22043
22039
22041
22031
22042
22054
22039
22053
22044
22054
22047
22049
22039
22050
22033
22047
22038
22042
22036
22044
22041
22054
22044
22046
22044
22050
22047
22061
22044
22037
22044
22036
22046
22035
22042
22033
22038
22036
22047
22052
22037
22034
22039
22029
22041
22033
22044
22034
22044
22063
22037
22063
22041
22051
22033
22043
22039
22044
22043
22048
22036
22051
22037
22043
22039
22047
22034
22046
22036
22052
22033
22025
22039
22031
22038
22023
22030
22048
22036
22046
22030
22041
22036
22042
22034
22038
22052
22048
22056
22039
22047
22039
22045
22045
22044
22038
22060
22033
22023
22039
22023
22037
22030
22037
22035
22045
22041
22044
22036
22046
22033
22056
22033
22028
22034
22023
22040
22023
22046
22046
22023
22036
22020
22040
22031
22038
22037
22045
22033
22044
22031
22039
22023
22039
22029
22045
22034
22044
22031
22021
22030
22020
22037
22023
22042
22038
22045
22035
22020
22031
22055
22033
22039
22031
22033
22023
22039
22031
22035
22030
22037
22023
22035
22017
22034
22023
22034
22020
22031
22020
22023
22057
22031
22030
22031
22046
22036
22030
22023
22029
22032
22054
22023
22020
22023
22018
22029
22015
22023
22019
22038
22033
22037
22017
22031
22023
22019
22030
22030
22016
22039
22021
22039
22023
22039
22023
22034
22023
22036
22031
22036
22023
22035
22018
22031
22013
22023
22014
22023
22050
22028
22031
22021
22023
22012
22023
22015
22028
22032
22018
22023
22014
22028
22018
22037
22020
22013
22019
22012
22021
22010
22028
22023
22010
22023
22009
22017
22031
22015
22023
22012
22019
22013
22018
22010
22021
22005
22019
22040
22023
22028
22018
22023
22013
22022
22007
22023
22023
22009
22022
22007
22020
22014
22017
22028
22012
22023
22005
22017
22007
22020
22004
22007
22006
22020
22009
22021
22007
22023
22010
22022
22007
22017
22011
22016
22010
22015
22036
22013
22009
22035
22023
22023
22001
22023
22017
22011
22015
22004
22014
22043
22021
22022
22012
22020
22007
22019
22004
22023
22005
22018
22007
22013
22007
22015
22010
22011
22003
22015
22023
22011
22020
22005
22017
22007
22007
22005
22012
22036
22019
22015
22001
22011
21997
22013
22019
22005
22012
21996
22010
21999
22015
21999
22007
22005
22011
21996
22005
22015
21999
22011
21998
22017
22015
21996
22008
21999
22005
22001
22004
22021
22009
22012
22002
22010
22003
22012
21999
22005
21999
22007
21998
22008
22004
22011
21999
22004
22030
22017
22023
22003
21998
22019
22017
22015
22023
22011
22023
22006
22018
22009
22014
21999
22014
21999
22015
22009
22023
22014
22021
22013
22020
22011
22030
22000
22011
21999
22006
22002
22010
22012
22014
22015
21998
22007
21998
22007
21998
22004
21996
22007
22030
22007
22007
22004
22007
21991
22010
21999
22012
22004
22021
22012
22015
22009
22011
22000
22008
22007
21994
21991
22004
21996
22004
21997
22004
21991
22007
21987
21998
21986
22001
21985
21999
21988
21997
21988
21998
21989
21996
21988
22001
21990
21999
21987
22003
21990
22015
22013
22023
22006
21995
22015
21997
22019
21997
22018
21995
22021
21996
22017
21992
22017
22000
22023
21999
22018
21998
22019
22010
22039
22039
22007
22023
22003
22031
22026
22004
22014
22005
22027
22012
22023
22018
22034
22009
22004
22012
21997
22005
21997
22007
21997
22002
21993
22011
22011
22029
21999
21993
22003
21999
22007
21996
22004
21991
21999
21995
21999
21997
22007
21990
22003
21993
21997
21992
21998
21989
22001
21988
21994
21991
22003
21993
22006
21993
21988
22002
21988
21998
22002
21999
22013
21991
21989
21999
21985
21994
21988
22004
21997
22002
21997
21999
22006
22015
21990
21989
21991
21985
21996
21984
22000
21991
21999
21998
22011
21990
21985
21996
21988
21999
21996
21982
21988
21995
21989
21995
21983
21994
21983
21994
21980
21995
21979
21993
21980
21991
21981
21990
21982
21989
21980
21991
21980
21991
21981
21981
21978
21981
22010
21993
22007
21993
21999
21995
22013
21991
21999
21991
22014
21994
21996
21981
21997
21977
21987
21981
21988
21980
21990
21981
21989
21979
21985
21973
21983
21980
21996
21990
21981
21988
21977
21995
21981
21991
21980
21994
21989
22004
21983
21978
21981
21970
21988
21977
21991
21978
21993
21983
21990
21975
21987
21974
21987
21972
21979
21975
21983
21978
21982
21975
21987
21975
21981
21977
21990
21986
21971
21983
21978
21990
21982
21974
21986
21970
21996
21987
21970
21978
21975
21981
21975
21985
21975
21989
21983
21970
21975
21967
21988
21969
21987
21991
22001
21984
21988
21989
21972
21977
21970
21981
21974
21991
21975
21964
21981
21971
21983
21979
22002
21975
21965
21977
21966
21980
21971
21977
21969
21974
21964
21977
21987
21978
21988
21968
21981
21967
21977
21965
21983
21999
21972
21972
21978
21966
21984
21977
22004
21970
21967
21979
21965
21983
21973
21964
21980
21977
21989
21969
21965
21980
21978
21966
21979
21970
21980
21972
21961
21975
21967
21975
21962
21990
21977
21980
21977
21967
21977
21983
21991
21982
21992
21978
21991
21967
21959
21975
21963
21969
21957
21974
21967
21975
21959
21967
21963
21974
21957
21974
21967
21967
21956
21962
21983
21966
21940
21964
21991
21978
21980
21975
21957
21975
21962
21959
21967
21958
21965
21989
21972
21976
21961
21974
21971
21946
21967
21958
21973
21975
21965
21975
21959
21966
21953
21967
21981
21964
21983
21961
21975
21959
21972
21959
21966
21959
21969
21954
21964
21972
21957
21966
21957
21959
21948
21962
21975
21962
21967
21958
21968
21958
21965
21962
21988
21963
21949
21962
21956
21961
21951
21967
21965
21965
21968
21980
21960
21956
21957
21957
21973
21967
21974
21965
21987
21972
21970
21955
21967
21955
21962
21953
21957
21957
21965
21982
21961
21950
21965
21951
21966
21974
21966
21967
21956
21969
21956
21963
21951
21964
21953
21959
21951
21959
21951
21967
21983
21970
21991
21958
21993
21964
21969
21958
21973
21956
21962
21958
21967
21957
21963
21950
21961
21949
21958
21930
21965
21967
21956
21961
21953
21959
21953
21961
21946
21965
21954
21963
21951
21964
21947
21959
21950
21967
21963
21972
21967
21969
21973
21975
21969
21968
21954
21969
21956
21963
21957
21962
21951
21962
21965
21951
21959
21951
21958
21945
21957
21945
21959
21946
21959
21946
21959
21950
21955
21943
21956
21949
21958
21948
21959
21983
21967
21964
21956
21960
21955
21959
21945
21967
21959
21966
21957
21965
21956
21959
21957
21964
21949
21961
21956
21963
21962
21966
21959
21964
21959
21966
21962
21964
21956
21956
21945
21959
21945
21959
21956
21949
21958
21942
21954
21948
21958
21955
21945
21952
21941
21962
21946
21959
21957
21923
21952
21946
21948
21943
21954
21941
21959
21947
21941
21949
21938
21955
21945
21953
21940
21949
21943
21956
21940
21949
21935
21951
21942
21954
21937
21953
21945
21950
21937
21951
21935
21955
21956
21945
21953
21935
21950
21941
21951
21951
21942
21950
21933
21950
21943
21946
21935
21943
21957
21945
21948
21937
21948
21972
21950
21955
21943
21949
21937
21946
21939
21948
21933
21943
21935
21950
21936
21956
21968
21943
21951
21936
21946
21943
21958
21959
21939
21951
21937
21948
21935
21954
21957
21945
21958
21952
21958
21951
21957
21939
21951
21951
21954
21956
21976
21953
21957
21957
21959
21955
21935
21943
21938
21951
21939
21958
21955
21963
21935
21935
21941
21932
21943
21933
21945
21935
21951
21935
21957
21943
21935
21940
21932
21948
21939
21949
21935
21946
21930
21948
21941
21972
21939
21935
21942
21930
21949
21934
21945
21934
21949
21935
21947
21933
21945
21933
21948
21934
21945
21939
21951
21951
21935
21938
21935
21942
21933
21941
21932
21951
21931
21947
21935
21947
21935
21941
21931
21940
21931
21937
21931
21949
21932
21945
21932
21949
21939
21951
21935
21953
21941
21951
21938
21954
21939
21947
21929
21942
21930
21937
21949
21935
21943
21932
21948
21927
21942
21922
21934
21943
21929
21943
21932
21938
21959
21948
21942
21936
21946
21934
21946
21924
21943
21930
21947
21930
21940
21935
21942
21928
21938
21933
21935
21964
21944
21953
21946
21949
21937
21945
21936
21948
21943
21956
21935
21938
21925
21939
21926
21937
21931
21934
21924
21934
21959
21935
21947
21945
21957
21943
21951
21933
21951
21937
21958
21942
21951
21931
21951
21928
21948
21925
21955
21929
21961
21934
21958
21935
21961
21940
21972
21950
21979
21961
21977
21955
21972
21949
21965
21933
21956
22005
21953
21964
21940
21959
21943
21951
21959
21947
21955
21932
21950
21935
21947
21967
21938
21947
21935
21942
21935
21940
21962
21949
21951
21939
21948
21943
21951
21944
21944
21943
21948
21935
21946
21943
21935
21936
21927
21937
21928
21940
21951
21940
21945
21935
21943
21931
21942
21938
21927
21940
21928
21935
21925
21938
21927
21941
21938
21943
21935
21931
21937
21943
21929
21933
21927
21942
21933
21926
21933
21924
21934
21927
21951
21934
21927
21937
21927
21940
21943
21927
21937
21930
21941
21929
21939
21934
21940
21927
21947
21929
21927
21931
21922
21940
21943
21940
21935
21931
21935
21937
21922
21924
21925
21931
21924
21929
21927
21930
21921
21931
21925
21933
21924
21928
21927
21934
21921
21927
21921
21929
21919
21925
21918
21932
21919
21927
21923
21925
21922
21926
21919
21929
21917
21930
21940
21925
21935
21922
21931
21919
21933
21919
21935
21918
21929
21918
21927
21923
21926
21920
21925
21919
21929
21919
21931
21923
21929
21917
21927
21921
21924
21945
21932
21932
21917
21928
21922
21927
21923
21927
21919
21935
21937
21926
21932
21922
21929
21919
21924
21926
21932
21948
21939
21937
21933
21934
21922
21932
21917
21927
21951
21932
21935
21923
21928
21914
21939
21935
21921
21931
21917
21926
21920
21927
21915
21933
21921
21934
21934
21919
21932
21956
21931
21917
21928
21919
21929
21919
21933
21919
21927
21921
21928
21959
21927
21935
21922
21932
21916
21932
21917
21929
21918
21932
21937
21919
21926
21919
21929
21919
21937
21921
21935
21933
21953
21927
21923
21927
21917
21941
21925
21910
21925
21916
21933
21930
21951
21924
21915
21928
21913
21922
21917
21923
21912
21925
21917
21927
21931
21915
21918
21908
21924
21918
21929
21927
21940
21922
21911
21927
21916
21924
21919
21924
21911
21926
21919
21927
21931
21908
21918
21908
21923
21913
21919
21908
21927
21908
21927
21917
21907
21916
21913
21919
21916
21926
21921
21905
21919
21908
21927
21919
21932
21918
21900
21924
21918
21902
21917
21903
21914
21903
21919
21919
21935
21922
21919
21911
21919
21908
21904
21935
21918
21919
21900
21902
21901
21901
21941
21921
21913
21908
21911
21905
21900
21919
21912
21911
21911
21899
21915
21898
21915
21903
21917
21903
21909
21901
21908
21929
21921
21923
21917
21924
21905
21916
21919
21927
21911
21901
21911
21897
21919
21918
21903
21911
21907
21913
21903
21911
21900
21914
21893
21911
21897
21901
21925
21900
21921
21900
21913
21898
21909
21898
21915
21905
21923
21913
21921
21917
21921
21919
21924
21909
21900
21910
21898
21913
21895
21910
21899
21913
21908
21918
21915
21903
21908
21898
21902
21895
21906
21902
21902
21895
21909
21894
21910
21901
21919
21905
21916
21906
21895
21907
21899
21909
21897
21906
21935
21914
21892
21902
21901
21908
21894
21908
21894
21910
21900
21910
21892
21909
21898
21902
21898
21898
21925
21914
21917
21910
21918
21898
21909
21904
21916
21907
21917
21918
21891
21905
21931
21902
21895
21908
21895
21911
21905
21911
21906
21921
21908
21895
21905
21895
21913
21911
21892
21911
21892
21915
21895
21929
21900
21898
21901
21893
21903
21894
21908
21898
21914
21903
21890
21905
21895
21906
21895
21913
21911
21919
21911
21891
21903
21894
21910
21895
21913
21905
21911
21900
21909
21892
21911
21898
21909
21901
21891
21899
21891
21905
21895
21910
21900
21927
21899
21890
21905
21891
21905
21895
21911
21901
21895
21903
21892
21897
21889
21900
21887
21896
21888
21900
21887
21903
21893
21908
21907
21893
21897
21890
21899
21889
21906
21887
21903
21905
21887
21897
21891
21896
21885
21899
21884
21905
21906
21889
21898
21890
21908
21895
21887
21899
21890
21899
21887
21901
21890
21902
21892
21906
21894
21905
21887
21902
21906
21885
21893
21885
21894
21882
21903
21887
21896
21884
21895
21913
21895
21902
21893
21903
21887
21898
21883
21905
21887
21898
21887
21897
21884
21895
21879
21895
21880
21899
21885
21903
21881
21895
21885
21901
21877
21902
21894
21908
21902
21925
21895
21887
21892
21883
21903
21884
21895
21883
21893
21881
21893
21899
21885
21895
21883
21895
21879
21895
21883
21894
21908
21892
21903
21879
21899
21884
21894
21881
21894
21886
21896
21885
21901
21881
21895
21887
21894
21879
21895
21883
21895
21879
21899
21885
21902
21896
21896
21895
21895
21889
21895
21886
21903
21885
21879
21894
21881
21891
21878
21893
21879
21889
21881
21895
21887
21892
21877
21892
21877
21892
21877
21891
21877
21886
21876
21890
21879
21891
21878
21886
21904
21891
21895
21885
21893
21887
21879
21881
21878
21884
21891
21877
21893
21885
21897
21891
21908
21894
21897
21877
21893
21876
21887
21876
21891
21871
21890
21874
21886
21873
21881
21897
21882
21892
21875
21883
21873
21884
21875
21890
21907
21881
21895
21876
21889
21874
21888
21887
21876
21889
21876
21892
21879
21890
21881
21892
21886
21886
21893
21895
21882
21871
21878
21873
21885
21875
21879
21869
21886
21908
21879
21871
21879
21869
21884
21868
21885
21873
21897
21902
21892
21902
21885
21902
21883
21918
21910
21879
21888
21878
21888
21964
21909
21918
21884
21911
21884
21909
21884
21906
21882
21897
21887
21894
21885
21908
21892
21907
21904
21884
21894
21882
21903
21886
21876
21891
21879
21892
21893
21884
21892
21878
21891
21887
21877
21886
21879
21890
21887
21895
21885
21878
21886
21884
21893
21893
21884
21891
21879
21887
21879
21887
21890
21889
21883
21891
21882
21883
21884
21883
21879
21873
21887
21892
21890
21890
21884
21887
21876
21887
21875
21884
21878
21884
21878
21877
21878
21875
21882
21875
21879
21871
21882
21887
21879
21884
21879
21884
21877
21884
21879
21895
21887
21877
21882
21873
21883
21872
21878
21885
21849
21877
21871
21887
21877
21868
21883
21873
21886
21874
21868
21874
21867
21882
21870
21886
21879
21847
21874
21867
21875
21866
21879
21867
21881
21866
21876
21868
21887
21871
21890
21887
21868
21876
21866
21877
21862
21881
21868
21886
21879
21863
21881
21865
21876
21862
21874
21868
21884
21868
21878
21871
21883
21869
21879
21868
21875
21867
21877
21866
21877
21866
21877
21866
21879
21877
21888
21879
21863
21878
21866
21885
21867
21887
21883
21895
21878
21863
21876
21864
21879
21867
21879
21874
21892
21874
21863
21876
21866
21879
21871
21881
21866
21879
21864
21879
21867
21881
21883
21869
21869
21875
21864
21881
21867
21879
21867
21885
21870
21886
21887
21867
21878
21869
21887
21885
21908
21876
21866
21876
21867
21879
21871
21879
21887
21866
21879
21873
21895
21876
21868
21882
21886
21871
21871
21875
21887
21876
21895
21874
21871
21876
21863
21879
21865
21875
21866
21876
21865
21881
21871
21891
21877
21895
21871
21871
21876
21861
21875
21865
21878
21869
21871
21903
21887
21887
21868
21880
21864
21878
21867
21871
21894
21880
21863
21879
21868
21895
21880
21885
21871
21884
21863
21885
21868
21884
21871
21884
21871
21882
21866
21879
21859
21868
21863
21871
21865
21869
21881
21875
21881
21874
21884
21871
21878
21871
21879
21867
21881
21867
21873
21861
21870
21879
21873
21875
21864
21884
21861
21860
21868
21859
21871
21861
21875
21877
21879
21875
21877
21860
21874
21874
21861
21866
21875
21869
21876
21863
21871
21862
21870
21857
21871
21855
21871
21859
21871
21856
21868
21861
21871
21858
21862
21860
21867
21884
21868
21873
21863
21871
21856
21872
21862
21877
21863
21867
21858
21871
21859
21863
21857
21876
21891
21867
21879
21870
21874
21870
21883
21871
21868
21861
21869
21852
21863
21855
21861
21848
21870
21857
21868
21853
21869
21852
21869
21852
21871
21856
21868
21860
21873
21873
21878
21869
21871
21866
21869
21863
21868
21871
21881
21862
21857
21866
21855
21866
21856
21867
21849
21867
21852
21862
21870
21855
21869
21859
21868
21849
21869
21857
21873
21859
21869
21853
21871
21858
21871
21858
21871
21861
21870
21871
21860
21861
21845
21862
21855
21868
21853
21870
21856
21871
21865
21854
21866
21852
21861
21854
21866
21857
21870
21857
21871
21863
21868
21861
21873
21862
21855
21867
21855
21863
21858
21863
21859
21860
21887
21863
21869
21862
21874
21857
21863
21855
21861
21855
21868
21856
21865
21855
21862
21876
21860
21871
21855
21860
21853
21860
21862
21860
21873
21861
21877
21863
21875
21860
21871
21852
21869
21855
21866
21858
21866
21863
21866
21851
21862
21871
21855
21868
21856
21863
21853
21866
21859
21860
21857
21863
21852
21864
21855
21861
21855
21861
21887
21870
21871
21871
21853
21870
21863
21857
21861
21862
21862
21868
21867
21870
21861
21854
21852
21875
21863
21868
21873
21857
21857
21851
21863
21854
21863
21851
21861
21873
21858
21866
21855
21859
21852
21874
21868
21866
21874
21871
21871
21862
21866
21852
21864
21842
21868
21871
21871
21873
21871
21877
21862
21874
21868
21852
21863
21861
21869
21887
21869
21888
21860
21848
21862
21852
21868
21854
21870
21854
21874
21863
21875
21863
21871
21855
21868
21852
21863
21856
21870
21852
21865
21857
21863
21853
21863
21851
21864
21862
21871
21857
21851
21863
21851
21861
21851
21862
21853
21858
21857
21859
21850
21862
21850
21868
21851
21871
21855
21870
21860
21871
21863
21868
21856
21865
21854
21864
21854
21870
21850
21865
21851
21865
21853
21870
21863
21875
21867
21869
21865
21850
21861
21849
21860
21847
21871
21854
21875
21858
21842
21859
21854
21861
21852
21865
21863
21869
21861
21869
21853
21859
21848
21862
21849
21858
21849
21859
21849
21863
21850
21871
21863
21873
21865
21884
21859
21849
21859
21847
21853
21877
21865
21868
21852
21863
21850
21860
21848
21854
21851
21861
21876
21860
21847
21854
21852
21857
21851
21855
21851
21853
21881
21855
21847
21860
21850
21857
21844
21861
21847
21862
21853
21863
21860
21850
21859
21849
21860
21850
21866
21853
21869
21863
21879
21860
21850
21857
21855
21863
21853
21860
21858
21871
21853
21850
21863
21851
21862
21856
21847
21859
21845
21863
21855
21868
21855
21846
21854
21847
21863
21860
21848
21860
21847
21863
21855
21849
21859
21844
21862
21851
21863
21846
21864
21844
21866
21852
21871
21855
21860
21861
21847
21861
21851
21851
21867
21853
21845
21853
21846
21854
21842
21854
21847
21860
21852
21861
21851
21863
21862
21887
21856
21840
21851
21850
21856
21844
21857
21880
21860
21872
21844
21859
21839
21857
21847
21872
21929
21887
21892
21869
21884
21853
21875
21847
21871
21855
21893
21935
21871
21848
21877
21855
21873
21861
21876
21857
21868
21857
21876
21859
21874
21860
21866
21861
21868
21853
21864
21856
21873
21861
21877
21855
21865
21839
21860
21869
21857
21864
21862
21863
21855
21862
21855
21860
21869
21847
21861
21849
21860
21855
21857
21870
21857
21863
21856
21863
21855
21860
21852
21855
21869
21863
21863
21857
21863
21857
21863
21847
21858
21848
21863
21849
21858
21863
21852
21863
21850
21863
21853
21857
21850
21854
21847
21860
21847
21855
21869
21857
21860
21857
21864
21863
21869
21862
21876
21861
21845
21858
21844
21858
21848
21863
21858
21869
21857
21845
21855
21848
21855
21854
21853
21847
21860
21862
21861
21872
21855
21842
21858
21844
21857
21847
21855
21845
21853
21839
21853
21871
21864
21862
21850
21863
21855
21871
21860
21867
21862
21869
21868
21844
21855
21845
21854
21844
21861
21839
21860
21855
21881
21863
21847
21857
21844
21861
21852
21868
21855
21846
21857
21843
21861
21851
21861
21863
21876
21857
21845
21854
21880
21862
21879
21861
21866
21866
21852
21858
21847
21855
21847
21863
21857
21850
21855
21847
21861
21858
21855
21860
21847
21857
21844
21857
21844
21857
21851
21852
21843
21856
21845
21864
21853
21861
21847
21860
21844
21852
21855
21856
21846
21856
21847
21863
21850
21863
21852
21865
21863
21847
21859
21852
21862
21849
21855
21847
21869
21870
21847
21859
21852
21863
21851
21873
21859
21851
21860
21851
21856
21847
21858
21848
21859
21855
21859
21851
21862
21847
21862
21854
21864
21850
21859
21855
21861
21852
21845
21871
21864
21858
21855
21868
21859
21869
21861
21883
21857
21849
21867
21859
21875
21854
21850
21862
21854
21856
21888
21862
21863
21852
21868
21844
21863
21851
21861
21854
21861
21850
21861
21863
21886
21853
21847
21865
21851
21865
21852
21875
21857
21848
21853
21847
21857
21853
21871
21853
21847
21858
21847
21860
21847
21856
21843
21852
21849
21863
21852
21863
21865
21863
21859
21878
21853
21844
21855
21839
21852
21844
21860
21860
21881
21850
21841
21849
21847
21857
21846
21860
21850
21857
21863
21847
21855
21841
21854
21845
21863
21858
21845
21849
21839
21852
21843
21858
21849
21862
21850
21844
21850
21838
21856
21855
21845
21849
21845
21855
21850
21863
21845
21843
21852
21839
21854
21861
21842
21851
21842
21857
21849
21851
21845
21859
21845
21861
21857
21871
21845
21843
21854
21842
21851
21839
21855
21835
21855
21847
21855
21842
21850
21847
21852
21842
21853
21843
21849
21839
21853
21841
21852
21837
21846
21839
21855
21862
21841
21860
21838
21860
21845
21853
21845
21851
21843
21853
21839
21850
21839
21854
21841
21854
21846
21860
21845
21852
21842
21858
21840
21857
21846
21863
21857
21868
21861
21876
21860
21863
21847
21860
21859
21882
21861
21863
21859
21871
21859
21863
21847
21858
21846
21854
21840
21857
21840
21852
21845
21854
21839
21854
21839
21848
21837
21855
21838
21851
21844
21851
21845
21847
21839
21855
21839
21852
21846
21862
21860
21847
21858
21838
21853
21846
21854
21846
21855
21841
21862
21863
21867
21863
21844
21849
21875
21852
21838
21847
21869
21854
21833
21849
21839
21847
21839
21855
21841
21848
21837
21850
21839
21853
21847
21855
21842
21855
21844
21852
21845
21854
21844
21847
21838
21845
21873
21856
21873
21860
21863
21839
21859
21842
21853
21842
21859
21843
21852
21847
21861
21847
21879
21849
21839
21855
21842
21865
21845
21865
21862
21861
21863
21871
21861
21874
21863
21868
21861
21866
21854
21857
21851
21869
21850
21859
21843
21857
21842
21861
21846
21854
21847
21863
21862
21855
21868
21858
21879
21856
21839
21848
21837
21850
21834
21861
21861
21882
21852
21840
21851
21884
21853
21878
21852
21840
21850
21842
21850
21841
21854
21839
21855
21839
21858
21845
21861
21841
21861
21862
21839
21850
21839
21855
21845
21860
21863
21838
21853
21839
21853
21844
21857
21842
21860
21841
21854
21839
21854
21845
21855
21847
21851
21844
21854
21840
21852
21843
21857
21839
21849
21842
21854
21844
21853
21841
21849
21839
21855
21844
21852
21844
21851
21837
21859
21843
21860
21853
21860
21860
21863
21847
21855
21844
21855
21842
21858
21844
21854
21845
21858
21851
21876
21854
21836
21849
21839
21859
21847
21863
21852
21861
21844
21839
21850
21838
21850
21838
21852
21839
21850
21838
21850
21839
21852
21839
21850
21839
21849
21838
21848
21842
21847
21876
21855
21858
21855
21861
21855
21861
21841
21857
21837
21848
21843
21845
21839
21850
21867
21856
21864
21847
21843
21852
21839
21844
21839
21854
21833
21854
21842
21853
21835
21847
21844
21851
21839
21851
21834
21847
21834
21860
21858
21845
21851
21838
21848
21839
21844
21864
21849
21853
21860
21860
21855
21853
21854
21861
21850
21855
21847
21859
21841
21854
21833
21846
21836
21853
21841
21847
21841
21858
21853
21836
21847
21836
21855
21838
21852
21844
21855
21855
21836
21844
21831
21853
21843
21855
21848
21855
21845
21859
21853
21834
21847
21835
21845
21834
21848
21844
21853
21838
21852
21839
21869
21844
21834
21858
21860
21836
21855
21830
21852
21834
21866
21861
21889
21865
21871
21844
21869
21851
21928
21855
21839
21861
21931
21881
21876
21852
21877
21847
21871
21855
21876
21852
21878
21874
21902
21863
21889
21862
21848
21859
21852
21861
21855
21879
21850
21847
21859
21856
21849
21854
21846
21855
21849
21868
21853
21843
21857
21852
21860
21855
21861
21855
21847
21854
21850
21855
21849
21843
21852
21847
21855
21841
21853
21843
21850
21847
21844
21853
21855
21858
21854
21855
21847
21853
21842
21858
21843
21847
21841
21846
21842
21847
21841
21846
21839
21857
21855
21865
21855
21867
21849
21865
21855
21857
21847
21855
21839
21849
21837
21847
21838
21846
21844
21849
21841
21842
21839
21847
21839
21851
21865
21855
21869
21853
21855
21843
21852
21845
21858
21852
21855
21845
21855
21853
21853
21845
21852
21835
21844
21837
21847
21836
21846
21838
21839
21837
21852
21868
21854
21837
21842
21837
21842
