EDA
40738
40743
40743
40735
40700
40684
40742
40736
40743
40748
40740
40742
40758
40746
40743
40743
40743
40738
40727
40696
40661
40731
40730
40734
40733
40740
40740
40738
40733
40742
40730
40740
40744
40743
40682
40737
40735
40722
40724
40730
40732
40728
40743
40742
40741
40689
40695
40735
40732
40734
40732
40730
40740
40735
40727
40730
40723
40720
40731
40735
40734
40738
40731
40709
40708
40679
40730
40731
40726
40729
40720
40730
40740
40732
40681
40724
40727
40721
40716
40712
40741
40727
40730
40729
40740
40736
40740
40742
40735
40742
40706
40686
40678
40676
40727
40724
40720
40724
40729
40702
40660
40724
40727
40737
40731
40727
40743
40743
40727
40703
40748
40742
40748
40742
40740
40695
40665
40676
40678
40667
40670
40678
40685
40709
40701
40687
40670
40739
40735
40702
40742
40663
40732
40734
40735
40738
40727
40684
40727
40723
40721
40730
40711
40742
40732
40686
40671
40735
40711
40670
40702
40709
40692
40652
40703
40732
40727
40716
40711
40711
40711
40732
40721
40719
40727
40711
40687
40664
40730
40725
40719
40734
40730
40730
40731
40711
40647
40711
40711
40711
40703
40727
40727
40710
40661
40714
40719
40711
40725
40730
40724
40679
40654
40647
40663
40706
40708
40711
40706
40708
40701
40701
40693
40711
40727
40725
40727
40726
40711
40652
40662
40694
40711
40708
40702
40711
40702
40711
40707
40703
40708
40711
40684
40652
40670
40708
40703
40707
40694
40702
40711
40696
40711
40710
40711
40697
40647
40633
40640
40640
40639
40641
40686
40710
40704
40660
40644
40659
40649
40653
40706
40701
40703
40701
40696
40703
40687
40692
40669
40692
40698
40692
40706
40679
40663
40676
40669
40672
40703
40711
40702
40646
40692
40700
40692
40692
40700
40700
40695
40703
40693
40703
40698
40689
40695
40700
40692
40695
40693
40699
40677
40684
40698
40687
40695
40698
40695
40687
40700
40690
40691
40647
40629
40693
40694
40693
40695
40695
40685
40695
40700
40698
40689
40698
40694
40685
40681
40679
40680
40686
40677
40692
40679
40702
40697
40702
40711
40700
40702
40703
40673
40671
40669
40668
40655
40639
40631
40657
40687
40686
40686
40687
40691
40692
40694
40673
40704
40700
40701
40702
40703
40700
40694
40671
40629
40689
40692
40686
40686
40701
40692
40635
40684
40694
40697
40695
40689
40704
40702
40703
40689
40671
40628
40634
40695
40692
40680
40679
40679
40695
40698
40695
40692
40693
40703
40666
40632
40701
40692
40692
40701
40686
40704
40705
40698
40639
40688
40687
40692
40685
40685
40679
40687
40700
40695
40643
40644
40703
40702
40702
40703
40677
40700
40700
40695
40644
40695
40698
40686
40688
40686
40686
40663
40698
40702
40707
40701
40650
40700
40705
40709
40692
40711
40711
40709
40693
40700
40687
40689
40703
40705
40703
40644
40706
40700
40701
40700
40671
40710
40711
40708
40705
40680
40678
40655
40637
40695
40703
40695
40697
40708
40701
40654
40702
40706
40700
40716
40711
40711
40711
40711
40700
40705
40722
40711
40677
40708
40708
40700
40711
40711
40652
40711
40705
40711
40724
40722
40727
40681
40729
40711
40717
40733
40654
40719
40711
40731
40708
40711
40653
40711
40709
40711
40727
40714
40695
40673
40711
40712
40718
40716
40719
40721
40731
40725
40708
40689
40725
40711
40711
40729
40722
40684
40731
40725
40727
40724
40722
40736
40742
40740
40732
40727
40678
40734
40723
40731
40723
40724
40735
40738
40741
40742
40687
40735
40727
40733
40732
40751
40744
40743
40684
40729
40737
40732
40733
40739
40743
40735
40724
40738
40743
40734
40725
40676
40743
40749
40748
40747
40738
40755
40751
40740
40711
40742
40746
40748
40740
40727
40746
40733
40695
40740
40744
40738
40745
40758
40752
40711
40759
40755
40763
40763
40716
40759
40746
40751
40744
40762
40751
40730
40711
40756
40757
40751
40750
40772
40775
40774
40755
40711
40774
40763
40757
40751
40759
40754
40751
40728
40741
40732
40726
40725
40725
40723
40711
40722
40716
40713
40719
40724
40731
40735
40730
40728
40741
40738
40756
40762
40719
40766
40767
40762
40778
40742
40775
40772
40772
40788
40786
40726
40780
40780
40778
40767
40783
40780
40764
40708
40772
40767
40773
40772
40761
40776
40775
40773
40771
40783
40774
40780
40732
40701
40772
40772
40758
40764
40759
40783
40768
40751
40698
40756
40772
40779
40770
40768
40771
40776
40775
40774
40766
40774
40780
40783
40773
40702
40764
40761
40752
40763
40733
40774
40749
40696
40772
40767
40758
40762
40764
40774
40775
40774
40770
40767
40726
40692
40756
40760
40750
40747
40756
40764
40757
40764
40759
40700
40761
40770
40759
40765
40764
40750
40767
40767
40771
40752
40738
40711
40711
40702
40755
40751
40742
40748
40759
40767
40766
40759
40711
40759
40749
40746
40767
40758
40753
40724
40741
40743
40743
40740
40756
40751
40767
40751
40754
40692
40747
40751
40745
40742
40756
40719
40748
40741
40743
40757
40751
40679
40734
40732
40735
40742
40747
40718
40740
40732
40736
40740
40747
40747
40724
40682
40735
40730
40732
40735
40730
40718
40695
40736
40729
40738
40732
40701
40679
40727
40724
40724
40733
40731
40730
40724
40726
40723
40711
40724
40711
40705
40703
40710
40708
40716
40720
40719
40724
40718
40670
40687
40711
40708
40709
40703
40708
40711
40711
40711
40703
40703
40700
40706
40696
40699
40708
40708
40704
40710
40710
40710
40707
40696
40701
40703
40700
40694
40694
40684
40692
40625
40681
40683
40679
40689
40687
40682
40682
40636
40620
40661
40682
40686
40679
40677
40676
40665
40671
40666
40661
40675
40668
40625
40612
40649
40668
40670
40660
40668
40663
40669
40674
40663
40636
40656
40660
40655
40657
40639
40660
40662
40648
40620
40630
40638
40642
40644
40652
40659
40651
40616
40655
40654
40647
40648
40660
40654
40655
40645
40637
40631
40566
40643
40638
40639
40639
40636
40628
40628
40609
40644
40638
40647
40634
40638
40615
40613
40561
40588
40623
40619
40615
40617
40615
40615
40615
40614
40615
40621
40620
40592
40618
40627
40571
40615
40615
40612
40598
40592
40610
40611
40605
40609
40609
40589
40543
40535
40602
40604
40606
40596
40601
40597
40597
40598
40601
40598
40590
40588
40583
40568
40582
40556
40593
40585
40590
40590
40573
40598
40596
40596
40595
40602
40590
40584
40572
40514
40583
40581
40575
40572
40573
40564
40554
40572
40583
40573
40583
40567
40538
40516
40575
40567
40566
40583
40581
40577
40567
40575
40562
40564
40532
40509
40503
40519
40509
40571
40559
40575
40565
40562
40555
40567
40525
40503
40511
40562
40550
40547
40551
40543
40556
40558
40538
40550
40548
40551
40549
40564
40556
40535
40503
40551
40545
40534
40556
40551
40492
40543
40535
40532
40551
40542
40536
40540
40519
40487
40541
40538
40538
40551
40544
40508
40541
40539
40532
40506
40540
40535
40503
40498
40534
40521
40526
40518
40537
40537
40532
40508
40534
40535
40530
40527
40510
40540
40542
40522
40469
40525
40521
40523
40509
40532
40527
40524
40527
40471
40526
40524
40527
40494
40532
40524
40464
40529
40526
40516
40513
40511
40525
40519
40516
40476
40511
40517
40519
40514
40508
40524
40533
40526
40519
40503
40484
40476
40501
40519
40512
40517
40519
40506
40505
40506
40516
40516
40508
40501
40454
40519
40500
40512
40508
40516
40516
40524
40524
40514
40505
40509
40494
40479
40503
40447
40504
40504
40506
40508
40506
40525
40514
40518
40520
40521
40519
40512
40485
40508
40501
40508
40509
40505
40508
40513
40511
40510
40514
40516
40514
40483
40455
40494
40517
40508
40510
40500
40511
40508
40495
40494
40494
40488
40503
40503
40477
40511
40511
40515
40512
40506
40516
40518
40515
40509
40510
40493
40468
40455
40450
40439
40506
40508
40503
40492
40502
40496
40496
40505
40508
40503
40511
40516
40511
40511
40517
40518
40512
40512
40515
40468
40453
40444
40503
40500
40497
40507
40508
40502
40519
40508
40508
40506
40511
40503
40514
40508
40504
40513
40503
40502
40508
40503
40468
40518
40511
40511
40503
40454
40502
40506
40505
40510
40510
40516
40508
40503
40519
40517
40510
40453
40447
40503
40501
40502
40500
40500
40511
40513
40509
40497
40478
40455
40471
40503
40505
40501
40507
40501
40496
40495
40511
40503
40496
40487
40468
40499
40498
40500
40495
40504
40476
40478
40505
40511
40502
40508
40500
40518
40514
40500
40512
40509
40508
40506
40509
40502
40510
40506
40501
40515
40502
40508
40508
40502
40510
40497
40507
40498
40490
40481
40487
40480
40482
40472
40446
40468
40462
40471
40463
40468
40474
40475
40479
40479
40485
40484
40506
40500
40507
40455
40516
40503
40521
40527
40519
40517
40501
40490
40452
40468
40516
40513
40518
40519
40516
40511
40527
40521
40519
40519
40518
40506
40510
40455
40445
40436
40455
40503
40509
40508
40511
40500
40524
40509
40509
40487
40488
40455
40455
40452
40485
40496
40476
40495
40490
40500
40494
40495
40492
40506
40500
40503
40496
40515
40512
40510
40511
40503
40511
40502
40506
40509
40495
40493
40494
40499
40437
40495
40490
40494
40493
40487
40503
40510
40501
40494
40495
40485
40485
40455
40478
40490
40486
40479
40484
40487
40471
40420
40482
40478
40487
40484
40479
40481
40478
40478
40473
40470
40455
40484
40487
40476
40455
40431
40420
40455
40468
40464
40455
40455
40453
40477
40471
40471
40468
40455
40409
40455
40452
40447
40446
40444
40442
40440
40445
40443
40445
40439
40434
40444
40446
40436
40442
40436
40442
40438
40435
40431
40430
40422
40431
40428
40429
40420
40422
40420
40438
40420
40376
40388
40428
40426
40420
40423
40415
40420
40410
40423
40420
40423
40410
40406
40415
40412
40415
40406
40398
40388
40370
40342
40412
40407
40406
40398
40393
40415
40407
40362
40391
40380
40398
40383
40342
40391
40376
40377
40386
40388
40381
40364
40379
40381
40384
40391
40381
40359
40325
40372
40372
40367
40375
40372
40369
40366
40364
40311
40374
40367
40373
40366
40367
40362
40352
40375
40355
40316
40359
40359
40354
40357
40365
40366
40356
40357
40351
40308
40348
40351
40348
40357
40359
40356
40312
40357
40352
40343
40349
40330
40362
40359
40343
40287
40355
40348
40340
40340
40316
40346
40341
40346
40352
40343
40340
40343
40346
40346
40351
40345
40343
40343
40341
40335
40332
40327
40346
40343
40351
40340
40335
40296
40284
40351
40342
40343
40343
40338
40340
40332
40340
40326
40341
40327
40326
40321
40340
40333
40332
40324
40297
40349
40335
40266
40321
40340
40335
40326
40335
40327
40327
40318
40334
40327
40324
40286
40255
40327
40327
40325
40318
40317
40327
40331
40327
40278
40269
40316
40319
40314
40319
40319
40306
40305
40326
40322
40324
40311
40295
40292
40295
40268
40327
40319
40314
40317
40323
40324
40311
40311
40320
40255
40303
40313
40263
40301
40314
40276
40303
40311
40305
40310
40308
40278
40317
40317
40318
40314
40286
40242
40271
40305
40303
40298
40298
40299
40294
40295
40294
40302
40291
40319
40318
40311
40314
40307
40311
40291
40250
40303
40295
40299
40300
40303
40251
40293
40296
40292
40299
40283
40307
40311
40305
40308
40308
40308
40284
40237
40292
40309
40300
40300
40295
40295
40288
40300
40294
40300
40295
40290
40257
40255
40263
40269
40239
40234
40294
40293
40286
40289
40271
40298
40295
40293
40296
40292
40295
40294
40292
40286
40246
40235
40301
40295
40290
40293
40287
40290
40286
40282
40279
40274
40263
40254
40287
40285
40286
40284
40282
40256
40271
40290
40282
40285
40301
40295
40301
40298
40260
40294
40284
40269
40279
40287
40287
40276
40219
40278
40271
40279
40294
40285
40278
40228
40284
40280
40282
40261
40284
40284
40279
40247
40244
40276
40271
40257
40279
40276
40220
40287
40279
40284
40287
40278
40268
40292
40277
40252
40284
40235
40279
40277
40260
40236
40275
40263
40215
40272
40265
40264
40279
40279
40279
40272
40283
40273
40245
40223
40231
40270
40275
40260
40271
40259
40263
40255
40271
40277
40263
40225
40223
40269
40265
40266
40278
40274
40249
40259
40266
40267
40266
40246
40265
40228
40263
40254
40262
40255
40262
40258
40212
40271
40269
40267
40234
40280
40284
40223
40254
40275
40263
40256
40255
40271
40267
40263
40265
40270
40260
40233
40205
40265
40266
40268
40272
40266
40268
40263
40236
40278
40269
40269
40263
40255
40237
40212
40238
40262
40261
40255
40253
40239
40258
40268
40212
40263
40262
40263
40276
40271
40212
40254
40263
40252
40243
40259
40254
40253
40215
40258
40252
40259
40241
40260
40271
40271
40263
40258
40204
40198
40247
40255
40261
40251
40252
40242
40247
40244
40247
40263
40241
40261
40272
40266
40271
40273
40270
40261
40230
40205
40255
40258
40252
40240
40255
40247
40235
40210
40199
40199
40234
40234
40222
40223
40225
40223
40226
40229
40223
40223
40228
40231
40231
40236
40233
40244
40246
40258
40260
40255
40258
40271
40272
40274
40276
40275
40284
40281
40287
40289
40276
40278
40271
40270
40270
40260
40219
40192
40197
40199
40268
40263
40265
40267
40271
40267
40260
40273
40256
40262
40209
40235
40263
40263
40259
40263
40257
40273
40268
40267
40240
40212
40215
40268
40256
40260
40263
40266
40271
40279
40263
40223
40242
40257
40251
40252
40274
40265
40263
40274
40271
40266
40276
40277
40273
40270
40271
40257
40279
40262
40260
40249
40231
40213
40199
40208
40207
40199
40207
40267
40260
40267
40268
40263
40260
40266
40263
40270
40264
40271
40270
40268
40234
40260
40262
40258
40260
40241
40271
40273
40231
40266
40269
40264
40261
40277
40276
40271
40228
40269
40260
40263
40247
40270
40228
40254
40261
40255
40246
40269
40271
40212
40266
40263
40260
40269
40268
40222
40227
40277
40258
40252
40263
40268
40252
40231
40255
40255
40241
40263
40268
40198
40260
40254
40263
40263
40268
40268
40210
40255
40270
40228
40225
40254
40259
40244
40246
40258
40245
40249
40255
40267
40263
40263
40198
40252
40262
40262
40250
40267
40263
40220
40236
40240
40238
40241
40234
40246
40253
40247
40213
40246
40250
40252
40236
40247
40262
40261
40252
40199
40247
40253
40239
40236
40231
40247
40250
40244
40229
40199
40247
40236
40231
40239
40251
40252
40245
40195
40244
40239
40231
40240
40252
40233
40212
40198
40237
40228
40231
40231
40231
40223
40241
40234
40186
40251
40231
40231
40250
40245
40188
40239
40230
40247
40223
40228
40215
40228
40246
40237
40191
40238
40231
40231
40250
40243
40220
40189
40242
40236
40236
40235
40238
40239
40180
40235
40223
40231
40225
40244
40244
40244
40232
40199
40207
40233
40239
40224
40224
40247
40235
40239
40212
40175
40162
40228
40220
40228
40227
40228
40222
40240
40242
40230
40226
40195
40239
40228
40230
40239
40232
40222
40226
40199
40185
40167
40224
40218
40216
40197
40233
40235
40229
40228
40186
40170
40228
40223
40215
40220
40225
40207
40228
40215
40215
40214
40215
40224
40211
40209
40212
40215
40211
40224
40231
40233
40223
40179
40220
40215
40213
40226
40213
40223
40161
40207
40212
40208
40223
40217
40215
40226
40186
40158
40223
40216
40207
40208
40217
40222
40218
40185
40215
40199
40205
40217
40194
40199
40196
40199
40208
40170
40212
40199
40157
40210
40206
40215
40215
40174
40207
40213
40198
40199
40199
40189
40214
40208
40199
40199
40199
40197
40151
40212
40204
40210
40206
40210
40219
40220
40207
40148
40180
40199
40198
40191
40186
40199
40199
40196
40178
40199
40204
40199
40196
40204
40209
40149
40198
40188
40182
40212
40210
40191
40136
40190
40188
40189
40198
40191
40167
40199
40212
40206
40199
40155
40199
40206
40207
40199
40200
40212
40180
40170
40199
40199
40199
40199
40208
40206
40148
40199
40207
40199
40199
40212
40199
40199
40199
40199
40215
40183
40215
40218
40214
40212
40160
40169
40215
40208
40215
40200
40195
40229
40228
40235
40235
40229
40226
40221
40219
40175
40213
40220
40199
40217
40207
40231
40229
40182
40220
40219
40226
40216
40231
40238
40230
40219
40239
40225
40229
40225
40222
40239
40191
40230
40228
40220
40242
40189
40238
40233
40240
40239
40257
40255
40248
40255
40239
40199
40220
40238
40239
40239
40252
40259
40215
40221
40250
40251
40246
40261
40262
40250
40210
40214
40266
40261
40258
40257
40277
40255
40208
40260
40260
40253
40228
40277
40268
40269
40239
40211
40268
40260
40264
40270
40279
40278
40222
40271
40265
40260
40271
40278
40279
40226
40265
40266
40275
40260
40266
40258
40284
40282
40285
40287
40287
40286
40285
40277
40238
40221
40224
40271
40275
40268
40271
40259
40285
40290
40287
40252
40250
40279
40276
40270
40273
40276
40286
40279
40291
40295
40244
40279
40276
40270
40271
40260
40287
40287
40281
40292
40228
40287
40288
40291
40283
40287
40284
40282
40272
40274
40277
40288
40287
40288
40278
40285
40292
40287
40255
40223
40295
40287
40287
40290
40292
40284
40287
40284
40276
40279
40279
40277
40284
40286
40279
40276
40277
40276
40295
40305
40295
40277
40234
40303
40300
40306
40310
40300
40294
40293
40256
40292
40288
40295
40284
40292
40278
40277
40278
40276
40274
40273
40280
40271
40257
40239
40263
40262
40253
40257
40250
40249
40247
40254
40258
40252
40265
40266
40288
40287
40302
40304
40311
40308
40308
40311
40310
40286
40284
40314
40311
40311
40308
40312
40303
40273
40255
40254
40309
40303
40308
40308
40302
40311
40306
40308
40303
40303
40300
40299
40291
40292
40306
40303
40311
40296
40307
40303
40303
40307
40300
40310
40292
40295
40306
40294
40312
40310
40308
40309
40284
40256
40239
40251
40243
40247
40307
40303
40303
40304
40308
40313
40311
40310
40304
40319
40308
40311
40303
40308
40299
40305
40297
40300
40295
40303
40303
40303
40295
40311
40306
40306
40308
40311
40292
40259
40271
40279
40304
40304
40314
40311
40309
40307
40266
40282
40305
40308
40308
40311
40311
40318
40310
40327
40319
40319
40290
40259
40301
40311
40313
40311
40295
40303
40270
40311
40316
40319
40315
40314
40283
40263
40319
40316
40319
40324
40317
40317
40315
40308
40311
40309
40307
40311
40308
40312
40319
40311
40319
40317
40318
40311
40295
40255
40320
40324
40315
40319
40325
40314
40302
40314
40310
40302
40316
40319
40316
40319
40313
40327
40310
40271
40325
40321
40319
40317
40339
40335
40331
40326
40333
40327
40325
40327
40319
40300
40273
40305
40325
40324
40324
40308
40341
40334
40340
40330
40309
40268
40327
40326
40319
40343
40337
40324
40290
40277
40320
40321
40327
40327
40317
40342
40332
40333
40303
40303
40274
40330
40335
40327
40319
40326
40327
40326
40327
40318
40334
40341
40347
40334
40327
40335
40344
40339
40308
40337
40335
40340
40334
40345
40346
40340
40339
40303
40287
40333
40340
40343
40339
40338
40343
40348
40359
40359
40335
40302
40348
40348
40337
40357
40356
40343
40303
40341
40351
40348
40355
40348
40363
40303
40327
40365
40362
40359
40375
40366
40351
40292
40358
40354
40354
40356
40347
40340
40375
40368
40367
40373
40373
40383
40373
40375
40375
40376
40375
40369
40309
40374
40380
40357
40372
40379
40388
40375
40371
40317
40379
40380
40372
40359
40383
40390
40374
40324
40377
40379
40382
40383
40376
40391
40395
40381
40356
40351
40384
40389
40358
40389
40403
40364
40405
40398
40404
40392
40412
40407
40407
40385
40348
40358
40407
40409
40399
40386
40395
40412
40420
40420
40419
40399
40412
40412
40414
40423
40411
40415
40431
40423
40430
40428
40428
40392
40350
40423
40414
40422
40425
40423
40423
40439
40443
40442
40434
40423
40398
40433
40437
40441
40441
40436
40436
40454
40449
40439
40422
40408
40445
40450
40442
40453
40452
40450
40401
40455
40455
40455
40464
40455
40426
40455
40455
40453
40463
40466
40455
40416
40418
40455
40455
40455
40468
40484
40484
40437
40474
40477
40478
40452
40491
40487
40412
40478
40471
40464
40487
40476
40475
40436
40479
40487
40495
40491
40498
40485
40495
40490
40495
40487
40492
40503
40440
40492
40500
40502
40455
40492
40498
40487
40503
40500
40455
40498
40505
40507
40503
40513
40514
40470
40504
40507
40500
40498
40497
40506
40514
40503
40512
40511
40511
40516
40518
40453
40516
40526
40534
40529
40469
40522
40512
40506
40524
40524
40463
40520
40508
40520
40519
40455
40512
40519
40527
40534
40536
40508
40535
40529
40530
40545
40540
40530
40479
40524
40517
40520
40532
40536
40531
40527
40526
40530
40534
40545
40494
40543
40534
40527
40556
40548
40510
40549
40535
40551
40495
40542
40532
40525
40551
40540
40519
40504
40546
40548
40551
40564
40559
40554
40516
40551
40548
40540
40554
40554
40554
40495
40548
40557
40551
40554
40557
40551
40519
40556
40558
40551
40572
40567
40567
40516
40554
40557
40550
40559
40542
40562
40559
40564
40549
40511
40506
40564
40564
40564
40558
40580
40570
40548
40569
40571
40575
40559
40572
40572
40503
40559
40567
40567
40564
40556
40558
40564
40583
40574
40567
40519
40576
40582
40575
40578
40583
40574
40519
40575
40570
40566
40577
40580
40583
40559
40574
40583
40581
40576
40588
40591
40543
40537
40583
40575
40580
40590
40581
40583
40524
40575
40583
40576
40577
40575
40583
40583
40527
40583
40583
40583
40583
40588
40602
40583
40520
40578
40583
40579
40588
40591
40572
40522
40576
40579
40575
40583
40596
40589
40540
40589
40591
40580
40576
40590
40591
40559
40530
40551
40576
40575
40583
40580
40562
40599
40584
40558
40591
40588
40584
40602
40555
40607
40590
40590
40606
40597
40556
40590
40583
40583
40588
40598
40599
40583
40534
40599
40589
40594
40577
40607
40610
40613
40597
40545
40547
40603
40591
40586
40582
40589
40578
40599
40596
40558
40532
40541
40601
40600
40598
40604
40583
40610
40615
40599
40572
40551
40598
40591
40580
40583
40587
40589
40602
40600
40543
40596
40599
40594
40604
40615
40615
40584
40566
40603
40599
40605
40591
40600
40537
40604
40594
40566
40608
40610
40599
40556
40606
40604
40599
40607
40599
40558
40604
40607
40580
40588
40583
40583
40547
40574
40559
40561
40553
40561
40564
40558
40550
40563
40559
40558
40561
40568
40567
40575
40580
40581
40580
40593
40580
40609
40604
40597
40556
40541
40609
40598
40599
40620
40623
40619
40543
40612
40607
40598
40603
40597
40610
40612
40606
40612
40606
40567
40583
40592
40593
40608
40607
40599
40594
40603
40604
40606
40532
40608
40588
40606
40599
40540
40596
40591
40598
40541
40593
40591
40594
40552
40596
40599
40599
40606
40594
40596
40606
40534
40601
40591
40609
40596
40599
40590
40596
40582
40599
40597
40609
40612
40547
40604
40597
40612
40614
40615
40546
40607
40600
40596
40604
40588
40529
40591
40586
40590
40599
40599
40532
40594
40597
40614
40606
40587
40543
40606
40597
40604
40600
40549
40592
40591
40590
40596
40601
40590
40532
40596
40588
40586
40583
40572
40607
40594
40550
40591
40594
40575
40599
40594
40532
40583
40582
40581
40583
40546
40583
40577
40580
40590
40591
40526
40583
40590
40580
40599
40555
40583
40582
40581
40520
40581
40567
40567
40580
40549
40573
40567
40566
40578
40575
40523
40581
40572
40572
40583
40579
40579
40582
40511
40575
40570
40575
40561
40575
40581
40562
40567
40572
40565
40571
40558
40579
40574
40515
40571
40564
40566
40575
40568
40545
40511
40556
40551
40552
40559
40564
40560
40525
40561
40547
40558
40565
40542
40538
40557
40556
40551
40559
40552
40486
40536
40539
40547
40543
40532
40535
40535
40545
40551
40510
40547
40542
40549
40513
40548
40532
40534
40525
40542
40528
40506
40535
40535
40525
40535
40534
40495
40527
40531
40526
40527
40535
40486
40535
40533
40531
40516
40532
40518
40532
40502
40500
40471
40518
40519
40514
40511
40526
40535
40518
40479
40519
40518
40518
40526
40527
40495
40455
40523
40518
40508
40508
40513
40519
40478
40506
40510
40510
40527
40518
40473
40495
40508
40518
40481
40527
40442
40503
40507
40500
40492
40484
40516
40502
40455
40500
40495
40511
40511
40502
40505
40509
40508
40513
40516
40473
40511
40503
40511
40452
40506
40490
40502
40503
40500
40487
40508
40476
40502
40514
40511
40505
40495
40518
40519
40450
40515
40506
40501
40519
40510
40483
40507
40498
40488
40514
40508
40489
40439
40509
40494
40501
40513
40513
40509
40476
40468
40447
40503
40503
40497
40510
40494
40475
40510
40508
40500
40503
40511
40514
40455
40511
40516
40513
40498
40451
40504
40506
40511
40509
40510
40519
40527
40504
40508
40509
40519
40526
40519
40510
40471
40522
40524
40519
40514
40535
40532
40519
40519
40523
40514
40516
40531
40531
40479
40526
40519
40510
40528
40476
40532
40524
40549
40473
40535
40550
40532
40543
40521
40542
40489
40540
40535
40539
40531
40543
40544
40476
40535
40542
40540
40541
40543
40564
40559
40557
40527
40551
40551
40543
40535
40535
40555
40544
40523
40479
40548
40547
40542
40556
40530
40554
40550
40554
40548
40556
40564
40522
40559
40548
40570
40567
40556
40519
40535
40562
40559
40550
40572
40508
40559
40573
40574
40542
40575
40564
40558
40532
40582
40521
40567
40565
40559
40559
40557
40579
40575
40570
40542
40516
40574
40574
40576
40578
40567
40582
40583
40574
40574
40564
40572
40574
40564
40557
40582
40580
40583
40516
40564
40572
40565
40575
40583
40581
40519
40583
40579
40573
40583
40575
40516
40575
40574
40566
40580
40569
40559
40571
40574
40578
40583
40526
40572
40551
40564
40583
40594
40518
40569
40583
40513
40568
40580
40574
40572
40583
40583
40545
40574
40573
40578
40565
40591
40591
40583
40566
40525
40579
40575
40566
40579
40566
40575
40580
40527
40519
40571
40567
40567
40568
40569
40578
40574
40551
40591
40583
40534
40580
40578
40576
40573
40576
40580
40583
40571
40519
40532
40572
40578
40580
40578
40583
40582
40580
40599
40585
40599
40529
40582
40576
40580
40591
40583
40539
40588
40574
40586
40583
40588
40584
40593
40561
40582
40580
40583
40583
40581
40591
40592
40586
40551
40581
40582
40583
40577
40591
40593
40604
40538
40606
40598
40599
40615
40609
40557
40615
40615
40621
40631
40627
40572
40620
40637
40632
40631
40576
40645
40640
40648
40640
40657
40673
40663
40607
40679
40671
40684
40682
40671
40682
40687
40687
40684
40694
40703
40711
40711
40693
40657
40710
40718
40721
40729
40741
40741
40743
40721
40679
40743
40735
40735
40741
40746
40753
40757
40721
40759
40754
40748
40755
40773
40767
40775
40742
40709
40735
40778
40768
40775
40774
40768
40774
40775
40787
40727
40773
40795
40779
40792
40753
40780
40800
40740
40798
40796
40799
40807
40811
40800
40798
40801
40807
40807
40742
40804
40807
40786
40816
40813
40761
40815
40820
40820
40831
40815
40796
40829
40823
40807
40833
40836
40830
40829
40821
40802
40781
40816
40819
40811
40804
40815
40812
40816
40807
40807
40818
40807
40795
40806
40804
40807
40799
40812
40807
40815
40827
40797
40838
40838
40866
40870
40807
40872
40868
40864
40879
40881
40812
40871
40862
40877
40788
40871
40857
40881
40870
40867
40871
40861
40887
40876
40796
40879
40868
40871
40885
40876
40869
40871
40847
40871
40868
40886
40828
40879
40871
40870
40874
40879
40887
40879
40887
40866
40852
40892
40895
40895
40892
40900
40901
40895
40839
40900
40890
40892
40887
40901
40899
40864
40903
40903
40898
40911
40918
40873
40842
40903
40903
40901
40898
40913
40903
40904
40839
40903
40894
40910
40893
40839
40908
40899
40900
40915
40910
40871
40911
40906
40902
40905
40905
40839
40892
40891
40887
40887
40895
40877
40895
40888
40887
40895
40898
40907
40838
40894
40893
40903
40893
40846
40887
40876
40869
40871
40886
40884
40871
40868
40870
40871
40875
40884
40885
40820
40871
40871
40878
40877
40868
40863
40861
40868
40861
40794
40855
40847
40860
40852
40823
40847
40855
40852
40788
40850
40854
40860
40807
40849
40836
40839
40839
40827
40839
40825
40823
40821
40823
40831
40833
40762
40828
40820
40828
40781
40816
40821
40831
40817
40758
40807
40809
40771
40803
40800
40790
40796
40796
40740
40778
40785
40766
40797
40753
40791
40780
40791
40775
40786
40783
40773
40740
40748
40759
40764
40762
40748
40767
40761
40732
40757
40756
40764
40759
40709
40757
40758
40749
40758
40757
40711
40746
40741
40743
40734
40684
40735
40735
40730
40727
40724
40725
40727
40730
40735
40676
40730
40725
40725
40727
40652
40711
40709
40705
40701
40694
40695
40695
40684
40695
40638
40687
40690
40682
40694
40684
40637
40681
40676
40676
40676
40671
40626
40653
40656
40651
40646
40652
40655
40652
40643
40620
40581
40583
40639
40639
40629
40596
40643
40631
40602
40613
40604
40593
40600
40596
40524
40591
40580
40583
40581
40567
40567
40559
40567
40514
40556
40551
40519
40548
40482
40534
40519
40491
40515
40474
40494
40481
40492
40487
40436
40479
40476
40455
40471
40401
40444
40436
40442
40415
40431
40412
40411
40407
40350
40380
40375
40367
40374
40327
40359
40350
40343
40349
40308
40333
40327
40306
40290
40301
40232
40278
40265
40255
40260
40230
40236
40222
40223
40162
40207
40199
40180
40188
40180
40161
40167
40096
40145
40135
40127
40118
40099
40068
40079
40065
40068
40046
40044
40028
40035
39966
40004
39998
39990
39988
39964
39958
39969
39943
39884
39925
39905
39892
39887
39871
39878
39866
39850
39815
39835
39818
39810
39814
39799
39783
39751
39714
39756
39751
39735
39735
39711
39648
39687
39674
39668
39655
39647
39642
39593
39624
39623
39615
39594
39604
39599
39578
39569
39510
39552
39551
39533
39519
39509
39495
39492
39487
39479
39468
39429
39454
39442
39443
39431
39375
39428
39409
39406
39389
39392
39373
39340
39359
39342
39342
39343
39335
39337
39319
39270
39309
39303
39298
39303
39257
39285
39279
39258
39271
39221
39253
39239
39233
39226
39230
39213
39175
39206
39199
39183
39198
39143
39189
39175
39172
39170
39143
39159
39153
39140
39135
39087
39120
39115
39111
39096
39084
39085
39086
39061
39055
39071
39025
39059
39045
39055
39045
39024
39031
39011
39012
39015
38994
38983
38929
38966
38969
38951
38954
38919
38951
38936
38948
38919
38919
38919
38911
38913
38906
38882
38887
38868
38852
38868
38822
38849
38838
38844
38823
38829
38823
38813
38816
38766
38802
38799
38790
38790
38782
38772
38772
38754
38753
38751
38734
38734
38719
38726
38725
38722
38707
38718
38702
38711
38679
38687
38693
38695
38686
38654
38662
38660
38663
38662
38641
38638
38636
38638
38630
38623
38618
38623
38622
38599
38622
38612
38604
38596
38599
38599
38599
38588
38549
38580
38564
38567
38569
38567
38557
38574
38557
38551
38527
38553
38559
38559
38556
38551
38541
38535
38497
38534
38530
38518
38534
38516
38518
38519
38524
38519
38516
38511
38518
38508
38521
38524
38486
38521
38510
38503
38503
38504
38500
38503
38500
38503
38503
38500
38506
38505
38497
38486
38511
38503
38511
38516
38486
38516
38511
38508
38509
38503
38463
38508
38500
38503
38514
38517
38516
38503
38529
38519
38533
38535
38526
38520
38543
38546
38548
38535
38525
38551
38558
38560
38566
38565
38572
38575
38575
38567
38591
38596
38588
38559
38599
38598
38609
38604
38604
38588
38596
38598
38606
38598
38614
38612
38606
38628
38625
38618
38641
38638
38655
38663
38677
38697
38705
38724
38740
38741
38748
38718
38770
38774
38780
38783
38796
38807
38761
38828
38833
38831
38849
38868
38855
38856
38879
38887
38884
38906
38905
38871
38903
38919
38919
38937
38958
38964
38970
38930
38983
38999
39008
39020
39038
38995
39061
39066
39064
39076
39087
39100
39062
39123
39124
39138
39151
39108
39170
39174
39188
39207
39204
39220
39235
39242
39254
39268
39271
39255
39297
39303
39306
39322
39327
39297
39347
39359
39368
39391
39398
39359
39423
39431
39431
39418
39469
39451
39473
39484
39492
39502
39510
39524
39523
39541
39550
39560
39566
39564
39580
39604
39607
39620
39600
39603
39644
39625
39599
39671
39668
39674
39687
39699
39687
39694
39706
39722
39733
39748
39748
39756
39775
39779
39743
39789
39798
39800
39822
39826
39831
39831
39823
39786
39851
39850
39865
39861
39888
39890
39902
39885
39874
39923
39931
39927
39934
39963
39952
39958
39923
39967
39975
39980
39983
39983
39997
39998
40013
40012
40022
40028
39980
39991
40042
40047
40046
40060
40079
40019
40071
40079
40033
40084
40081
40102
40099
40082
40086
40113
40116
40116
40124
40128
40140
40150
40148
40109
40151
40156
40159
40132
40171
40116
40169
40168
40183
40188
40175
40183
40191
40189
40196
40213
40221
40226
40220
40208
40175
40228
40229
40224
40221
40236
40242
40236
40251
40239
40255
40231
40189
40260
40263
40262
40256
40278
40283
40280
40236
40288
40282
40264
40290
40241
40295
40287
40263
40290
40293
40303
40292
40311
40307
40316
40300
40332
40333
40334
40284
40332
40327
40338
40330
40342
40327
40289
40338
40341
40346
40356
40359
40358
40324
40365
40367
40371
40372
40374
40357
40380
40374
40326
40376
40376
40383
40374
40392
40394
40375
40394
40396
40391
40397
40395
40413
40411
40399
40351
40407
40409
40396
40414
40378
40399
40420
40415
40401
40420
40422
40423
40375
40358
40428
40428
40423
40424
40423
40445
40445
40438
40439
40383
40438
40436
40439
40428
40446
40453
40452
40451
40399
40455
40450
40455
40455
40455
40468
40460
40455
40463
40439
40431
40454
40455
40455
40455
40471
40471
40439
40405
40476
40471
40471
40480
40488
40423
40486
40484
40480
40486
40471
40427
40485
40484
40475
40478
40470
40490
40491
40490
40487
40443
40497
40497
40494
40495
40504
40497
40492
40487
40511
40514
40502
40446
40453
40498
40500
40510
40512
40492
40473
40514
40511
40511
40527
40527
40519
40470
40518
40518
40492
40533
40511
40519
40512
40527
40511
40508
40534
40522
40527
40479
40530
40532
40526
40539
40551
40538
40535
40490
40538
40534
40540
40516
40543
40542
40534
40541
40487
40540
40540
40539
40543
40544
40547
40552
40519
40547
40544
40535
40556
40533
40534
40549
40546
40527
40559
40551
40498
40511
40528
40525
40559
40561
40558
40557
40567
40556
40542
40568
40559
40498
40559
40559
40571
40566
40542
40541
40567
40550
40570
40559
40517
40583
40583
40579
40573
40559
40579
40583
40574
40565
40511
40578
40575
40559
40564
40577
40581
40577
40519
40575
40577
40581
40591
40583
40577
40533
40589
40583
40590
40590
40519
40580
40577
40589
40591
40580
40531
40586
40593
40590
40590
40599
40607
40551
40596
40597
40598
40572
40598
40598
40596
40596
40561
40579
40596
40598
40603
40596
40599
40609
40607
40559
40609
40610
40604
40602
40615
40611
40572
40601
40599
40613
40615
40604
40607
40598
40612
40612
40612
40615
40613
40615
40591
40631
40623
40567
40622
40612
40620
40615
40559
40615
40615
40613
40614
40607
40575
40615
40623
40628
40581
40573
40623
40622
40629
40628
40628
40559
40620
40612
40618
40628
40606
40623
40620
40607
40630
40623
40633
40622
40631
40588
40631
40623
40620
40647
40642
40628
40575
40636
40626
40633
40619
40643
40647
40622
40575
40638
40636
40641
40639
40654
40654
40618
40615
40647
40645
40647
40638
40650
40647
40628
40596
40643
40641
40631
40653
40650
40632
40595
40655
40651
40651
40663
40658
40613
40654
40647
40658
40647
40647
40657
40654
40658
40604
40652
40648
40647
40663
40660
40652
40669
40661
40662
40648
40671
40671
40669
40626
40663
40659
40657
40661
40679
40643
40664
40663
40662
40658
40675
40679
40676
40653
40620
40663
40676
40660
40655
40652
40656
40631
40655
40645
40636
40631
40636
40625
40642
40639
40638
40641
40638
40650
40652
40652
40661
40679
40678
40676
40647
40678
40692
40683
40689
40668
40692
40698
40660
40639
40686
40694
40710
40704
40623
40695
40696
40693
40704
40668
40692
40681
40654
40701
40667
40693
40689
40682
40700
40703
40635
40695
40699
40683
40711
40689
40636
40703
40703
40695
40711
40703
40694
40647
40695
40686
40689
40708
40693
40703
40695
40701
40711
40711
40646
40702
40700
40711
40711
40709
40641
40703
40703
40695
40711
40709
40710
40711
40660
40708
40711
40703
40703
40721
40724
40661
40711
40711
40711
40711
40708
40709
40703
40710
40711
40719
40701
40657
40718
40719
40719
40708
40725
40718
40663
40724
40723
40716
40732
40734
40663
40711
40710
40731
40654
40711
40720
40714
40718
40687
40725
40732
40727
40724
40716
40743
40735
40733
40700
40679
40724
40732
40720
40730
40732
40732
40725
40672
40731
40730
40743
40732
40748
40742
40748
40739
40751
40732
40680
40751
40739
40735
40743
40734
40692
40735
40742
40741
40743
40711
40748
40751
40756
40751
40684
40751
40753
40749
40727
40748
40748
40741
40699
40751
40743
40751
40738
40740
40742
40752
40762
40756
40763
40732
40711
40703
40702
40697
40743
40756
40751
40751
40751
40751
40749
40762
40751
40742
40758
40761
40754
40766
40758
40759
40767
40765
40765
40766
40727
40711
40758
40759
40748
40765
40763
40759
40748
40707
40761
40764
40764
40767
40775
40756
40771
40768
40771
40757
40779
40766
40710
40766
40762
40775
40775
40750
40767
40771
40770
40780
40783
40772
40775
40787
40783
40772
40788
40774
40779
40783
40782
40719
40785
40789
40775
40789
40758
40788
40783
40786
40791
40794
40734
40790
40791
40799
40798
40735
40789
40799
40766
40788
40788
40759
40720
40785
40788
40787
40787
40788
40812
40814
40805
40788
40743
40807
40805
40799
40798
40805
40804
40794
40784
40781
40806
40795
40782
40732
40770
40791
40798
40798
40805
40815
40807
40740
40804
40811
40811
40796
40804
40807
40767
40804
40807
40798
40807
40805
40814
40799
40772
40807
40807
40803
40813
40815
40743
40811
40810
40812
40807
40744
40807
40806
40801
40814
40814
40809
40806
40815
40814
40812
40799
40823
40808
40807
40815
40812
40804
40820
40812
40820
40768
40746
40822
40814
40806
40804
40807
40809
40823
40824
40823
40788
40746
40823
40813
40815
40812
40823
40815
40815
40799
40759
40823
40804
40815
40811
40824
40828
40830
40807
40758
40828
40827
40821
40830
40829
40823
40815
40812
40825
40782
40819
40815
40820
40837
40821
40767
40825
40820
40833
40826
40767
40831
40834
40830
40838
40834
40767
40830
40823
40839
40836
40838
40823
40830
40828
40833
40827
40836
40803
40827
40833
40839
40828
40839
40847
40783
40835
40823
40839
40780
40834
40805
40836
40826
40828
40832
40835
40839
40789
40833
40851
40846
40841
40834
40838
40846
40836
40783
40839
40826
40847
40839
40836
40839
40839
40847
40847
40829
40801
40852
40842
40845
40863
40855
40853
40839
40783
40851
40839
40839
40844
40846
40783
40842
40847
40855
40861
40855
40849
40862
40831
40866
40847
40861
40851
40847
40861
40807
40855
40838
40847
40859
40845
40862
40780
40852
40831
40863
40807
40860
40863
40870
40818
40861
40855
40863
40856
40807
40859
40852
40866
40868
40847
40858
40839
40862
40810
40858
40853
40875
40863
40806
40871
40863
40871
40877
40857
40867
40868
40867
40863
40865
40860
40875
40868
40828
40871
40868
40863
40877
40879
40815
40870
40871
40872
40871
40820
40871
40864
40879
40875
40838
40840
40865
40871
40870
40843
40887
40829
40871
40874
40880
40890
40884
40823
40876
40870
40867
40887
40872
40845
40870
40879
40886
40880
40820
40875
40876
40871
40885
40863
40881
40875
40876
40887
40894
40839
40876
40881
40881
40894
40831
40876
40877
40865
40886
40831
40885
40885
40895
40872
40899
40887
40895
40888
40854
40889
40879
40875
40878
40871
40886
40894
40890
40826
40881
40884
40891
40899
40897
40839
40885
40896
40900
40845
40886
40886
40885
40902
40892
40851
40887
40898
40876
40895
40897
40871
40907
40836
40897
40903
40903
40905
40902
40895
40847
40903
40903
40894
40879
40902
40889
40839
40888
40897
40905
40905
40871
40895
40903
40904
40911
40844
40911
40902
40911
40855
40901
40902
40905
40902
40839
40904
40895
40908
40909
40860
40902
40903
40906
40884
40913
40917
40887
40911
40911
40901
40903
40895
40911
40876
40901
40902
40919
40908
40910
40907
40917
40900
40911
40906
40920
40918
40915
40913
40911
40922
40923
40918
40903
40924
40912
40914
40906
40922
40927
40931
40852
40927
40923
40915
40926
40857
40923
40918
40933
40916
40865
40909
40903
40890
40894
40895
40893
40871
40891
40881
40888
40884
40871
40895
40895
40894
40897
40899
40898
40911
40902
40876
40912
40924
40918
40926
40937
40931
40874
40935
40935
40942
40938
40887
40946
40942
40932
40940
40941
40935
40942
40917
40873
40935
40927
40922
40935
40927
40871
40935
40935
40955
40930
40941
40939
40916
40937
40892
40945
40943
40934
40949
40929
40904
40933
40938
40933
40912
40943
40945
40924
40887
40940
40943
40935
40951
40955
40917
40947
40949
40935
40930
40951
40945
40903
40944
40934
40940
40946
40956
40900
40948
40946
40951
40943
40935
40956
40910
40951
40943
40951
40953
40966
40942
40907
40952
40951
40942
40954
40950
40895
40954
40946
40956
40903
40958
40951
40966
40926
40956
40959
40932
40953
40890
40950
40950
40958
40955
40957
40945
40941
40962
40886
40952
40959
40967
40894
40958
40958
40966
40959
40892
40967
40951
40943
40958
40944
40909
40959
40962
40956
40952
40962
40967
40955
40903
40924
40959
40967
40956
40962
40961
40951
40924
40967
40963
40951
40962
40964
40967
40911
40961
40967
40967
40967
40975
40972
40938
40911
40965
40960
40958
40967
40967
40962
40964
40958
40908
40964
40960
40955
40966
40967
40922
40967
40967
40967
40967
40955
40967
40967
40953
40981
40961
40967
40967
40967
40980
40951
40972
40967
40986
40989
40919
40972
40983
40982
40990
40951
40935
40967
40967
40955
40978
40950
40967
40967
40980
40982
40976
40967
40980
40957
40992
40967
40983
40988
40990
40919
40983
40967
40980
40967
40965
40965
40967
40991
40983
40967
40967
40990
40990
40983
40983
40988
40977
40988
40975
40988
40932
40980
40982
40987
40976
40986
40991
40918
40989
40985
40992
40955
40995
40988
41002
40978
40991
40983
40998
40952
40991
40988
40999
40991
40988
40991
40987
40956
40994
40981
40967
40996
40937
40991
41005
40967
41001
40989
40999
41007
40959
40989
40999
41003
40945
40991
40991
40998
40932
40990
41003
40986
40998
40997
40999
41007
40948
41007
40997
41004
40999
40926
40996
40992
40996
41003
40945
40996
40996
40998
40996
40999
40997
41007
41007
41007
40992
41011
41006
40988
40996
40983
40996
40938
40991
40990
41006
41006
40958
40994
40996
40990
41010
40993
41011
40995
40993
41007
41011
40934
41006
40998
40991
41011
40988
40942
40996
40991
40989
41005
40967
40998
40999
40983
41009
40950
40996
41007
41013
40974
40999
40999
41012
40942
41001
40988
40999
41007
41004
40996
41004
41006
41007
41008
41004
41002
41012
41013
40943
41007
40996
40967
41005
40996
40990
40999
40999
41012
40998
40938
40999
40999
41007
41007
40943
41007
41001
41018
40965
41012
41002
41006
40939
41013
40998
41002
40983
40990
40999
41001
41015
41007
40959
41013
41006
41008
41016
40942
41014
41016
40951
41005
40989
40999
41002
41002
41004
41008
40981
41004
41017
40981
41014
41017
41003
41015
41007
41018
41007
41006
41015
40964
41000
41013
41012
41009
40946
41015
41007
41008
40964
41002
41005
40993
41023
41012
41012
41011
41016
41012
40967
41015
41015
41009
41010
41009
41007
40959
41004
41005
40996
41020
40959
41004
40999
40999
41007
41018
41014
40996
40991
41004
41015
40943
40999
41007
41002
41009
41007
41007
41012
41018
40967
41020
41013
41023
40991
41004
41022
41015
41013
41010
41022
41007
40962
41011
41004
41012
40967
41007
41002
40999
41023
40980
41006
41010
41021
41018
40996
41015
41018
41006
41001
41007
41012
41012
41003
41012
40961
41010
41014
41022
41026
41018
41028
41015
41026
41027
41019
40986
41014
41007
41015
40983
41007
41004
41015
40958
41022
40988
41019
40964
41014
41021
41024
40984
41018
41019
41003
41014
40956
41016
41009
41002
41016
41006
41020
40999
41015
41015
41020
41014
40958
41015
41019
41025
41018
41015
41024
41028
41023
41018
41009
41029
41021
41012
41025
41004
41015
41007
41012
41012
41018
41031
41007
41031
41020
41023
41027
40979
41023
41020
41021
41004
41017
41018
41023
41029
40964
41023
41011
41026
41028
41023
41018
41039
41015
41026
41020
41020
41034
41020
41012
41026
41012
41020
41012
40958
41015
41013
41012
41031
41022
41007
41029
41009
41029
41026
41028
41023
41023
41029
40976
41015
41013
41016
41018
41015
41005
41018
40960
41021
41008
41029
40967
41027
41028
41028
41020
40967
41014
41023
41031
41024
41018
41015
41027
41027
40956
41015
41019
41028
41028
40989
41027
41022
41031
40967
41031
41012
41034
41024
40973
41020
41015
41020
41022
41012
40991
41022
41018
41004
41029
41031
40967
41028
41023
41028
41028
41029
40959
41020
41018
41012
41026
41022
40995
40994
41020
41020
41031
41023
40967
41022
41025
41025
41036
41030
40964
41017
41022
41020
41020
41017
41018
40997
40992
41015
41012
40999
41020
40989
41020
41029
41021
41028
41028
40997
40964
41031
41020
41012
41028
40996
41020
41021
41004
41031
40988
41029
41023
41014
41030
41002
41025
41031
41039
41006
40954
41028
41029
41036
41022
40998
41015
41025
41014
41013
41014
41012
41007
40967
40999
40996
40999
40991
40999
40988
40981
40983
40967
40967
40978
40983
40991
40980
40991
40967
40992
40996
41019
41029
41031
41030
41026
41032
41047
40982
41033
41030
41036
41015
41043
41026
41031
41023
40988
41023
41023
41038
40999
41022
41029
41037
41013
40956
41029
41031
41014
40999
41037
41031
40990
41028
41017
41028
40986
41023
41020
41013
41025
41022
40967
41027
41020
41015
41050
41038
40983
41022
41024
41015
41020
41012
41023
41016
41022
41012
41030
41021
40956
41020
41030
41026
41030
40967
41027
41031
41022
41031
41022
40956
41023
41017
41009
40980
41031
41023
40961
41015
41023
41017
41031
41031
40967
41024
41021
41036
41031
40985
41015
41017
41014
40989
41020
41031
41024
40999
40963
41028
41015
41028
41020
41037
41025
41016
40962
41016
41029
41021
41031
41028
41023
41027
41013
40956
41023
41020
41015
40998
41025
41015
40967
41031
41020
41039
41023
40990
41020
41020
41022
41018
41026
41020
41023
40982
41018
41015
41019
41015
41034
41031
41024
40967
41026
41013
41018
41002
41031
41015
40967
41018
41013
41012
41010
41030
41018
40982
41017
41015
41014
41015
41000
41027
41022
41029
40967
41022
41027
41012
41023
41006
41003
41009
41007
40961
41021
41010
41006
41014
41023
41021
41006
40967
41016
41015
41012
41025
41022
40988
41023
41020
41006
41023
41023
41018
41014
41017
41015
40964
41015
41015
41015
41014
41023
41028
41026
41023
40967
41020
41012
41013
40999
41022
41015
40967
41007
41000
41004
40989
41009
40988
41015
41018
41017
41019
41031
41025
40962
41021
41023
41014
41004
41022
41012
41007
40950
41015
41004
41015
41022
41028
41009
41012
41015
41031
41023
40964
41015
41013
41030
41012
41009
41014
41020
41009
41009
41012
41021
41026
40956
41022
41021
41018
41036
41031
40966
41031
41026
41020
41020
41031
41024
41005
40975
41012
41023
41015
41017
41006
41030
41029
41030
40956
41021
41022
41021
40991
41030
41028
41007
40964
41014
41020
41015
40994
41017
41023
40952
41015
41009
41018
41028
41023
40951
41022
41013
41018
41025
41026
40980
41005
41007
41012
41012
41004
40943
41012
41006
41009
41023
41015
41020
40999
40988
41015
41016
41015
41013
41018
41022
41014
40988
41006
41007
41009
41003
41012
40943
41007
41010
41012
41018
40959
41013
41015
41012
40999
41016
40955
41018
41007
41007
41013
41014
40948
40996
40998
41007
41007
40956
41004
41007
41012
40943
41007
41004
41012
41006
40967
41000
41002
41005
41006
40963
41002
41003
40996
40980
41013
41004
40967
40948
41007
41003
41005
41002
41015
41014
40967
41012
41007
40998
41002
41007
40937
40993
40999
41007
40996
40983
40959
41013
41005
41002
40993
41012
40948
41009
40997
41005
40983
41008
41007
40967
40998
40999
40999
40998
41012
40983
40933
41007
40998
40997
40996
41004
41012
41012
40951
41009
40999
40991
40991
41007
40967
40997
40994
40987
40997
40967
40949
41001
41005
40993
41008
41003
40953
41001
40991
40995
40988
41002
41003
40967
40940
40991
40991
40998
41002
40934
40999
40999
41001
41013
40938
41007
41003
40991
41003
40983
41000
40949
40990
40996
40991
40991
40994
41006
40998
40949
40995
40996
40996
41007
40999
40940
40994
40998
40989
40998
40985
40956
40996
40987
40999
40988
40992
40982
40980
40999
40994
40999
40984
40935
40998
40996
40988
40986
40998
40999
40994
40983
40967
40996
40967
40983
40983
40967
40988
40956
40996
40983
40984
41000
40998
40935
40998
40987
40980
40999
40927
40984
40982
40996
40989
40988
40991
40983
40999
40958
40991
40997
40986
40989
40924
40988
40987
40997
40990
40951
40993
40988
40995
40942
40990
40967
40980
40994
40934
40983
40983
40999
40990
40933
40988
40986
40994
40991
40967
40984
40981
40979
40981
40922
40974
40967
40976
40988
40928
40980
40967
40994
40967
40989
40983
40965
40999
40940
40990
40983
40983
40991
40967
40978
40967
40980
40981
40989
40929
40991
40973
40967
40991
40964
40916
40988
40981
40967
40983
40989
40955
40912
40967
40967
40967
40966
40967
40967
40967
40967
40967
40982
40983
40996
40986
40964
40902
40990
40967
40967
40967
40976
40967
40915
40967
40967
40967
40976
40967
40940
40986
40967
40967
40967
40990
40982
40987
40921
40940
40980
40967
40967
40987
40959
40956
40967
40962
40967
40964
40910
40967
40966
40967
40967
40967
40983
40980
40927
40967
40967
40962
40984
40967
40967
40916
40964
40967
40966
40967
40966
40943
40967
40967
40959
40952
40964
40949
40953
40967
40950
40949
40943
40938
40935
40912
40935
40932
40921
40939
40939
40942
40948
40950
40966
40967
40931
40980
40967
40990
40980
40991
40940
40983
40979
40967
40986
40980
40915
40967
40977
40980
40967
40991
40986
40965
40910
40983
40967
40967
40980
40976
40903
40959
40958
40959
40972
40967
40916
40964
40967
40957
40975
40949
40910
40967
40967
40956
40967
40965
40911
40967
40958
40957
40954
40958
40965
40967
40960
40900
40960
40960
40967
40967
40967
40966
40935
40967
40905
40959
40963
40964
40952
40966
40952
40966
40951
40895
40958
40956
40959
40958
40958
40964
40956
40967
40922
40964
40951
40966
40931
40951
40967
40950
40959
40954
40951
40962
40949
40959
40959
40956
40959
40962
40967
40929
40922
40964
40956
40956
40950
40960
40951
40956
40946
40957
40956
40959
40957
40899
40954
40959
40956
40963
40963
40964
40897
40956
40955
40967
40951
40919
40949
40944
40940
40951
40954
40942
40900
40956
40953
40950
40964
40964
40967
40943
40911
40962
40945
40944
40955
40964
40951
40932
40887
40950
40944
40947
40948
40940
40956
40965
40959
40943
40894
40950
40958
40950
40949
40948
40951
40960
40958
40942
40940
40951
40941
40935
40958
40949
40918
40942
40951
40949
40935
40957
40927
40951
40942
40959
40934
40956
40948
40943
40935
40951
40940
40890
40914
40940
40944
40936
40940
40932
40948
40948
40910
40935
40951
40943
40940
40948
40942
40921
40938
40937
40934
40930
40940
40943
40940
40892
40945
40943
40942
40942
40952
40948
40945
40943
40926
40938
40943
40942
40943
40903
40935
40935
40953
40943
40916
40940
40939
40943
40943
40949
40934
40925
40958
40948
40942
40899
40948
40938
40935
40938
40956
40951
40930
40898
40951
40943
40948
40946
40916
40939
40943
40943
40954
40924
40945
40934
40933
40948
40943
40936
40884
40932
40940
40940
40951
40951
40887
40954
40946
40950
40948
40959
40947
40895
40940
40939
40940
40935
40933
40949
40943
40902
40943
40939
40932
40948
40878
40953
40935
40941
40956
40906
40951
40940
40950
40897
40939
40935
40922
40943
40940
40877
40930
40934
40948
40946
40920
40879
40943
40940
40940
40935
40951
40943
40942
40921
40882
40943
40924
40918
40938
40935
40876
40929
40941
40935
40924
40939
40943
40940
40942
40942
40922
40878
40927
40934
40942
40930
40917
40935
40932
40936
40939
40938
40907
40870
40932
40931
40932
40931
40943
40944
40940
40927
40927
40900
40891
40861
40919
40924
40924
40910
40932
40927
40912
40869
40922
40924
40930
40935
40933
40903
40935
40933
40927
40906
40922
40873
40931
40914
40919
40934
40899
40925
40933
40927
40930
40894
40935
40924
40917
40941
40870
40933
40933
40935
40930
40923
40922
40934
40924
40926
40923
40932
40928
40901
40932
40930
40927
40930
40935
40936
40935
40869
40929
40924
40923
40919
40901
40928
40929
40935
40879
40867
40924
40927
40917
40935
40935
40856
40927
40923
40895
40929
40852
40916
40916
40923
40903
40864
40918
40923
40914
40910
40915
40935
40934
40863
40924
40920
40927
40920
40935
40927
40914
40922
40912
40862
40919
40913
40911
40922
40917
40920
40918
40900
40922
40923
40916
40924
40919
40906
40924
40922
40863
40928
40919
40916
40918
40919
40920
40919
40879
40926
40913
40918
40911
40916
40927
40926
40910
40922
40925
40916
40923
40884
40927
40924
40921
40912
40867
40916
40910
40911
40921
40919
40922
40879
40927
40915
40909
40916
40914
40858
40915
40908
40914
40896
40908
40908
40901
40917
40927
40900
40912
40907
40919
40911
40921
40908
40911
40863
40922
40916
40904
40911
40911
40908
40923
40911
40909
40868
40846
40907
40906
40903
40900
40906
40916
40863
40847
40884
40916
40919
40909
40906
40905
40868
40914
40901
40895
40901
40902
40892
40868
40853
40908
40907
40907
40921
40888
40910
40911
40903
40901
40876
40905
40910
40900
40866
40910
40894
40910
40903
40913
40913
40907
40871
40904
40906
40900
40905
40882
40913
40879
40902
40903
40895
40895
40905
40902
40880
40885
40870
40902
40907
40903
40903
40911
40915
40843
40901
40898
40902
40908
40895
40879
40908
40900
40886
40900
40900
40902
40903
40906
40903
40885
40839
40898
40901
40906
40860
40902
40907
40908
40905
40852
40898
40901
40900
40900
40839
40900
40894
40894
40894
40908
40902
40862
40899
40899
40892
40887
40879
40847
40874
40871
40869
40869
40864
40863
40853
40849
40868
40862
40852
40879
40874
40883
40895
40898
40853
40910
40903
40907
40918
40909
40844
40906
40903
40907
40892
40916
40916
40900
40846
40914
40907
40902
40911
40918
40902
40895
40911
40892
40899
40887
40879
40892
40889
40892
40903
40885
40828
40894
40893
40895
40907
40900
40863
40887
40895
40899
40885
40887
40900
40899
40856
40830
40888
40890
40888
40887
40886
40894
40901
40892
40870
40839
40896
40895
40903
40905
40870
40823
40892
40901
40896
40887
40867
40894
40888
40884
40835
40900
40896
40888
40893
40887
40892
40895
40879
40839
40839
40892
40887
40884
40892
40888
40831
40886
40884
40887
40871
40894
40895
40852
40892
40892
40893
40903
40902
40898
40873
40847
40887
40893
40884
40895
40892
40863
40895
40884
40881
40897
40895
40890
40895
40883
40901
40889
40875
40897
40894
40894
40882
40892
40900
40850
40887
40884
40882
40869
40898
40876
40839
40885
40895
40889
40893
40895
40883
40871
40859
40903
40897
40892
40892
40895
40884
40886
40852
40836
40880
40886
40884
40885
40887
40895
40891
40900
40895
40887
40831
40885
40887
40882
40871
40887
40887
40892
40827
40889
40883
40879
40882
40903
40894
40892
40896
40885
40861
40847
40823
40855
40887
40882
40887
40879
40884
40877
40886
40884
40886
40890
40887
40871
40829
40889
40884
40880
40885
40881
40889
40887
40878
40879
40886
40894
40895
40887
40895
40879
40887
40863
40838
40892
40887
40879
40885
40877
40903
40895
40838
40891
40886
40895
40887
40892
40887
40886
40823
40886
40881
40882
40887
40899
40900
40879
40894
40884
40892
40876
40897
40899
40889
40830
40893
40884
40890
40885
40875
40879
40887
40871
40890
40887
40886
40856
40831
40891
40891
40884
40900
40889
40897
40869
40828
40878
40874
40879
40882
40879
40870
40895
40890
40895
40883
40839
40897
40889
40887
40884
40895
40899
40891
40860
40839
40881
40887
40876
40878
40892
40891
40818
40883
40887
40865
40891
40887
40839
40887
40884
40878
40898
40895
40871
40836
40884
40880
40872
40868
40876
40885
40879
40850
40852
40885
40873
40884
40886
40838
40895
40882
40892
40860
40849
40874
40876
40886
40823
40876
40868
40878
40880
40831
40868
40887
40882
40889
40887
40819
40885
40883
40884
40873
40876
40820
40873
40866
40877
40873
40870
40871
40871
40876
40860
40817
40871
40869
40884
40889
40818
40876
40881
40870
40875
40863
40880
40871
40812
40868
40867
40871
40879
40876
40812
40870
40870
40877
40885
40880
40830
40870
40879
40887
40884
40884
40825
40871
40863
40870
40880
40869
40839
40871
40862
40874
40876
40888
40878
40887
40831
40876
40876
40871
40870
40879
40839
40864
40871
40871
40867
40876
40859
40871
40876
40876
40876
40880
40872
40870
40877
40878
40855
40879
40814
40871
40868
40877
40868
40806
40871
40873
40870
40860
40874
40872
40804
40869
40871
40871
40862
40868
40819
40871
40865
40855
40868
40871
40863
40871
40862
40871
40831
40871
40855
40855
40875
40871
40871
40835
40828
40868
40866
40860
40860
40879
40863
40857
40806
40834
40869
40871
40854
40859
40871
40860
40876
40878
40852
40864
40863
40868
40839
40833
40870
40858
40875
40863
40834
40869
40860
40852
40863
40865
40871
40855
40804
40868
40871
40854
40871
40871
40823
40862
40871
40860
40861
40854
40860
40871
40860
40840
40801
40852
40862
40869
40860
40857
40863
40871
40871
40879
40866
40847
40820
40807
40864
40871
40855
40863
40868
40863
40847
40869
40873
40874
40867
40839
40863
40863
40882
40830
40871
40855
40867
40869
40860
40839
40823
40852
40852
40871
40868
40800
40867
40868
40866
40871
40846
40807
40858
40856
40855
40871
40863
40820
40797
40858
40857
40868
40863
40863
40866
40802
40861
40855
40839
40868
40847
40823
40871
40853
40866
40863
40871
40822
40807
40860
40858
40846
40852
40869
40863
40860
40863
40836
40807
40865
40863
40863
40839
40879
40860
40860
40863
40859
40854
40863
40840
40867
40863
40855
40799
40863
40860
40863
40871
40868
40804
40865
40860
40858
40876
40847
40863
40860
40852
40866
40844
40858
40855
40852
40868
40867
40815
40870
40863
40855
40839
40860
40870
40871
40833
40814
40860
40863
40860
40869
40870
40863
40841
40792
40856
40860
40855
40855
40871
40801
40858
40862
40856
40866
40868
40844
40794
40861
40863
40855
40863
40803
40857
40847
40870
40871
40868
40808
40860
40867
40860
40868
40855
40871
40822
40866
40853
40853
40863
40863
40836
40852
40839
40836
40839
40831
40828
40830
40839
40826
40833
40816
40810
40835
40831
40823
40831
40824
40838
40818
40847
40846
40854
40866
40865
40880
40876
40847
40807
40877
40879
40873
40877
40871
40887
40883
40831
40874
40863
40860
40853
40877
40879
40870
40834
40860
40866
40862
40847
40865
40871
40805
40862
40870
40860
40869
40866
40863
40871
40857
40795
40854
40859
40863
40860
40868
40866
40819
40860
40869
40868
40877
40871
40871
40806
40868
40860
40857
40868
40870
40858
40852
40853
40813
40807
40864
40863
40862
40863
40861
40873
40872
40868
40806
40860
40862
40853
40854
40863
40862
40810
40861
40846
40863
40860
40861
40814
40868
40868
40871
40874
40879
40879
40868
40877
40813
40802
40862
40860
40862
40854
40871
40865
40865
40836
40866
40857
40864
40872
40870
40868
40870
40820
40858
40863
40868
40849
40847
40871
40866
40807
40861
40858
40863
40860
40839
40868
40878
40838
40872
40868
40861
40873
40871
40869
40869
40858
40871
40871
40820
40863
40864
40864
40860
40828
40872
40870
40863
40800
40871
40861
40874
40876
40870
40821
40870
40859
40863
40852
40860
40865
40814
40871
40869
40866
40871
40884
40834
40868
40872
40858
40879
40884
40830
40879
40871
40873
40879
40883
40874
40870
40845
40874
40820
40864
40871
40863
40879
40876
40875
40870
40885
40879
40886
40818
40874
40868
40876
40868
40877
40870
40879
40816
40875
40868
40871
40866
40874
40868
40879
40895
40890
40847
40828
40871
40869
40868
40874
40862
40866
40887
40871
40879
40866
40868
40847
40871
40870
40875
40872
40886
40879
40862
40892
40865
40850
40861
40887
40857
40873
40884
40886
40884
40885
40884
40887
40891
40895
40890
40886
40887
40856
40855
40823
40855
40887
40882
40883
40881
40892
40886
40828
40879
40884
40887
40826
40889
40895
40886
40884
40888
40888
40861
40896
40899
40892
40898
40896
40895
40896
40897
40871
40860
40836
40828
40839
40875
40892
40889
40898
40887
40861
40839
40830
40831
40854
40895
40887
40887
40887
40878
40887
40884
40893
40902
40894
40830
40884
40877
40879
40895
40832
40898
40889
40891
40860
40892
40871
40809
40895
40874
40861
40887
40858
40889
40894
40868
40888
40858
40887
40893
40876
40903
40838
40888
40886
40895
40895
40886
40838
40890
40884
40891
40891
40871
40898
40900
40855
40831
40894
40898
40896
40892
40904
40894
40824
40892
40886
40898
40888
40889
40838
40820
40884
40882
40887
40885
40895
40906
40863
40898
40892
40886
40902
40898
40851
40888
40887
40886
40865
40895
40877
40871
40886
40894
40887
40894
40901
40886
40899
40903
40880
40903
40860
40900
40892
40901
40847
40897
40888
40897
40900
40831
40892
40892
40903
40896
40860
40903
40900
40901
40908
40890
40905
40903
40907
40902
40873
40854
40894
40899
40903
40901
40831
40887
40891
40906
40839
40901
40901
40910
40864
40908
40895
40900
40898
40885
40903
40836
40896
40900
40901
40892
40897
40892
40911
40846
40895
40895
40913
40839
40903
40909
40908
40900
40900
40887
40905
40851
40895
40903
40904
40901
40855
40900
40897
40905
40900
40908
40903
40898
40911
40904
40868
40904
40894
40911
40910
40846
40895
40906
40911
40906
40859
40907
40900
40876
40910
40871
40914
40906
40911
40918
40913
40868
40902
40909
40902
40887
40901
40855
40896
40903
40904
40900
40911
40911
40855
40905
40910
40900
40911
40913
40907
40903
40884
40909
40907
40908
40868
40895
40908
40907
40908
40906
40908
40910
40839
40903
40892
40919
40852
40911
40903
40921
40870
40904
40900
40905
40914
40904
40906
40901
40904
40908
40911
40856
40910
40903
40924
40855
40915
40910
40904
40921
40876
40907
40902
40914
40862
40898
40916
40871
40908
40910
40919
40884
40910
40884
40916
40912
40912
40920
40913
40916
40904
40887
40914
40855
40911
40919
40868
40909
40919
40869
40911
40855
40914
40868
40916
40932
40927
40916
40926
40928
40926
40860
40913
40916
40925
40921
40879
40900
40902
40923
40870
40922
40923
40922
40932
40863
40919
40910
40927
40868
40919
40908
40897
40924
40923
40855
40915
40903
40927
40918
40913
40892
40920
40869
40913
40918
40931
40911
40925
40918
40926
40912
40926
40860
40902
40852
40917
40914
40903
40926
40870
40916
40916
40927
40935
40915
40862
40918
40922
40935
40916
40924
40917
40912
40929
40921
40912
40912
40926
40916
40922
40916
40926
40935
40916
40926
40919
40920
40932
40860
40923
40924
40935
40893
40920
40920
40924
40879
40916
40912
40924
40926
40924
40927
40923
40927
40935
40879
40925
40925
40933
40931
40900
40927
40922
40918
40932
40871
40923
40921
40935
40932
40884
40929
40918
40916
40935
40879
40926
40928
40928
40942
40932
40934
40927
40922
40938
40930
40928
40923
40927
40935
40935
40879
40942
40932
40935
40943
40879
40933
40941
40934
40916
40922
40918
40892
40914
40873
40903
40900
40895
40902
40892
40894
40892
40890
40893
40885
40892
40899
40910
40917
40918
40907
40924
40895
40933
40929
40940
40948
40943
40938
40952
40948
40884
40946
40950
40943
40938
40937
40929
40951
40940
40863
40935
40926
40943
40915
40935
40932
40923
40948
40878
40940
40940
40951
40938
40882
40942
40932
40942
40948
40869
40935
40927
40943
40906
40933
40934
40942
40922
40909
40943
40937
40951
40951
40893
40940
40939
40943
40933
40943
40942
40943
40940
40914
40932
40940
40935
40932
40935
40934
40951
40950
40945
40922
40944
40934
40949
40955
40879
40934
40943
40948
40927
40904
40938
40932
40943
40940
40903
40927
40943
40943
40948
40955
40900
40948
40943
40942
40935
40942
40943
40943
40887
40932
40930
40943
40935
40942
40943
40937
40942
40949
40892
40943
40932
40940
40935
40943
40936
40885
40937
40935
40927
40930
40933
40888
40938
40935
40936
40936
40908
40948
40946
40902
40951
40947
40959
40951
40902
40934
40934
40912
40940
40903
40932
40939
40944
40935
40940
40932
40943
40948
40949
40895
40947
40945
40938
40935
40950
40943
40881
40933
40935
40940
40949
40884
40934
40932
40933
40943
40935
40946
40938
40935
40954
40895
40946
40937
40951
40939
40935
40928
40940
40939
40881
40932
40924
40943
40887
40941
40932
40946
40950
40951
40892
40948
40951
40940
40952
40943
40940
40950
40943
40928
40938
40938
40943
40937
40947
40943
40940
40890
40951
40935
40956
40948
40950
40949
40957
40879
40943
40946
40949
40950
40897
40937
40934
40947
40929
40943
40948
40946
40953
40948
40915
40918
40949
40943
40943
40954
40951
40899
40942
40934
40942
40949
40922
40948
40939
40954
40892
40948
40943
40964
40935
40905
40955
40951
40967
40958
40948
40890
40951
40945
40933
40953
40919
40952
40948
40967
40967
40915
40951
40954
40967
40958
40966
40956
40964
40951
40906
40955
40948
40954
40952
40892
40948
40945
40967
40951
40923
40910
40946
40951
40967
40950
40959
40952
40961
40903
40956
40948
40951
40889
40951
40938
40929
40956
40900
40940
40942
40957
40954
40936
40959
40959
40964
40926
40951
40953
40920
40959
40950
40954
40960
40961
40935
40951
40926
40959
40954
40951
40964
40916
40958
40961
40959
40951
40967
40930
40953
40942
40943
40958
40886
40958
40949
40956
40902
40956
40949
40962
40965
40914
40958
40959
40951
40948
40952
40958
40884
40950
40944
40949
40956
40952
40924
40959
40951
40940
40951
40967
40964
40898
40957
40953
40943
40959
40959
40959
40957
40951
40953
40913
40958
40943
40946
40961
40898
40956
40963
40928
40959
40951
40964
40967
40964
40956
40967
40935
40958
40948
40967
40949
40929
40948
40959
40964
40908
40964
40954
40958
40967
40961
40902
40964
40955
40951
40956
40895
40948
40958
40895
40951
40943
40940
40966
40904
40956
40949
40956
40960
40965
40911
40962
40962
40965
40934
40957
40958
40956
40962
40956
40910
40959
40958
40964
40935
40967
40949
40943
40967
40900
40967
40948
40967
40965
40964
40901
40956
40946
40966
40941
40952
40951
40966
40933
40950
40956
40967
40912
40955
40967
40917
40962
40956
40966
40955
40959
40950
40959
40956
40953
40894
40954
40956
40960
40967
40959
40964
40946
40956
40966
40962
40967
40906
40962
40964
40966
40906
40960
40940
40967
40949
40943
40966
40961
40942
40952
40950
40967
40947
40956
40967
40939
40961
40959
40953
40960
40902
40952
40951
40964
40967
40910
40956
40963
40959
40964
40965
40967
40967
40945
40967
40965
40960
40967
40964
40954
40964
40938
40953
40952
40948
40967
40963
40960
40959
40946
40966
40911
40965
40958
40936
40967
40958
40926
40961
40956
40950
40964
40964
40908
40958
40956
40928
40966
40967
40960
40934
40923
40932
40909
40963
40967
40956
40964
40964
40964
40958
40916
40967
40967
40958
40956
40965
40959
40958
40965
40966
40964
40935
40967
40967
40967
40964
40967
40966
40958
40943
40950
40956
40956
40965
40956
40902
40949
40953
40963
40964
40928
40948
40954
40959
40967
40967
40967
40962
40959
40963
40964
40898
40952
40963
40959
40895
40951
40944
40960
40927
40956
40957
40956
40959
40927
40959
40959
40964
40901
40956
40951
40956
40962
40903
40948
40949
40964
40959
40956
40952
40924
40962
40901
40961
40966
40964
40966
40926
40960
40955
40956
40956
40952
40895
40950
40951
40950
40936
40961
40932
40948
40956
40958
40961
40967
40948
40909
40948
40951
40951
40938
40957
40952
40919
40902
40952
40949
40950
40949
40964
40962
40935
40966
40960
40953
40962
40966
40950
40960
40962
40895
40952
40951
40951
40962
40957
40924
40949
40944
40965
40946
40964
40956
40963
40964
40898
40955
40942
40930
40959
40937
40893
40954
40959
40942
40950
40935
40962
40911
40948
40956
40967
40966
40945
40960
40956
40945
40964
40903
40953
40948
40948
40942
40933
40935
40912
40930
40893
40920
40919
40919
40913
40898
40916
40911
40910
40910
40919
40906
40930
40926
40931
40950
40943
40946
40912
40963
40955
40954
40957
40964
40888
40962
40966
40941
40967
40967
40887
40959
40955
40967
40962
40906
40946
40946
40949
40958
40949
40924
40951
40955
40946
40967
40966
40935
40956
40956
40954
40936
40958
40922
40954
40948
40950
40961
40950
40884
40951
40948
40935
40958
40956
40951
40953
40919
40959
40950
40964
40943
40940
40949
40956
40956
40948
40923
40954
40951
40948
40945
40950
40932
40956
40957
40967
40967
40919
40916
40956
40951
40959
40956
40894
40948
40950
40963
40950
40934
40952
40948
40942
40962
40960
40894
40967
40959
40951
40948
40962
40930
40887
40959
40949
40943
40936
40951
40951
40949
40886
40951
40943
40949
40958
40942
40959
40955
40935
40963
40950
40890
40953
40943
40957
40953
40899
40948
40946
40948
40962
40951
40967
40949
40938
40957
40948
40954
40948
40943
40952
40957
40948
40935
40903
40897
40884
40940
40940
40943
40956
40956
40933
40924
40949
40943
40942
40959
40960
40958
40920
40889
40952
40954
40951
40938
40943
40951
40952
40922
40893
40950
40953
40952
40947
40966
40956
40951
40891
40951
40946
40948
40956
40892
40948
40946
40956
40957
40945
40880
40954
40943
40943
40939
40962
40964
40958
40916
40959
40948
40949
40943
40942
40948
40948
40951
40911
40949
40937
40938
40942
40933
40964
40964
40946
40956
40944
40949
40948
40963
40953
40927
40901
40950
40941
40935
40956
40954
40902
40952
40949
40950
40957
40954
40904
40930
40950
40954
40950
40951
40950
40953
40918
40951
40947
40949
40959
40960
40912
40959
40948
40948
40943
40963
40909
40956
40959
40960
40964
40891
40954
40951
40948
40959
40965
40903
40950
40948
40928
40956
40946
40887
40953
40958
40950
40956
40900
40953
40966
40948
40943
40948
40962
40942
40887
40946
40943
40950
40958
40951
40893
40951
40951
40948
40959
40959
40902
40958
40950
40962
40962
40948
40887
40942
40936
40936
40943
40962
40946
40948
40887
40951
40938
40940
40965
40934
40954
40949
40948
40937
40948
40953
40927
40876
40940
40938
40934
40945
40943
40948
40949
40906
40924
40936
40941
40948
40953
40951
40932
40883
40946
40940
40942
40951
40937
40879
40940
40933
40926
40927
40938
40940
40934
40879
40950
40943
40941
40936
40951
40937
40922
40928
40937
40930
40930
40932
40938
40935
40879
40928
40933
40934
40942
40938
40887
40940
40935
40938
40919
40948
40918
40939
40932
40916
40935
40883
40926
40927
40927
40943
40892
40935
40930
40922
40948
40911
40932
40929
40951
40927
40935
40931
40937
40931
40938
40927
40926
40939
40917
40924
40918
40908
40943
40920
40877
40940
40932
40932
40900
40943
40931
40871
40930
40924
40927
40930
40934
40868
40927
40927
40924
40924
40935
40935
40903
40916
40927
40939
40929
40927
40927
40916
40924
40916
40928
40928
40917
40908
40914
40932
40933
40869
40927
40930
40920
40927
40922
40926
40919
40911
40922
40926
40852
40920
40916
40900
40918
40879
40919
40913
40918
40919
40911
40863
40919
40925
40924
40935
40930
40920
40901
40927
40922
40904
40914
40917
40916
40926
40922
40883
40919
40913
40919
40919
40912
40895
40924
40923
40922
40911
40922
40920
40916
40906
40925
40916
40923
40862
40917
40914
40920
40863
40919
40914
40924
40922
40920
40871
40919
40904
40918
40911
40916
40922
40901
40849
40900
40879
40914
40916
40847
40912
40911
40906
40923
40916
40866
40909
40909
40884
40919
40875
40914
40910
40903
40916
40905
40906
40900
40912
40919
40847
40918
40901
40900
40914
40855
40908
40911
40916
40911
40847
40908
40906
40916
40910
40919
40831
40907
40902
40903
40885
40919
40885
40907
40911
40900
40919
40871
40900
40900
40915
40905
40839
40903
40895
40878
40900
40858
40892
40903
40891
40910
40903
40839
40905
40903
40912
40918
40892
40908
40907
40917
40903
40853
40902
40900
40871
40919
40862
40896
40901
40914
40904
40847
40903
40906
40908
40907
40845
40909
40897
40903
40899
40886
40842
40903
40895
40887
40902
40906
40848
40900
40896
40904
40903
40846
40897
40897
40920
40903
40884
40898
40892
40879
40903
40878
40885
40892
40867
40898
40857
40898
40901
40893
40914
40854
40903
40903
40903
40900
40893
40895
40900
40903
40868
40898
40893
40889
40903
40894
40884
40892
40894
40892
40878
40906
40894
40852
40843
40902
40892
40903
40902
40902
40900
40826
40903
40900
40911
40858
40903
40901
40895
40893
40899
40910
40908
40887
40903
40890
40895
40884
40890
40879
40876
40875
40869
40852
40865
40870
40858
40839
40860
40860
40855
40862
40870
40878
40869
40865
40855
40887
40890
40887
40900
40895
40900
40900
40899
40910
40882
40902
40903
40903
40879
40910
40903
40834
40908
40904
40900
40900
40890
40827
40890
40886
40892
40903
40846
40887
40903
40858
40898
40887
40901
40903
40876
40855
40893
40901
40872
40903
40869
40839
40890
40893
40886
40896
40895
40820
40886
40892
40873
40892
40883
40865
40899
40884
40879
40901
40900
40887
40846
40861
40886
40882
40881
40877
40893
40905
40888
40872
40820
40884
40884
40899
40890
40898
40876
40886
40884
40881
40881
40885
40856
40879
40879
40884
40891
40855
40886
40871
40890
40861
40884
40879
40895
40894
40849
40886
40885
40890
40844
40883
40879
40885
40879
40823
40883
40874
40884
40829
40882
40879
40892
40887
40887
40884
40867
40837
40874
40881
40886
40877
40887
40885
40836
40877
40873
40871
40884
40871
40884
40878
40883
40897
40886
40870
40874
40876
40891
40849
40872
40870
40871
40881
40836
40877
40869
40863
40881
40887
40816
40869
40876
40899
40876
40831
40878
40870
40884
40875
40886
40871
40855
40880
40877
40870
40830
40874
40863
40852
40883
40847
40885
40874
40884
40844
40874
40878
40884
40878
40823
40876
40871
40868
40877
40869
40863
40871
40871
40868
40869
40871
40874
40877
40832
40875
40871
40869
40879
40868
40816
40871
40861
40868
40869
40869
40829
40871
40875
40869
40874
40879
40822
40871
40870
40879
40839
40878
40869
40868
40879
40814
40863
40863
40852
40869
40807
40865
40863
40870
40872
40877
40867
40871
40851
40874
40823
40871
40868
40875
40838
40866
40863
40871
40863
40868
40862
40868
40874
40877
40871
40876
40891
40879
40820
40874
40879
40878
40884
40879
40814
40868
40870
40877
40839
40801
40869
40866
40870
40878
40876
40810
40882
40871
40874
40838
40876
40812
40876
40878
40850
40879
40873
40869
40868
40874
40874
40852
40860
40849
40879
40839
40879
40871
40879
40871
40852
40871
40868
40876
40831
40875
40852
40838
40876
40855
40799
40868
40868
40844
40865
40861
40861
40869
40877
40824
40870
40865
40868
40857
40860
40867
40855
40878
40864
40800
40860
40860
40852
40870
40815
40868
40871
40867
40876
40875
40820
40868
40860
40858
40865
40868
40860
40794
40863
40857
40863
40871
40864
40798
40865
40863
40853
40871
40855
40863
40858
40878
40866
40803
40852
40859
40863
40825
40855
40848
40839
40860
40788
40861
40854
40855
40798
40855
40860
40871
40827
40865
40850
40862
40851
40851
40852
40855
40839
40850
40848
40860
40855
40795
40849
40846
40862
40807
40863
40855
40849
40863
40794
40860
40833
40855
40796
40843
40851
40846
40847
40852
40855
40785
40845
40863
40839
40852
40863
40852
40861
40836
40808
40858
40838
40854
40850
40797
40847
40844
40847
40855
40785
40854
40847
40858
40806
40856
40854
40857
40815
40847
40852
40845
40834
40847
40844
40839
40850
40855
40831
40781
40846
40839
40839
40846
40839
40854
40854
40793
40846
40839
40854
40847
40854
40787
40795
40836
40839
40838
40839
40778
40836
40832
40857
40849
40783
40844
40835
40855
40841
40839
40790
40839
40839
40831
40842
40835
40778
40828
40823
40839
40839
40780
40837
40831
40839
40812
40844
40839
40788
40838
40832
40830
40839
40826
40825
40824
40821
40834
40832
40806
40801
40831
40839
40833
40823
40839
40791
40839
40836
40831
40838
40799
40824
40828
40831
40828
40834
40831
40802
40837
40829
40828
40821
40838
40836
40786
40831
40836
40836
40832
40831
40826
40836
40804
40791
40820
40823
40814
40835
40791
40828
40817
40814
40835
40837
40771
40837
40839
40836
40839
40772
40823
40815
40815
40834
40777
40826
40815
40812
40823
40794
40831
40830
40829
40839
40836
40806
40822
40820
40830
40771
40821
40813
40824
40760
40814
40810
40798
40829
40765
40820
40821
40831
40820
40826
40831
40825
40827
40830
40768
40821
40823
40825
40815
40759
40823
40809
40807
40806
40821
40820
40768
40814
40817
40821
40830
40822
40826
40774
40773
40823
40815
40815
40804
40822
40812
40759
40814
40797
40829
40820
40762
40815
40817
40815
40829
40828
40815
40807
40815
40815
40798
40815
40812
40788
40743
40807
40810
40807
40801
40794
40809
40823
40771
40821
40812
40818
40807
40822
40818
40803
40767
40807
40802
40798
40815
40747
40801
40799
40807
40805
40740
40807
40808
40817
40818
40815
40820
40794
40822
40788
40765
40813
40804
40775
40807
40780
40807
40807
40800
40810
40775
40802
40789
40793
40804
40806
40757
40791
40784
40768
40768
40772
40767
40772
40757
40782
40775
40772
40783
40788
40766
40805
40796
40820
40816
40756
40817
40816
40809
40820
40821
40759
40807
40812
40806
40807
40820
40820
40775
40797
40810
40798
40796
40823
40748
40815
40809
40820
40812
40730
40805
40796
40798
40788
40804
40806
40789
40736
40798
40799
40797
40798
40802
40807
40791
40803
40799
40794
40782
40804
40739
40804
40796
40791
40805
40782
40802
40784
40796
40783
40809
40802
40794
40806
40799
40807
40791
40810
40809
40772
40799
40795
40787
40795
40775
40799
40782
40767
40798
40736
40790
40795
40805
40779
40798
40791
40791
40807
40739
40797
40789
40802
40798
40790
40789
40796
40785
40791
40789
40786
40799
40743
40791
40791
40802
40806
40735
40797
40795
40798
40790
40799
40796
40748
40788
40794
40777
40790
40785
40786
40795
40796
40742
40790
40791
40783
40796
40733
40788
40781
40794
40743
40781
40791
40783
40789
40768
40766
40791
40781
40797
40803
40781
40743
40791
40796
40796
40791
40788
40731
40787
40785
40791
40788
40791
40780
40781
40799
40749
40788
40788
40798
40801
40736
40791
40782
40782
40805
40796
40796
40791
40788
40799
40792
40781
40733
40788
40778
40787
40779
40789
40792
40783
40784
40790
40796
40791
40750
40734
40754
40788
40782
40783
40795
40790
40775
40731
40780
40775
40780
40789
40760
40789
40791
40783
40791
40780
40800
40791
40751
40799
40779
40781
40789
40783
40781
40772
40786
40776
40789
40799
40788
40783
40787
40784
40806
40805
40745
40791
40785
40798
40788
40727
40788
40778
40772
40796
40732
40785
40786
40782
40807
40806
40797
40734
40791
40794
40782
40762
40806
40797
40783
40743
40788
40782
40782
40788
40788
40789
40781
40802
40744
40798
40788
40791
40804
40801
40752
40798
40791
40793
40803
40773
40783
40789
40788
40791
40807
40791
40727
40794
40782
40776
40796
40751
40799
40799
40796
40775
40802
40742
40788
40791
40798
40775
40789
40793
40797
40789
40799
40748
40762
40796
40791
40796
40798
40799
40767
40791
40793
40798
40801
40729
40788
40792
40790
40792
40792
40724
40788
40795
40791
40796
40790
40796
40759
40731
40796
40790
40788
40789
40798
40793
40738
40780
40772
40778
40793
40791
40728
40780
40794
40799
40799
40791
40791
40789
40788
40792
40749
40788
40782
40780
40791
40780
40730
40791
40780
40782
40781
40773
40796
40788
40756
40784
40791
40788
40780
40796
40788
40724
40791
40786
40788
40783
40726
40783
40783
40775
40783
40796
40790
40788
40788
40743
40747
40791
40791
40776
40789
40749
40775
40788
40764
40780
40789
40724
40775
40785
40724
40788
40778
40775
40795
40751
40785
40781
40788
40789
40795
40770
40729
40779
40778
40775
40791
40764
40719
40777
40780
40780
40788
40786
40733
40784
40781
40788
40794
40718
40782
40775
40780
40785
40771
40775
40778
40777
40783
40772
40721
40774
40772
40774
40790
40791
40789
40786
40762
40777
40718
40780
40775
40780
40783
40786
40748
40786
40775
40771
40758
40780
40788
40775
40716
40783
40780
40793
40786
40781
40756
40741
40725
40780
40775
40774
40770
40784
40787
40782
40716
40774
40777
40782
40772
40777
40788
40785
40763
40782
40777
40776
40786
40742
40778
40770
40780
40783
40751
40783
40772
40772
40758
40780
40783
40743
40733
40787
40775
40782
40783
40768
40780
40783
40780
40764
40732
40775
40780
40768
40769
40774
40771
40763
40780
40783
40734
40756
40778
40782
40776
40788
40780
40774
40750
40732
40768
40772
40770
40770
40767
40750
40780
40786
40791
40756
40726
40745
40780
40777
40775
40768
40759
40775
40775
40778
40739
40770
40774
40775
40762
40785
40778
40719
40786
40767
40775
40790
40789
40783
40737
40781
40770
40750
40775
40775
40766
40751
40718
40777
40775
40775
40758
40782
40770
40717
40778
40772
40783
40781
40780
40764
40781
40767
40780
40766
40777
40769
40764
40775
40766
40751
40775
40775
40770
40780
40780
40759
40738
40766
40774
40759
40775
40711
40769
40765
40749
40775
40764
40728
40767
40775
40787
40787
40735
40783
40772
40778
40786
40789
40732
40772
40768
40770
40778
40709
40767
40758
40754
40775
40772
40772
40775
40760
40768
40767
40780
40783
40719
40773
40772
40768
40775
40772
40757
40708
40774
40772
40764
40762
40775
40774
40774
40768
40771
40779
40711
40777
40770
40743
40785
40769
40766
40770
40768
40772
40772
40727
40767
40767
40772
40778
40764
40711
40759
40774
40772
40775
40774
40780
40782
40736
40777
40774
40768
40781
40775
40732
40775
40768
40767
40743
40782
40782
40775
40743
40738
40782
40775
40771
40786
40786
40726
40772
40764
40766
40764
40768
40759
40756
40765
40748
40750
40748
40727
40738
40740
40740
40735
40716
40736
40726
40727
40727
40723
40729
40735
40732
40751
40765
40738
40772
40772
40772
40786
40748
40781
40780
40783
40781
40788
40796
40781
40745
40724
40790
40770
40770
40783
40752
40766
40773
40778
40771
40791
40783
40751
40710
40778
40773
40775
40780
40724
40775
40771
40771
40772
40775
40767
40705
40779
40767
40767
40779
40789
40782
40782
40719
40784
40774
40767
40781
40759
40775
40772
40766
40783
40735
40775
40770
40762
40775
40732
40769
40771
40782
40720
40776
40766
40764
40744
40780
40776
40770
40772
40711
40722
40769
40767
40765
40769
40753
40774
40775
40762
40708
40775
40772
40774
40782
40780
40711
40774
40764
40767
40757
40762
40756
40772
40780
40777
40753
40735
40719
40759
40777
40778
40775
40772
40772
40773
40780
40771
40766
40748
40711
40767
40770
40758
40771
40764
40775
40759
40709
40766
40780
40767
40764
40767
40735
40774
40764
40766
40748
40771
40759
40701
40771
40752
40742
40769
40711
40764
40766
40767
40781
40777
40708
40771
40771
40771
40769
40756
40754
40764
40766
40743
40764
40772
40758
40766
40765
40754
40773
40780
40758
40775
40759
40767
40772
40729
40769
40756
40760
40772
40705
40764
40766
40763
40772
40766
40762
40757
40772
40764
40777
40766
40735
40711
40766
40759
40772
40756
40772
40766
40759
40756
40762
40743
40765
40698
40710
40729
40711
40725
40711
40711
40711
40726
40711
40711
40711
40763
40756
40761
40754
40759
40754
40758
40756
40758
40757
40767
40767
40777
40770
40774
40775
40771
40750
40733
40719
40768
40767
40764
40761
40770
40764
40757
40766
40773
40772
40772
40783
40780
40775
40770
40759
40761
40767
40771
40775
40762
40769
40775
40764
40767
40767
40766
40711
40711
40767
40766
40769
40772
40787
40754
40719
40738
40778
40775
40777
40767
40774
40771
40775
40743
40738
40764
40767
40768
40774
40758
40772
40779
40711
40768
40775
40774
40771
40771
40768
40767
40780
40772
40762
40735
40767
40761
40772
40771
40733
40775
40764
40787
40708
40775
40769
40767
40778
40780
40730
40762
40765
40756
40768
40711
40765
40761
40778
40774
40771
40770
40748
40775
40736
40772
40762
40775
40763
40711
40768
40764
40753
40775
40775
40770
40693
40765
40758
40765
40774
40772
40775
40733
40773
40762
40769
40774
40746
40772
40759
40763
40768
40766
40751
40711
40762
40759
40766
40770
40775
40775
40777
40769
40708
40772
40764
40768
40772
40769
40748
40765
40756
40756
40772
40765
40711
40760
40763
40754
40757
40764
40763
40775
40775
40766
40754
40773
40772
40761
40767
40769
40771
40746
40756
40761
40762
40753
40767
40740
40756
40765
40764
40767
40783
40751
40726
40759
40770
40766
40766
40764
40759
40731
40760
40756
40756
40757
40767
40775
40718
40760
40764
40761
40763
40751
40772
40782
40746
40767
40760
40755
40774
40771
40711
40753
40765
40759
40752
40756
40766
40775
40765
40775
40772
40763
40732
40711
40767
40767
40758
40756
40772
40762
40711
40753
40759
40751
40765
40772
40775
40771
40711
40774
40772
40751
40770
40724
40766
40762
40774
40767
40767
40766
40756
40770
40765
40740
40717
40757
40759
40767
40771
40782
40772
40764
40711
40766
40759
40767
40768
40766
40694
40756
40751
40753
40764
40764
40705
40758
40764
40763
40757
40764
40774
40719
40773
40758
40740
40774
40761
40761
40730
40768
40758
40740
40775
40773
40743
40761
40752
40762
40766
40701
40760
40756
40772
40775
40772
40732
40763
40759
40771
40767
40704
40752
40759
40758
40745
40768
40733
40764
40765
40775
40764
40772
40771
40780
40767
40716
40775
40764
40751
40764
40764
40715
40704
40765
40756
40735
40771
40769
40765
40761
40758
40764
40718
40756
40759
40772
40772
40711
40764
40751
40755
40771
40762
40762
40759
40735
40711
40709
40724
40773
40766
40761
40767
40765
40764
40767
40759
40702
40753
40742
40740
40738
40741
40751
40709
40739
40747
40742
40743
40739
40762
40759
40749
40742
40706
40751
40743
40758
40750
40697
40742
40747
40742
40740
40757
40760
40767
40756
40703
40759
40759
40767
40756
40706
40759
40758
40748
40757
40751
40707
40754
40746
40749
40751
40764
40757
40759
40761
40765
40762
40702
40764
40757
40750
40764
40770
40748
40700
40760
40751
40758
40760
40738
40725
40759
40751
40756
40733
40766
40760
40770
40764
40743
40703
40725
40761
40759
40754
40751
40748
40767
40759
40711
40763
40751
40751
40751
40765
40773
40709
40756
40762
40766
40767
40765
40756
40755
40766
40760
40764
40692
40764
40754
40769
40765
40699
40751
40750
40761
40735
40750
40754
40753
40766
40758
40723
40758
40756
40750
40757
40757
40692
40759
40759
40753
40764
40762
40764
40703
40759
40758
40760
40748
40771
40758
40765
40759
40750
40764
40750
40701
40750
40748
40749
40732
40760
40742
40759
40757
40737
40769
40759
40724
40711
40756
40765
40750
40754
40762
40763
40695
40751
40747
40759
40764
40729
40689
40751
40748
40759
40766
40746
40764
40768
40753
40695
40757
40754
40752
40766
40761
40750
40689
40752
40751
40748
40767
40765
40727
40759
40747
40764
40696
40762
40757
40761
40761
40710
40745
40753
40760
40762
40686
40765
40758
40767
40701
40759
40749
40767
40751
40727
40770
40757
40756
40767
40711
40751
40751
40756
40696
40747
40740
40742
40727
40716
40728
40731
40711
40716
40721
40703
40711
40711
40711
40721
40722
40724
40706
40736
40736
40740
40744
40759
40767
40767
40751
40720
40767
40764
40767
40764
40780
40780
40705
40766
40761
40757
40773
40751
40728
40745
40759
40762
40756
40735
40759
40756
40767
40770
40719
40767
40762
40751
40762
40717
40760
40745
40754
40682
40758
40744
40751
40764
40725
40746
40759
40774
40767
40702
40759
40762
40762
40760
40750
40693
40759
40756
40753
40760
40763
40711
40759
40751
40751
40763
40719
40767
40751
40760
40764
40761
40764
40767
40727
40762
40757
40769
40760
40708
40758
40756
40745
40759
40762
40692
40764
40752
40756
40767
40767
40756
40702
40763
40754
40753
40762
40760
40754
40750
40719
40711
40751
40745
40745
40759
40761
40755
40756
40748
40762
40759
40704
40759
40758
40759
40759
40751
40733
40720
40749
40728
40753
40755
40751
40739
40759
40757
40747
40702
40767
40765
40738
40767
40767
40711
40695
40750
40757
40753
40740
40750
40753
40756
40749
40739
40759
40751
40748
40756
40764
40700
40750
40748
40759
40766
40748
40695
40756
40743
40743
40751
40750
40685
40753
40743
40743
40751
40711
40751
40740
40748
40758
40756
40692
40753
40751
40744
40757
40698
40745
40746
40756
40692
40749
40740
40748
40721
40756
40746
40746
40767
40750
40692
40759
40748
40749
40751
40751
40743
40751
40692
40743
40751
40742
40742
40748
40756
40756
40695
40751
40757
40749
40760
40743
40748
40748
40746
40746
40694
40745
40742
40743
40751
40743
40743
40738
40759
40706
40751
40754
40749
40758
40763
40759
40703
40751
40748
40749
40759
40751
40739
40695
40751
40741
40749
40746
40762
40761
40764
40746
40701
40751
40748
40754
40741
40769
40755
40761
40692
40743
40744
40747
40732
40759
40757
40693
40750
40756
40743
40769
40740
40764
40757
40763
40763
40702
40759
40752
40754
40759
40758
40714
40750
40748
40739
40756
40758
40698
40754
40743
40742
40758
40764
40734
40693
40749
40755
40754
40754
40757
40756
40737
40687
40752
40753
40746
40743
40759
40752
40748
40679
40758
40763
40742
40758
40751
40691
40745
40749
40750
40740
40749
40753
40694
40746
40754
40750
40763
40752
40695
40754
40754
40756
40738
40753
40751
40743
40744
40757
40695
40748
40743
40757
40718
40702
40745
40743
40746
40759
40753
40709
40754
40755
40742
40722
40756
40687
40750
40751
40747
40749
40695
40746
40746
40734
40719
40753
40718
40692
40740
40746
40742
40760
40748
40708
40748
40741
40740
40711
40748
40751
40668
40740
40742
40743
40751
40744
40716
40747
40737
40757
40724
40751
40744
40750
40737
40735
40752
40724
40679
40743
40743
40741
40730
40746
40740
40743
40756
40687
40743
40729
40755
40684
40742
40743
40748
40695
40740
40736
40750
40698
40737
40739
40744
40753
40682
40743
40750
40737
40748
40748
40706
40750
40744
40749
40747
40720
40735
40746
40740
40686
40734
40734
40724
40735
40747
40747
40743
40742
40708
40694
40746
40738
40740
40739
40742
40742
40746
40701
40736
40733
40737
40711
40736
40744
40727
40743
40741
40751
40751
40748
40687
40742
40738
40732
40751
40743
40681
40743
40735
40722
40740
40739
40742
40730
40741
40743
40741
40735
40742
40700
40748
40740
40740
40747
40722
40735
40733
40735
40727
40735
40741
40740
40670
40732
40730
40725
40742
40741
40741
40711
40743
40711
40726
40711
40746
40737
40678
40735
40720
40731
40736
40670
40741
40727
40742
40686
40734
40725
40743
40739
40743
40735
40730
40719
40732
40734
40687
40702
40724
40711
40732
40703
40739
40725
40739
40727
40700
40735
40727
40730
40751
40730
40686
40735
40730
40740
40710
40690
40726
40727
40724
40732
40730
40671
40739
40730
40735
40733
40741
40733
40700
40671
40727
40728
40728
40721
40732
40734
40679
40699
40741
40732
40726
40727
40740
40740
40693
40733
40724
40727
40731
40740
40746
40709
40735
40725
40721
40740
40734
40691
40691
40729
40742
40726
40740
40735
40711
40727
40729
40729
40738
40740
40740
40674
40719
40727
40727
40727
40724
40673
40717
40721
40729
40711
40724
40724
40711
40729
40668
40728
40735
40734
40738
40697
40722
40725
40719
40735
40724
40669
40721
40711
40725
40685
40726
40711
40728
40732
40668
40733
40710
40674
40727
40711
40724
40727
40726
40711
40721
40711
40730
40663
40711
40724
40730
40735
40671
40726
40722
40721
40734
40702
40734
40729
40716
40734
40700
40734
40727
40726
40675
40727
40720
40735
40734
40731
40729
40732
40709
40735
40732
40740
40727
40687
40720
40718
40726
40710
40732
40711
40721
40726
40724
40711
40734
40731
40700
40734
40724
40725
40735
40675
40732
40727
40734
40727
40676
40717
40723
40726
40673
40718
40711
40730
40684
40727
40728
40719
40734
40696
40723
40726
40711
40727
40720
40719
40732
40711
40711
40708
40726
40711
40675
40724
40711
40737
40669
40740
40732
40734
40695
40735
40724
40735
40739
40691
40735
40720
40725
40735
40729
40670
40711
40707
40703
40708
40708
40681
40703
40693
40694
40695
40678
40694
40687
40687
40687
40685
40699
40692
40708
40716
40716
40727
40727
40710
40705
40737
40741
40744
40743
40751
40751
40692
40740
40738
40743
40668
40732
40739
40740
40734
40735
40719
40673
40735
40735
40735
40742
40743
40697
40708
40738
40726
40737
40735
40679
40727
40728
40721
40729
40727
40684
40711
40732
40724
40728
40740
40719
40740
40750
40735
40741
40677
40693
40726
40730
40722
40732
40735
40734
40726
40700
40678
40725
40729
40725
40740
40743
40750
40679
40738
40732
40735
40738
40737
40676
40731
40732
40724
40722
40711
40732
40741
40710
40686
40743
40731
40724
40738
40740
40694
40670
40734
40722
40730
40736
40743
40734
40734
40731
40704
40738
40730
40730
40711
40741
40748
40671
40740
40732
40735
40728
40730
40743
40740
40732
40676
40733
40733
40711
40727
40719
40668
40711
40732
40725
40728
40732
40734
40738
40732
40706
40740
40735
40736
40682
40741
40726
40727
40698
40738
40737
40687
40735
40733
40740
40742
40711
40717
40730
40731
40731
40720
40736
40740
40724
40668
40735
40729
40726
40738
40732
40729
40733
40733
40732
40727
40711
40676
40724
40736
40737
40695
40739
40731
40723
40740
40670
40729
40732
40731
40727
40735
40732
40727
40731
40728
40734
40695
40738
40733
40739
40740
40669
40727
40731
40728
40731
40700
40732
40730
40724
40737
40716
40733
40724
40735
40719
40732
40742
40703
40741
40732
40723
40741
40734
40742
40695
40693
40735
40722
40724
40710
40735
40742
40727
40684
40734
40733
40728
40727
40741
40734
40679
40725
40722
40726
40734
40743
40739
40684
40732
40727
40727
40733
40731
40748
40747
40737
40722
40740
40735
40730
40743
40734
40688
40733
40727
40743
40694
40719
40734
40740
40740
40689
40736
40742
40743
40751
40748
40687
40743
40738
40734
40738
40742
40700
40734
40724
40727
40740
40740
40731
40732
40711
40695
40679
40673
40682
40679
40687
40669
40738
40746
40732
40733
40732
40735
40738
40727
40737
40730
40732
40738
40736
40739
40745
40747
40743
40747
40751
40740
40728
40735
40743
40738
40722
40731
40731
40727
40732
40731
40729
40727
40732
40735
40746
40742
40751
40750
40742
40738
40726
40679
40677
40669
40728
40732
40731
40733
40730
40726
40718
40743
40742
40739
40740
40745
40740
40749
40748
40742
40751
40734
40736
40732
40684
40725
40727
40724
40731
40739
40737
40720
40678
40734
40738
40742
40740
40732
40735
40734
40741
40743
40734
40742
40735
40735
40724
40692
40678
40663
40734
40733
40727
40736
40740
40730
40728
40733
40732
40738
40735
40746
40738
40728
40732
40732
40726
40722
40687
40671
40735
40732
40734
40731
40732
40734
40735
40735
40732
40711
40743
40746
40740
40732
40740
40740
40741
40735
40737
40735
40719
40693
40684
40695
40676
40669
40677
40681
40669
40674
40735
40724
40726
40721
40723
40702
40738
40729
40720
40735
40722
40667
40746
40729
40678
40711
40733
40742
40738
40734
40728
40679
40733
40726
40728
40714
40674
40695
40711
40724
40720
40671
40737
40735
40733
40732
40671
40711
40733
40733
40727
40725
40724
40703
40718
40727
40724
40727
40663
40732
40738
40735
40732
40673
40734
40742
40724
40724
40671
40724
40724
40727
40727
40735
40730
40726
40727
40724
40735
40711
40701
40731
40724
40724
40735
40742
40736
40730
40697
40728
40724
40709
40733
40679
40716
40711
40726
40722
40676
40711
40722
40714
40730
40730
40706
40687
40729
40733
40711
40732
40719
40666
40724
40717
40711
40725
40716
40685
40711
40729
40724
40727
40702
40724
40729
40721
40711
40732
40698
40726
40708
40711
40720
40725
40708
40711
40711
40703
40718
40695
40718
40711
40711
40721
40727
40657
40718
40718
40711
40727
40696
40710
40708
40700
40730
40644
40711
40703
40720
40710
40662
40708
40711
40711
40724
40722
40684
40711
40709
40708
40700
40724
40684
40708
40699
40708
40644
40701
40697
40711
40706
40711
40720
40700
40711
40711
40726
40692
40716
40703
40711
40711
40704
40709
40705
40700
40711
40684
40706
40703
40695
40711
40655
40705
40705
40708
40711
40711
40679
40711
40707
40694
40705
40644
40702
40695
40711
40701
40644
40711
40695
40700
40678
40711
40677
40675
40711
40705
40711
40688
40695
40711
40693
40701
40703
40708
40706
40645
40701
40695
40708
40695
40703
40697
40703
40711
40631
40710
40707
40703
40703
40697
40700
40695
40699
40709
40705
40638
40699
40695
40710
40688
40700
40708
40699
40670
40710
40670
40700
40700
40701
40701
40687
40695
40676
40695
40679
40679
40674
40674
40672
40644
40668
40661
40667
40662
40660
40652
40664
40663
40654
40670
40666
40683
40692
40686
40647
40697
40696
40677
40712
40707
40658
40705
40705
40689
40716
40714
40650
40680
40710
40706
40688
40718
40703
40692
40702
40695
40626
40695
40684
40708
40695
40694
40700
40695
40706
40707
40629
40702
40692
40710
40647
40700
40688
40695
40642
40692
40687
40703
40652
40692
40664
40692
40628
40698
40695
40686
40707
40657
40695
40694
40701
40693
40699
40687
40637
40690
40692
40695
40700
40698
40696
40692
40695
40702
40708
40708
40663
40702
40696
40695
40702
40711
40681
40695
40686
40703
40703
40634
40688
40695
40701
40692
40700
40695
40639
40696
40711
40701
40682
40687
40642
40689
40654
40690
40653
40695
40679
40699
40698
40695
40698
40700
40700
40700
40708
40708
40692
40710
40692
40699
40706
40702
40695
40700
40645
40685
40695
40674
40692
40703
40703
40703
40711
40666
40687
40671
40711
40703
40710
40637
40688
40691
40703
40631
40687
40686
40707
40639
40697
40691
40708
40700
40706
40695
40689
40711
40648
40697
40676
40698
40701
40694
40711
40705
40653
40698
40700
40695
40711
40666
40702
40706
40708
40708
40711
40655
40708
40701
40683
40705
40701
40708
40647
40701
40700
40708
40648
40703
40694
40711
40640
40711
40698
40711
40674
40711
40700
40710
40711
40656
40694
40709
40654
40700
40710
40711
40693
40700
40710
40703
40707
40710
40711
40671
40708
40709
40711
40711
40704
40684
40711
40696
40694
40711
40703
40702
40710
40711
40688
40711
40711
40695
40724
40693
40708
40708
40708
40733
40676
40713
40704
40702
40725
40661
40711
40711
40725
40677
40711
40708
40724
40676
40727
40719
40730
40698
40724
40725
40731
40652
40710
40711
40724
40670
40708
40711
40732
40653
40718
40711
40728
40664
40722
40738
40740
40733
40732
40732
40727
40656
40721
40725
40710
40722
40695
40721
40719
40726
40703
40739
40719
40726
40724
40722
40739
40736
40687
40734
40731
40710
40733
40736
40721
40676
40725
40730
40722
40724
40742
40724
40677
40727
40731
40740
40743
40666
40734
40724
40727
40737
40732
40700
40728
40730
40727
40738
40726
40686
40729
40735
40732
40743
40668
40727
40732
40746
40701
40724
40732
40720
40729
40673
40728
40721
40734
40676
40727
40732
40736
40690
40743
40734
40746
40686
40727
40747
40698
40734
40757
40735
40740
40730
40742
40738
40698
40727
40744
40741
40726
40743
40738
40698
40742
40742
40737
40754
40746
40673
40746
40743
40743
40738
40730
40737
40743
40751
40678
40743
40742
40748
40724
40744
40736
40757
40686
40744
40763
40729
40743
40735
40756
40711
40748
40748
40757
40751
40709
40738
40743
40750
40751
40748
40756
40710
40754
40748
40758
40694
40762
40761
40756
40696
40748
40751
40750
40710
40751
40751
40766
40753
40749
40758
40764
40758
40763
40760
40710
40762
40758
40760
40697
40759
40758
40767
40757
40759
40763
40746
40764
40695
40753
40760
40762
40759
40762
40773
40703
40767
40745
40772
40752
40769
40758
40743
40764
40687
40756
40766
40775
40774
40754
40711
40772
40771
40772
40780
40776
40711
40769
40759
40742
40782
40768
40774
40771
40770
40740
40780
40722
40775
40774
40776
40783
40724
40780
40772
40784
40779
40773
40772
40770
40778
40768
40775
40773
40797
40776
40710
40784
40780
40788
40773
40790
40778
40775
40797
40764
40790
40791
40780
40795
40722
40783
40782
40791
40730
40788
40781
40759
40800
40796
40780
40754
40798
40785
40795
40807
40796
40759
40739
40790
40783
40799
40772
40799
40783
40796
40797
40732
40790
40791
40802
40796
40742
40801
40806
40796
40795
40791
40804
40805
40798
40804
40740
40796
40806
40801
40805
40796
40794
40804
40812
40801
40815
40819
40739
40812
40812
40812
40751
40798
40815
40807
40750
40805
40802
40801
40812
40809
40792
40810
40804
40811
40823
40748
40812
40807
40820
40748
40807
40828
40812
40752
40820
40811
40804
40807
40820
40820
40764
40820
40817
40815
40834
40829
40785
40828
40817
40821
40829
40794
40820
40815
40820
40820
40757
40823
40813
40812
40833
40824
40765
40831
40830
40814
40847
40770
40830
40829
40838
40839
40771
40832
40828
40825
40839
40846
40797
40763
40831
40826
40825
40841
40813
40839
40839
40849
40842
40837
40831
40826
40806
40823
40804
40804
40815
40810
40804
40790
40800
40807
40814
40796
40807
40812
40815
40824
40829
40807
40834
40834
40846
40854
40861
40821
40851
40852
40859
40839
40866
40861
40804
40870
40836
40839
40868
40864
40860
40859
40829
40865
40861
40834
40800
40788
40855
40860
40849
40826
40857
40821
40862
40861
40853
40872
40861
40814
40799
40862
40868
40875
40868
40866
40855
40855
40868
40874
40807
40869
40865
40864
40863
40871
40853
40873
40873
40862
40884
40879
40873
40815
40876
40877
40866
40877
40875
40807
40872
40884
40884
40886
40838
40889
40883
40872
40885
40831
40879
40887
40891
40854
40895
40890
40839
40884
40887
40883
40884
40886
40892
40893
40883
40835
40887
40894
40890
40894
40891
40891
40871
40903
40898
40879
40832
40863
40898
40892
40898
40895
40887
40900
40911
40907
40861
40850
40906
40903
40895
40914
40904
40833
40909
40892
40894
40890
40904
40894
40902
40866
40906
40906
40907
40902
40900
40905
40905
40916
40909
40874
40911
40900
40905
40904
40903
40852
40903
40907
40901
40911
40911
40850
40901
40897
40914
40908
40909
40900
40920
40908
40908
40887
40916
40849
40914
40906
40906
40916
40917
40862
40918
40916
40924
40919
40912
40926
40924
40917
40934
40927
40871
40917
40920
40916
40916
40926
40917
40890
40916
40911
40912
40901
40874
40910
40926
40925
40928
40927
40935
40938
40920
40891
40927
40918
40934
40934
40931
40910
40870
40879
40934
40933
40935
40932
40928
40933
40932
40935
40935
40932
40951
40947
40935
40934
40895
40930
40939
40934
40938
40935
40943
40914
40908
40948
40943
40952
40951
40943
40951
40942
40884
40951
40937
40940
40942
40951
40951
40938
40903
40951
40952
40945
40962
40961
40919
40957
40943
40956
40959
40964
40951
40919
40953
40945
40951
40944
40956
40959
40953
40914
40889
40957
40944
40956
40954
40966
40965
40964
40919
40890
40959
40958
40949
40956
40949
40950
40960
40957
40927
40884
40959
40950
40967
40967
40919
40961
40961
40962
40967
40951
40892
40956
40958
40955
40956
40958
40943
40967
40967
40901
40961
40957
40967
40949
40956
40963
40967
40983
40964
40927
40961
40959
40967
40918
40963
40967
40959
40909
40962
40964
40916
40967
40958
40967
40967
40935
40966
40967
40966
40964
40951
40902
40962
40963
40957
40967
40953
40967
40966
40959
40896
40967
40965
40966
40983
40967
40921
40943
40966
40964
40961
40967
40967
40967
40967
40910
40967
40967
40967
40964
40967
40945
40980
40967
40967
40986
40973
40919
40967
40967
40967
40967
40980
40967
40967
40964
40911
40924
40967
40967
40967
40967
40991
40983
40985
40956
40972
40972
40975
40982
40980
40921
40967
40967
40966
40967
40967
40989
40978
40967
40938
40982
40972
40967
40966
40995
40991
40934
40967
40980
40977
40980
40983
40957
40980
40967
40967
40989
40984
40953
40922
40980
40988
40978
40991
40993
40986
40980
40967
40990
40986
40922
40967
40967
40957
40991
40922
40974
40980
40964
40989
40982
40916
40988
40982
40975
40999
40995
40937
40983
40991
40983
40982
40991
40987
40981
40932
40991
40987
40983
40964
40996
40996
40926
40988
40996
40993
41007
41007
40993
40947
40965
40987
40988
40983
40999
40999
40923
40991
40996
40953
40980
40999
40940
40997
40993
40988
41004
40975
40950
40988
40990
40989
40998
40991
40934
40988
40990
40993
40982
40990
40956
41004
40997
40997
40999
40998
40997
41000
40999
40992
40994
40998
40999
40980
40943
40994
40990
40989
40988
40995
41004
41010
40999
41004
40951
41005
40999
40990
41007
41008
40933
41002
40991
40996
41006
41002
40999
40938
40997
40997
41004
41006
41010
40938
40955
41004
40999
40998
40990
41007
41007
40961
40980
40993
40994
40993
41013
40994
40935
40996
41010
41003
40996
40999
40999
41007
41008
41005
41006
41006
40983
40955
40932
40949
40991
40998
40999
40998
40996
41005
41002
41004
40990
40945
41006
41007
41009
40998
40998
40994
40999
40988
41007
41002
41007
41000
41010
41007
41007
40995
40939
41007
41002
41001
41000
41014
41015
40967
40997
41006
41003
41000
41007
41004
41007
40946
41007
40998
40998
40999
40990
41015
41010
41013
40946
41007
41014
41007
41006
41000
40996
40994
41007
41012
40939
40990
41000
41014
41016
40938
41015
41010
41011
41016
41014
41007
40956
41009
41005
40996
41008
41007
40958
41007
40988
40993
40993
40985
40991
40982
40980
40967
40978
40967
40967
40961
40962
40957
40967
40978
40981
40984
40977
40996
40997
41012
40996
40964
41023
41014
41020
40999
41036
41012
40978
41021
41029
41034
40991
41028
41025
40989
41015
41017
41029
41016
41020
41005
40943
41012
41023
41013
41012
40996
41022
41031
40997
40965
41023
41015
41019
41020
41022
41002
40967
40956
40977
41019
41015
41016
41025
41002
41023
41015
41020
41026
40976
41022
41015
41007
41010
41015
40978
41015
41009
41002
41020
41019
40961
41016
41015
41025
41031
41013
40966
41023
41016
41015
41029
40999
41014
41021
41009
41006
41026
41022
40956
41023
41023
41030
41023
41002
40954
41031
41022
41026
41026
41008
41030
41027
41016
40967
41029
41020
41007
40999
41022
41023
41022
40985
40956
40956
41012
41028
41022
41012
41031
41029
40967
41020
41017
41007
41028
41023
40967
41024
41017
41012
41027
41028
41020
40976
40964
41024
41031
41023
41023
41020
41018
41018
41014
41015
40962
41015
41023
41020
41004
41014
41022
41029
41024
41005
40962
41023
41031
41023
41025
41029
41020
41024
41029
41021
40955
41023
41023
41023
41013
41023
41021
41023
41027
41002
40967
40958
40966
40988
41021
41018
41025
41022
41020
41031
41031
41023
41019
41014
40976
40957
41027
41021
41019
41012
41015
41015
41029
41029
41028
40985
40962
41021
41020
41012
40997
41026
41009
40956
41015
41015
41012
41028
41018
40990
41023
41022
41022
41005
41030
41030
41026
40963
41031
41015
41020
41012
41012
41020
41022
41026
41015
40979
40998
41027
41028
41021
41020
41031
41035
41004
40983
41023
41030
41013
41025
41031
41038
41029
41006
40966
40991
41022
41023
41018
41031
40967
41023
41047
41035
41031
40967
41036
41030
41023
41007
41031
41035
41009
40967
40967
41031
41030
41038
41031
41028
41036
41038
41036
41038
41029
40967
41034
41028
41031
41030
41023
41030
41030
41007
41036
41031
41038
41022
41028
41030
41029
41033
40997
41031
41031
41020
41034
41036
40956
41029
41023
41020
41016
41036
41031
40988
40965
41035
41028
41036
41032
41030
41026
41023
41037
40967
41037
41013
41027
41028
41022
41030
41020
41009
41007
41027
41031
41036
41033
41032
41016
41043
41012
41037
41039
41041
41037
41035
41034
41039
41031
41031
41030
41030
41038
41036
41047
40999
41029
41019
41015
41007
41038
41039
41044
41045
41029
41033
41028
41028
41028
41031
41031
41039
41030
41030
41028
41028
41015
41039
41039
41039
41025
41037
41030
40983
41023
40967
41004
41030
41043
41031
41039
41026
41028
41028
40994
41015
41033
41036
41028
41037
41040
41036
40963
41039
41036
41036
41031
40982
41031
41031
40967
41014
41028
41041
41037
40982
41020
41039
41045
41045
41034
41006
41028
41036
41044
41028
41042
41030
40967
41044
41036
41037
41031
40976
41046
41036
41051
41041
41025
41047
41039
41047
41044
41048
41038
41044
41039
41039
41045
41035
41022
41032
41043
41055
41040
41047
41038
41010
41045
41028
41060
41037
41048
41049
41047
41047
41034
40996
41053
41052
41048
41037
40980
41055
41053
41055
41047
40991
41061
41052
41063
41052
40997
41055
41052
41060
41046
41047
40999
41049
41041
41052
41051
41015
41060
41054
41060
41052
41046
41055
41058
41063
41055
41052
41055
41068
41055
41044
41050
41036
41049
41054
41053
41054
41055
41063
41068
41068
41039
41023
41060
41056
41057
41055
41063
41057
41060
41001
41048
41052
41055
41047
41063
41065
41063
41055
40999
41065
41065
41068
41063
41058
41055
41063
41063
41065
41060
41005
41058
41055
41055
41052
41066
41071
41073
41063
41060
41068
41047
41015
41060
41076
41070
41076
41071
41071
41060
41063
41061
41065
41062
41066
41079
41074
41073
41072
41054
41076
41079
41078
41065
41073
41071
41072
41072
41074
41066
41072
41012
41015
41031
41063
41069
41071
41068
41070
41073
41091
41085
41028
41094
41079
41052
41076
41079
41077
41077
41076
41080
41084
41076
41050
41030
41021
41014
41019
41028
41089
41082
41066
41095
41095
41086
41087
41084
41095
41084
41092
41086
41090
41088
41089
41092
41089
41094
41094
41095
41095
41095
41103
41100
41103
41095
41093
41089
41037
41065
41086
41085
41077
41084
41095
41091
41093
41095
41084
41089
41057
41092
41093
41090
41103
41094
41095
41095
41103
41090
41031
41105
41093
41088
41103
41088
41061
41100
41094
41041
41107
41095
41053
41111
41098
41042
41103
41095
41095
41100
41092
41095
41103
41098
41040
41105
41096
41098
41101
41108
41114
41115
41114
41115
41093
41053
41109
41117
41100
41094
41100
41113
41112
41110
41103
41047
41108
41108
41108
41104
41127
41117
41062
41119
41118
41109
41118
41109
41108
41103
41102
41127
41124
41126
41114
41055
41117
41114
41116
41123
41116
41127
41129
41135
41127
41063
41070
41133
41124
41119
41124
41138
41129
41092
41127
41124
41114
41111
41110
41111
41112
41103
41086
41094
41095
41087
41085
41079
41080
41079
41091
41074
41078
41095
41105
41108
41117
41119
41143
41138
41076
41156
41141
41146
41158
41150
41127
41117
41153
41144
41159
41156
41079
41141
41142
41143
41151
41152
41153
41120
41127
41144
41146
41149
41149
41127
41144
41140
41152
41158
41148
41098
41100
41147
41148
41144
41148
41152
41156
41088
41159
41157
41154
41139
41160
41163
41162
41118
41124
41162
41159
41147
41141
41154
41164
41127
41159
41158
41148
41174
41169
41127
41165
41165
41162
41173
41166
41167
41158
41164
41174
41174
41108
41163
41164
41159
41164
41182
41176
41113
41175
41168
41182
41185
41182
41181
41175
41172
41167
41143
41175
41182
41149
41106
41117
41180
41167
41154
41186
41186
41127
41187
41183
41178
41191
41184
41188
41123
41185
41178
41166
41183
41121
41172
41172
41168
41185
41178
41142
41186
41183
41191
41191
41156
41191
41185
41175
41190
41189
41116
41188
41173
41184
41191
41181
41130
41194
41188
41198
41191
41196
41152
41202
41196
41204
41194
41159
41191
41191
41189
41191
41191
41188
41191
41192
41182
41130
41194
41205
41188
41199
41189
41190
41207
41215
41205
41211
41185
41139
41207
41201
41204
41199
41204
41205
41191
41156
41207
41204
41207
41223
41222
41216
41205
41167
41196
41210
41205
41209
41198
41215
41213
41197
41172
41214
41209
41215
41215
41217
41223
41223
41223
41206
41165
41223
41223
41218
41222
41222
41207
41209
41218
41220
41222
41215
41173
41191
41223
41216
41220
41241
41237
41244
41185
41238
41223
41223
41223
41237
41241
41228
41223
41168
41233
41223
41231
41223
41230
41229
41232
41254
41248
41236
41210
41185
41247
41238
41238
41246
41222
41241
41243
41234
41255
41214
41246
41241
41236
41253
41244
41231
41191
41247
41252
41245
41266
41223
41189
41250
41254
41238
41231
41260
41262
41253
41207
41188
41262
41252
41254
41267
41269
41220
41266
41270
41260
41255
41231
41262
41272
41267
41263
41255
41214
41192
41257
41260
41258
41260
41266
41262
41270
41269
41265
41279
41276
41261
41202
41260
41256
41260
41239
41274
41269
41262
41261
41267
41267
41264
41267
41270
41247
41271
41204
41268
41271
41268
41269
41268
41214
41264
41260
41266
41271
41271
41232
41271
41270
41271
41244
41279
41223
41272
41258
41268
41279
41279
41223
41275
41279
41270
41284
41276
41255
41217
41208
41272
41268
41268
41271
41286
41278
41215
41287
41274
41276
41287
41287
41220
41239
41273
41270
41273
41268
41273
41262
41289
41287
41287
41223
41280
41276
41294
41283
41278
41292
41295
41259
41218
41279
41281
41271
41269
41287
41286
41221
41239
41285
41280
41286
41287
41271
41286
41287
41292
41272
41295
41294
41294
41230
41278
41274
41279
41287
41294
41287
41246
41287
41290
41263
41260
41286
41303
41303
41294
41293
41292
41286
41287
41288
41274
41284
41300
41295
41296
41303
41287
41231
41297
41284
41293
41316
41298
41265
41311
41303
41301
41298
41297
41280
41268
41300
41295
41289
41291
41288
41307
41306
41267
41297
41295
41301
41315
41288
41310
41300
41304
41311
41306
41245
41306
41305
41303
41295
41303
41296
41253
41311
41307
41303
41311
41301
41311
41314
41276
41304
41306
41303
41300
41319
41309
41297
41298
41308
41307
41300
41311
41253
41303
41310
41312
41325
41255
41319
41302
41308
41284
41313
41316
41261
41310
41310
41310
41324
41319
41310
41266
41252
41286
41317
41313
41308
41314
41310
41321
41317
41269
41274
41310
41316
41311
41319
41318
41308
41253
41311
41316
41309
41316
41322
41326
41335
41321
41287
41259
41274
41325
41319
41319
41309
41327
41319
41266
41320
41316
41311
41325
41287
41321
41322
41325
41332
41327
41333
41287
41319
41321
41311
41327
41326
41320
41318
41315
41324
41324
41255
41333
41316
41327
41318
41323
41314
41328
41335
41332
41257
41324
41326
41326
41318
41319
41326
41263
41323
41319
41327
41324
41327
41309
41335
41324
41326
41335
41341
41335
41333
41268
41330
41325
41334
41337
41334
41271
41319
41340
41330
41332
41332
41310
41327
41345
41298
41327
41345
41273
41330
41326
41326
41336
41333
41331
41293
41332
41324
41325
41309
41332
41343
41266
41339
41337
41329
41327
41348
41341
41295
41332
41335
41335
41313
41337
41268
41327
41333
41335
41313
41347
41325
41334
41337
41335
41351
41329
41341
41341
41336
41343
41306
41334
41338
41334
41339
41332
41332
41316
41333
41292
41336
41342
41343
41329
41327
41348
41346
41305
41303
41343
41329
41344
41333
41271
41338
41333
41340
41340
41276
41348
41345
41279
41340
41348
41359
41353
41307
41344
41343
41346
41332
41324
41342
41324
41287
41308
41316
41300
41316
41311
41294
41301
41303
41308
41308
41319
41318
41302
41325
41332
41343
41308
41345
41350
41348
41351
41359
41364
41327
41287
41358
41363
41359
41356
41375
41364
41308
41359
41352
41362
41350
41364
41351
41287
41357
41351
41351
41349
41365
41351
41303
41356
41351
41356
41356
41359
41341
41358
41340
41303
41348
41351
41351
41356
41356
41290
41351
41359
41317
41351
41343
41359
41361
41332
41359
41370
41364
41356
41358
41351
41332
41367
41358
41340
41297
41351
41358
41348
41350
41351
41360
41374
41343
41353
41357
41359
41372
41354
41300
41364
41356
41372
41350
41296
41359
41351
41320
41356
41322
41350
41342
41372
41319
41364
41357
41365
41298
41359
41367
41350
41351
41354
41330
41367
41324
41358
41351
41362
41364
41359
41372
41351
41298
41365
41356
41357
41365
41359
41364
41367
41356
41351
41349
41345
41326
41362
41327
41356
41359
41295
41351
41367
41332
41362
41367
41358
41308
41362
41364
41356
41350
41363
41359
41366
41358
41316
41292
41357
41358
41351
41372
41361
41310
41367
41359
41358
41365
41356
41367
41375
41367
41356
41308
41359
41356
41351
41351
41351
41351
41354
41373
41367
41361
41319
41345
41365
41367
41364
41359
41351
41366
41368
41357
41343
41290
41354
41351
41354
41358
41345
41362
41357
41366
41357
41352
41300
41367
41353
41359
41364
41362
41310
41352
41348
41348
41358
41359
41302
41351
41358
41357
41350
41362
41367
41303
41366
41353
41367
41370
41358
41359
41359
41356
41357
41343
41350
41351
41330
41314
41351
41345
41351
41351
41359
41356
41342
41366
41365
41367
41303
41370
41357
41351
41361
41350
41292
41358
41359
41356
41359
41359
41311
41308
41359
41367
41364
41357
41352
41358
41367
41366
41375
41351
41351
41297
41359
41358
41350
41359
41341
41372
41367
41372
41351
41317
41285
41367
41361
41365
41347
41371
41327
41356
41351
41356
41319
41351
41337
41287
41359
41362
41351
41359
41319
41355
41358
41367
41358
41361
41296
41284
41348
41344
41346
41332
41348
41351
41351
41351
41333
41287
41348
41364
41351
41358
41349
41351
41364
41367
41348
41322
41297
41350
41351
41351
41346
41342
41346
41338
41325
41361
41351
41348
41306
41351
41345
41348
41349
41356
41349
41332
41272
41276
41348
41346
41343
41340
41334
41338
41343
41343
41334
41328
41332
41338
41327
41351
41348
41351
41338
41306
41279
41340
41335
41324
41335
41334
41327
41341
41341
41341
41317
41271
41335
41338
41335
41346
41333
41343
41335
41324
41322
41342
41334
41332
41262
41337
41326
41319
41327
41333
41339
41337
41341
41332
41310
41295
41309
41275
41268
41291
41327
41326
41319
41321
41324
41323
41327
41304
41329
41337
41332
41335
41334
41343
41339
41340
41333
41303
41271
41279
41277
41255
41252
41256
41300
41323
41319
41314
41319
41317
41319
41300
41332
41335
41332
41318
41301
41277
41263
41257
41260
41258
41277
41279
41262
41266
41315
41319
41315
41314
41307
41316
41314
41312
41319
41327
41325
41316
41255
41319
41314
41310
41314
41307
41316
41308
41319
41317
41319
41314
41324
41319
41296
41264
41319
41318
41312
41311
41306
41301
41296
41316
41305
41239
41303
41303
41304
41296
41311
41295
41279
41296
41311
41287
41318
41319
41268
41308
41303
41292
41292
41304
41302
41297
41246
41302
41295
41287
41293
41300
41303
41309
41309
41293
41241
41300
41300
41300
41293
41298
41293
41292
41296
41303
41303
41290
41256
41291
41290
41291
41311
41302
41292
41241
41306
41301
41295
41299
41289
41292
41285
41276
41292
41294
41300
41298
41286
41256
41230
41246
41292
41297
41292
41295
41290
41286
41287
41287
41295
41292
41292
41263
41267
41287
41287
41292
41292
41295
41223
41279
41279
41293
41287
41234
41283
41292
41268
41287
41278
41279
41263
41287
41278
41252
41206
41276
41283
41274
41271
41271
41258
41256
41287
41287
41284
41287
41287
41284
41287
41285
41282
41284
41286
41282
41277
41281
41276
41276
41276
41273
41284
41279
41222
41231
41246
41251
41214
41216
41278
41223
41261
41261
41266
41260
41259
41266
41260
41258
41261
41263
41263
41262
41260
41271
41263
41257
41269
41268
41263
41271
41255
41220
41260
41259
41260
41258
41263
41259
41263
41263
41188
41268
41258
41260
41254
41199
41279
41260
41252
41258
41262
41269
41249
41244
41265
41246
41255
41262
41253
41255
41252
41245
41252
41246
41249
41254
41239
41255
41249
41232
41206
41211
41220
41220
41215
41214
41207
41210
41215
41202
41212
41205
41199
41223
41223
41216
41214
41244
41250
41252
41256
41256
41216
41188
41262
41263
41259
41252
41255
41268
41265
41268
41264
41268
41255
41205
41254
41255
41254
41245
41259
41260
41244
41239
41199
41174
41181
41237
41246
41250
41244
41251
41241
41246
41255
41255
41250
41199
41182
41253
41239
41238
41230
41230
41240
41173
41207
41241
41228
41239
41246
41235
41239
41246
41241
41239
41243
41239
41241
41239
41226
41237
41240
41232
41237
41223
41223
41182
41167
41236
41230
41226
41232
41231
41238
41235
41234
41239
41223
41223
41223
41223
41223
41218
41223
41220
41218
41231
41231
41234
41228
41231
41233
41239
41231
41236
41204
41165
41156
41223
41222
41223
41214
41218
41217
41239
41223
41221
41156
41223
41220
41219
41223
41223
41223
41223
41223
41223
41234
41212
41214
41194
41206
41174
41158
41180
41188
41188
41183
41166
41174
41181
41173
41164
41159
41159
41197
41217
41214
41208
41212
41215
41207
41212
41212
41214
41201
41206
41214
41203
41204
41207
41208
41202
41199
41214
41215
41214
41219
41209
41207
41213
41222
41184
41150
41156
41205
41207
41204
41212
41218
41212
41211
41188
41155
41204
41207
41190
41202
41150
41211
41197
41190
41195
41191
41207
41206
41198
41199
41212
41191
41171
41135
41199
41199
41196
41199
41199
41206
41202
41195
41167
41196
41190
41188
41199
41199
41196
41135
41196
41186
41197
41182
41198
41204
41167
41143
41194
41187
41198
41189
41190
41191
41192
41196
41164
41134
41158
41177
41199
41195
41196
41199
41191
41194
41189
41186
41205
41179
41201
41194
41191
41182
41185
41183
41188
41184
41180
41170
41191
41197
41191
41184
41190
41188
41192
41168
41191
41189
41191
41186
41149
41140
41188
41174
41183
41186
41190
41145
41180
41178
41185
41184
41180
41184
41192
41196
41194
41194
41132
41164
41175
41180
41175
41175
41188
41181
41178
41122
41124
41168
41172
41168
41183
41188
41191
41181
41105
41173
41172
41173
41172
41182
41141
41166
41165
41166
41159
41158
41166
41171
41164
41183
41186
41178
41167
41108
41170
41172
41171
41163
41167
41169
41158
41175
41172
41162
41158
41168
41154
41100
41158
41164
41159
41162
41158
41161
41154
41172
41166
41163
41139
41095
41153
41148
41152
41157
41148
41150
41143
41164
41167
41158
41100
41087
41150
41162
41159
41154
41156
41145
41138
41159
41153
41148
41149
41140
41127
41076
41149
41137
41146
41143
41148
41148
41148
41143
41137
41119
41153
41147
41140
41115
41076
41135
41143
41139
41132
41144
41141
41145
41151
41143
41146
41151
41090
41143
41140
41143
41127
41127
41139
41135
41139
41108
41076
41127
41130
41111
41141
41127
41086
41103
41134
41139
41129
41130
41139
41118
41149
41131
41092
41060
41124
41116
41119
41127
41124
41127
41124
41135
41131
41140
41130
41127
41133
41130
41125
41119
41135
41125
41127
41084
41068
41068
41122
41116
41119
41118
41115
41119
41120
41119
41119
41116
41126
41119
41111
41127
41124
41100
41067
41052
41094
41109
41123
41100
41117
41110
41115
41119
41118
41084
41110
41123
41124
41117
41119
41081
41127
41123
41117
41053
41107
41104
41103
41105
41096
41116
41119
41087
41059
41052
41077
41118
41119
41116
41113
41111
41107
41107
41115
41119
41102
41100
41063
41053
41105
41100
41117
41115
41100
41116
41114
41118
41095
41061
41092
41111
41116
41111
41104
41111
41100
41100
41101
41098
41102
41114
41111
41112
41067
41064
41110
41111
41081
41121
41111
41089
41055
41111
41108
41098
41100
41076
41111
41102
41039
41110
41096
41100
41114
41108
41074
41068
41100
41078
41111
41108
41100
41095
41094
41095
41110
41105
41100
41087
41037
41101
41102
41103
41076
41113
41109
41071
41108
41108
41108
41103
41094
41076
41108
41103
41090
41039
41063
41095
41103
41095
41090
41093
41110
41116
41111
41103
41100
41093
41070
41055
41101
41100
41095
41091
41108
41103
41091
41082
41055
41048
41094
41103
41099
41111
41107
41100
41093
41095
41111
41115
41103
41076
41046
41047
41052
41103
41092
41089
41095
41095
41092
41095
41094
41097
41093
41071
41101
41109
41099
41105
41094
41068
41057
41039
41038
41094
41088
41087
41088
41086
41091
41095
41107
41103
41092
41041
41095
41098
41095
41092
41090
41082
41063
41098
41092
41087
41031
41090
41093
41087
41084
41084
41095
41109
41102
41087
41069
41039
41094
41087
41094
41076
41063
41092
41076
41103
41095
41093
41092
41076
41028
41032
41085
41077
41061
41071
41060
41063
41054
41055
41049
41044
41045
41048
41047
41044
41049
41052
41055
41063
41068
41042
41078
41076
41080
41095
41107
41104
41040
41045
41094
41095
41085
41089
41093
41086
41082
41095
41094
41100
41096
41093
41095
41095
41096
41052
41043
41087
41078
41084
41084
41089
41089
41087
41089
41089
41086
41079
41042
41017
41078
41087
41071
41084
41076
41084
41088
41036
41081
41082
41077
41081
41087
41082
41083
41081
41050
41068
41068
41087
41074
41085
41087
41095
41087
41085
41087
41084
41079
41084
41076
41078
41068
41020
41069
41018
41051
41078
41083
41076
41071
41070
41008
41084
41071
41076
41046
41084
41068
41076
41069
41092
41076
41027
41066
41060
41063
41068
41063
41059
41066
41066
41071
41068
41079
41060
41006
41077
41071
41073
41063
41069
41055
41023
41055
41000
41039
41060
41068
41067
41073
41052
41008
41071
41063
41063
41071
41058
41069
41071
41050
41063
41028
41066
41052
41063
41060
41046
41027
41038
41060
41057
41055
41060
41063
41073
41070
41067
41066
41030
41065
41060
41053
41054
41062
41050
41040
41041
41037
41061
41063
41054
41038
40998
41014
41063
41067
41057
41053
41052
41046
41045
41026
41061
41055
41052
41053
41043
41029
41052
41052
41061
41030
41000
41022
41011
41004
40995
41017
41060
41047
41050
41052
41052
41038
41051
41041
41054
41056
41055
41052
41063
41055
41063
41056
41055
41057
41060
41056
41062
41060
41053
41055
41055
41052
41038
41001
41047
41047
41053
41044
41055
41055
41054
41060
41050
41044
41047
41054
41055
41048
41031
41055
41048
41043
41013
40992
41058
41047
41047
41053
41047
41052
41054
41055
41047
41055
41052
41028
41062
40999
41002
41055
41052
41059
41039
41054
41022
41056
41054
41057
41059
41063
41044
41010
40999
41060
41055
41050
41050
41057
41052
41045
41068
41050
41055
41055
41031
41005
41052
41046
41047
41055
41052
41005
41060
41054
41049
41047
41063
41071
41055
41055
41011
41053
41039
41030
41040
41052
41055
41012
41014
41047
41039
41055
40991
41041
41050
41054
41020
41038
41047
41050
41052
41036
41044
41039
41015
41044
41047
41044
40998
41004
41044
41055
41039
41051
41028
41057
41039
40988
41041
41032
41036
41030
41047
41031
40996
41039
41031
41034
41034
41047
41052
41047
41040
40988
41045
41039
41039
41055
41039
41047
40983
41038
41033
41031
41017
41040
41039
41041
41022
40983
41018
41039
41032
41040
41031
41049
41037
40966
41047
41036
41024
41030
41002
41037
41031
41028
40967
41026
41031
41024
41048
41046
40967
41036
41049
41016
41039
41028
41043
41047
40991
41028
41033
41015
41045
41045
40988
41035
41035
41035
41048
41043
41031
41012
41038
41041
41036
41031
41046
41014
41047
41038
41036
41042
41015
41029
41030
41039
41026
41032
41031
41030
41048
41055
41044
41055
40999
41037
41030
41038
41031
41042
41035
40996
40965
41030
41031
41030
41044
41039
40991
41039
41036
41051
41051
41031
41048
41041
40967
41047
41029
41029
41028
41044
41042
41036
41003
41032
41034
41055
41044
41038
41038
41039
41044
41052
41052
41050
40967
41039
41038
41034
41041
41044
41054
41038
40991
41042
41033
41036
41044
41039
41044
41031
41051
41055
41041
