EDA
23407
23408
23401
23405
23409
23413
23397
23415
23405
23399
23399
23396
23407
23423
23396
23407
23397
23399
23397
23407
23395
23398
23397
23404
23420
23394
23402
23399
23402
23407
23388
23405
23408
23390
23393
23398
23405
23390
23399
23399
23406
23386
23397
23399
23410
23412
23390
23405
23404
23408
23391
23391
23394
23398
23391
23392
23394
23404
23395
23404
23387
23393
23397
23391
23398
23401
23380
23396
23396
23379
23390
23397
23385
23389
23397
23391
23399
23381
23387
23396
23393
23397
23380
23398
23391
23381
23378
23386
23397
23382
23378
23397
23383
23391
23391
23375
23388
23393
23378
23381
23383
23388
23406
23378
23393
23389
23381
23388
23382
23390
23380
23383
23398
23374
23382
23388
23373
23387
23384
23373
23374
23380
23385
23372
23383
23381
23373
23370
23372
23383
23364
23373
23369
23377
23366
23376
23370
23386
23364
23371
23383
23362
23369
23374
23378
23366
23374
23373
23365
23359
23364
23363
23358
23362
23367
23360
23364
23358
23360
23364
23366
23356
23370
23370
23359
23365
23361
23367
23351
23356
23361
23366
23351
23359
23359
23367
23351
23362
23364
23361
23346
23354
23359
23348
23360
23359
23348
23355
23353
23349
23356
23347
23348
23330
23346
23354
23361
23334
23349
23358
23342
23333
23348
23367
23343
23347
23335
23343
23341
23335
23338
23343
23364
23336
23335
23351
23332
23346
23342
23332
23332
23346
23348
23351
23335
23337
23348
23337
23334
23342
23337
23335
23345
23340
23345
23335
23342
23343
23323
23336
23346
23337
23338
23330
23337
23337
23311
23332
23338
23345
23324
23334
23324
23327
23336
23334
23342
23333
23324
23335
23323
23327
23336
23341
23327
23334
23343
23325
23332
23329
23356
23324
23326
23335
23351
23318
23323
23340
23319
23333
23334
23322
23327
23333
23320
23331
23340
23314
23326
23332
23324
23321
23333
23318
23327
23308
23332
23329
23311
23338
23326
23314
23318
23327
23319
23317
23319
23334
23306
23324
23335
23311
23312
23323
23311
23322
23321
23309
23309
23321
23306
23308
23323
23337
23307
23319
23341
23322
23312
23311
23302
23318
23318
23303
23314
23329
23302
23314
23332
23310
23309
23314
23324
23310
23324
23322
23340
23310
23317
23307
23325
23318
23302
23308
23342
23303
23314
23327
23309
23324
23315
23319
23319
23307
23319
23314
23316
23343
23314
23310
23310
23316
23303
23301
23310
23317
23323
23301
23316
23319
23300
23313
23317
23329
23302
23303
23312
23319
23306
23301
23313
23319
23308
23305
23308
23319
23303
23311
23308
23319
23298
23290
23325
23312
23303
23301
23305
23308
23303
23309
23306
23309
23297
23295
23303
23310
23289
23292
23297
23308
23295
23295
23310
23306
23327
23295
23296
23310
23293
23306
23297
23309
23291
23303
23301
23289
23293
23308
23302
23311
23292
23287
23301
23306
23303
23289
23295
23294
23295
23280
23293
23298
23308
23287
23286
23303
23281
23293
23298
23278
23282
23288
23303
23281
23289
23289
23293
23282
23287
23285
23293
23274
23279
23279
23280
23265
23271
23284
23285
23286
23264
23268
23281
23274
23300
23263
23269
23272
23277
23258
23265
23271
23269
23256
23246
23263
23261
23274
23268
23259
23255
23271
23273
23263
23265
23261
23252
23250
23253
23263
23244
23247
23250
23265
23243
23253
23249
23260
23245
23253
23254
23241
23245
23249
23259
23237
23252
23240
23247
23254
23235
23243
23242
23265
23238
23247
23227
23244
23248
23232
23244
23238
23262
23238
23236
23239
23227
23236
23236
23225
23228
23237
23234
23236
23230
23236
23228
23229
23239
23223
23220
23233
23247
23223
23233
23232
23244
23216
23209
23233
23221
23232
23246
23278
23364
23190
23198
23238
23225
23236
23247
23395
23196
23203
23239
23222
23234
23249
23206
23205
23208
23226
23216
23225
23224
23204
23204
23216
23214
23203
23205
23213
23213
23207
23199
23205
23197
23205
23197
23188
23197
23194
23191
23197
23188
23190
23192
23186
23184
23178
23185
23190
23184
23196
23174
23183
23180
23187
23193
23175
23179
23178
23176
23190
23170
23171
23172
23172
23173
23186
23173
23175
23177
23169
23168
23173
23172
23172
23164
23168
23169
23162
23167
23166
23151
23170
23165
23164
23153
23158
23164
23156
23165
23167
23156
23158
23159
23134
23147
23165
23156
23144
23153
23153
23156
23144
23156
23153
23164
23143
23153
23143
23141
23150
23148
23148
23140
23135
23141
23144
23118
23139
23135
23147
23130
23141
23139
23121
23129
23138
23126
23133
23132
23097
23126
23127
23129
23132
23116
23127
23126
23117
23129
23133
23131
23114
23123
23124
23124
23117
23123
23109
23128
23121
23119
23123
23124
23113
23115
23116
23102
23110
23110
23103
23101
23111
23108
23108
23102
23107
23111
23098
23113
23104
23099
23096
23106
23129
23096
23101
23113
23094
23089
23098
23103
23087
23096
23099
23099
23086
23111
23095
23101
23082
23098
23095
23095
23116
23079
23090
23094
23078
23086
23087
23092
23076
23087
23087
23074
23079
23089
23071
23085
23084
23073
23084
23082
23073
23077
23077
23084
23070
23076
23079
23061
23077
23072
23061
23084
23077
23056
23076
23071
23062
23059
23069
23060
23068
23066
23052
23056
23064
23052
23055
23067
23065
23044
23047
23057
23064
23046
23047
23055
23061
23069
23079
23043
23044
23054
23079
23039
23047
23047
23061
23071
23040
23046
23055
23041
23042
23047
23047
23034
23047
23046
23034
23038
23044
23059
23034
23044
23052
23031
23034
23045
23028
23036
23039
23020
23036
23035
23026
23030
23037
23022
23031
23033
23033
23020
23023
23028
23025
23012
23023
23023
23015
23022
23023
23015
23023
23021
23008
23022
23023
23015
23015
23015
23019
23011
23010
23006
23012
23021
22997
23006
23013
23002
23001
23007
23012
23003
23005
23012
23003
23009
23012
22997
22998
23006
22989
23001
23003
22988
22999
22997
22991
22996
22999
22988
22996
22984
22997
23010
22984
22986
22984
22982
22990
22994
22982
22988
22983
22972
22972
22972
22981
22975
22997
22968
22973
22981
22980
22972
22981
22987
22965
22978
22983
22968
22975
22974
22983
22966
22980
22972
22991
22957
22970
22980
22961
22963
22972
22970
22982
22958
22973
22964
22977
22957
22957
22969
22951
22959
22964
22964
22950
22963
22956
22959
22948
22948
22955
22955
22964
22950
22951
22957
22965
22942
22944
22949
22953
22943
22942
22948
22950
22950
22939
22937
22944
22949
22937
22952
22948
22953
22938
22947
22951
22936
22939
22942
22933
22939
22935
22937
22926
22929
22956
22939
22950
22927
22935
22938
22943
22925
22946
22935
22924
22921
22932
22939
22938
22923
22931
22933
22935
22916
22920
22922
22929
22915
22918
22932
22932
22942
22920
22928
22926
22929
22914
22912
22925
22925
22925
22907
22919
22919
22933
22909
22915
22920
22919
22914
22917
22910
22925
22902
22900
22911
22923
22903
22912
22915
22920
22906
22900
22919
22902
22910
22908
22922
22896
22919
22911
22917
22895
22910
22909
22896
22898
22911
22907
22911
22889
22904
22895
22900
22886
22902
22900
22911
22885
22895
22901
22885
22894
22893
22900
22916
22892
22892
22895
22897
22881
22891
22895
22919
22886
22889
22905
22890
22891
22901
22886
22901
22895
22897
22882
22894
22903
22884
22892
22892
22877
22887
22891
22878
22876
22881
22893
22878
22886
22892
22879
22888
22889
22905
22876
22883
22892
22867
22874
22879
22881
22906
22871
22876
22887
22871
22886
22891
22871
22880
22892
22874
22884
22881
22869
22879
22885
22889
22871
22875
22891
22865
22874
22881
22895
22871
22881
22881
22890
22865
22879
22882
22900
22869
22876
22890
22865
22877
22885
22867
22878
22877
22893
22868
22875
22877
22865
22882
22876
22895
22865
22879
22877
22879
22857
22870
22873
22890
22857
22874
22868
22879
22861
22860
22870
22879
22862
22874
22869
22871
22865
22860
22864
22875
22856
22857
22860
22878
22855
22855
22862
22867
22887
22850
22872
22863
22873
22849
22855
22863
22852
22855
22862
22869
22853
22861
22865
22863
22869
22847
22854
22857
22878
22849
22855
22857
22866
22854
22860
22864
22849
22850
22857
22865
22847
22860
22853
22859
22846
22847
22852
22855
22859
22845
22853
22850
22854
22847
22852
22855
22858
22846
22853
22856
22844
22847
22855
22863
22842
22861
22863
22845
22845
22851
22861
22839
22841
22858
22857
22844
22834
22851
22868
22844
22861
22854
22857
22844
22852
22851
22859
22839
22844
22852
22853
22842
22853
22851
22844
22846
22848
22849
22838
22850
22860
22837
22859
22850
22844
22840
22858
22837
22846
22853
22845
22838
22853
22837
22854
22855
22862
22846
22850
22847
22855
22846
22845
22863
22839
22855
22862
22840
22852
22880
22844
22855
22868
22844
22854
22872
22836
22852
22879
22836
22836
22854
22936
22833
22857
22892
22836
22862
22940
22885
22879
22841
22862
22898
22850
22868
22887
22853
22862
22869
22852
22860
22861
22854
22855
22857
22855
22856
22854
22852
22859
22855
22857
22858
22855
22862
22859
22856
22852
22857
22852
22850
22851
22853
22855
22850
22851
22855
22852
22853
22855
22847
22849
22855
22860
22848
22852
22861
22836
22852
22859
22861
22847
22848
22855
22862
22846
22853
22868
22848
22860
22855
22848
22855
22849
22854
22853
22855
22855
22851
22859
22860
22849
22852
22859
22837
22855
22852
22855
22851
22861
22860
22858
22851
22856
22861
22847
22855
22862
22859
22860
22854
22869
22863
22854
22833
22849
22856
22863
22851
22856
22865
22855
22862
22863
22855
22852
22861
22861
22875
22854
22861
22861
22865
22849
22854
22855
22860
22849
22852
22855
22863
22849
22852
22850
22866
22853
22858
22861
22865
22855
22863
22863
22853
22859
22860
22869
22853
22863
22858
22871
22855
22867
22871
22873
22849
22865
22861
22865
22860
22863
22860
22865
22857
22875
22865
22852
22861
22863
22875
22858
22862
22866
22877
22862
22863
22870
22879
22863
22873
22873
22878
22887
22857
22868
22875
22863
22865
22869
22879
22865
22878
22874
22863
22862
22879
22889
22863
22881
22876
22863
22876
22879
22863
22884
22880
22867
22874
22884
22867
22887
22881
22866
22883
22882
22871
22879
22885
22874
22878
22874
22888
22869
22878
22879
22871
22873
22886
22892
22873
22876
22887
22876
22884
22890
22869
22884
22886
22895
22878
22892
22895
22877
22887
22892
22875
22887
22897
22880
22890
22895
22878
22885
22903
22878
22890
22912
22887
22903
22892
22916
22887
22892
22900
22886
22888
22901
22886
22901
22903
22906
22886
22892
22902
22902
22895
22889
22892
22902
22886
22895
22903
22899
22888
22894
22914
22886
22894
22909
22887
22909
22900
22892
22897
22907
22909
22897
22910
22908
22898
22902
22906
22913
22897
22904
22905
22882
22900
22918
22894
22909
22905
22912
22910
22897
22905
22914
22897
22906
22912
22902
22909
22910
22895
22908
22922
22902
22910
22913
22900
22917
22917
22901
22907
22918
22907
22914
22919
22906
22913
22916
22903
22902
22911
22935
22902
22908
22930
22908
22914
22917
22900
22911
22917
22906
22903
22910
22923
22910
22916
22918
22935
22913
22919
22924
22908
22918
22915
22924
22906
22910
22918
22919
22919
22913
22919
22921
22930
22937
22913
22921
22919
22929
22919
22915
22919
22924
22912
22916
22926
22930
22916
22931
22927
22916
22925
22923
22916
22931
22927
22915
22926
22927
22930
22919
22935
22927
22905
22925
22925
22925
22940
22917
22928
22932
22926
22927
22930
22933
22935
22923
22925
22927
22935
22925
22929
22922
22931
22946
22925
22937
22932
22919
22935
22954
22922
22932
22918
22929
22937
22926
22937
22942
22924
22935
22929
22927
22931
22918
22932
22943
22953
22929
22943
22941
22953
22927
22937
22940
22930
22929
22935
22942
22927
22935
22944
22929
22937
22927
22943
22941
22927
22940
22943
22932
22938
22940
22935
22942
22932
22947
22931
22941
22932
22935
22927
22946
22937
22942
22937
22947
22934
22941
22949
22938
22943
22942
22940
22948
22948
22937
22945
22948
22939
22945
22943
22948
22935
22940
22944
22951
22943
22944
22951
22940
22950
22956
22932
22949
22935
22939
22947
22953
22938
22950
22949
22934
22948
22959
22941
22941
22951
22956
22945
22943
22951
22957
22947
22953
22950
22974
22942
22951
22956
22945
22953
22951
22951
22944
22951
22945
22958
22958
22958
22943
22956
22952
22941
22962
22961
22949
22949
22948
22953
22956
22950
22960
22959
22946
22953
22961
22948
22950
22949
22951
22957
22948
22956
22961
22947
22963
22964
22945
22959
22971
22949
22952
22964
22949
22959
22965
22950
22958
22967
22959
22958
22969
22955
22964
22952
22964
22980
22954
22959
22986
22956
22963
22951
22954
22959
22956
22959
22967
22984
22958
22973
22959
22967
22956
22969
22955
22963
22949
22967
22949
22972
22958
22991
22952
22966
22956
22969
22932
22962
22971
22983
22958
22956
22979
22958
22966
22972
22956
22959
22967
22959
22965
22972
22963
22965
22950
22964
22964
22947
22959
22964
22965
22957
22972
22967
22988
22957
22961
22966
22985
22952
22964
22972
22952
22960
22970
22957
22966
22975
22964
22969
22958
22964
22975
22961
22961
22967
22949
22963
22967
22981
22949
22962
22982
22960
22964
22950
22972
22968
22959
22959
22967
22997
22962
22972
22957
22964
22951
22969
22961
22952
22972
22975
22951
22965
22965
22962
22967
22960
22974
22969
22963
22967
22973
22967
22967
22965
22965
22969
22972
22961
22958
22964
22975
22959
22956
22965
22976
23012
22961
22975
23015
22964
22981
23002
22948
22975
22988
22949
22967
22975
22946
22965
22984
23014
22959
22999
22990
22961
22986
22993
22961
22986
22990
22991
22972
22981
22985
22979
22978
22975
22972
22978
22972
22970
22972
22969
22978
22971
22972
22979
22973
22975
22981
22968
22966
22974
22972
22964
22969
22969
22964
22979
22967
22967
22967
22974
22967
22959
22960
22968
22977
22963
22971
22976
22967
22964
22967
22952
22963
22967
22961
22967
22966
22958
22957
22968
22964
22969
22957
22975
22958
22969
22973
22972
22958
22960
22964
22969
22954
22971
22967
22972
22962
22962
22967
22964
22961
22962
22960
22967
22956
22965
22965
22948
22961
22967
22954
22952
22966
22967
22954
22962
22959
22956
22958
22962
22964
22969
22949
22967
22967
22951
22974
22965
22951
22970
22959
22944
22958
22973
22956
22958
22955
22949
22956
22953
22955
22954
22964
22956
22969
22967
22949
22963
22964
22953
22960
22964
22951
22951
22971
22959
22959
22946
22965
22956
22951
22950
22962
22948
22949
22967
22948
22959
22954
22948
22958
22956
22944
22951
22956
22947
22956
22957
22948
22950
22964
22945
22953
22975
22951
22951
22965
22953
22958
22947
22950
22954
22959
22948
22958
22948
22950
22951
22941
22950
22950
22960
22950
22951
22957
22979
22945
22950
22956
22956
22945
22941
22943
22955
22951
22958
22935
22947
22945
22964
22943
22964
22956
22959
22943
22956
22957
22955
22962
22945
22958
22947
22955
22940
22953
22951
22962
22943
22951
22956
22940
22949
22957
22941
22957
22960
22938
22940
22953
22943
22949
22950
22934
22950
22962
22937
22947
22956
22935
22951
22959
22941
22943
22949
22940
22949
22975
22940
22949
22956
22935
22953
22948
22935
22938
22942
22951
22932
22948
22948
22967
22932
22937
22950
22935
22943
22949
22923
22948
22948
22932
22932
22940
22927
22939
22938
22927
22933
22933
22946
22931
22944
22941
22926
22932
22941
22943
22931
22930
22937
22925
22930
22941
22924
22925
22932
22933
22922
22928
22933
22924
22934
22929
22926
22927
22932
22938
22919
22934
22925
22942
22918
22926
22926
22920
22924
22925
22927
22913
22928
22925
22918
22924
22924
22942
22919
22925
22927
22915
22911
22919
22925
22917
22911
22923
22919
22923
22910
22916
22911
22919
22902
22915
22910
22917
22928
22927
22919
22908
22909
22911
22916
22908
22916
22908
22906
22901
22908
22910
22913
22913
22899
22908
22911
22919
22906
22911
22910
22913
22926
22902
22908
22910
22919
22898
22909
22905
22919
22911
22908
22900
22903
22914
22894
22908
22899
22906
22910
22900
22896
22903
22903
22892
22905
22905
22910
22891
22894
22897
22907
22892
22894
22905
22900
22894
22894
22901
22908
22893
22893
22895
22908
22884
22893
22908
22887
22887
22910
22889
22902
22881
22893
22898
22887
22892
22900
22884
22891
22901
22887
22886
22893
22877
22887
22893
22879
22879
22891
22880
22885
22887
22879
22882
22887
22893
22879
22881
22878
22876
22886
22887
22862
22883
22890
22883
22886
22874
22887
22879
22871
22874
22882
22870
22879
22883
22868
22878
22876
22881
22870
22880
22874
22868
22866
22870
22882
22867
22866
22872
22861
22867
22876
22868
22868
22865
22857
22871
22874
22882
22863
22873
22878
22859
22862
22869
22860
22864
22878
22859
22863
22879
22860
22868
22870
22863
22870
22895
22861
22865
22855
22857
22871
22855
22855
22859
22877
22856
22861
22853
22864
22870
22853
22865
22863
22850
22854
22861
22847
22855
22861
22845
22854
22844
22853
22855
22844
22856
22858
22847
22855
22852
22871
22847
22849
22858
22839
22850
22853
22857
22839
22847
22860
22836
22845
22851
22833
22844
22845
22835
22854
22847
22830
22847
22846
22830
22842
22849
22836
22831
22836
22854
22845
22838
22843
22825
22851
22836
22823
22836
22843
22828
22834
22854
22831
22842
22835
22844
22830
22832
22824
22836
22836
22825
22835
22838
22826
22831
22821
22835
22831
22823
22837
22823
22833
22830
22826
22822
22831
22822
22830
22835
22821
22823
22819
22826
22820
22812
22826
22837
22815
22830
22815
22816
22822
22807
22815
22822
22823
22845
22810
22817
22824
22804
22811
22818
22806
22820
22819
22804
22810
22839
22815
22817
22796
22815
22820
22802
22807
22825
22802
22813
22823
22796
22810
22814
22796
22799
22812
22799
22799
22804
22792
22799
22810
22791
22796
22809
22796
22794
22807
22791
22795
22795
22818
22783
22794
22798
22791
22799
22806
22780
22796
22799
22820
22789
22791
22797
22786
22798
22794
22820
22780
22788
22788
22782
22774
22789
22802
22772
22782
22788
22801
22773
22798
22785
22801
22779
22783
22786
22772
22791
22783
22791
22766
22780
22776
22772
22775
22775
22772
22780
22784
22764
22781
22784
22771
22780
22801
22774
22789
22772
22772
22789
22761
22762
22776
22797
22752
22778
22798
22747
22774
22790
22754
22781
22757
22782
22751
22782
22807
22748
22778
22806
22760
22778
22790
22761
22792
22788
22767
22766
22778
22767
22770
22779
22770
22768
22764
22759
22767
22766
22760
22761
22761
22763
22765
22764
22758
22758
22764
22756
22761
22763
22756
22756
22757
22746
22761
22758
22766
22754
22758
22751
22752
22746
22746
22754
22733
22743
22746
22753
22743
22748
22750
22756
22755
22747
22756
22745
22734
22732
22743
22749
22734
22740
22743
22722
22733
22739
22733
22757
22733
22739
22740
22735
22732
22734
22737
22735
22738
22738
22724
22726
22733
22740
22729
22739
22727
22724
22728
22732
22723
22729
22733
22730
22727
22727
22728
22733
22717
22730
22730
22711
22726
22728
22725
22721
22726
22741
22722
22730
22725
22719
22719
22727
22716
22724
22735
22711
22720
22692
22708
22719
22709
22715
22712
22708
22715
22716
22704
22703
22715
22721
22711
22722
22713
22700
22708
22708
22719
22701
22713
22714
22717
22698
22706
22712
22702
22711
22692
22713
22698
22708
22709
22690
22708
22701
22714
22694
22693
22701
22697
22707
22693
22691
22694
22705
22692
22703
22698
22688
22700
22695
22707
22684
22700
22701
22700
22689
22693
22701
22678
22684
22695
22697
22685
22693
22688
22705
22684
22695
22693
22697
22703
22676
22692
22694
22699
22685
22693
22694
22678
22687
22695
22671
22680
22706
22681
22691
22677
22694
22691
22693
22668
22687
22693
22676
22694
22679
22674
22689
22684
22668
22679
22687
22674
22678
22664
22677
22682
22668
22671
22682
22665
22679
22685
22661
22685
22679
22704
22664
22673
22673
22695
22656
22678
22668
22674
22658
22667
22669
22674
22701
22663
22666
22676
22658
22660
22671
22677
22654
22672
22666
22656
22657
22675
22653
22669
22652
22664
22674
22649
22659
22666
22671
22652
22652
22671
22648
22660
22679
22650
22655
22666
22647
22657
22653
22662
22647
22660
22658
22660
22651
22655
22659
22648
22652
22641
22651
22645
22656
22636
22652
22633
22646
22642
22627
22642
22646
22637
22639
22644
22653
22640
22645
22651
22631
22639
22644
22637
22620
22640
22629
22636
22631
22655
22617
22631
22630
22623
22636
22633
22616
22628
22628
22639
22615
22631
22628
22623
22630
22626
22615
22626
22628
22606
22619
22625
22621
22624
22622
22609
22617
22624
22614
22631
22610
22617
22619
22620
22607
22629
22609
22624
22603
22607
22615
22597
22604
22618
22609
22615
22600
22607
22610
22616
22597
22602
22606
22605
22595
22597
22608
22607
22589
22596
22598
22615
22589
22599
22593
22604
22598
22590
22588
22596
22613
22588
22605
22597
22578
22581
22593
22603
22588
22588
22591
22569
22583
22596
22586
22591
22594
22580
22586
22587
22593
22577
22585
22584
22574
22580
22581
22589
22563
22573
22578
22582
22569
22575
22586
22581
22590
22575
22587
22582
22564
22577
22582
22596
22567
22567
22575
22565
22560
22582
22565
22574
22564
22563
22564
22575
22556
22569
22575
22559
22561
22580
22551
22564
22564
22558
22577
22561
22552
22553
22565
22577
22551
22557
22566
22551
22559
22567
22546
22548
22563
22551
22551
22558
22559
22547
22551
22558
22545
22554
22554
22535
22543
22553
22516
22545
22551
22558
22549
22546
22574
22534
22549
22551
22533
22534
22539
22551
22527
22535
22548
22528
22529
22534
22540
22531
22540
22541
22546
22527
22535
22535
22545
22526
22532
22543
22516
22527
22531
22517
22518
22523
22531
22517
22534
22529
22514
22527
22529
22516
22534
22532
22514
22535
22527
22506
22519
22524
22535
22509
22519
22504
22527
22525
22508
22518
22527
22508
22508
22524
22503
22518
22517
22522
22501
22511
22511
22541
22500
22505
22513
22511
22514
22511
22516
22498
22500
22503
22511
22529
22495
22505
22507
22495
22500
22502
22502
22488
22506
22504
22491
22493
22498
22507
22487
22493
22495
22502
22508
22485
22488
22498
22505
22487
22500
22488
22476
22481
22488
22497
22481
22493
22491
22508
22477
22482
22495
22480
22487
22486
22475
22483
22484
22495
22469
22478
22486
22468
22491
22486
22467
22469
22478
22494
22470
22476
22468
22487
22482
22469
22471
22479
22471
22481
22474
22461
22468
22472
22460
22471
22474
22458
22467
22467
22485
22459
22467
22472
22459
22464
22469
22471
22466
22446
22447
22463
22466
22455
22462
22459
22469
22449
22465
22453
22446
22450
22460
22464
22442
22455
22462
22471
22444
22452
22462
22443
22441
22452
22457
22436
22455
22463
22444
22450
22439
22460
22442
22441
22445
22474
22445
22451
22449
22428
22447
22444
22453
22429
22436
22435
22439
22432
22439
22428
22432
22441
22446
22427
22438
22441
22428
22433
22418
22440
22425
22418
22445
22424
22446
22413
22429
22436
22416
22433
22436
22412
22415
22422
22436
22412
22422
22429
22435
22412
22427
22423
22425
22406
22418
22422
22415
22406
22413
22412
22405
22412
22423
22426
22414
22413
22415
22412
22415
22417
22405
22420
22416
22399
22404
22410
22420
22405
22407
22410
22421
22433
22402
22404
22407
22417
22436
22399
22413
22406
22391
22386
22401
22417
22379
22391
22402
22420
22374
22396
22414
22444
22385
22426
22430
22449
22398
22428
22415
22508
22395
22408
22409
22418
22383
22415
22410
22398
22402
22404
22397
22399
22397
22397
22392
22399
22399
22385
22391
22392
22400
22393
22388
22387
22390
22394
22394
22383
22387
22391
22383
22385
22390
22383
22383
22387
22388
22377
22374
22383
22379
22382
22375
22374
22378
22380
22373
22381
22378
22370
22375
22378
22360
22374
22384
22373
22378
22372
22375
22373
22371
22372
22355
22370
22372
22374
22361
22373
22372
22361
22364
22371
22360
22368
22369
22351
22367
22358
22360
22371
22358
22359
22353
22358
22370
22348
22351
22364
22343
22353
22366
22349
22349
22362
22349
22357
22359
22351
22366
22359
22345
22356
22356
22343
22351
22363
22351
22356
22353
22340
22342
22355
22356
22339
22341
22353
22345
22345
22352
22341
22347
22334
22341
22351
22333
22338
22351
22335
22335
22346
22330
22349
22350
22331
22335
22347
22330
22340
22331
22343
22335
22331
22334
22319
22329
22349
22331
22335
22323
22327
22333
22334
22329
22338
22330
22324
22340
22328
22330
22319
22327
22338
22319
22328
22318
22332
22326
22320
22327
22311
22325
22325
22309
22322
22340
22315
22311
22325
22311
22321
22327
22319
22318
22304
22319
22316
22308
22319
22327
22307
22311
22320
22309
22311
22326
22318
22319
22324
22308
22317
22315
22302
22311
22315
22346
22300
22303
22329
22306
22319
22298
22318
22317
22291
22306
22333
22305
22311
22297
22311
22309
22297
22301
22308
22290
22299
22310
22298
22303
22309
22315
22294
22308
22302
22311
22291
22303
22323
22292
22301
22305
22290
22295
22308
22274
22303
22305
22285
22301
22297
22331
22289
22296
22305
22279
22297
22284
22295
22308
22279
22300
22298
22278
22292
22295
22281
22295
22297
22277
22284
22294
22275
22284
22294
22277
22292
22286
22276
22273
22288
22289
22268
22273
22285
22271
22289
22287
22269
22279
22279
22292
22268
22277
22301
22268
22275
22292
22270
22275
22263
22277
22278
22255
22271
22269
22257
22261
22269
22277
22258
22263
22271
22245
22266
22270
22257
22257
22261
22251
22256
22263
22249
22255
22269
22248
22266
22246
22252
22260
22246
22260
22238
22245
22263
22244
22261
22260
22246
22249
22260
22247
22257
22255
22238
22249
22267
22244
22251
22238
22244
22253
22236
22247
22252
22238
22250
22234
22240
22233
22247
22246
22231
22232
22231
22247
22231
22238
22240
22246
22227
22241
22228
22240
22244
22224
22239
22251
22225
22222
22238
22223
22238
22228
22217
22227
22235
22239
22221
22221
22234
22246
22219
22223
22232
22217
22225
22234
22214
22225
22236
22217
22224
22233
22221
22223
22242
22209
22226
22231
22215
22228
22221
22210
22223
22223
22206
22218
22226
22213
22214
22228
22206
22212
22214
22203
22207
22220
22199
22212
22211
22220
22196
22210
22213
22231
22205
22204
22198
22204
22211
22196
22199
22210
22226
22203
22202
22212
22188
22202
22212
22204
22214
22203
22193
22197
22206
22212
22191
22203
22207
22192
22202
22190
22195
22205
22188
22192
22210
22182
22193
22203
22191
22193
22198
22212
22183
22193
22222
22187
22191
22205
22183
22196
22193
22181
22178
22190
22198
22176
22184
22195
22180
22191
22172
22192
22177
22189
22194
22180
22180
22181
22183
22180
22183
22185
22172
22180
22183
22199
22176
22180
22181
22175
22175
22182
22188
22165
22186
22182
22186
22171
22170
22178
22169
22164
22171
22175
22204
22154
22174
22184
22162
22169
22180
22167
22179
22181
22161
22172
22172
22161
22180
22178
22155
22167
22174
22153
22180
22169
22181
22155
22162
22167
22154
22159
22172
22196
22151
22174
22164
22167
22146
22149
22156
22172
22147
22148
22155
22172
22151
22156
22164
22148
22161
22163
22197
22150
22157
22163
22145
22150
22158
22175
22143
22151
22175
22138
22150
22183
22137
22151
22159
22139
22148
22161
22135
22152
22146
22157
22132
22150
22151
22139
22138
22142
22148
22127
22135
22152
22145
22153
22135
22138
22134
22151
22131
22137
22140
22148
22119
22138
22142
22146
22127
22135
22141
22151
22123
22127
22141
22135
22144
22120
22130
22141
22125
22133
22143
22126
22122
22127
22118
22132
22119
22134
22115
22135
22132
22116
22123
22127
22132
22116
22121
22129
22140
22114
22129
22132
22111
22126
22125
22108
22113
22124
22103
22113
22116
22134
22124
22135
22111
22129
22114
22125
22119
22106
22124
22122
22119
22106
22127
22119
22103
22115
22121
22106
22111
22119
22101
22119
22114
22103
22111
22111
22101
22124
22112
22098
22104
22119
22132
22095
22100
22110
22091
22102
22110
22092
22102
22111
22105
22104
22106
22090
22101
22105
22114
22089
22100
22102
22106
22087
22087
22093
22111
22083
22090
22101
22084
22090
22103
22084
22099
22079
22096
22096
22083
22089
22107
22087
22094
22077
22089
22080
22091
22094
22071
22087
22097
22078
22092
22076
22082
22093
22077
22087
22073
22087
22112
22070
22080
22073
22078
22086
22067
22085
22082
22065
22084
22082
22068
22084
22087
22068
22087
22079
22073
22080
22074
22088
22087
22103
22075
22097
22066
22070
22064
22063
22082
22058
22071
22079
22058
22065
22092
22060
22067
22081
22054
22066
22067
22055
22065
22066
22050
22061
22060
22074
22060
22058
22074
22054
22074
22066
22052
22070
22066
22061
22061
22066
22052
22054
22063
22096
22050
22061
22072
22048
22061
22079
22045
22050
22063
22080
22044
22076
22084
22040
22084
22074
22032
22055
22057
22102
22033
22089
22073
22042
22047
22064
22092
22046
22081
22086
22048
22069
22102
22052
22070
22049
22055
22061
22072
22054
22054
22052
22044
22049
22053
22054
22045
22051
22058
22045
22049
22052
22055
22045
22053
22049
22032
22043
22047
22041
22036
22041
22044
22041
22035
22043
22041
22052
22037
22050
22046
22033
22035
22046
22044
22023
22035
22036
22031
22036
22036
22031
22039
22033
22023
22031
22033
22022
22044
22037
22022
22033
22035
22023
22017
22036
22034
22037
22023
22031
22028
22016
22034
22023
22020
22030
22023
22017
22020
22023
22028
22019
22023
22023
22027
22013
22012
22028
22023
22039
22019
22019
22015
22023
22013
22007
22017
22023
22018
22014
22029
22008
22013
22021
22022
22007
22021
22017
22012
22019
22013
22020
22006
22009
22014
22023
22004
22011
22011
22021
22039
22006
22015
22022
22006
22017
22015
22020
21997
22009
22010
22019
21993
21996
22003
22015
21999
22003
22005
22013
22036
21999
22004
22008
21998
22002
22001
22006
21993
21989
21998
22001
21999
22011
21991
21998
22007
22021
21991
21998
22007
21989
22010
22002
21989
21994
21999
22006
21984
22007
21999
22018
21996
21999
22002
21989
21991
22004
21987
22004
21999
22010
21986
22001
22004
22025
21986
21990
21999
21987
21983
21991
21998
21985
22000
21996
22007
21980
22000
21996
21983
21990
21990
22002
21980
21999
21997
21983
21988
21996
21982
21990
21999
21982
22004
21991
22005
21983
21989
22013
21983
21991
22002
21986
21991
21988
21993
21965
21983
21995
21975
21974
21981
21988
21975
21979
21979
21990
22006
21978
21980
21993
21975
21973
21988
21982
21988
21966
21980
21983
21989
21975
21990
21983
22005
21973
21981
21988
21967
21977
21981
21988
21971
21975
21978
21988
21970
21972
21975
21987
21971
21970
21975
21983
21970
21983
21977
21991
21965
21961
21981
21977
21987
21967
21975
21973
21974
21958
21974
21963
21971
21995
21964
21971
21979
21961
21983
21972
21973
21980
21957
21962
21970
21968
21990
21958
21963
21964
21955
21973
21971
21972
21955
21958
21958
21972
21957
21960
21964
21953
21953
21968
21965
21954
21953
21969
21959
21969
21949
21967
21957
21943
21942
21957
21960
21945
21949
21959
21966
21947
21962
21957
21977
21950
21953
21958
21937
21949
21949
21958
21976
21935
21946
21950
21958
21941
21949
21958
21956
21965
21946
21949
21958
21943
21940
21948
21950
21935
21943
21956
21947
21954
21933
21940
21951
21948
21966
21939
21954
21948
21952
21936
21947
21951
21950
21934
21935
21946
21949
21933
21935
21941
21948
21929
21937
21941
21948
21936
21943
21941
21950
21930
21944
21948
21946
21931
21940
21936
21950
21930
21943
21939
21941
21932
21921
21945
21939
21930
21932
21935
21945
21927
21935
21940
21942
21925
21924
21932
21941
21927
21937
21934
21926
21927
21932
21947
21918
21933
21940
21922
21937
21935
21924
21925
21930
21948
21921
21929
21935
21922
21924
21935
21912
21918
21935
21935
21947
21919
21924
21931
21921
21924
21920
21930
21903
21918
21924
21917
21925
21922
21912
21927
21925
21914
21932
21925
21915
21924
21927
21910
21916
21927
21912
21926
21922
21909
21924
21925
21902
21915
21925
21909
21916
21932
21906
21910
21924
21908
21911
21924
21901
21916
21926
21911
21910
21934
21916
21916
21908
21911
21916
21901
21913
21914
21904
21913
21934
21903
21911
21921
21903
21923
21916
21905
21900
21923
21909
21914
21897
21917
21916
21899
21917
21908
21901
21911
21912
21897
21906
21913
21898
21908
21919
21900
21919
21917
21896
21904
21924
21895
21895
21910
21895
21906
21905
21895
21898
21910
21935
21892
21915
21921
21897
21902
21906
21886
21900
21911
21889
21908
21905
21887
21898
21900
21911
21887
21897
21904
21887
21886
21901
21908
21892
21902
21915
21888
21905
21900
21905
21884
21894
21911
21886
21894
21903
21886
21894
21902
21876
21895
21904
21895
21895
21904
21884
21897
21885
21898
21895
21884
21901
21891
21885
21908
21892
21896
21877
21892
21902
21919
21885
21892
21917
21885
21900
21895
21885
21888
21894
21903
21877
21892
21882
21899
21892
21876
21892
21908
21887
21887
21897
21885
21892
21893
21897
21876
21890
21892
21870
21880
21895
21879
21882
21895
21876
21886
21895
21877
21887
21897
21877
21890
21895
21884
21894
21889
21873
21889
21895
21876
21885
21891
21871
21869
21885
21890
21903
21876
21887
21889
21876
21885
21895
21871
21880
21892
21875
21881
21903
21882
21884
21871
21882
21882
21873
21868
21884
21893
21874
21871
21879
21921
21878
21878
21903
21877
21887
21881
21893
21870
21876
21879
21868
21884
21883
21861
21886
21888
21890
21865
21884
21889
21875
21883
21877
21895
21869
21877
21887
21859
21876
21889
21868
21868
21882
21862
21877
21880
21863
21885
21887
21871
21879
21864
21863
21886
21868
21876
21858
21862
21877
21884
21863
21871
21883
21865
21871
21879
21863
21874
21889
21857
21873
21881
21861
21871
21885
21863
21874
21860
21868
21866
21865
21879
21879
21863
21865
21863
21870
21882
21879
21877
21863
21866
21894
21866
21865
21862
21871
21868
21856
21867
21895
21863
21877
21860
21868
21882
21861
21879
21882
21856
21878
21900
21855
21876
21890
21855
21894
21887
21849
21900
21892
21850
21892
21896
21861
21886
21868
21905
21903
21863
21887
21874
21892
21887
21877
21884
21891
21863
21881
21870
21876
21879
21871
21864
21877
21863
21864
21878
21871
21873
21867
21873
21868
21864
21860
21876
21870
21868
21858
21868
21871
21870
21866
21863
21861
21871
21872
21860
21870
21869
21876
21861
21874
21874
21854
21863
21870
21858
21859
21863
21868
21855
21862
21862
21869
21859
21854
21863
21865
21871
21855
21867
21871
21877
21852
21862
21866
21871
21855
21863
21854
21853
21857
21861
21853
21863
21866
21852
21860
21865
21854
21865
21860
21849
21863
21860
21846
21856
21866
21851
21857
21863
21849
21860
21850
21855
21852
21850
21858
21865
21881
21852
21850
21862
21850
21856
21860
21885
21849
21863
21861
21844
21855
21863
21847
21863
21844
21856
21866
21851
21860
21845
21854
21878
21855
21862
21841
21853
21859
21848
21855
21861
21843
21856
21869
21847
21863
21850
21863
21862
21846
21856
21871
21856
21852
21844
21849
21852
21839
21860
21852
21882
21847
21850
21862
21847
21856
21856
21884
21847
21857
21838
21847
21861
21842
21848
21877
21849
21855
21841
21847
21850
21840
21848
21852
21845
21862
21858
21860
21845
21862
21860
21875
21840
21855
21863
21841
21866
21855
21835
21844
21853
21858
21842
21848
21859
21845
21853
21855
21845
21853
21849
21868
21849
21849
21860
21836
21857
21857
21841
21843
21855
21861
21846
21851
21863
21845
21855
21865
21844
21859
21846
21848
21852
21891
21849
21854
21870
21837
21863
21858
21852
21844
21849
21859
21867
21844
21848
21860
21863
21837
21850
21859
21871
21838
21846
21855
21885
21836
21850
21860
21836
21847
21860
21834
21867
21861
21844
21847
21860
21835
21854
21863
21841
21845
21868
21845
21855
21839
21846
21856
21839
21846
21844
21849
21853
21834
21852
21846
21848
21860
21843
21853
21876
21853
21852
21830
21853
21839
21841
21856
21839
21849
21830
21849
21839
21841
21857
21848
21849
21835
21847
21829
21857
21841
21846
21839
21844
21853
21847
21858
21836
21864
21835
21852
21835
21836
21848
21842
21844
21853
21829
21839
21825
21839
21848
21833
21849
21844
21826
21839
21831
21844
21844
21832
21846
21832
21836
21844
21831
21855
21850
21835
21846
21838
21828
21836
21828
21839
21849
21830
21839
21830
21837
21833
21829
21839
21876
21830
21837
21848
21837
21833
21825
21842
21845
21826
21822
21858
21835
21838
21825
21845
21822
21836
21831
21845
21840
21827
21835
21823
21838
21846
21826
21833
21844
21830
21828
21836
21824
21827
21833
21836
21821
21831
21846
21833
21836
21823
21829
21844
21863
21822
21830
21842
21824
21831
21830
21822
21834
21831
21820
21823
21828
21821
21830
21834
21863
21827
21833
21817
21830
21842
21821
21833
21836
21825
21828
21814
21831
21835
21817
21828
21833
21820
21831
21847
21826
21835
21820
21833
21839
21818
21831
21820
21829
21830
21818
21832
21812
21829
21814
21825
21824
21826
21818
21839
21847
21831
21838
21823
21829
21843
21824
21831
21815
21837
21831
21813
21825
21818
21829
21833
21812
21823
21813
21831
21835
21818
21822
21836
21808
21826
21813
21825
21834
21821
21817
21839
21815
21829
21809
21820
21814
21820
21833
21823
21826
21810
21825
21819
21831
21834
21819
21827
21810
21831
21815
21828
21828
21812
21818
21814
21828
21824
21808
21817
21838
21818
21825
21830
21813
21823
21848
21823
21834
21826
21807
21820
21814
21830
21825
21812
21823
21836
21819
21827
21810
21817
21831
21817
21823
21854
21815
21823
21807
21824
21818
21813
21819
21822
21802
21821
21827
21815
21819
21829
21815
21818
21830
21812
21825
21810
21827
21822
21803
21819
21828
21808
21820
21832
21807
21816
21823
21797
21815
21830
21813
21810
21830
21809
21818
21826
21807
21830
21817
21805
21814
21823
21804
21816
21820
21808
21823
21804
21814
21819
21809
21820
21822
21806
21824
21806
21815
21807
21823
21828
21807
21815
21826
21805
21811
21801
21815
21817
21801
21813
21830
21813
21822
21798
21817
21820
21798
21814
21822
21801
21812
21817
21806
21806
21818
21798
21822
21816
21796
21820
21805
21817
21825
21801
21814
21794
21815
21821
21804
21806
21827
21815
21807
21798
21816
21817
21797
21811
21830
21806
21817
21793
21809
21822
21803
21812
21802
21809
21830
21807
21812
21795
21802
21816
21792
21811
21838
21813
21813
21794
21810
21797
21815
21821
21800
21803
21800
21815
21813
21797
21807
21817
21799
21812
21795
21810
21817
21797
21808
21791
21809
21796
21807
21819
21804
21807
21794
21799
21840
21806
21813
21796
21799
21792
21793
21807
21796
21810
21803
21787
21801
21815
21789
21795
21804
21824
21801
21804
21809
21791
21796
21811
21785
21796
21810
21787
21804
21804
21789
21808
21807
21785
21806
21834
21798
21802
21790
21803
21789
21804
21811
21786
21791
21826
21799
21802
21792
21796
21788
21796
21806
21788
21807
21803
21786
21799
21804
21787
21799
21784
21788
21800
21789
21793
21788
21804
21808
21783
21799
21785
21799
21788
21800
21782
21793
21821
21797
21810
21791
21795
21786
21791
21818
21790
21799
21775
21796
21813
21796
21802
21791
21792
21794
21803
21798
21793
21801
21777
21797
21783
21788
21802
21782
21802
21795
21791
21806
21806
21788
21801
21783
21798
21821
21777
21800
21823
21772
21800
21839
21782
21814
21771
21806
21817
21773
21805
21826
21778
21804
21830
21780
21810
21834
21792
21810
21847
21804
21816
21792
21802
21807
21795
21791
21807
21788
21798
21793
21800
21799
21793
21796
21803
21798
21795
21790
21797
21799
21795
21785
21799
21795
21782
21796
21799
21783
21790
21796
21792
21789
21796
21798
21792
21797
21782
21791
21802
21791
21786
21798
21785
21793
21803
21784
21788
21779
21791
21791
21772
21788
21796
21785
21787
21790
21801
21780
21791
21777
21781
21788
21775
21785
21767
21777
21786
21775
21783
21786
21777
21791
21785
21774
21775
21791
21781
21786
21774
21780
21785
21773
21776
21787
21766
21779
21781
21763
21780
21786
21775
21774
21794
21785
21786
21766
21780
21771
21780
21783
21765
21770
21782
21766
21783
21799
21767
21787
21767
21781
21768
21788
21780
21767
21776
21784
21767
21782
21782
21794
21767
21778
21767
21780
21779
21761
21767
21778
21762
21778
21766
21785
21776
21767
21781
21789
21767
21781
21790
21764
21777
21799
21771
21771
21791
21771
21770
21777
21767
21775
21799
21766
21769
21787
21766
21772
21783
21767
21771
21779
21756
21774
21787
21766
21777
21767
21772
21758
21767
21783
21759
21767
21778
21760
21775
21775
21764
21769
21798
21761
21766
21755
21774
21770
21757
21765
21751
21783
21755
21770
21757
21764
21774
21758
21767
21774
21753
21777
21778
21761
21784
21761
21806
21773
21773
21759
21766
21779
21756
21766
21794
21766
21774
21758
21775
21772
21762
21780
21781
21764
21768
21791
21764
21773
21757
21767
21767
21757
21762
21769
21755
21780
21775
21759
21765
21774
21752
21766
21783
21751
21766
21789
21756
21765
21793
21757
21767
21750
21756
21774
21757
21751
21767
21773
21756
21759
21772
21757
21764
21775
21753
21758
21757
21767
21749
21751
21761
21773
21761
21757
21760
21765
21748
21767
21774
21753
21759
21774
21753
21763
21765
21788
21750
21763
21788
21752
21758
21767
21748
21765
21767
21751
21753
21771
21749
21758
21759
21749
21759
21767
21749
21754
21762
21745
21743
21753
21763
21743
21747
21759
21737
21755
21763
21748
21757
21743
21762
21758
21742
21748
21750
21756
21740
21748
21755
21738
21746
21760
21740
21748
21767
21743
21756
21751
21756
21734
21751
21759
21737
21749
21754
21740
21756
21749
21735
21737
21743
21752
21738
21743
21745
21735
21740
21753
21734
21743
21756
21739
21748
21730
21739
21744
21741
21736
21749
21731
21745
21737
21757
21731
21745
21754
21735
21745
21728
21740
21731
21747
21748
21729
21735
21735
21750
21732
21739
21751
21734
21747
21731
21734
21753
21735
21741
21731
21745
21754
21731
21741
21766
21735
21745
21732
21728
21741
21761
21734
21735
21748
21731
21739
21749
21740
21747
21743
21720
21740
21733
21744
21740
21724
21734
21723
21741
21728
21742
21728
21746
21741
21757
21727
21735
21747
21728
21732
21742
21720
21729
21741
21725
21740
21734
21759
21724
21730
21737
21722
21730
21720
21722
21735
21726
21726
21738
21721
21730
21743
21718
21724
21741
21725
21738
21716
21725
21719
21734
21737
21716
21726
21715
21726
21719
21719
21759
21735
21738
21722
21735
21728
21752
21716
21730
21729
21731
21714
21711
21721
21733
21719
21715
21723
21731
21713
21731
21731
21748
21719
21719
21731
21714
21721
21727
21719
21727
21711
21722
21708
21709
21746
21726
21730
21709
21727
21722
21717
21718
21723
21711
21729
21729
21712
21714
21718
21702
21709
21718
21706
21712
21722
21708
21732
21728
21705
21709
21724
21706
21711
21719
21709
21727
21728
21703
21721
21725
21711
21716
21716
21686
21709
21717
21708
21722
21720
21709
21708
21722
21720
21707
21730
21721
21701
21700
21720
21715
21704
21708
21709
21719
21702
21718
21721
21703
21707
21714
21736
21704
21714
21716
21704
21707
21721
21722
21692
21714
21716
21698
21705
21706
21719
21694
21709
21716
21698
21710
21718
21701
21701
21708
21711
21697
21716
21714
21716
21700
21700
21695
21700
21711
21722
21701
21705
21711
21692
21707
21718
21694
21707
21707
21745
21694
21704
21724
21694
21707
21691
21689
21705
21693
21711
21708
21690
21701
21699
21703
21707
21697
21696
21704
21732
21692
21702
21714
21690
21704
21705
21684
21701
21703
21718
21687
21701
21711
21690
21701
21704
21695
21701
21703
21737
21696
21707
21690
21703
21712
21697
21710
21692
21690
21698
21697
21689
21706
21706
21687
21703
21712
21690
21698
21711
21687
21702
21724
21695
21701
21684
21682
21698
21686
21699
21701
21686
21698
21677
21700
21698
21691
21700
21706
21688
21697
21685
21706
21703
21682
21694
21699
21685
21692
21698
21671
21681
21701
21701
21717
21682
21692
21701
21715
21692
21693
21702
21679
21698
21698
21679
21703
21695
21670
21700
21702
21685
21685
21694
21681
21696
21695
21687
21702
21682
21697
21701
21676
21690
21684
21686
21686
21696
21678
21685
21705
21674
21692
21679
21697
21696
21676
21693
21730
21685
21695
21721
21683
21689
21697
21677
21687
21688
21673
21693
21690
21684
21694
21691
21670
21694
21695
21677
21689
21687
21694
21676
21680
21682
21694
21695
21671
21687
21690
21695
21668
21679
21695
21676
21685
21688
21717
21676
21692
21690
21675
21681
21673
21679
21671
21683
21687
21668
21677
21684
21703
21676
21682
21687
21669
21670
21684
21674
21679
21695
21687
21671
21670
21681
21702
21669
21679
21681
21666
21673
21681
21669
21673
21698
21669
21679
21662
21669
21681
21697
21678
21681
21658
21672
21675
21662
21671
21677
21665
21675
21662
21673
21676
21664
21670
21661
21673
21711
21684
21696
21679
21680
21654
21671
21660
21670
21694
21662
21673
21663
21663
21684
21664
21675
21662
21674
21683
21659
21676
21685
21662
21669
21658
21664
21667
21695
21655
21671
21657
21655
21669
21661
21671
21673
21656
21673
21678
21662
21675
21676
21669
21670
21660
21665
21668
21682
21659
21666
21657
21677
21678
21659
21669
21693
21660
21667
21699
21652
21672
21649
21679
21725
21636
21676
21674
21801
21644
21665
21706
21645
21695
21694
21651
21674
21678
21704
21666
21674
21681
21700
21660
21679
21692
21659
21674
21679
21670
21663
21663
21667
21669
21671
21673
21660
21669
21676
21666
21669
21668
21671
21667
21664
21668
21660
21660
21663
21656
21663
21663
21655
21661
21667
21673
21657
21657
21671
21661
21667
21668
21652
21655
21657
21668
21660
21660
21663
21644
21653
21663
21654
21662
21661
21654
21657
21661
21668
21654
21653
21658
21666
21652
21663
21668
21655
21662
21652
21645
21654
21661
21654
21660
21658
21640
21655
21650
21663
21650
21659
21663
21647
21661
21665
21650
21652
21664
21645
21660
21643
21653
21662
21644
21654
21653
21648
21655
21639
21650
21661
21644
21663
21654
21649
21652
21660
21646
21651
21657
21652
21658
21652
21643
21653
21658
21644
21656
21648
21641
21649
21642
21652
21646
21679
21641
21656
21642
21649
21655
21639
21652
21638
21641
21649
21677
21646
21655
21641
21647
21639
21651
21655
21639
21660
21655
21647
21654
21645
21636
21654
21652
21634
21644
21671
21647
21645
21659
21639
21655
21654
21633
21652
21654
21639
21651
21670
21646
21651
21636
21643
21634
21651
21659
21636
21639
21647
21639
21642
21649
21679
21640
21648
21655
21640
21639
21647
21653
21639
21642
21649
21637
21649
21650
21636
21641
21637
21644
21653
21642
21650
21662
21638
21654
21641
21647
21652
21636
21648
21639
21650
21660
21636
21653
21652
21636
21656
21655
21644
21649
21636
21652
21655
21641
21647
21636
21644
21649
21635
21661
21650
21631
21647
21652
21636
21639
21651
21636
21651
21647
21637
21647
21647
21684
21637
21642
21675
21637
21647
21678
21637
21644
21626
21636
21668
21647
21652
21642
21658
21638
21650
21639
21646
21637
21641
21652
21623
21639
21652
21630
21639
21631
21647
21644
21633
21646
21642
21628
21646
21653
21629
21639
21650
21631
21641
21629
21640
21644
21629
21637
21662
21635
21647
21630
21634
21623
21646
21646
21623
21638
21664
21633
21641
21621
21638
21652
21630
21643
21623
21635
21620
21635
21620
21627
21639
21628
21628
21645
21620
21633
21646
21626
21631
21649
21621
21627
21621
21623
21631
21630
21618
21629
21631
21620
21631
21621
21620
21630
21635
21615
21630
21633
21622
21639
21629
21615
21623
21628
21644
21611
21623
21628
21617
21614
21619
21653
21612
21628
21632
21615
21623
21650
21617
21628
21633
21616
21637
21646
21618
21623
21633
21613
21621
21629
21605
21623
21634
21613
21622
21615
21631
21626
21605
21623
21635
21614
21619
21610
21621
21622
21606
21623
21623
21610
21620
21619
21645
21608
21618
21626
21606
21620
21631
21606
21617
21602
21612
21621
21606
21619
21630
21608
21611
21631
21614
21621
21614
21617
21626
21610
21621
21637
21610
21626
21604
21613
21623
21602
21609
21614
21615
21625
21625
21607
21615
21625
21623
21605
21615
21618
21628
21606
21615
21634
21606
21623
21600
21608
21599
21605
21623
21605
21618
21591
21612
21642
21610
21623
21605
21614
21604
21617
21615
21599
21611
21600
21606
21621
21599
21610
21599
21613
21617
21598
21613
21615
21602
21613
21607
21601
21615
21596
21612
21601
21616
21604
21607
21614
21595
21604
21616
21596
21607
21607
21595
21606
21611
21600
21619
21612
21592
21609
21612
21598
21612
21615
21594
21602
21629
21590
21606
21596
21608
21607
21596
21605
21611
21588
21600
21623
21590
21606
21612
21589
21602
21609
21593
21607
21604
21591
21595
21602
21620
21599
21600
21609
21588
21602
21591
21609
21607
21586
21606
21604
21582
21599
21608
21590
21594
21582
21607
21606
21577
21593
21607
21584
21593
21599
21584
21609
21607
21589
21601
21584
21598
21605
21585
21599
21582
21604
21607
21585
21601
21580
21596
21580
21598
21601
21588
21600
21584
21607
21601
21585
21597
21577
21604
21600
21582
21587
21599
21579
21593
21597
21576
21605
21601
21606
21588
21591
21607
21582
21589
21607
21587
21599
21600
21585
21597
21596
21577
21576
21589
21599
21579
21595
21580
21589
21596
21583
21583
21592
21577
21591
21593
21578
21600
21595
21579
21594
21594
21575
21596
21595
21578
21591
21587
21595
21575
21596
21595
21574
21580
21586
21594
21578
21585
21601
21577
21585
21584
21571
21590
21599
21575
21585
21598
21582
21591
21575
21582
21589
21627
21583
21589
21566
21579
21598
21575
21575
21572
21575
21588
21573
21584
21585
21575
21593
21587
21573
21591
21591
21574
21579
21612
21573
21582
21590
21562
21577
21592
21569
21574
21600
21572
21583
21571
21583
21595
21574
21574
21588
21569
21582
21600
21575
21586
21574
21578
21588
21566
21570
21591
21566
21574
21586
21568
21580
21594
21571
21582
21578
21580
21578
21573
21581
21568
21572
21589
21574
21583
21563
21572
21578
21561
21573
21595
21570
21583
21567
21584
21592
21574
21583
21566
21588
21581
21570
21576
21560
21574
21591
21568
21575
21564
21573
21578
21566
21580
21584
21577
21580
21609
21574
21583
21562
21572
21587
21567
21574
21564
21582
21585
21555
21576
21564
21579
21583
21566
21577
21588
21573
21575
21564
21567
21558
21586
21580
21549
21571
21613
21572
21572
21559
21587
21580
21559
21578
21579
21562
21572
21583
21565
21575
21563
21564
21575
21556
21567
21567
21574
21556
21565
21575
21554
21572
21579
21564
21578
21564
21583
21561
21573
21559
21572
21596
21565
21575
21558
21558
21583
21559
21569
21556
21564
21579
21555
21559
21556
21574
21574
21550
21567
21558
21562
21575
21565
21572
21555
21565
21580
21556
21572
21554
21569
21548
21565
21557
21575
21573
21556
21568
21553
21562
21593
21556
21572
21550
21564
21596
21560
21563
21549
21557
21577
21565
21567
21561
21573
21562
21572
21554
21564
21552
21561
21551
21551
21579
21559
21566
21551
21563
21549
21549
21574
21564
21567
21551
21558
21573
21554
21562
21552
21559
21570
21552
21559
21569
21558
21575
21548
21558
21611
21562
21575
21553
21556
21572
21548
21564
21572
21535
21582
21575
21539
21560
21595
21535
21561
21596
21542
21563
21598
21543
21569
21550
21588
21622
21569
21584
21556
21572
21562
21583
21580
21582
21551
21567
21555
21571
21562
21566
21554
21554
21561
21559
21561
21549
21567
21555
21562
21560
21573
21557
21560
21556
21546
21559
21554
21558
21554
21549
21561
21559
21542
21554
21564
21552
21556
21545
21555
21545
21557
21559
21550
21556
21551
21557
21550
21553
21559
21546
21551
21548
21557
21565
21552
21568
21550
21560
21545
21553
21545
21552
21569
21556
21540
21556
21551
21542
21547
21558
21547
21550
21543
21551
21533
21548
21558
21541
21553
21540
21543
21552
21543
21551
21540
21547
21538
21557
21553
21540
21552
21540
21550
21533
21546
21551
21536
21542
21543
21535
21545
21552
21541
21547
21536
21549
21545
21538
21538
21543
21533
21548
21557
21537
21548
21527
21543
21541
21541
21561
21540
21547
21538
21549
21572
21550
21550
21533
21555
21537
21543
21531
21548
21550
21534
21554
21532
21543
21539
21542
21550
21550
21554
21542
21551
21534
21541
21556
21541
21548
21527
21541
21532
21551
21542
21527
21542
21538
21542
21558
21539
21543
21533
21540
21549
21535
21545
21529
21540
21532
21543
21529
21541
21527
21551
21543
21535
21540
21529
21540
21535
21537
21546
21532
21543
21526
21543
21540
21519
21537
21551
21527
21535
21561
21537
21543
21532
21550
21548
21535
21537
21528
21535
21564
21541
21546
21532
21544
21524
21543
21526
21551
21546
21528
21543
21526
21555
21545
21531
21541
21547
21536
21546
21532
21535
21551
21534
21543
21524
21531
21557
21533
21544
21530
21544
21553
21527
21543
21527
21544
21545
21526
21540
21525
21549
21548
21530
21535
21544
21523
21548
21549
21528
21540
21526
21535
21543
21528
21542
21527
21538
21525
21535
21521
21543
21558
21529
21541
21532
21544
21526
21544
21537
21543
21529
21542
21525
21541
21524
21539
21534
21540
21544
21522
21534
21521
21540
21534
21523
21534
21548
21534
21532
21519
21534
21541
21522
21525
21541
21534
21530
21516
21521
21540
21521
21519
21533
21524
21525
21537
21522
21533
21511
21527
21521
21538
21538
21519
21525
21542
21522
21532
21522
21534
21533
21523
21530
21511
21526
21511
21524
21541
21531
21532
21519
21531
21511
21527
21527
21511
21523
21536
21510
21524
21505
21518
21518
21509
21524
21520
21509
21506
21524
21519
21518
21530
21506
21511
21535
21511
21519
21510
21528
21522
21508
21520
21524
21508
21511
21519
21506
21522
21528
21503
21511
21530
21504
21524
21522
21511
21515
21522
21504
21516
21500
21524
21531
21505
21505
21521
21510
21511
21495
21511
21525
21509
21511
21543
21516
21521
21503
21510
21525
21503
21511
21510
21524
21517
21495
21519
21518
21505
21511
21516
21503
21515
21501
21511
21525
21509
21519
21503
21515
21499
21502
21519
21503
21506
21536
21509
21511
21495
21508
21518
21500
21511
21524
21500
21511
21499
21508
21517
21503
21511
21511
21493
21511
21529
21498
21507
21497
21504
21517
21498
21510
21487
21498
21515
21501
21504
21516
21495
21501
21511
21498
21500
21490
21499
21508
21500
21508
21531
21511
21511
21503
21510
21501
21506
21496
21518
21510
21494
21505
21519
21499
21502
21491
21501
21532
21500
21508
21491
21502
21535
21494
21504
21491
21511
21489
21498
21508
21493
21511
21494
21502
21485
21500
21526
21490
21501
21487
21497
21502
21489
21503
21487
21491
21489
21487
21498
21500
21486
21497
21505
21487
21493
21509
21485
21501
21485
21507
21500
21485
21499
21504
21482
21496
21506
21486
21509
21511
21483
21492
21517
21487
21496
21484
21492
21474
21487
21511
21491
21503
21484
21497
21485
21495
21480
21498
21504
21476
21499
21482
21491
21503
21480
21489
21520
21486
21493
21523
21481
21493
21479
21486
21498
21483
21492
21479
21500
21499
21484
21499
21497
21483
21492
21481
21494
21495
21483
21497
21475
21492
21482
21485
21477
21494
21501
21496
21508
21498
21500
21481
21501
21484
21482
21498
21478
21491
21479
21493
21474
21485
21493
21477
21487
21497
21478
21484
21499
21479
21495
21476
21481
21495
21477
21487
21474
21495
21497
21487
21498
21483
21493
21476
21492
21476
21499
21472
21499
21489
21498
21475
21481
21476
21492
21508
21488
21485
21476
21485
21474
21479
21475
21483
21511
21477
21492
21474
21486
21471
21481
21462
21484
21492
21481
21488
21471
21485
21463
21478
21488
21475
21485
21468
21473
21509
21479
21487
21463
21479
21491
21474
21476
21467
21481
21500
21483
21481
21468
21481
21464
21482
21484
21470
21483
21478
21479
21489
21471
21479
21471
21472
21485
21464
21481
21479
21463
21484
21483
21458
21474
21484
21467
21463
21494
21474
21479
21508
21476
21484
21471
21476
21480
21456
21477
21471
21475
21478
21460
21468
21471
21457
21473
21482
21460
21463
21489
21474
21480
21458
21471
21482
21457
21466
21491
21465
21471
21484
21460
21469
21484
21461
21462
21491
21465
21476
21463
21472
21479
21462
21469
21489
21461
21469
21458
21474
21457
21476
21477
21460
21469
21461
21468
21487
21461
21479
21458
21471
21460
21470
21460
21473
21478
21457
21467
21458
21469
21476
21459
21464
21450
21468
21479
21454
21473
21459
21464
21455
21463
21476
21458
21476
21451
21465
21455
21474
21477
21455
21466
21453
21459
21475
21455
21470
21460
21475
21471
21457
21478
21473
21449
21469
21450
21461
21450
21465
21449
21453
21446
21468
21469
21455
21470
21454
21471
21452
21467
21450
21467
21453
21458
21451
21458
21445
21465
21474
21458
21469
21452
21464
21447
21462
21455
21461
21470
21466
21476
21461
21468
21458
21460
21475
21468
21470
21452
21470
21453
21467
21452
21468
21477
21459
21479
21450
21476
21454
21474
21445
21471
21442
21458
21445
21483
21478
21436
21476
21439
21488
21511
21455
21485
21452
21478
21446
21479
21457
21494
21496
21477
21484
21456
21476
21458
21470
21458
21465
21453
21462
21474
21468
21462
21459
21469
21456
21463
21470
21461
21458
21467
21459
21463
21461
21466
21453
21463
21457
21458
21470
21460
21459
21453
21459
21455
21458
21453
21460
21453
21466
21469
21452
21454
21452
21459
21444
21454
21460
21455
21461
21447
21459
21460
21454
21447
21458
21463
21447
21451
21478
21463
21465
21465
21462
21450
21463
21447
21458
21444
21447
21446
21459
21446
21456
21450
21463
21456
21457
21444
21460
21455
21446
21445
21447
21444
21469
21447
21441
21446
21444
21443
21444
21448
21436
21452
21444
21447
21468
21461
21479
21466
21468
21457
21466
21444
21467
21459
21473
21443
21472
21450
21461
21458
21463
21444
21460
21445
21447
21447
21447
21464
21458
21460
21436
21450
21458
21445
21452
21438
21453
21440
21446
21479
21454
21452
21441
21456
21442
21447
21441
21455
21475
21459
21467
21446
21453
21436
21444
21462
21439
21453
21439
21452
21455
21440
21450
21442
21446
21457
21444
21450
21454
21435
21455
21438
21445
21436
21456
21457
21436
21455
21433
21451
21439
21447
21444
21448
21454
21438
21452
21441
21449
21452
21439
21442
21453
21436
21447
21431
21447
21455
21436
21442
21469
21450
21453
21439
21452
21444
21444
21455
21438
21453
21443
21454
21439
21446
21436
21443
21483
21448
21459
21440
21454
21439
21460
21441
21449
21437
21445
21439
21451
21439
21453
21441
21450
21435
21445
21437
21458
21458
21446
21451
21436
21444
21445
21457
21467
21444
21458
21437
21461
21436
21458
21447
21468
21450
21455
21436
21452
21429
21453
21454
21438
21439
21461
21439
21446
21470
21445
21453
21434
21447
21433
21442
21457
21447
21458
21433
21441
21463
21440
21455
21431
21446
21431
21436
21431
21450
21447
21436
21455
21446
21425
21437
21447
21427
21436
21429
21439
21445
21469
21435
21442
21418
21439
21446
21432
21433
21453
21435
21445
21431
21434
21465
21446
21443
21431
21442
21423
21431
21430
21435
21463
21453
21444
21439
21445
21428
21439
21427
21443
21421
21437
21429
21436
21422
21436
21445
21426
21438
21423
21433
21420
21440
21428
21433
21424
21437
21454
21439
21445
21426
21442
21423
21438
21415
21430
21445
21425
21423
21454
21439
21433
21421
21442
21425
21428
21422
21439
21435
21425
21437
21420
21428
21417
21431
21414
21444
21439
21409
21434
21423
21431
21429
21422
21429
21421
21423
21441
21429
21435
21414
21431
21446
21422
21438
21415
21428
21413
21421
21415
21424
21439
21414
21425
21419
21419
21462
21437
21437
21422
21436
21413
21423
21442
21417
21429
21412
21428
21418
21422
21415
21416
21431
21414
21421
21429
21414
21425
21409
21428
21439
21415
21422
21416
21429
21422
21412
21420
21415
21426
21444
21423
21429
21411
21426
21413
21428
21414
21429
21450
21430
21431
21415
21428
21412
21415
21411
21422
21427
21398
21423
21432
21412
21415
21415
21434
21429
21410
21421
21405
21428
21423
21407
21423
21401
21418
21412
21420
21403
21414
21406
21423
21415
21421
21443
21431
21430
21418
21425
21415
21426
21405
21425
21407
21419
21405
21413
21378
21431
21422
21409
21423
21407
21415
21437
21423
21420
21409
21424
21398
21415
21407
21422
21428
21412
21415
21403
21420
21420
21392
21412
21431
21407
21421
21407
21417
21404
21419
21405
21420
21402
21420
21404
21418
21397
21421
21414
21431
21420
21415
21407
21419
21399
21413
21399
21413
21397
21415
21401
21404
21441
21408
21433
21415
21420
21390
21415
21398
21410
21413
21399
21410
21397
21409
21420
21401
21408
21427
21396
21401
21423
21405
21409
21413
21392
21402
21442
21408
21419
21397
21409
21393
21401
21399
21417
21420
21405
21421
21400
21402
21403
21409
21421
21389
21412
21402
21413
21399
21417
21409
21409
21401
21413
21391
21407
21399
21409
21421
21412
21415
21383
21412
21394
21410
21418
21397
21404
21389
21414
21387
21393
21395
21413
21431
21408
21412
21397
21415
21399
21407
21390
21402
21396
21412
21407
21390
21414
21394
21394
21391
21402
21408
21387
21397
21419
21397
21404
21428
21394
21408
21412
21388
21397
21412
21386
21397
21418
21399
21399
21387
21396
21387
21406
21423
21410
21408
21404
21407
21389
21409
21385
21396
21384
21395
21412
21393
21412
21387
21396
21389
21402
21377
21393
21383
21391
21391
21398
21382
21397
21391
21396
21383
21415
21409
21385
21399
21389
21402
21385
21403
21407
21384
21409
21385
21401
21383
21408
21412
21398
21409
21389
21407
21387
21407
21393
21383
21407
21391
21383
21405
21394
21397
21389
21405
21387
21402
21395
21428
21395
21379
21405
21411
21383
21394
21393
21390
21389
21388
21378
21399
21381
21390
21387
21401
21426
21405
21418
21394
21383
21396
21411
21390
21406
21388
21426
21404
21415
21399
21410
21397
21401
21374
21393
21387
21385
21383
21396
21388
21389
21378
21389
21383
21390
21380
21388
21371
21383
21378
21385
21379
21391
21399
21377
21393
21413
21372
21392
21382
21382
21391
21380
21386
21380
21389
21401
21382
21392
21382
21395
21375
21389
21374
21389
21370
21393
21379
21391
21382
21388
21372
21393
21375
21384
21379
21388
21370
21386
21399
21383
21394
21382
21384
21420
21382
21393
21378
21393
21377
21383
21372
21383
21426
21383
21393
21379
21383
21362
21389
21397
21390
21390
21375
21383
21372
21391
21370
21385
21421
21393
21398
21369
21396
21367
21391
21382
21366
21387
21389
21368
21383
21374
21390
21389
21378
21396
21372
21374
21369
21388
21391
21374
21386
21379
21383
21383
21372
21383
21379
21385
21376
21382
21377
21385
21372
21380
21407
21388
21394
21373
21384
21399
21381
21393
21376
21383
21368
21383
21418
21373
21399
21361
21382
21352
21374
21533
21403
21415
21392
21417
21359
21404
21368
21388
21377
21394
21436
21397
21408
21382
21399
21381
21396
21383
21393
21381
21391
21379
21388
21400
21381
21391
21378
21385
21378
21383
21382
21383
21388
21383
21385
21377
21385
21373
21381
21369
21382
21375
21378
21385
21374
21377
21375
21379
21375
21373
21382
21367
21378
21383
21376
21378
21367
21381
21388
21372
21382
21382
21372
21386
21373
21388
21383
21365
21380
21377
21365
21378
21382
21365
21373
21353
21364
21383
21357
21375
21382
21369
21373
21376
21370
21373
21365
21375
21373
21363
21375
21377
21365
21374
21367
21373
21374
21359
21379
21375
21361
21372
21364
21367
21379
21364
21372
21351
21364
21366
21381
21360
21369
21385
21360
21371
21356
21361
21370
21359
21367
21370
21358
21373
21378
21359
21365
21359
21374
21367
21355
21364
21376
21350
21367
21363
21375
21367
21359
21370
21356
21364
21387
21359
21370
21354
21359
21368
21354
21373
21372
21349
21363
21388
21370
21363
21348
21367
21349
21373
21364
21361
21368
21383
21358
21370
21356
21367
21394
21358
21368
21352
21363
21374
21341
21362
21353
21364
21356
21371
21354
21367
21355
21367
21373
21355
21363
21355
21370
21372
21353
21367
21345
21361
21394
21359
21357
21357
21355
21366
21380
21374
21381
21374
21370
21361
21368
21351
21360
21354
21365
21350
21361
21370
21365
21382
21363
21370
21361
21374
21359
21370
21351
21364
21350
21363
21382
21357
21370
21351
21368
21350
21358
21348
21365
21371
21354
21364
21351
21365
21362
21364
21379
21367
21368
21345
21361
21348
21360
21338
21357
21350
21365
21361
21347
21362
21346
21367
21365
21368
21348
21362
21353
21364
21360
21358
21360
21348
21366
21370
21348
21360
21370
21347
21357
21344
21366
21364
21348
21369
21348
21367
21369
21351
21367
21348
21354
21359
21340
21351
21364
21351
21366
21356
21363
21341
21349
21367
21349
21356
21350
21349
21383
21355
21359
21342
21366
21365
21348
21351
21340
21343
21356
21346
21351
21336
21348
21367
21348
21351
21346
21351
21332
21350
21364
21345
21350
21340
21351
21340
21343
21345
21358
21353
21342
21351
21338
21348
21340
21347
21356
21338
21351
21340
21345
21377
21348
21351
21342
21341
21364
21343
21353
21335
21351
21335
21348
21346
21334
21356
21351
21331
21351
21340
21338
21348
21328
21351
21351
21335
21350
21335
21348
21329
21348
21337
21351
21338
21346
21332
21342
21313
21339
21352
21330
21342
21365
21341
21343
21329
21343
21326
21334
21364
21333
21351
21329
21345
21332
21341
21326
21346
21351
21338
21346
21337
21348
21325
21340
21325
21336
21327
21341
21326
21346
21341
21337
21349
21339
21348
21338
21340
21327
21342
21324
21340
21327
21338
21324
21331
21351
21332
21342
21324
21355
21332
21319
21339
21369
21345
21356
21338
21351
21348
21347
21331
21339
21327
21328
21320
21332
21319
21333
21335
21327
21342
21326
21338
21330
21342
21324
21339
21323
21339
21327
21337
21317
21338
21324
21337
21348
21341
21346
21339
21346
21335
21337
21324
21333
21317
21333
21325
21330
21343
21326
21341
21322
21329
21306
21341
21324
21329
21317
21335
21314
21335
21342
21321
21332
21317
21343
21340
21318
21332
21319
21328
21337
21323
21341
21327
21326
21318
21331
21329
21319
21335
21332
21311
21323
21344
21318
21325
21315
21333
21338
21319
21331
21323
21318
21329
21317
21322
21346
21323
21341
21316
21326
21311
21324
21312
21316
21341
21323
21332
21316
21330
21317
21322
21315
21317
21307
21325
21329
21319
21319
21343
21323
21329
21314
21319
21343
21324
21324
21301
21319
21331
21308
21319
21332
21314
21318
21309
21325
21329
21307
21317
21308
21316
21348
21319
21332
21312
21326
21311
21317
21332
21315
21318
21311
21319
21309
21316
21330
21313
21320
21303
21318
21308
21321
21327
21308
21325
21308
21323
21333
21310
21321
21345
21313
21318
21303
21309
21319
21311
21327
21319
21301
21312
21327
21307
21319
21340
21310
21330
21304
21319
21346
21322
21332
21309
21329
21306
21322
21318
21311
21318
21303
21319
21333
21295
21316
21308
21323
21308
21301
21318
21303
21312
21321
21308
21321
21321
21294
21311
21336
21306
21317
21301
21314
21327
21302
21313
21303
21314
21317
21300
21310
21321
21290
21317
21316
21295
21309
21294
21318
21315
21289
21311
21317
21301
21317
21319
21293
21308
21300
21305
21332
21301
21316
21300
21308
21300
21319
21315
21287
21314
21316
21302
21311
21303
21319
21312
21297
21298
21306
21297
21298
21313
21295
21314
21311
21287
21305
21316
21308
21315
21300
21310
21300
21311
21294
21297
21333
21304
21309
21289
21304
21293
21305
21300
21308
21284
21300
21313
21301
21311
21285
21302
21290
21310
21313
21290
21297
21345
21310
21307
21289
21302
21287
21290
21308
21295
21301
21287
21300
21311
21292
21295
21317
21294
21303
21287
21303
21300
21284
21300
21303
21284
21298
21283
21295
21306
21294
21300
21285
21299
21282
21300
21287
21306
21311
21287
21300
21291
21307
21285
21295
21284
21291
21276
21293
21321
21291
21300
21285
21295
21281
21302
21285
21299
21284
21302
21281
21293
21286
21293
21278
21288
21302
21307
21303
21295
21303
21284
21300
21285
21302
21281
21306
21279
21291
21282
21292
21325
21297
21307
21292
21297
21287
21292
21278
21286
21281
21295
21293
21279
21287
21282
21287
21305
21288
21297
21289
21305
21295
21301
21285
21295
21276
21298
21284
21295
21274
21292
21278
21284
21295
21287
21289
21283
21286
21276
21287
21295
21285
21291
21273
21286
21287
21280
21285
21290
21279
21287
21292
21279
21287
21279
21285
21294
21287
21294
21279
21286
21314
21280
21296
21270
21297
21310
21276
21294
21273
21289
21261
21304
21314
21266
21294
21265
21284
21349
21285
21317
21275
21310
21274
21295
21276
21297
21277
21303
21284
21371
21299
21343
21291
21316
21294
21294
21294
21298
21284
21288
21281
21292
21289
21284
21291
21279
21279
21272
21277
21286
21287
21283
21267
21282
21297
21279
21285
21286
21278
21285
21294
21280
21286
21265
21282
21282
21278
21276
21271
21284
21287
21269
21271
21271
21279
21271
21275
21280
21285
21285
21270
21287
21271
21281
21275
21283
21271
21271
21268
21282
21281
21266
21269
21289
21272
21282
21261
21276
21268
21271
21285
21282
21274
21263
21276
21263
21273
21256
21273
21284
21271
21279
21265
21280
21265
21282
21273
21272
21244
21278
21286
21260
21263
21294
21262
21268
21258
21269
21276
21258
21262
21278
21256
21269
21287
21267
21270
21260
21271
21253
21271
21266
21264
21261
21268
21246
21279
21274
21261
21267
21258
21269
21250
21263
21272
21260
21274
21261
21281
21264
21271
21261
21279
21269
21276
21254
21271
21253
21271
21255
21273
21252
21266
21281
21269
21271
21265
21273
21249
21274
21263
21262
21250
21274
21273
21253
21266
21254
21262
21249
21266
21268
21255
21258
21241
21260
21277
21263
21270
21248
21275
21271
21252
21263
21254
21253
21291
21265
21270
21253
21279
21246
21269
21263
21271
21255
21263
21272
21255
21274
21246
21270
21274
21244
21260
21246
21253
21265
21251
21255
21268
21241
21260
21277
21250
21265
21244
21260
21277
21252
21263
21244
21261
21270
21247
21260
21246
21254
21285
21249
21260
21253
21261
21259
21243
21252
21269
21242
21265
21268
21252
21258
21241
21255
21287
21260
21271
21242
21253
21247
21263
21271
21244
21255
21262
21244
21258
21276
21248
21255
21245
21260
21271
21246
21263
21247
21259
21242
21259
21245
21255
21240
21266
21259
21244
21266
21242
21261
21270
21245
21261
21265
21245
21260
21243
21254
21271
21250
21258
21239
21260
21258
21242
21259
21238
21253
21279
21252
21258
21235
21248
21267
21237
21250
21233
21247
21264
21243
21252
21238
21253
21237
21252
21238
21250
21255
21233
21253
21235
21250
21242
21246
21234
21252
21264
21242
21242
21240
21255
21252
21259
21244
21244
21234
21249
21234
21246
21234
21245
21236
21250
21252
21234
21244
21232
21238
21244
21227
21245
21231
21241
21244
21231
21247
21244
21228
21245
21225
21239
21246
21232
21245
21277
21228
21243
21233
21244
21242
21228
21243
21232
21234
21250
21230
21239
21230
21233
21241
21230
21247
21248
21228
21238
21253
21233
21241
21226
21238
21241
21224
21228
21241
21231
21241
21216
21241
21233
21244
21247
21225
21233
21246
21227
21233
21250
21222
21238
21223
21241
21237
21225
21242
21257
21223
21234
21225
21235
21221
21244
21225
21244
21225
21236
21255
21225
21233
21222
21252
21236
21223
21234
21233
21220
21244
21238
21218
21223
21234
21217
21229
21252
21224
21243
21224
21231
21219
21231
21215
21229
21219
21228
21241
21218
21229
21219
21225
21241
21227
21235
21223
21228
21206
21224
21243
21220
21231
21210
21233
21211
21221
21233
21218
21221
21233
21219
21231
21219
21227
21214
21236
21239
21218
21227
21199
21215
21228
21222
21228
21229
21206
21223
21253
21226
21223
21235
21210
21223
21254
21219
21228
21206
21218
21236
21207
21220
21210
21220
21210
21223
21220
21201
21220
21216
21228
21224
21207
21220
21209
21222
21248
21217
21224
21211
21221
21202
21217
21222
21206
21212
21228
21214
21213
21247
21207
21222
21204
21220
21238
21223
21227
21207
21219
21203
21214
21221
21205
21210
21223
21199
21212
21231
21207
21213
21203
21221
21206
21215
21226
21211
21215
21202
21210
21229
21195
21212
21249
21217
21220
21199
21214
21198
21213
21215
21197
21215
21194
21218
21231
21209
21216
21205
21214
21199
21214
21210
21198
21207
21217
21198
21210
21227
21204
21216
21200
21212
21193
21206
21204
21222
21216
21183
21208
21233
21205
21209
21194
21208
21219
21190
21206
21197
21207
21220
21213
21218
21201
21215
21196
21209
21196
21210
21225
21205
21213
21195
21207
21188
21209
21189
21210
21195
21204
21190
21198
21198
21214
21211
21193
21204
21191
21214
21197
21199
21217
21204
21212
21190
21197
21208
21193
21199
21206
21189
21207
21188
21196
21210
21190
21202
21190
21212
21206
21189
21202
21202
21183
21205
21196
21183
21194
21190
21213
21207
21196
21206
21191
21200
21188
21207
21197
21189
21204
21186
21196
21231
21199
21200
21176
21197
21185
21196
21187
21194
21208
21183
21201
21180
21191
21207
21181
21191
21185
21192
21205
21185
21191
21199
21179
21190
21226
21182
21192
21185
21195
21204
21186
21204
21183
21191
21182
21195
21183
21184
21203
21194
21203
21178
21193
21179
21185
21215
21197
21198
21176
21188
21178
21197
21202
21179
21191
21222
21186
21193
21180
21193
21174
21190
21204
21177
21191
21173
21181
21177
21183
21174
21186
21175
21195
21199
21175
21190
21174
21188
21173
21179
21204
21171
21180
21173
21180
21167
21195
21201
21186
21191
21175
21189
21173
21181
21175
21186
21168
21191
21171
21178
21225
21180
21172
21175
21199
21169
21187
21171
21179
21167
21178
21194
21180
21182
21183
21186
21183
21194
21194
21197
21173
21182
21156
21180
21164
21172
21167
21175
21166
21181
21166
21189
21172
21178
21159
21176
21170
21181
21188
21166
21180
21153
21175
21159
21170
21164
21173
21162
21175
21174
21164
21180
21196
21176
21183
21167
21169
21166
21172
21157
21166
21185
21163
21178
21159
21170
21154
21179
21187
21157
21183
21159
21172
21157
21165
21176
21162
21173
21161
21169
21177
21158
21172
21156
21164
21156
21169
21155
21162
21157
21160
21171
21152
21175
21151
21166
21151
21164
21184
21159
21175
21151
21168
21151
21167
21178
21154
21158
21159
21162
21171
21154
21162
21194
21169
21158
21154
21167
21179
21153
21161
21158
21165
21158
21173
21155
21164
21190
21164
21166
21198
21156
21167
21157
21182
21178
21140
21161
21215
21162
21183
21146
21180
21135
21169
21199
21149
21176
21139
21166
21259
21175
21175
21148
21201
21198
21156
21185
21191
21160
21173
21191
21148
21168
21181
21159
21178
21174
21158
21165
21181
21164
21162
21158
21159
21170
21159
21159
21164
21164
21153
21167
21164
21156
21159
21176
21167
21159
21154
21162
21162
21155
21166
21166
21159
21162
21162
21148
21166
21153
21164
21157
21152
21154
21150
21153
21154
21148
21164
21146
21156
21150
21153
21153
21148
21155
21146
21153
21154
21146
21151
21155
21142
21153
21157
21143
21155
21167
21156
21158
21148
21151
21167
21155
21156
21137
21158
21142
21148
21145
21153
21130
21146
21141
21149
21151
21137
21155
21135
21145
21149
21141
21154
21155
21135
21146
21164
21153
21154
21138
21144
21141
21145
21153
21141
21151
21130
21147
21162
21146
21152
21132
21155
21135
21142
21153
21135
21144
21135
21150
21167
21133
21140
21167
21132
21142
21170
21145
21146
21126
21143
21135
21141
21149
21140
21151
21135
21143
21137
21138
21140
21134
21145
21132
21137
21144
21134
21135
21131
21144
21131
21140
21154
21135
21149
21129
21142
21107
21133
21135
21153
21133
21141
21149
21133
21146
21130
21138
21153
21135
21151
21132
21148
21127
21150
21149
21127
21145
21142
21132
21133
21146
21134
21148
21172
21135
21140
21127
21140
21145
21135
21140
21127
21139
21159
21133
21146
21125
21140
21172
21140
21147
21124
21135
21132
21135
21148
21135
21145
21130
21157
21127
21140
21132
21140
21175
21142
21145
21126
21143
21123
21138
21121
21135
21125
21131
21143
21127
21137
21127
21154
21143
21125
21140
21132
21151
21153
21135
21146
21124
21138
21126
21135
21127
21144
21165
21146
21145
21135
21151
21126
21146
21131
21144
21126
21141
21126
21140
21148
21123
21140
21132
21124
21138
21143
21173
21136
21146
21135
21141
21127
21137
21125
21135
21144
21129
21151
21133
21135
21122
21147
21147
21127
21127
21120
21139
21137
21125
21141
21120
21126
21143
21142
21143
21122
21141
21124
21133
21124
21129
21118
21132
21140
21124
21134
21122
21141
21118
21129
21138
21123
21140
21135
21121
21129
21146
21121
21130
21120
21130
21142
21130
21130
21117
21127
21134
21116
21127
21135
21111
21120
21134
21116
21132
21130
21122
21126
21127
21121
21124
21124
21117
21131
21127
21109
21121
21144
21116
21126
21116
21122
21140
21119
21124
21108
21116
21133
21121
21113
21121
21133
21111
21129
21117
21152
21119
21134
21129
21132
21127
21135
21111
21125
21119
21119
21111
21127
21131
21110
21122
21103
21116
21107
21122
21105
21120
21135
21124
21127
21114
21116
21111
21125
21123
21103
21126
21126
21110
21126
21124
21103
21116
21115
21121
21120
21103
21114
21126
21108
21122
21109
21127
21143
21133
21135
21111
21121
21103
21125
21126
21109
21116
21109
21115
21127
21103
21117
21106
21126
21127
21129
21135
21124
21135
21127
21124
21106
21111
21101
21111
21121
21097
21109
21133
21107
21112
21099
21108
21121
21100
21109
21100
21111
21119
21103
21108
21121
21103
21109
21101
21104
21109
21098
21107
21103
21108
21094
21110
21127
21104
21125
21102
21111
21101
21106
21143
21099
21113
21094
21106
21098
21108
21118
21095
21110
21100
21108
21138
21118
21128
21115
21114
21098
21114
21101
21105
21135
21100
21108
21093
21111
21117
21092
21107
21093
21114
21104
21095
21104
21093
21114
21105
21091
21108
21092
21095
21101
21118
21098
21108
21108
21108
21093
21092
21109
21114
21094
21092
21110
21113
21094
21103
21105
21090
21103
21111
21094
21100
21109
21094
21106
21108
21092
21095
21103
21127
21091
21103
21109
21084
21092
21099
21112
21092
21102
21112
21091
21102
21131
21092
21097
21135
21092
21102
21088
21102
21095
21105
21095
21103
21104
21091
21093
21101
21110
21095
21095
21100
21082
21091
21095
21107
21091
21103
21074
21093
21095
21102
21110
21094
21084
21095
21090
21105
21100
21085
21097
21135
21086
21095
21082
21095
21098
21080
21095
21111
21087
21095
21089
21089
21097
21077
21095
21084
21105
21109
21103
21109
21089
21092
21079
21094
21073
21094
21078
21092
21082
21107
21098
21079
21096
21091
21095
21081
21097
21084
21101
21082
21100
21076
21095
21068
21095
21110
21084
21094
21076
21094
21080
21090
21082
21090
21095
21079
21099
21078
21089
21077
21097
21071
21086
21079
21085
21074
21084
21077
21092
21097
21076
21100
21079
21094
21079
21090
21079
21087
21066
21093
21097
21073
21092
21068
21088
21078
21082
21066
21082
21074
21081
21073
21086
21081
21102
21102
21085
21095
21080
21095
21094
21084
21087
21069
21081
21073
21084
21076
21086
21095
21074
21084
21073
21083
21074
21090
21073
21089
21074
21082
21066
21076
21069
21075
21073
21076
21069
21079
21067
21078
21068
21073
21107
21088
21093
21077
21089
21071
21089
21075
21082
21060
21074
21067
21084
21070
21079
21061
21072
21061
21075
21067
21074
21099
21076
21107
21084
21089
21073
21083
21071
21075
21095
21077
21084
21059
21082
21064
21082
21062
21090
21083
21071
21085
21068
21063
21080
21087
21063
21106
21073
21092
21079
21082
21063
21077
21067
21075
21058
21082
21083
21067
21084
21069
21085
21089
21059
21067
21111
21078
21082
21062
21076
21050
21078
21055
21065
21053
21067
21055
21071
21079
21066
21077
21059
21071
21055
21068
21061
21069
21048
21066
21058
21058
21070
21062
21063
21053
21060
21069
21054
21065
21078
21057
21065
21085
21055
21067
21054
21076
21078
21059
21067
21106
21069
21073
21055
21063
21087
21057
21063
21054
21066
21076
21061
21073
21061
21071
21055
21063
21084
21063
21072
21060
21071
21053
21078
21057
21060
21055
21070
21105
21074
21083
21062
21081
21056
21076
21040
21060
21039
21056
21101
21068
21089
21045
21090
21052
21077
21051
21093
21048
21085
21058
21078
21061
21076
21060
21070
21088
21068
21068
21060
21067
21059
21062
21071
21062
21063
21065
21060
21066
21063
21070
21063
21064
21055
21061
21055
21063
21064
21063
21052
21054
21052
21059
21051
21065
21048
21059
21054
21063
21048
21058
21052
21060
21052
21058
21047
21058
21045
21058
21046
21057
21068
21054
21063
21055
21058
21058
21052
21049
21057
21047
21059
21052
21052
21049
21055
21061
21047
21055
21045
21055
21060
21045
21053
21051
21050
21039
21048
21058
21042
21052
21038
21054
21062
21039
21045
21059
21043
21047
21049
21045
21061
21052
21042
21052
21035
21052
21062
21033
21051
21038
21041
21036
21049
21027
21044
21063
21037
21049
21037
21046
21033
21049
21031
21046
21031
21037
21071
21054
21055
21045
21052
21038
21058
21032
21051
21036
21047
21060
21049
21059
21046
21053
21038
21056
21043
21049
21039
21047
21075
21055
21052
21026
21047
21042
21049
21048
21036
21039
21049
21032
21041
21055
21042
21044
21035
21037
21070
21049
21058
21033
21051
21034
21049
21031
21039
21031
21037
21079
21038
21047
21031
21039
21055
21031
21039
21031
21047
21047
21031
21044
21031
21042
21026
21033
21048
21031
21047
21027
21050
21042
21025
21035
21051
21029
21047
21025
21037
21055
21030
21038
21058
21031
21042
21060
21034
21042
21030
21041
21055
21028
21043
21028
21047
21045
21020
21039
21026
21044
21047
21030
21043
21026
21038
21062
21030
21030
21036
21056
21031
21041
21023
21045
21045
21024
21036
21057
21029
21040
21026
21041
21046
21030
21031
21022
21042
21047
21024
21050
21053
21028
21029
21022
21044
21047
21029
21043
21025
21042
21028
21044
21036
21044
21031
21037
21054
21030
21040
21028
21028
21036
21021
21040
21045
21025
21033
21025
21031
21047
21014
21035
21023
21029
21032
21020
21039
21037
21018
21038
21037
21015
21031
21020
21023
21029
21016
21027
21037
21019
21029
21018
21025
21031
21016
21023
21034
21018
21029
21019
21029
21031
21009
21028
21014
21028
21012
21031
21038
21019
21021
21015
21028
21034
21003
21032
21017
21030
21017
21026
21012
21018
21010
21029
21032
21015
21019
21009
21020
21009
21028
21036
21013
21028
21015
21020
21029
20999
21023
21025
21004
21027
21022
21013
21018
21006
21022
21008
21025
21021
21007
21023
21009
21009
21021
21028
21012
21021
21012
21028
20999
21015
20999
21007
21022
21002
21009
21006
21025
21023
21006
21020
21007
21013
20999
21012
21029
21009
21011
21010
21014
21006
21030
21004
21015
20999
21009
20998
21020
21009
21023
21053
21026
21022
21019
21021
21009
21018
21005
21023
21017
21026
21019
21013
20999
21014
20997
21008
20999
21018
21020
20999
21005
21023
21003
21014
20998
21011
20995
21009
21020
21015
21020
21003
21014
20996
21009
20999
21002
21020
21005
21012
20998
21010
20998
21007
20995
21005
20991
21011
21021
20990
21004
20991
20999
21013
20998
21013
21013
20994
21004
20994
21014
21017
20993
21011
20990
20999
20991
21007
21015
21007
21004
20991
21015
20991
20999
21031
21011
21007
20999
21012
20986
21007
20991
21005
20990
20999
20985
20999
20984
20998
21012
20998
20998
20990
20997
21030
21007
20999
20990
20993
21016
20991
20991
21009
20982
20995
21010
20983
20998
20983
20991
21005
20983
20991
20983
20994
21001
20983
20991
21003
20983
20991
21006
20989
20991
21004
20989
20996
20996
20983
21010
20996
20972
20999
20999
20979
20996
20998
20983
20999
21007
20980
20990
20974
20995
21001
20980
20994
20987
20985
20999
20977
20997
20975
20985
21007
20980
20991
20979
20992
20995
20978
20996
20977
20982
20975
20987
21028
20981
21031
20985
20992
20986
20995
20974
20992
20974
20995
20973
20987
20955
20984
20996
20969
20985
20967
20988
20996
20979
20983
20970
20984
20967
20975
21018
20972
20990
20972
20986
20971
20983
20970
20976
20970
20979
20995
20985
20987
20967
20983
20977
20975
20967
20979
20999
20982
20987
20967
20981
20967
20976
20994
20975
20982
20967
20970
20999
20984
20982
20964
20981
20986
20955
20972
20977
20991
20965
20967
20991
20969
20978
20967
20977
20965
20978
20964
20974
20994
20976
20986
20965
20980
20966
20977
20980
20956
20979
20969
20981
20963
20983
20966
20983
20967
20974
20962
20975
20955
20972
20992
20970
20979
20971
20981
20970
20990
20972
20942
20983
21009
20971
20960
20968
20961
20968
20954
20959
21012
20972
20975
20951
20967
20951
20967
20975
20957
20978
20957
20967
20956
20977
20979
20960
20975
20961
20966
20985
20959
20973
20949
20967
20983
20952
20967
20952
20965
20949
20965
20988
20974
20974
20966
20974
20950
20973
20951
20966
20954
20972
20966
20948
20965
20975
20948
20956
20994
20953
20968
20961
20963
20946
20957
20999
20960
20972
20967
20968
20945
20965
20949
20957
20977
20959
20962
20948
20956
20936
20956
20943
20953
20949
20959
20943
20958
20943
20959
20947
20954
20948
20956
20943
20954
20938
20955
20998
20962
20967
20947
20958
20945
20958
20942
20957
20945
20957
20945
20961
20943
20959
20940
20954
20942
20950
20938
20956
20943
20947
20943
20953
20941
20951
20960
20957
20963
20939
20958
20936
20959
20963
20944
20956
20932
20949
20939
20940
20941
20947
20972
20950
20959
20948
20963
20945
20963
20956
20958
20951
20956
20941
20950
20934
20937
20934
20942
20943
20933
20950
20956
20940
20951
20931
20956
20955
20934
20943
20988
20952
20951
20927
20940
20966
20940
20952
20935
20942
20935
20945
20929
20946
20955
20939
20949
20932
20945
20933
20951
20958
20936
20948
20911
20957
20954
20934
20962
20933
20957
20943
20954
20943
20934
20982
20949
20938
20923
20965
20945
20931
20919
20970
20936
20921
20934
20958
20967
20930
20994
20966
20956
20937
20976
20942
20969
20939
20955
20943
20949
20954
20940
20957
20951
20939
20947
20959
20942
20943
20939
20944
20935
20949
20936
20944
20942
20943
20940
20942
20959
20946
20934
20945
20935
20942
20937
20946
20933
20946
20938
20948
20936
20944
20947
20940
20946
20951
20944
20945
20936
20951
20944
20955
20941
20941
20935
20921
20943
20943
20935
20942
20931
20940
20938
20948
20938
20940
20932
20945
20930
20937
20925
20932
20943
20920
20938
20927
20932
20948
20932
20939
20926
20938
20922
20936
20927
20934
20916
20937
20943
20932
20942
20928
20930
20929
20935
20919
20931
20921
20926
20924
20935
20938
20933
20937
20923
20934
20932
20935
20954
20937
20937
20923
20929
20951
20924
20935
20926
20930
20924
20930
20958
20937
20922
20932
20949
20942
20950
20935
20936
20920
20930
20922
20932
20938
20919
20924
20915
20920
20949
20938
20935
20928
20937
20924
20935
20927
20933
20919
20935
20932
20922
20935
20921
20933
20916
20926
20921
20934
20927
20935
20922
20935
20926
20932
20916
20935
20922
20934
20916
20927
20916
20921
20910
20924
20928
20924
20931
20910
20926
20915
20926
20919
20921
20919
20934
20941
20925
20935
20919
20934
20909
20927
20911
20933
20953
20922
20927
20919
20932
20908
20926
20912
20923
20914
20929
20908
20925
20911
20931
20943
20913
20935
20914
20934
20930
20935
20932
20932
20923
20929
20916
20932
20916
20932
20926
20933
20917
20932
20903
20929
20914
20926
20919
20916
20929
20911
20926
20916
20964
20919
20937
20904
20931
20915
20913
20952
20935
20932
20914
20928
20901
20918
20932
20904
20922
20903
20909
20933
20907
20925
20914
20931
20936
20910
20934
20930
20902
20922
20911
20919
20929
20911
20923
20905
20918
20931
20905
20927
20931
20913
20914
20935
20910
20920
20905
20927
20931
20906
20916
20908
20924
20926
20908
20921
20909
20914
20909
20913
20943
20924
20921
20907
20918
20909
20926
20921
20907
20916
20903
20917
20919
20919
20927
20904
20908
20907
20910
20892
20914
20921
20906
20924
20902
20917
20906
20908
20941
20917
20929
20911
20917
20905
20913
20892
20911
20900
20913
20908
20900
20915
20903
20905
20903
20918
20917
20896
20911
20925
20908
20911
20903
20911
20897
20906
20889
20903
20914
20898
20910
20902
20904
20924
20901
20908
20925
20892
20903
20893
20905
20895
20916
20908
20897
20911
20895
20902
20887
20896
20922
20900
20906
20890
20900
20934
20903
20910
20896
20908
20888
20892
20890
20894
20910
20889
20908
20893
20904
20897
20908
20901
20891
20896
20909
20891
20902
20893
20893
20890
20897
20890
20895
20925
20900
20906
20891
20903
20892
20903
20884
20902
20874
20911
20891
20901
20895
20903
20911
20884
20899
20884
20898
20905
20880
20898
20887
20893
20879
20902
20906
20887
20893
20885
20893
20883
20895
20903
20886
20893
20883
20889
20906
20901
20906
20900
20897
20877
20893
20876
20890
20883
20890
20906
20887
20907
20897
20880
20884
20917
20901
20904
20894
20900
20890
20903
20892
20881
20879
20871
20890
20878
20892
20885
20887
20896
20879
20907
20892
20895
20876
20893
20880
20890
20878
20894
20877
20882
20871
20884
20876
20880
20873
20887
20876
20887
20867
20878
20869
20882
20878
20884
20873
20887
20871
20887
20877
20897
20873
20897
20889
20911
20884
20866
20885
20865
20887
20871
20886
20870
20879
20868
20879
20867
20884
20868
20875
20871
20874
20871
20901
20884
20873
20891
20876
20894
20871
20879
20893
20875
20880
20867
20884
20887
20871
20876
20875
20874
20902
20871
20887
20861
20878
20864
20884
20886
20868
20879
20865
20879
20889
20876
20888
20863
20870
20867
20878
20894
20875
20884
20871
20881
20861
20871
20861
20868
20911
20887
20887
20865
20872
20861
20868
20887
20869
20882
20857
20871
20857
20871
20863
20876
20852
20871
20914
20887
20895
20868
20884
20864
20879
20863
20875
20863
20874
20855
20878
20863
20880
20869
20885
20865
20872
20859
20883
20880
20871
20878
20859
20874
20861
20869
20862
20876
20869
20861
20867
20853
20867
20880
20860
20882
20867
20879
20863
20879
20879
20898
20871
20893
20867
20849
20865
20891
20869
20900
20862
20867
20861
20855
20863
20854
20874
20876
20861
20884
20869
20853
20862
20887
20861
20849
20863
20847
20864
20852
20866
20849
20866
20855
20875
20868
20879
20870
20890
20865
20850
20863
20849
20856
20850
20862
20849
20861
20843
20868
20853
20863
20852
20856
20854
20866
20851
20868
20843
20863
20847
20869
20847
20863
20879
20853
20867
20849
20864
20842
20859
20844
20852
20884
20858
20868
20852
20860
20839
20862
20847
20863
20867
20847
20867
20868
20853
20857
20837
20859
20832
20850
20845
20848
20871
20859
20865
20842
20855
20836
20852
20840
20859
20845
20854
20837
20865
20880
20862
20859
20843
20858
20840
20850
20839
20858
20839
20853
20861
20835
20853
20839
20849
20858
20840
20847
20836
20847
20863
20847
20863
20836
20854
20831
20847
20861
20837
20854
20836
20844
20839
20845
20866
20859
20863
20846
20860
20842
20855
20840
20843
20835
20849
20839
20847
20833
20847
20856
20836
20854
20850
20845
20849
20855
20844
20847
20837
20846
20847
20838
20847
20846
20833
20846
20836
20841
20807
20845
20882
20858
20830
20845
20877
20846
20861
20838
20869
20876
20830
20847
20901
20842
20857
20823
20855
20828
20849
21019
20852
20951
20871
20879
20836
20863
20837
20863
20839
20874
20880
20845
20868
20846
20852
20849
20858
20869
20847
20866
20848
20854
20853
20853
20844
20857
20842
20848
20842
20842
20854
20855
20849
20837
20850
20837
20839
20853
20841
20847
20838
20845
20834
20853
20851
20841
20851
20844
20847
20838
20844
20836
20850
20832
20839
20855
20837
20846
20842
20841
20829
20846
20838
20834
20845
20843
20828
20839
20844
20837
20838
20838
20863
20833
20839
20826
20825
20838
20839
20826
20845
20838
20831
20837
20842
20819
20836
20843
20828
20829
20837
20819
20837
20830
20822
20839
20833
20817
20829
20837
20824
20839
20843
20823
20843
20842
20823
20831
20854
20842
20845
20835
20818
20833
20821
20831
20840
20828
20838
20822
20838
20823
20836
20818
20833
20819
20828
20823
20834
20828
20818
20835
20823
20834
20818
20829
20823
20831
20820
20828
20819
20832
20816
20832
20817
20829
20799
20839
20839
20823
20832
20826
20835
20822
20839
20829
20842
20823
20839
20815
20831
20815
20829
20849
20828
20837
20814
20833
20838
20818
20836
20824
20807
20830
20812
20831
20815
20824
20818
20828
20845
20833
20828
20820
20838
20820
20834
20818
20834
20823
20837
20828
20839
20827
20839
20826
20847
20821
20841
20825
20815
20828
20813
20832
20812
20831
20820
20830
20820
20839
20831
20809
20828
20823
20828
20815
20828
20818
20833
20815
20835
20820
20837
20815
20836
20817
20819
20863
20826
20813
20807
20830
20828
20812
20835
20831
20806
20827
20809
20839
20818
20810
20828
20815
20831
20807
20829
20807
20826
20817
20836
20831
20839
20838
20860
20817
20811
20822
20811
20829
20818
20834
20834
20834
20821
20808
20827
20815
20833
20814
20830
20829
20840
20828
20810
20819
20814
20817
20807
20831
20847
20823
20832
20813
20829
20810
20823
20817
20828
20811
20820
20809
20820
20810
20820
20854
20828
20847
20829
20825
20815
20829
20812
20828
20817
20825
20815
20822
20822
20823
20825
20804
20810
20794
20813
20829
20820
20827
20823
20807
20809
20834
20817
20826
20807
20817
20810
20820
20803
20815
20814
20823
20807
20821
20804
20817
20804
20809
20796
20819
20798
20813
20799
20809
20815
20802
20815
20796
20817
20817
20791
20804
20838
20795
20811
20799
20801
20796
20804
20839
20814
20821
20799
20818
20795
20803
20796
20809
20808
20806
20805
20798
20807
20794
20805
20796
20800
20796
20802
20797
20821
20812
20795
20809
20794
20806
20815
20794
20798
20822
20800
20804
20794
20799
20806
20794
20815
20794
20807
20790
20797
20793
20802
20838
20807
20809
20787
20807
20790
20798
20804
20789
20794
20787
20796
20799
20788
20810
20807
20788
20805
20792
20794
20820
20798
20804
20788
20801
20783
20797
20783
20797
20814
20796
20804
20787
20800
20783
20803
20780
20794
20819
20789
20797
20809
20796
20799
20786
20799
20801
20780
20798
20780
20796
20782
20798
20802
20798
20799
20782
20801
20775
20799
20780
20790
20783
20791
20794
20775
20789
20807
20785
20791
20776
20786
20790
20799
20778
20794
20777
20785
20810
20788
20790
20780
20794
20772
20791
20809
20788
20798
20779
20791
20777
20786
20775
20791
20775
20783
20805
20779
20796
20774
20794
20780
20794
20794
20783
20794
20771
20787
20773
20789
20772
20784
20775
20794
20782
20786
20773
20796
20781
20790
20777
20789
20773
20793
20783
20794
20775
20785
20778
20783
20774
20802
20799
20786
20801
20788
20796
20785
20792
20784
20796
20790
20798
20789
20804
20781
20791
20774
20789
20767
20775
20769
20780
20770
20787
20791
20769
20781
20772
20778
20767
20790
20800
20782
20791
20773
20779
20775
20777
20762
20778
20765
20776
20767
20786
20764
20776
20764
20783
20771
20780
20767
20796
20766
20781
20771
20775
20764
20780
20764
20783
20770
20779
20770
20776
20764
20788
20772
20782
20767
20781
20759
20787
20767
20785
20773
20779
20776
20783
20762
20780
20764
20774
20760
20785
20788
20764
20776
20814
20773
20786
20765
20772
20783
20763
20778
20754
20774
20764
20767
20786
20775
20781
20769
20782
20766
20772
20764
20782
20761
20781
20764
20777
20767
20778
20766
20776
20780
20771
20772
20762
20769
20762
20780
20764
20792
20772
20757
20774
20761
20776
20761
20775
20769
20774
20760
20775
20751
20775
20764
20811
20769
20759
20771
20754
20783
20762
20774
20756
20780
20759
20782
20761
20777
20764
20776
20755
20773
20749
20775
20758
20767
20764
20773
20756
20778
20767
20776
20767
20783
20770
20805
20772
20773
20754
20771
20755
20767
20757
20770
20778
20770
20754
20766
20776
20756
20773
20754
20768
20761
20767
20755
20767
20750
20772
20776
20758
20773
20749
20770
20761
20766
20751
20769
20748
20757
20751
20770
20753
20765
20742
20761
20754
20757
20751
20764
20741
20770
20751
20766
20746
20758
20748
20762
20743
20759
20750
20759
20789
20766
20773
20752
20770
20751
20766
20746
20764
20748
20756
20743
20749
20747
20756
20742
20766
20767
20743
20767
20752
20767
20748
20760
20740
20765
20775
20748
20764
20747
20756
20774
20750
20767
20742
20754
20764
20750
20758
20791
20748
20766
20742
20750
20738
20754
20769
20742
20756
20743
20754
20740
20757
20765
20742
20760
20740
20756
20743
20756
20762
20742
20750
20741
20757
20762
20743
20759
20732
20749
20743
20751
20775
20758
20762
20748
20770
20743
20758
20768
20742
20766
20739
20770
20775
20742
20772
20733
20774
20730
20772
20730
20763
20729
20768
20729
20774
20741
20767
20743
20791
20746
20788
20742
20774
20749
20767
20778
20752
20768
20740
20767
20771
20751
20766
20751
20754
20759
20743
20752
20764
20753
20757
20743
20748
20748
20751
20743
20749
20757
20746
20749
20743
20753
20754
20736
20749
20759
20743
20746
20746
20757
20749
20735
20738
20753
20735
20739
20745
20735
20738
20743
20736
20742
20746
20735
20743
20766
20747
20747
20737
20741
20739
20743
20751
20733
20738
20735
20738
20735
20743
20743
20733
20739
20729
20737
20747
20735
20743
20761
20741
20737
20737
20742
20750
20727
20739
20753
20734
20737
20759
20734
20741
20729
20748
20742
20727
20739
20731
20738
20756
20735
20742
20726
20734
20726
20741
20748
20727
20743
20731
20739
20743
20724
20732
20724
20742
20742
20720
20732
20720
20730
20741
20727
20734
20746
20721
20735
20718
20727
20752
20727
20724
20719
20734
20734
20718
20740
20736
20716
20741
20740
20715
20735
20743
20724
20723
20717
20727
20716
20729
20763
20727
20742
20719
20734
20724
20737
20719
20733
20737
20719
20727
20742
20731
20753
20725
20717
20724
20751
20735
20743
20725
20761
20743
20743
20730
20742
20737
20758
20737
20729
20727
20733
20712
20735
20708
20724
20710
20730
20716
20731
20711
20726
20711
20727
20715
20724
20716
20735
20737
20727
20737
20734
20738
20716
20730
20717
20732
20719
20730
20711
20725
20710
20735
20719
20743
20725
20713
20732
20711
20711
20732
20711
20727
20715
20725
20713
20716
20728
20711
20727
20757
20712
20731
20712
20734
20718
20717
20735
20715
20739
20731
20735
20721
20731
20708
20729
20710
20724
20711
20730
20710
20739
20719
20730
20717
20737
20715
20734
20727
20759
20730
20735
20721
20730
20710
20726
20709
20718
20703
20719
20707
20725
20708
20716
20702
20717
20708
20728
20732
20714
20728
20717
20723
20711
20724
20702
20719
20703
20711
20701
20714
20722
20706
20722
20700
20708
20705
20719
20719
20700
20714
20698
20718
20725
20711
20709
20702
20700
20711
20694
20706
20706
20693
20708
20713
20700
20704
20719
20700
20710
20699
20709
20710
20691
20704
20723
20695
20706
20690
20709
20706
20688
20703
20691
20708
20711
20695
20710
20692
20704
20687
20700
20712
20694
20709
20687
20702
20687
20705
20706
20692
20697
20687
20702
20703
20686
20693
20708
20692
20703
20682
20700
20704
20683
20688
20700
20683
20695
20711
20695
20706
20684
20709
20686
20698
20687
20695
20681
20692
20696
20683
20690
20695
20679
20687
20703
20679
20691
20706
20680
20695
20710
20689
20697
20679
20697
20704
20682
20686
20702
20685
20690
20702
20681
20677
20689
20729
20681
20693
20676
20694
20699
20701
20710
20686
20682
20694
20685
20682
20683
20697
20692
20678
20689
20675
20719
20685
20679
20669
20687
20678
20697
20696
20676
20686
20701
20676
20688
20705
20678
20695
20672
20687
20675
20692
20692
20669
20683
20674
20687
20686
20675
20687
20708
20679
20684
20676
20695
20695
20674
20692
20671
20685
20691
20675
20674
20690
20668
20676
20687
20671
20675
20682
20713
20676
20680
20680
20672
20678
20689
20673
20673
20681
20724
20673
20682
20668
20683
20686
20669
20687
20663
20679
20684
20667
20679
20668
20682
20693
20677
20687
20668
20677
20692
20664
20683
20664
20679
20663
20676
20663
20677
20671
20685
20686
20688
20678
20695
20687
20692
20684
20708
20683
20666
20671
20705
20655
20675
20666
20670
20677
20665
20674
20686
20661
20673
20655
20692
20682
20656
20661
20686
20672
20681
20655
20670
20684
20664
20677
20668
20672
20695
20675
20679
20661
20664
20683
20662
20673
20670
20676
20677
20653
20670
20684
20674
20659
20669
20654
20673
20654
20679
20679
20652
20669
20684
20655
20671
20654
20669
20679
20661
20673
20679
20666
20668
20647
20663
20691
20666
20673
20655
20665
20664
20653
20665
20673
20656
20667
20676
20651
20664
20677
20657
20674
20664
20692
20662
20667
20652
20656
20665
20652
20662
20669
20649
20662
20672
20653
20658
20673
20653
20667
20660
20647
20667
20688
20656
20670
20647
20659
20668
20651
20656
20696
20659
20674
20655
20666
20646
20669
20651
20654
20666
20654
20664
20645
20660
20646
20662
20668
20646
20661
20647
20651
20668
20646
20674
20666
20640
20665
20665
20649
20650
20668
20647
20661
20662
20642
20649
20658
20664
20641
20658
20690
20663
20665
20646
20657
20646
20652
20682
20655
20660
20645
20661
20660
20644
20660
20660
20645
20652
20666
20640
20652
20647
20644
20656
20666
20641
20657
20667
20643
20656
20663
20642
20656
20657
20638
20663
20655
20640
20649
20665
20637
20652
20639
20647
20663
20643
20653
20661
20636
20649
20660
20632
20648
20660
20639
20647
20633
20652
20637
20659
20657
20639
20650
20636
20650
20633
20646
20658
20637
20647
20654
20637
20645
20631
20647
20655
20631
20641
20636
20645
20647
20632
20647
20662
20634
20646
20631
20644
20685
20640
20640
20628
20633
20644
20652
20628
20645
20646
20655
20626
20644
20634
20647
20630
20646
20651
20625
20639
20650
20626
20647
20650
20628
20644
20618
20639
20627
20637
20649
20639
20649
20626
20644
20630
20646
20651
20633
20642
20613
20636
20631
20644
20647
20625
20639
20621
20636
20627
20639
20645
20623
20638
20625
20639
20646
20628
20639
20621
20630
20638
20657
20625
20635
20648
20622
20629
20650
20628
20640
20657
20637
20645
20627
20641
20628
20642
20726
20647
20651
20616
20628
20662
20612
20641
20614
20658
20676
20620
20635
20621
20663
20669
20623
20658
20628
20645
20672
20627
20652
20656
20623
20644
20631
20644
20647
20623
20638
20635
20636
20644
20628
20639
20621
20632
20635
20641
20637
20631
20635
20632
20626
20628
20627
20633
20631
20623
20626
20631
20625
20627
20631
20621
20636
20641
20621
20625
20634
20622
20629
20615
20630
20622
20619
20620
20631
20613
20613
20625
20617
20622
20626
20615
20630
20638
20620
20629
20618
20623
20615
20620
20630
20613
20621
20614
20625
20640
20616
20620
20613
20617
20633
20613
20621
20626
20614
20622
20628
20616
20623
20604
20620
20629
20609
20612
20607
20615
20618
20604
20614
20629
20603
20623
20614
20624
20631
20612
20623
20604
20620
20625
20615
20621
20605
20619
20605
20623
20597
20615
20605
20613
20623
20602
20623
20604
20625
20628
20609
20621
20604
20615
20594
20613
20599
20607
20620
20602
20615
20593
20607
20637
20608
20615
20607
20613
20603
20608
20655
20620
20645
20621
20623
20613
20619
20595
20611
20601
20603
20596
20606
20647
20604
20619
20604
20615
20604
20623
20599
20608
20603
20618
20627
20602
20615
20599
20608
20590
20598
20599
20603
20588
20612
20631
20615
20622
20593
20604
20624
20603
20611
20588
20604
20621
20592
20613
20591
20613
20589
20607
20596
20607
20619
20599
20611
20585
20617
20615
20599
20601
20591
20610
20593
20601
20647
20602
20609
20597
20603
20591
20617
20617
20596
20604
20627
20601
20611
20588
20609
20626
20595
20610
20601
20605
20615
20591
20608
20588
20607
20615
20597
20617
20606
20612
20599
20613
20590
20607
20627
20599
20614
20585
20607
20588
20607
20622
20595
20611
20596
20615
20611
20588
20606
20589
20604
20603
20617
20617
20599
20604
20585
20601
20606
20591
20597
20605
20589
20603
20609
20595
20603
20604
20588
20598
20609
20591
20597
20602
20628
20594
20596
20589
20602
20610
20587
20599
20588
20596
20595
20585
20596
20587
20588
20610
20595
20597
20583
20596
20606
20590
20601
20585
20607
20606
20589
20599
20601
20583
20592
20583
20590
20584
20609
20604
20582
20600
20587
20598
20583
20597
20582
20590
20580
20589
20614
20591
20595
20582
20588
20617
20583
20598
20582
20585
20579
20594
20614
20583
20601
20579
20590
20578
20589
20598
20579
20597
20573
20585
20598
20580
20588
20597
20585
20598
20578
20589
20605
20591
20589
20581
20588
20570
20591
20577
20583
20619
20587
20595
20576
20583
20617
20578
20597
20576
20589
20567
20582
20577
20589
20590
20576
20591
20574
20578
20573
20574
20587
20572
20583
20564
20582
20575
20588
20591
20572
20586
20571
20583
20579
20587
20583
20586
20575
20587
20591
20574
20589
20569
20582
20598
20590
20591
20574
20590
20573
20578
20596
20580
20589
20572
20582
20570
20585
20591
20571
20583
20593
20575
20582
20588
20568
20576
20588
20565
20570
20608
20574
20590
20571
20583
20584
20567
20577
20587
20567
20579
20557
20590
20596
20566
20575
20596
20568
20581
20583
20563
20567
20579
20595
20575
20586
20579
20555
20567
20578
20581
20562
20575
20560
20573
20585
20566
20575
20596
20564
20585
20569
20582
20564
20591
20583
20562
20572
20590
20567
20575
20562
20585
20575
20557
20581
20564
20572
20586
20575
20580
20556
20578
20575
20558
20568
20581
20563
20577
20575
20562
20572
20553
20569
20586
20556
20575
20558
20581
20579
20564
20567
20599
20563
20574
20560
20583
20579
20558
20571
20559
20574
20576
20555
20566
20599
20567
20570
20557
20564
20561
20560
20580
20580
20552
20564
20579
20553
20564
20573
20556
20564
20578
20552
20564
20554
20567
20575
20555
20570
20613
20563
20572
20555
20567
20578
20556
20571
20556
20574
20566
20555
20564
20574
20548
20563
20579
20550
20564
20583
20556
20571
20554
20574
20573
20554
20567
20575
20548
20559
20559
20568
20546
20563
20579
20558
20569
20551
20564
20544
20575
20580
20555
20567
20553
20564
20563
20549
20562
20572
20550
20564
20595
20555
20566
20552
20564
20563
20577
20550
20554
20559
20567
20551
20558
20557
20568
20546
20551
20560
20571
20539
20550
20560
20571
20548
20554
20572
20558
20570
20548
20566
20564
20547
20550
20556
20561
20547
20550
20557
20570
20537
20559
20554
20577
20542
20551
20551
20566
20537
20545
20556
20566
20545
20555
20553
20564
20540
20543
20557
20565
20543
20542
20565
20556
20559
20583
20541
20553
20551
20568
20539
20544
20571
20540
20556
20553
20565
20539
20559
20555
20540
20540
20559
20551
20577
20543
20551
20552
20566
20542
20551
20555
20579
20539
20550
20558
20546
20540
20547
20544
20558
20533
20535
20542
20549
20551
20550
20538
20547
20533
20565
20582
20554
20589
20537
20547
20555
20530
20543
20559
20533
20548
20548
20567
20528
20548
20543
20534
20538
20543
20553
20563
20535
20530
20551
20540
20549
20559
20532
20538
20541
20564
20534
20542
20542
20558
20532
20535
20535
20535
20554
20535
20547
20530
20534
20551
20531
20540
20558
20533
20542
20552
20531
20543
20527
20540
20543
20553
20524
20538
20550
20531
20549
20546
20532
20535
20543
20526
20530
20537
20526
20534
20553
20527
20542
20528
20533
20523
20534
20545
20526
20528
20546
20522
20541
20545
20519
20530
20545
20519
20539
20519
20537
20543
20520
20542
20537
20516
20536
20541
20524
20527
20540
20518
20540
20545
20519
20530
20554
20526
20529
20518
20534
20543
20518
20533
20520
20535
20513
20525
20537
20519
20525
20537
20551
20524
20535
20528
20516
20527
20540
20521
20518
20537
20561
20524
20541
20602
20546
20549
20508
20549
20556
20509
20537
20547
20505
20549
20552
20512
20548
20557
20519
20558
20572
20519
20551
20524
20567
20568
20527
20554
20529
20544
20559
20540
20537
20526
20535
20515
20543
20533
20526
20535
20532
20540
20537
20523
20535
20551
20527
20535
20551
20526
20530
20519
20535
20535
20519
20532
20525
20533
20543
20525
20539
20519
20525
20545
20529
20528
20520
20528
20541
20518
20532
20519
20531
20524
20517
20524
20549
20519
20528
20516
20533
20528
20519
20527
20535
20517
20531
20513
20516
20527
20518
20529
20516
20523
20517
20526
20530
20518
20520
20508
20522
20517
20531
20529
20516
20517
20505
20517
20521
20509
20511
20513
20520
20524
20506
20514
20521
20508
20518
20510
20524
20526
20512
20520
20508
20519
20526
20511
20517
20502
20513
20527
20514
20520
20501
20512
20520
20505
20518
20520
20503
20513
20525
20505
20517
20500
20524
20509
20519
20531
20510
20518
20506
20514
20519
20506
20517
20503
20519
20519
20502
20519
20539
20508
20517
20503
20519
20498
20522
20521
20500
20516
20503
20522
20520
20506
20517
20501
20502
20520
20512
20514
20501
20526
20519
20505
20514
20504
20520
20519
20500
20514
20516
20501
20511
20494
20516
20522
20499
20508
20500
20519
20513
20499
20513
20524
20500
20512
20521
20503
20518
20529
20500
20511
20521
20487
20508
20523
20501
20509
20521
20502
20518
20527
20497
20518
20503
20505
20512
20498
20511
20513
20495
20508
20525
20499
20512
20523
20498
20518
20516
20497
20508
20520
20497
20518
20503
20518
20523
20509
20521
20498
20524
20497
20507
20497
20514
20500
20508
20500
20510
20526
20502
20517
20498
20507
20531
20508
20517
20499
20505
20553
20507
20510
20497
20511
20546
20491
20509
20518
20500
20508
20527
20509
20519
20492
20513
20501
20505
20518
20497
20509
20492
20506
20539
20500
20519
20487
20508
20502
20492
20501
20518
20493
20511
20497
20502
20509
20487
20501
20509
20537
20493
20496
20515
20487
20509
20510
20483
20499
20523
20489
20505
20487
20495
20505
20531
20487
20507
20517
20498
20496
20482
20487
20499
20511
20487
20495
20485
20488
20500
20480
20487
20509
20484
20500
20480
20497
20505
20472
20490
20530
20500
20518
20499
20500
20486
20497
20485
20489
20477
20488
20495
20476
20487
20486
20499
20500
20480
20495
20476
20483
20516
20487
20491
20470
20487
20487
20476
20481
20487
20478
20493
20495
20483
20497
20492
20472
20479
20487
20508
20479
20493
20472
20493
20492
20472
20479
20498
20471
20479
20498
20471
20492
20486
20469
20482
20482
20505
20476
20487
20482
20487
20487
20469
20487
20494
20468
20486
20473
20479
20499
20475
20487
20519
20479
20485
20471
20487
20467
20493
20495
20476
20483
20469
20484
20490
20461
20485
20491
20473
20498
20476
20487
20471
20484
20470
20474
20528
20487
20492
20473
20492
20481
20487
20474
20484
20457
20476
20517
20474
20484
20469
20487
20468
20483
20477
20487
20498
20466
20486
20466
20471
20469
20487
20490
20471
20484
20467
20477
20465
20473
20498
20474
20468
20503
20471
20481
20458
20477
20467
20471
20485
20460
20474
20453
20470
20463
20476
20479
20468
20485
20460
20478
20461
20475
20458
20481
20484
20463
20470
20462
20475
20460
20476
20457
20479
20483
20470
20478
20456
20466
20507
20463
20474
20461
20471
20468
20463
20457
20475
20457
20467
20477
20459
20473
20457
20471
20452
20465
20455
20467
20460
20465
20511
20471
20484
20454
20471
20453
20466
20510
20463
20476
20457
20469
20453
20463
20450
20463
20475
20456
20471
20453
20467
20455
20468
20454
20466
20447
20465
20450
20471
20468
20455
20464
20447
20463
20446
20463
20471
20446
20457
20477
20452
20462
20504
20466
20472
20445
20463
20476
20455
20465
20448
20463
20467
20446
20466
20447
20454
20476
20456
20460
20442
20471
20476
20449
20463
20451
20463
20463
20442
20454
20484
20454
20458
20443
20454
20469
20447
20456
20444
20470
20475
20456
20465
20444
20461
20444
20453
20438
20462
20469
20441
20457
20441
20463
20458
20444
20458
20445
20449
20475
20452
20458
20437
20452
20474
20450
20457
20439
20449
20468
20444
20454
20436
20455
20470
20442
20457
20440
20454
20439
20450
20469
20439
20456
20444
20454
20434
20447
20463
20438
20446
20458
20438
20448
20462
20439
20453
20436
20448
20469
20438
20457
20438
20445
20463
20445
20455
20433
20453
20433
20451
20425
20445
20487
20455
20470
20447
20447
20430
20454
20458
20433
20444
20436
20442
20455
20431
20442
20433
20448
20450
20431
20452
20445
20427
20430
20447
20459
20428
20442
20429
20447
20453
20438
20445
20429
20448
20456
20428
20439
20420
20445
20453
20430
20433
20427
20449
20451
20424
20441
20425
20442
20433
20441
20429
20436
20481
20447
20454
20447
20454
20444
20447
20433
20447
20428
20443
20423
20433
20431
20442
20428
20441
20426
20435
20424
20441
20430
20435
20423
20443
20423
20439
20422
20439
20426
20444
20435
20448
20428
20447
20424
20435
20428
20442
20422
20437
20421
20436
20430
20444
20442
20427
20436
20412
20442
20423
20437
20423
20433
20422
20432
20422
20434
20417
20439
20446
20424
20441
20421
20427
20421
20428
20442
20417
20439
20415
20428
20423
20430
20469
20439
20460
20441
20451
20417
20428
20438
20423
20431
20418
20439
20437
20421
20428
20434
20419
20430
20443
20407
20425
20444
20425
20432
20417
20426
20418
20412
20461
20433
20428
20413
20431
20405
20432
20412
20429
20407
20431
20410
20431
20434
20431
20438
20423
20440
20426
20434
20411
20420
20413
20422
20400
20422
20412
20424
20407
20417
20427
20410
20429
20410
20415
20409
20420
20407
20415
20431
20406
20427
20458
20414
20429
20404
20420
20409
20424
20429
20413
20426
20409
20422
20445
20430
20438
20414
20430
20422
20423
20412
20423
20406
20423
20425
20409
20415
20429
20421
20420
20409
20421
20454
20428
20430
20413
20426
20405
20438
20438
20404
20421
20474
20444
20444
20396
20419
20400
20404
20458
20412
20443
20397
20424
20404
20451
20465
20425
20458
20418
20459
20407
20442
20414
20439
20413
20429
20406
20420
20432
20414
20421
20437
20427
20424
20416
20430
20412
20414
20413
20417
20430
20415
20420
20410
20420
20407
20414
20411
20414
20421
20409
20415
20407
20421
20442
20411
20419
20404
20414
20402
20411
20418
20409
20416
20412
20418
20408
20418
20414
20421
20415
20431
20410
20436
20404
20413
20404
20410
20412
20405
20410
20399
20421
20397
20411
20396
20407
20399
20404
20389
20406
20399
20412
20407
20413
20420
20414
20394
20407
20396
20397
20394
20414
20410
20391
20413
20399
20406
20398
20419
20411
20396
20406
20423
20405
20417
20397
20412
20391
20398
20413
20399
20407
20389
20398
20390
20407
20411
20389
20413
20413
20396
20404
20396
20405
20414
20391
20399
20438
20389
20398
20388
20396
20376
20397
20406
20388
20398
20390
20399
20409
20388
20407
20395
20402
20397
20396
20401
20386
20395
20402
20391
20404
20387
20398
20386
20405
20411
20388
20401
20446
20399
20407
20391
20404
20384
20401
20408
20386
20397
20421
20391
20399
20391
20406
20407
20389
20396
20421
20401
20402
20384
20399
20389
20394
20397
20388
20394
20407
20397
20397
20389
20395
20404
20384
20399
20383
20393
20398
20387
20404
20410
20386
20397
20380
20399
20413
20396
20399
20405
20387
20397
20386
20393
20409
20389
20402
20382
20407
20396
20386
20396
20414
20407
20402
20387
20404
20383
20395
20417
20390
20396
20383
20395
20415
20391
20410
20388
20394
20436
20393
20406
20383
20394
20387
20392
20422
20395
20399
20378
20398
20381
20402
20403
20385
20400
20385
20390
20415
20390
20393
20383
20399
20415
20383
20401
20381
20393
20382
20392
20382
20390
20405
20380
20401
20379
20401
20382
20400
20378
20399
20383
20398
20405
20386
20404
20380
20390
20388
20391
20399
20387
20401
20381
20398
20383
20394
20367
20399
20405
20382
20397
20380
20387
20395
20380
20393
20399
20374
20390
20380
20384
20391
20377
20388
20371
20383
20423
20392
20403
20381
20391
20377
20391
20380
20380
20429
20391
20391
20371
20386
20375
20378
20393
20381
20393
20379
20390
20370
20386
20374
20385
20391
20372
20386
20375
20383
20365
20381
20389
20378
20389
20369
20379
20364
20374
20402
20377
20388
20373
20383
20370
20382
20367
20372
20412
20382
20387
20369
20382
20366
20375
20390
20372
20377
20366
20384
20385
20370
20388
20357
20370
20367
20381
20386
20367
20382
20359
20377
20360
20377
20404
20366
20376
20358
20371
20359
20381
20381
20364
20381
20380
20362
20374
20390
20366
20374
20356
20371
20405
20367
20368
20357
20375
20379
20354
20370
20359
20378
20382
20361
20380
20363
20375
20361
20366
20382
20359
20376
20358
20371
20406
20361
20378
20354
20369
20359
20378
20399
20383
20383
20367
20378
20358
20364
20406
20365
20365
20351
20373
20378
20358
20374
20359
20367
20359
20364
20353
20364
20398
20374
20378
20362
20375
20352
20368
20355
20366
20378
20350
20367
20378
20361
20366
20355
20365
20368
20348
20366
20374
20350
20373
20361
20357
20361
20373
20349
20367
20372
20378
20348
20360
20373
20350
20360
20342
20367
20377
20351
20356
20398
20357
20367
20351
20369
20365
20354
20358
20372
20348
20356
20370
20343
20357
20374
20348
20361
20370
20346
20359
20402
20367
20386
20352
20350
20355
20349
20363
20350
20357
20348
20366
20366
20346
20358
20367
20349
20366
20347
20359
20349
20362
20377
20356
20363
20343
20358
20410
20357
20362
20340
20352
20369
20343
20353
20367
20346
20364
20345
20348
20367
20347
20362
20358
20337
20359
20354
20338
20347
20359
20389
20347
20358
20340
20342
20364
20341
20356
20337
20354
20334
20351
20337
20348
20338
20359
20359
20337
20362
20337
20342
20361
20349
20359
20335
20348
20355
20348
20359
20343
20352
20334
20349
20335
20354
20363
20341
20352
20358
20335
20348
20335
20339
20370
20348
20354
20332
20342
20359
20333
20349
20364
20343
20346
20330
20356
20356
20335
20349
20335
20353
20348
20333
20342
20331
20348
20374
20335
20347
20330
20344
20356
20335
20351
20332
20340
20373
20337
20350
20339
20342
20325
20335
20371
20326
20343
20333
20335
20365
20342
20353
20324
20337
20327
20351
20353
20331
20341
20355
20336
20347
20319
20339
20325
20349
20351
20332
20348
20328
20349
20331
20349
20339
20347
20327
20343
20325
20341
20325
20347
20344
20327
20342
20351
20325
20340
20319
20335
20359
20345
20353
20341
20348
20324
20349
20322
20336
20322
20330
20367
20329
20341
20321
20335
20321
20343
20343
20324
20339
20324
20338
20319
20332
20323
20334
20340
20319
20333
20373
20337
20343
20324
20335
20317
20333
20310
20325
20351
20324
20334
20324
20330
20303
20337
20343
20316
20327
20321
20326
20334
20315
20327
20344
20317
20327
20340
20324
20326
20350
20321
20335
20367
20323
20333
20313
20326
20340
20319
20331
20365
20314
20320
20352
20322
20332
20310
20327
20308
20319
20335
20311
20321
20330
20320
20329
20311
20320
20327
20317
20319
20326
20308
20330
20327
20337
20306
20327
20330
20310
20327
20327
20303
20332
20335
20309
20321
20311
20321
20331
20309
20326
20302
20323
20329
20311
20324
20325
20305
20319
20333
20303
20311
20363
20323
20326
20308
20327
20322
20307
20323
20324
20302
20318
20326
20303
20305
20322
20300
20315
20333
20320
20305
20317
20328
20303
20316
20303
20324
20340
20311
20297
20321
20310
20324
20313
20305
20318
20303
20321
20306
20324
20307
20326
20310
20327
20321
20300
20316
20335
20307
20322
20340
20302
20322
20343
20295
20316
20300
20317
20375
20308
20338
20293
20343
20343
20293
20325
20354
20298
20327
20364
20311
20340
20310
20331
20332
20308
20326
20343
20317
20319
20316
20338
20324
20311
20324
20306
20324
20318
20295
20312
20325
20315
20309
20308
20316
20306
20316
20305
20316
20314
20295
20313
20316
20310
20316
20313
20299
20306
20312
20303
20310
20299
20301
20309
20298
20303
20311
20293
20311
20307
20294
20308
20317
20294
20303
20321
20296
20301
20329
20299
20300
20313
20295
20304
20300
20295
20303
20289
20300
20319
20296
20300
20337
20306
20310
20287
20305
20292
20301
20287
20302
20319
20297
20305
20294
20303
20320
20308
20311
20293
20303
20295
20296
20317
20303
20300
20287
20301
20311
20278
20298
20306
20286
20294
20289
20297
20310
20287
20309
20290
20296
20282
20290
20303
20286
20295
20303
20286
20296
20287
20300
20310
20290
20292
20305
20291
20298
20278
20299
20327
20293
20302
20282
20292
20309
20292
20295
20280
20291
20303
20284
20293
20308
20287
20295
20271
20289
20335
20291
20307
20284
20298
20279
20292
20310
20286
20300
20283
20292
20276
20284
20276
20295
20295
20276
20291
20297
20273
20291
20306
20281
20292
20279
20295
20295
20275
20284
20297
20284
20288
20269
20285
20278
20292
20298
20279
20289
20277
20290
20282
20290
20300
20279
20293
20276
20287
20325
20295
20298
20276
20297
20276
20287
20276
20297
20303
20278
20292
20277
20291
20271
20292
20276
20286
20276
20287
20297
20289
20303
20278
20295
20274
20284
20271
20284
20298
20266
20289
20271
20287
20305
20279
20287
20276
20286
20304
20281
20291
20269
20287
20274
20283
20269
20286
20271
20296
20303
20283
20298
20281
20295
20271
20302
20273
20289
20279
20332
20281
20271
20286
20270
20287
20270
20288
20289
20271
20289
20268
20279
20303
20273
20285
20263
20278
20324
20269
20287
20267
20282
20264
20284
20288
20258
20277
20294
20269
20276
20278
20283
20284
20271
20279
20284
20264
20268
20292
20278
20284
20262
20283
20269
20273
20263
20277
20261
20271
20265
20279
20265
20268
20286
20265
20279
20266
20274
20253
20272
20260
20267
20283
20262
20271
20263
20266
20276
20260
20263
20285
20267
20277
20267
20284
20261
20267
20290
20263
20266
20278
20260
20267
20257
20266
20275
20260
20269
20262
20271
20260
20262
20290
20263
20275
20255
20274
20269
20251
20261
20270
20250
20262
20280
20252
20268
20255
20271
20252
20268
20253
20260
20250
20260
20241
20260
20274
20257
20268
20252
20264
20291
20250
20263
20244
20258
20263
20247
20263
20265
20242
20257
20271
20253
20255
20268
20248
20263
20297
20252
20265
20239
20254
20279
20244
20259
20290
20247
20265
20249
20263
20249
20261
20247
20267
20248
20253
20309
20268
20269
20255
20260
20241
20259
20244
20254
20298
20254
20265
20252
20261
20247
20268
20240
20259
20243
20262
20245
20253
20238
20257
20241
20246
20244
20255
20261
20238
20250
20226
20254
20260
20242
20254
20263
20250
20256
20241
20264
20255
20241
20263
20260
20237
20250
20250
20237
20257
20257
20245
20251
20259
20239
20246
20273
20241
20251
20239
20252
20252
20238
20247
20255
20233
20252
20236
20239
20250
20259
20238
20247
20234
20249
20257
20238
20257
20258
20245
20258
20254
20283
20246
20231
20252
20245
20274
20238
20231
20255
20250
20237
20244
20259
20235
20247
20264
20231
20252
20255
20231
20239
20247
20228
20244
20229
20237
20247
20228
20232
20254
20225
20238
20255
20233
20238
20231
20239
20261
20235
20247
20220
20238
20262
20231
20243
20222
20237
20241
20223
20222
20243
20223
20235
20233
20224
20235
20245
20225
20236
20255
20223
20239
20262
20228
20230
20216
20223
20242
20221
20243
20241
20225
20235
20222
20227
20238
20247
20218
20230
20251
20233
20236
20222
20245
20242
20219
20234
20244
20217
20236
20223
20231
20223
20247
20232
20245
20219
20229
20252
20220
20228
20250
20227
20228
20208
20235
20231
20212
20228
20217
20228
20244
20222
20237
20227
20229
20243
20224
20239
20265
20215
20230
20250
20217
20224
20217
20225
20230
20214
20231
20239
20222
20221
20261
20225
20237
20212
20213
20218
20236
20215
20215
20229
20208
20231
20230
20215
20218
20231
20207
20229
20215
20231
20234
20211
20215
20238
20208
20226
20264
20215
20224
20207
20215
20228
20215
20224
20222
20207
20214
20230
20245
20215
20223
20238
20209
20220
20237
20208
20223
20226
20205
20231
20229
20205
20212
20224
20206
20223
20222
20261
20215
20231
20209
20219
20228
20205
20213
20220
20203
20213
20223
20204
20213
20223
20198
20229
20226
20198
20210
20230
20211
20223
20223
20199
20220
20205
20209
20219
20206
20210
20217
20202
20217
20223
20199
20210
20251
20208
20221
20199
20221
20226
20204
20213
20230
20207
20214
20207
20209
20215
20191
20215
20225
20194
20201
20221
20198
20211
20213
20195
20222
20242
20214
20220
20199
20209
20228
20201
20214
20199
20207
20199
20219
20223
20221
20198
20210
20196
20210
20196
20201
20196
20213
20193
20213
20196
20206
20199
20213
20196
20209
20198
20212
20201
20212
20197
20213
20195
20212
20199
20215
20194
20210
20189
20211
20195
20207
20234
20210
20213
20193
20215
20189
20209
20214
20194
20208
20192
20206
20191
20209
20214
20195
20208
20197
20200
20221
20205
20215
20194
20210
20190
20207
20196
20207
20261
20215
20222
20198
20216
20188
20214
20188
20201
20239
20201
20237
20207
20222
20176
20229
20231
20183
20213
20191
20230
20234
20197
20220
20195
20228
20225
20196
20228
20231
20203
20219
20201
20205
20222
20212
20206
20202
20204
20203
20214
20199
20203
20198
20192
20198
20212
20198
20207
20198
20204
20215
20204
20213
20199
20207
20194
20204
20180
20203
20207
20190
20190
20202
20193
20199
20209
20196
20198
20206
20190
20199
20189
20196
20200
20185
20196
20183
20196
20199
20190
20198
20182
20193
20198
20191
20197
20183
20189
20203
20190
20189
20203
20194
20195
20173
20189
20199
20188
20189
20167
20196
20197
20189
20194
20182
20199
20199
20188
20201
20177
20199
20199
20181
20190
20177
20186
20194
20175
20193
20192
20180
20189
20182
20180
20185
20193
20179
20201
20202
20187
20194
20206
20180
20188
20168
20190
20191
20174
20189
20187
20180
20196
20199
20173
20182
20205
20177
20184
20180
20193
20196
20172
20183
20195
20172
20185
20193
20173
20178
20188
20171
20173
20181
20194
20169
20180
20196
20168
20180
20195
20172
20188
20178
20180
20199
20182
20190
20170
20178
20170
20196
20193
20171
20183
20199
20175
20188
20167
20181
20195
20171
20191
20191
20169
20188
20191
20175
20190
20167
20177
20169
20188
20189
20170
20191
20167
20191
20192
20174
20178
20199
20171
20178
20221
20171
20177
20165
20174
20189
20172
20180
20194
20167
20184
20167
20183
20193
20181
20189
20167
20183
20165
20181
20166
20182
20166
20177
20165
20181
20161
20180
20217
20175
20190
20167
20190
20179
20168
20190
20168
20192
20166
20182
20157
20184
20194
20167
20180
20188
20163
20177
20207
20180
20189
20165
20179
20165
20180
20188
20168
20185
20167
20190
20194
20167
20190
20171
20180
20162
20176
20157
20182
20161
20175
20163
20172
20157
20179
20161
20186
20162
20178
20157
20174
20161
20166
20167
20168
20156
20176
20158
20177
20184
20166
20180
20175
20162
20170
20159
20166
20181
20160
20174
20156
20172
20175
20161
20178
20155
20167
20191
20158
20171
20157
20166
20167
20160
20167
20178
20157
20160
20183
20156
20162
20156
20160
20154
20162
20172
20155
20167
20154
20166
20148
20162
20149
20158
20143
20163
20183
20170
20170
20144
20159
20173
20149
20162
20150
20156
20167
20147
20161
20141
20167
20174
20145
20160
20143
20157
20149
20163
20179
20167
20175
20164
20164
20148
20163
20149
20168
20147
20153
20140
20158
20135
20159
20148
20154
20159
20157
20172
20146
20158
20146
20163
20164
20139
20155
20142
20156
20148
20170
20151
20167
20140
20153
20141
20150
20193
20146
20164
20137
20151
20171
20140
20157
20137
20146
20167
20141
20144
20154
20141
