EDA
32766
32775
32773
32768
32775
32770
32775
32754
32761
32765
32772
32775
32766
32773
32762
32775
32772
32772
32771
32766
32760
32767
32766
32770
32772
32768
32764
32762
32755
32764
32764
32756
32767
32766
32759
32759
32758
32753
32765
32759
32753
32759
32763
32763
32753
32756
32759
32756
32746
32756
32759
32759
32745
32759
32763
32756
32757
32749
32748
32755
32749
32750
32759
32748
32750
32746
32746
32747
32741
32751
32744
32739
32744
32748
32748
32746
32752
32743
32743
32740
32733
32741
32743
32739
32741
32738
32738
32730
32731
32739
32742
32740
32745
32747
32740
32741
32732
32738
32735
32732
32718
32732
32739
32732
32741
32732
32726
32721
32730
32708
32722
32729
32743
32731
32731
32733
32724
32716
32732
32735
32727
32727
32726
32724
32725
32725
32720
32716
32721
32728
32730
32718
32731
32720
32720
32724
32718
32719
32724
32711
32717
32711
32706
32716
32703
32716
32711
32712
32710
32711
32710
32718
32718
32712
32716
32712
32715
32718
32710
32711
32707
32710
32709
32711
32707
32715
32701
32709
32706
32703
32703
32717
32699
32711
32711
32680
32698
32707
32710
32708
32703
32695
32698
32699
32695
32696
32703
32700
32698
32680
32687
32689
32698
32697
32684
32702
32695
32684
32697
32698
32692
32693
32692
32685
32695
32687
32687
32684
32687
32684
32686
32686
32676
32687
32689
32687
32684
32681
32669
32682
32687
32680
32680
32684
32679
32681
32681
32679
32671
32673
32678
32676
32682
32671
32679
32679
32681
32686
32673
32671
32679
32661
32672
32671
32684
32660
32664
32673
32669
32655
32669
32673
32677
32672
32672
32676
32667
32670
32670
32668
32665
32669
32665
32656
32662
32666
32655
32666
32668
32663
32660
32661
32644
32663
32658
32658
32669
32660
32663
32663
32653
32658
32655
32658
32655
32656
32647
32646
32652
32651
32654
32662
32660
32657
32657
32652
32634
32662
32663
32660
32658
32652
32647
32644
32628
32645
32649
32660
32659
32652
32651
32652
32659
32647
32647
32661
32652
32655
32671
32671
32672
32668
32669
32681
32684
32680
32681
32683
32684
32697
32692
32700
32702
32676
32700
32696
32700
32682
32678
32679
32678
32671
32668
32660
32654
32655
32652
32651
32653
32645
32644
32651
32640
32641
32644
32645
32647
32645
32637
32634
32639
32631
32638
32634
32637
32628
32635
32636
32639
32636
32631
32638
32620
32629
32633
32639
32631
32638
32637
32622
32629
32628
32629
32613
32620
32623
32630
32618
32620
32620
32628
32625
32614
32612
32627
32615
32615
32623
32623
32608
32619
32613
32609
32604
32615
32614
32612
32615
32606
32591
32606
32615
32604
32602
32604
32613
32600
32610
32615
32606
32605
32611
32609
32604
32598
32596
32599
32596
32599
32604
32595
32607
32581
32605
32604
32595
32597
32591
32600
32595
32594
32599
32588
32588
32588
32575
32596
32589
32581
32583
32590
32596
32587
32581
32588
32594
32575
32570
32582
32583
32583
32580
32591
32585
32581
32591
32581
32577
32583
32564
32588
32583
32583
32582
32578
32583
32574
32580
32585
32571
32580
32582
32567
32579
32583
32583
32574
32580
32574
32575
32574
32576
32578
32558
32569
32576
32577
32581
32580
32575
32576
32565
32580
32575
32570
32554
32570
32572
32574
32569
32572
32552
32572
32583
32573
32570
32575
32575
32577
32565
32569
32554
32569
32572
32573
32570
32561
32574
32574
32566
32571
32567
32550
32567
32572
32565
32569
32565
32575
32556
32575
32574
32572
32560
32575
32567
32569
32561
32564
32556
32572
32566
32572
32570
32551
32574
32575
32577
32567
32561
32572
32564
32559
32567
32565
32571
32556
32568
32566
32573
32564
32559
32559
32560
32551
32567
32566
32556
32564
32559
32557
32562
32559
32556
32542
32554
32556
32551
32549
32550
32551
32550
32548
32554
32542
32539
32547
32547
32549
32549
32541
32551
32535
32539
32532
32543
32533
32529
32529
32532
32519
32527
32535
32519
32529
32529
32532
32518
32516
32512
32518
32519
32518
32514
32519
32511
32509
32510
32510
32500
32502
32487
32511
32503
32502
32511
32503
32508
32506
32514
32500
32493
32496
32494
32500
32500
32492
32493
32490
32491
32490
32484
32491
32489
32486
32487
32474
32489
32487
32495
32487
32479
32487
32484
32487
32479
32482
32473
32475
32476
32484
32479
32461
32478
32476
32475
32482
32479
32472
32471
32468
32476
32459
32473
32470
32471
32471
32465
32475
32467
32468
32464
32455
32466
32463
32468
32468
32461
32463
32460
32462
32469
32461
32463
32454
32455
32454
32455
32459
32454
32455
32461
32455
32459
32450
32444
32457
32446
32455
32455
32454
32452
32451
32455
32442
32455
32437
32454
32452
32449
32438
32453
32446
32441
32447
32438
32443
32447
32447
32437
32451
32453
32445
32437
32442
32439
32431
32432
32445
32434
32437
32433
32426
32439
32417
32436
32435
32430
32435
32415
32434
32431
32431
32425
32431
32428
32428
32429
32430
32427
32438
32424
32428
32431
32420
32422
32420
32422
32412
32429
32423
32420
32429
32419
32423
32407
32422
32415
32423
32421
32419
32415
32413
32416
32414
32412
32419
32413
32415
32423
32413
32409
32409
32415
32407
32399
32409
32415
32409
32410
32405
32405
32403
32399
32398
32406
32399
32399
32399
32412
32409
32401
32396
32411
32405
32404
32404
32396
32405
32391
32393
32407
32391
32397
32398
32399
32399
32399
32397
32399
32390
32391
32394
32388
32395
32393
32392
32394
32388
32389
32391
32383
32388
32376
32384
32391
32388
32391
32388
32382
32385
32375
32386
32391
32383
32382
32383
32383
32380
32383
32380
32373
32374
32388
32372
32377
32382
32364
32383
32382
32381
32385
32377
32383
32371
32380
32360
32382
32364
32372
32380
32372
32374
32372
32372
32378
32375
32374
32362
32378
32380
32372
32370
32375
32367
32365
32367
32362
32371
32372
32367
32373
32364
32372
32365
32366
32367
32359
32370
32372
32372
32356
32358
32353
32364
32359
32357
32356
32351
32359
32343
32356
32340
32356
32361
32356
32356
32358
32355
32359
32359
32357
32356
32348
32354
32350
32350
32350
32346
32342
32356
32358
32353
32350
32356
32351
32356
32357
32351
32347
32352
32344
32355
32346
32346
32349
32350
32343
32359
32343
32345
32328
32346
32340
32343
32330
32346
32342
32341
32341
32351
32341
32345
32348
32343
32341
32341
32342
32334
32343
32338
32343
32320
32335
32340
32338
32334
32340
32342
32318
32342
32338
32341
32335
32335
32333
32327
32337
32341
32340
32334
32341
32327
32335
32335
32324
32345
32335
32326
32335
32335
32335
32332
32342
32325
32330
32325
32333
32335
32325
32326
32327
32326
32312
32327
32322
32327
32324
32324
32335
32327
32330
32325
32332
32328
32329
32319
32319
32319
32326
32327
32316
32317
32327
32324
32318
32327
32317
32323
32324
32323
32335
32327
32327
32324
32325
32316
32318
32306
32322
32322
32327
32321
32321
32305
32321
32326
32317
32318
32327
32324
32324
32323
32326
32322
32325
32313
32320
32324
32312
32314
32313
32321
32313
32317
32306
32319
32322
32308
32316
32322
32295
32326
32324
32324
32324
32319
32313
32321
32315
32317
32318
32302
32315
32316
32316
32316
32317
32311
32323
32319
32318
32319
32326
32299
32324
32324
32319
32312
32297
32323
32317
32311
32323
32318
32307
32319
32324
32327
32322
32320
32326
32320
32324
32325
32324
32332
32330
32333
32346
32343
32332
32342
32356
32359
32360
32358
32365
32361
32367
32369
32380
32380
32392
32385
32381
32379
32367
32358
32360
32362
32359
32350
32350
32343
32343
32348
32324
32344
32334
32343
32334
32335
32334
32329
32325
32339
32341
32335
32335
32340
32329
32335
32329
32335
32341
32327
32340
32343
32327
32349
32339
32338
32336
32333
32326
32334
32341
32335
32342
32324
32332
32335
32334
32327
32330
32321
32325
32335
32336
32340
32341
32332
32337
32338
32334
32335
32335
32333
32328
32327
32310
32328
32330
32327
32327
32324
32327
32324
32330
32342
32330
32325
32333
32329
32333
32332
32327
32327
32327
32309
32327
32321
32318
32327
32327
32324
32329
32325
32327
32324
32327
32326
32326
32327
32309
32334
32333
32321
32323
32318
32316
32319
32323
32327
32325
32327
32327
32326
32327
32334
32327
32333
32327
32328
32330
32321
32327
32328
32321
32324
32324
32320
32322
32326
32326
32324
32327
32322
32324
32333
32333
32329
32326
32337
32321
32332
32330
32330
32323
32326
32323
32331
32332
32329
32333
32322
32323
32327
32332
32335
32330
32332
32335
32333
32335
32332
32333
32335
32341
32331
32310
32323
32335
32339
32342
32335
32329
32333
32337
32337
32341
32342
32335
32334
32342
32335
32340
32336
32343
32331
32338
32337
32343
32340
32342
32332
32350
32340
32341
32342
32345
32347
32350
32342
32340
32351
32331
32340
32340
32346
32350
32345
32343
32354
32340
32350
32340
32351
32351
32351
32353
32358
32349
32351
32333
32354
32354
32356
32349
32349
32353
32340
32346
32348
32359
32354
32349
32351
32355
32336
32351
32346
32351
32356
32355
32341
32346
32353
32343
32343
32343
32348
32340
32350
32346
32343
32347
32338
32349
32346
32341
32351
32349
32342
32350
32342
32339
32335
32337
32340
32324
32337
32339
32335
32335
32334
32324
32335
32332
32335
32335
32338
32337
32335
32335
32326
32324
32324
32324
32327
32322
32335
32332
32320
32323
32327
32325
32327
32322
32324
32326
32327
32327
32316
32324
32319
32317
32313
32314
32305
32311
32311
32315
32309
32316
32311
32306
32310
32314
32309
32319
32295
32308
32315
32316
32310
32308
32307
32317
32308
32298
32302
32301
32307
32293
32301
32305
32303
32303
32307
32298
32308
32303
32303
32303
32307
32300
32292
32303
32290
32301
32297
32300
32300
32295
32300
32292
32284
32300
32302
32301
32306
32300
32292
32300
32297
32297
32286
32295
32295
32295
32293
32290
32309
32279
32292
32292
32293
32300
32276
32295
32297
32278
32290
32294
32295
32294
32288
32291
32288
32287
32295
32292
32294
32293
32295
32290
32288
32295
32293
32285
32287
32299
32284
32293
32293
32271
32287
32287
32292
32284
32295
32280
32290
32284
32271
32290
32273
32286
32286
32284
32295
32298
32293
32282
32287
32287
32285
32281
32287
32287
32281
32287
32281
32271
32287
32291
32292
32286
32284
32282
32284
32291
32293
32263
32284
32285
32280
32275
32288
32279
32283
32277
32280
32276
32282
32287
32287
32268
32279
32281
32284
32275
32277
32284
32270
32278
32279
32287
32273
32270
32268
32277
32274
32263
32263
32282
32278
32279
32278
32283
32282
32282
32277
32270
32276
32277
32279
32263
32281
32279
32276
32268
32274
32263
32273
32279
32273
32279
32266
32278
32276
32262
32279
32284
32260
32270
32270
32272
32258
32271
32273
32279
32269
32279
32269
32258
32272
32271
32252
32271
32263
32283
32271
32271
32278
32263
32273
32276
32255
32271
32263
32263
32263
32255
32263
32275
32263
32271
32268
32263
32263
32263
32254
32263
32263
32271
32256
32277
32263
32263
32262
32255
32263
32271
32245
32263
32263
32263
32263
32263
32255
32263
32263
32263
32263
32263
32263
32260
32269
32263
32256
32263
32262
32263
32263
32260
32263
32263
32263
32263
32263
32262
32258
32262
32256
32261
32252
32255
32263
32261
32253
32263
32261
32263
32257
32255
32254
32262
32263
32254
32260
32260
32263
32260
32257
32255
32261
32257
32252
32255
32255
32261
32254
32262
32255
32255
32255
32255
32260
32257
32254
32263
32263
32244
32245
32249
32245
32246
32253
32252
32250
32248
32255
32252
32255
32258
32257
32253
32255
32253
32252
32248
32255
32251
32253
32247
32250
32245
32252
32246
32247
32246
32245
32241
32252
32255
32239
32255
32247
32253
32252
32261
32252
32247
32245
32251
32255
32250
32247
32244
32251
32238
32244
32239
32250
32239
32241
32247
32256
32247
32248
32253
32244
32252
32252
32244
32243
32231
32240
32234
32239
32231
32240
32239
32241
32241
32242
32222
32248
32233
32250
32247
32251
32244
32251
32241
32247
32237
32244
32239
32234
32238
32237
32237
32234
32239
32244
32246
32243
32241
32244
32253
32235
32241
32252
32239
32231
32236
32226
32228
32233
32238
32229
32229
32241
32239
32229
32237
32243
32228
32235
32238
32242
32226
32239
32239
32244
32231
32234
32239
32235
32231
32231
32233
32236
32230
32229
32233
32227
32239
32243
32244
32234
32236
32239
32225
32230
32235
32229
32224
32224
32228
32225
32214
32220
32228
32218
32220
32230
32233
32234
32239
32239
32215
32228
32231
32237
32212
32230
32229
32231
32220
32222
32229
32225
32225
32232
32238
32231
32230
32231
32235
32235
32233
32239
32228
32236
32231
32237
32237
32233
32213
32227
32224
32231
32239
32230
32235
32230
32244
32243
32240
32244
32246
32245
32250
32255
32250
32244
32263
32260
32263
32262
32271
32261
32263
32271
32284
32284
32285
32293
32297
32286
32293
32280
32275
32279
32263
32260
32258
32259
32247
32247
32237
32244
32244
32244
32255
32244
32238
32242
32245
32238
32247
32228
32237
32240
32239
32235
32231
32229
32228
32231
32229
32237
32236
32239
32239
32241
32243
32244
32247
32245
32221
32238
32241
32230
32238
32227
32224
32235
32222
32225
32229
32216
32228
32236
32236
32234
32234
32239
32239
32228
32227
32239
32236
32237
32231
32222
32230
32223
32223
32218
32229
32227
32231
32231
32231
32232
32229
32209
32226
32233
32239
32231
32228
32225
32228
32214
32225
32215
32219
32215
32210
32220
32226
32226
32216
32227
32208
32230
32231
32228
32228
32228
32229
32220
32224
32221
32205
32211
32215
32219
32218
32221
32210
32220
32223
32225
32224
32225
32226
32226
32226
32236
32229
32204
32200
32213
32213
32216
32217
32214
32212
32214
32207
32204
32199
32209
32223
32228
32238
32232
32218
32228
32221
32224
32223
32212
32212
32218
32209
32220
32213
32220
32218
32212
32219
32215
32234
32234
32236
32222
32231
32227
32215
32231
32226
32220
32220
32212
32221
32210
32222
32219
32225
32231
32224
32229
32235
32235
32231
32230
32227
32236
32221
32225
32219
32220
32223
32214
32223
32207
32218
32226
32231
32223
32231
32223
32236
32214
32235
32236
32247
32231
32226
32235
32235
32228
32221
32227
32228
32221
32233
32228
32230
32231
32233
32239
32239
32237
32244
32245
32244
32239
32239
32229
32226
32230
32231
32228
32230
32228
32231
32230
32228
32225
32236
32239
32239
32246
32247
32254
32243
32230
32239
32238
32231
32228
32231
32226
32221
32222
32225
32226
32214
32228
32239
32237
32229
32230
32239
32235
32210
32216
32231
32231
32227
32215
32212
32223
32218
32217
32221
32219
32220
32223
32215
32221
32212
32227
32236
32214
32220
32213
32212
32200
32202
32207
32205
32198
32198
32195
32203
32199
32206
32209
32200
32191
32211
32207
32206
32207
32212
32200
32199
32202
32194
32197
32195
32195
32197
32192
32183
32190
32186
32196
32193
32191
32202
32201
32195
32197
32197
32189
32188
32191
32188
32186
32181
32180
32183
32187
32186
32183
32180
32186
32183
32186
32193
32191
32189
32198
32182
32186
32181
32185
32178
32159
32183
32172
32173
32170
32169
32176
32175
32180
32173
32178
32180
32181
32188
32183
32185
32175
32175
32175
32172
32180
32175
32167
32164
32165
32171
32175
32163
32172
32173
32175
32173
32175
32183
32172
32172
32174
32180
32175
32167
32166
32151
32164
32167
32167
32166
32167
32165
32171
32167
32173
32175
32159
32164
32165
32175
32180
32180
32177
32165
32171
32159
32167
32148
32162
32162
32162
32164
32164
32168
32167
32175
32165
32171
32172
32175
32167
32159
32167
32159
32165
32143
32155
32153
32154
32155
32166
32159
32159
32158
32165
32164
32167
32162
32151
32167
32165
32159
32167
32157
32157
32148
32143
32159
32154
32153
32159
32166
32159
32158
32159
32163
32154
32166
32159
32156
32160
32158
32163
32159
32150
32156
32151
32150
32149
32146
32145
32151
32154
32162
32149
32158
32156
32159
32142
32161
32166
32153
32151
32151
32148
32151
32135
32143
32149
32151
32151
32145
32148
32146
32142
32164
32151
32155
32157
32157
32153
32159
32155
32140
32151
32135
32142
32145
32147
32145
32141
32140
32154
32134
32154
32151
32145
32150
32156
32150
32158
32140
32156
32135
32140
32147
32141
32139
32134
32134
32144
32148
32139
32141
32153
32145
32142
32147
32151
32152
32159
32139
32146
32140
32140
32135
32139
32135
32137
32135
32140
32140
32144
32145
32149
32153
32151
32151
32149
32145
32148
32135
32131
32135
32144
32143
32133
32136
32140
32143
32135
32135
32143
32138
32149
32142
32135
32155
32145
32151
32149
32149
32136
32135
32132
32132
32132
32135
32135
32133
32135
32140
32143
32141
32143
32140
32147
32143
32135
32135
32144
32135
32138
32134
32137
32135
32131
32135
32119
32135
32132
32133
32124
32135
32143
32145
32149
32142
32134
32140
32121
32128
32134
32131
32127
32132
32118
32125
32122
32129
32124
32131
32132
32135
32132
32132
32131
32140
32141
32135
32134
32125
32135
32129
32130
32129
32117
32130
32130
32132
32124
32125
32135
32135
32135
32140
32126
32134
32135
32135
32135
32135
32135
32129
32135
32127
32124
32124
32119
32119
32124
32113
32132
32135
32135
32127
32135
32122
32135
32135
32129
32129
32127
32119
32125
32134
32121
32122
32119
32127
32114
32123
32135
32130
32129
32132
32128
32139
32132
32135
32132
32131
32128
32129
32118
32127
32125
32124
32116
32116
32111
32132
32127
32122
32127
32133
32134
32135
32131
32127
32135
32130
32129
32121
32125
32130
32109
32130
32124
32111
32118
32117
32108
32127
32127
32135
32125
32128
32123
32119
32122
32132
32130
32117
32119
32119
32119
32119
32122
32121
32119
32119
32105
32125
32129
32135
32134
32122
32127
32126
32132
32116
32135
32126
32127
32119
32119
32115
32111
32116
32119
32109
32113
32123
32116
32127
32132
32127
32118
32126
32126
32117
32114
32118
32112
32109
32109
32111
32116
32111
32119
32111
32122
32122
32132
32130
32127
32135
32132
32108
32127
32131
32127
32121
32111
32127
32117
32127
32122
32121
32118
32127
32140
32140
32143
32147
32143
32149
32154
32151
32148
32154
32161
32167
32164
32161
32166
32170
32171
32171
32180
32196
32182
32186
32182
32169
32175
32175
32181
32165
32157
32154
32135
32148
32146
32148
32130
32135
32127
32130
32135
32125
32127
32141
32132
32135
32140
32130
32135
32132
32143
32135
32135
32130
32125
32124
32127
32134
32135
32127
32132
32133
32134
32137
32133
32135
32145
32140
32144
32139
32130
32135
32132
32132
32132
32124
32117
32118
32129
32127
32124
32133
32135
32112
32135
32140
32140
32142
32140
32133
32138
32127
32133
32132
32122
32123
32119
32127
32111
32122
32134
32117
32124
32135
32128
32135
32136
32132
32132
32127
32131
32135
32130
32127
32126
32123
32124
32116
32126
32127
32114
32126
32132
32130
32127
32129
32130
32131
32132
32132
32128
32133
32111
32125
32125
32101
32116
32112
32124
32126
32124
32117
32127
32135
32113
32135
32135
32120
32127
32119
32133
32116
32126
32117
32110
32116
32103
32113
32116
32111
32121
32126
32119
32126
32127
32119
32133
32140
32115
32127
32132
32127
32127
32129
32120
32118
32119
32127
32112
32133
32129
32122
32117
32112
32135
32135
32133
32132
32135
32135
32141
32132
32118
32118
32127
32121
32129
32126
32111
32122
32127
32111
32127
32141
32135
32140
32135
32135
32147
32145
32135
32136
32135
32134
32135
32123
32134
32126
32129
32130
32135
32133
32141
32137
32145
32132
32146
32149
32138
32143
32143
32147
32139
32135
32135
32141
32135
32129
32132
32143
32139
32146
32149
32149
32148
32156
32147
32151
32134
32154
32159
32145
32146
32148
32143
32125
32143
32143
32147
32139
32143
32140
32147
32149
32152
32159
32156
32158
32151
32148
32148
32151
32148
32151
32149
32135
32140
32127
32143
32149
32143
32143
32143
32135
32146
32155
32148
32145
32154
32153
32118
32140
32142
32140
32118
32134
32135
32131
32128
32129
32134
32137
32119
32129
32138
32134
32139
32138
32135
32135
32141
32129
32127
32126
32127
32127
32116
32124
32124
32127
32124
32121
32121
32132
32127
32132
32124
32127
32127
32132
32127
32116
32119
32117
32111
32119
32103
32109
32109
32111
32110
32103
32111
32112
32122
32124
32115
32118
32119
32104
32113
32111
32111
32110
32109
32106
32108
32103
32100
32102
32108
32105
32110
32114
32115
32106
32109
32105
32109
32108
32107
32107
32111
32108
32103
32101
32102
32100
32091
32102
32102
32099
32103
32108
32106
32108
32111
32103
32108
32105
32100
32104
32087
32102
32103
32098
32092
32102
32094
32097
32095
32101
32102
32103
32103
32103
32103
32102
32107
32101
32102
32092
32100
32103
32103
32101
32101
32093
32099
32090
32095
32095
32098
32103
32102
32101
32102
32104
32108
32109
32109
32100
32103
32099
32103
32079
32095
32091
32084
32087
32089
32096
32095
32094
32102
32103
32103
32080
32094
32106
32094
32103
32103
32102
32095
32100
32090
32087
32084
32095
32090
32085
32092
32095
32090
32098
32102
32102
32103
32100
32092
32100
32097
32085
32095
32094
32081
32083
32084
32086
32093
32087
32090
32095
32082
32102
32107
32103
32103
32103
32078
32093
32092
32082
32084
32092
32080
32086
32094
32092
32090
32093
32083
32099
32097
32103
32098
32102
32095
32081
32103
32101
32103
32084
32083
32093
32095
32095
32081
32084
32086
32079
32087
32095
32096
32079
32094
32095
32097
32084
32095
32094
32092
32084
32095
32083
32066
32078
32087
32082
32079
32092
32100
32084
32094
32090
32090
32077
32092
32095
32101
32094
32090
32087
32087
32074
32085
32073
32077
32076
32084
32076
32084
32088
32089
32079
32092
32095
32091
32094
32095
32091
32092
32092
32086
32094
32084
32090
32085
32084
32084
32090
32095
32090
32093
32095
32103
32084
32085
32086
32088
32084
32089
32078
32086
32086
32079
32076
32073
32085
32073
32085
32083
32091
32089
32094
32084
32094
32090
32091
32092
32086
32076
32079
32087
32082
32075
32076
32078
32083
32087
32082
32082
32095
32088
32088
32089
32093
32095
32089
32089
32078
32086
32077
32084
32087
32077
32079
32076
32074
32078
32078
32077
32085
32073
32093
32093
32093
32097
32089
32091
32084
32081
32069
32080
32076
32082
32078
32078
32073
32083
32082
32082
32087
32086
32086
32084
32084
32076
32084
32087
32089
32087
32089
32079
32077
32076
32079
32079
32082
32091
32081
32084
32086
32085
32087
32095
32092
32081
32087
32095
32085
32086
32079
32078
32079
32066
32074
32076
32069
32074
32085
32079
32078
32091
32081
32085
32076
32082
32090
32087
32084
32085
32087
32076
32084
32077
32084
32076
32076
32074
32078
32075
32086
32086
32085
32093
32095
32087
32084
32086
32074
32079
32087
32081
32083
32077
32069
32073
32076
32085
32082
32063
32084
32078
32092
32077
32084
32087
32085
32086
32068
32086
32082
32082
32079
32078
32071
32074
32073
32071
32083
32073
32074
32076
32094
32089
32076
32084
32081
32091
32082
32073
32076
32084
32071
32069
32076
32074
32075
32074
32081
32078
32070
32085
32082
32079
32084
32091
32087
32095
32092
32079
32076
32081
32063
32077
32077
32063
32071
32081
32079
32079
32087
32077
32082
32076
32087
32093
32084
32089
32091
32087
32088
32085
32088
32095
32095
32092
32103
32106
32114
32109
32111
32132
32124
32135
32135
32132
32140
32148
32142
32150
32145
32151
32148
32135
32126
32127
32119
32116
32121
32105
32119
32119
32119
32108
32109
32111
32110
32110
32105
32101
32095
32101
32087
32088
32097
32090
32085
32092
32090
32095
32093
32101
32096
32097
32101
32101
32101
32095
32097
32102
32089
32095
32101
32081
32090
32092
32078
32091
32092
32089
32086
32094
32094
32092
32095
32096
32088
32103
32095
32079
32087
32087
32089
32084
32079
32083
32077
32084
32085
32091
32089
32086
32095
32083
32095
32099
32099
32095
32088
32093
32085
32087
32084
32082
32083
32082
32089
32078
32081
32087
32095
32084
32092
32095
32084
32097
32074
32084
32092
32087
32094
32089
32082
32083
32076
32074
32078
32075
32075
32085
32087
32083
32098
32095
32090
32095
32087
32095
32094
32082
32086
32085
32087
32074
32072
32079
32082
32087
32086
32087
32088
32097
32091
32081
32089
32095
32095
32089
32092
32087
32087
32089
32079
32087
32091
32090
32087
32087
32092
32091
32098
32088
32088
32100
32085
32093
32097
32095
32097
32092
32094
32087
32086
32071
32092
32089
32076
32087
32087
32076
32101
32103
32092
32098
32103
32103
32084
32101
32103
32096
32095
32091
32095
32086
32089
32090
32093
32086
32092
32099
32095
32100
32108
32111
32109
32111
32103
32094
32111
32111
32098
32101
32095
32102
32101
32100
32094
32095
32107
32100
32109
32100
32119
32111
32117
32095
32116
32111
32111
32111
32108
32111
32103
32101
32092
32108
32108
32104
32094
32111
32119
32122
32117
32103
32126
32124
32113
32118
32095
32117
32119
32111
32110
32103
32109
32110
32114
32101
32102
32094
32119
32119
32108
32113
32111
32120
32118
32108
32108
32095
32115
32106
32100
32103
32103
32089
32107
32103
32107
32095
32103
32109
32100
32102
32103
32107
32111
32103
32100
32103
32089
32087
32099
32091
32087
32087
32090
32087
32091
32085
32093
32092
32097
32103
32074
32090
32095
32094
32087
32093
32078
32085
32081
32071
32079
32074
32080
32067
32076
32076
32081
32087
32085
32086
32087
32087
32083
32081
32064
32065
32067
32063
32063
32077
32077
32071
32074
32078
32071
32073
32077
32078
32082
32085
32081
32068
32073
32079
32068
32070
32061
32068
32065
32066
32060
32060
32055
32071
32071
32060
32071
32066
32071
32071
32078
32070
32071
32066
32076
32062
32064
32062
32063
32057
32060
32055
32053
32066
32055
32063
32068
32066
32075
32060
32065
32058
32069
32068
32055
32066
32060
32063
32060
32050
32053
32060
32049
32052
32057
32061
32063
32065
32060
32066
32064
32060
32056
32061
32061
32067
32059
32055
32059
32046
32045
32047
32049
32059
32052
32065
32059
32055
32063
32065
32060
32055
32061
32060
32052
32062
32056
32061
32054
32052
32047
32048
32047
32059
32050
32052
32059
32047
32055
32061
32060
32062
32062
32055
32057
32055
32055
32047
32049
32050
32048
32053
32049
32051
32050
32054
32054
32043
32057
32058
32068
32063
32063
32052
32060
32047
32059
32055
32047
32048
32044
32037
32053
32048
32052
32055
32051
32042
32058
32059
32071
32057
32049
32059
32052
32054
32055
32048
32044
32047
32044
32039
32041
32046
32046
32043
32048
32055
32058
32062
32058
32055
32055
32052
32039
32055
32052
32053
32047
32036
32042
32039
32042
32041
32042
32044
32036
32055
32055
32047
32046
32055
32059
32052
32055
32051
32047
32044
32044
32051
32037
32047
32042
32043
32036
32049
32050
32050
32046
32047
32051
32034
32053
32048
32046
32041
32047
32044
32039
32043
32034
32039
32039
32038
32042
32036
32047
32042
32055
32046
32047
32042
32047
32055
32053
32047
32041
32044
32036
32038
32042
32039
32039
32038
32038
32045
32028
32039
32047
32050
32044
32039
32047
32028
32044
32044
32039
32036
32029
32043
32026
32031
32039
32036
32033
32025
32039
32024
32046
32047
32040
32037
32046
32035
32043
32042
32028
32039
32038
32036
32031
32031
32033
32033
32040
32039
32038
32039
32041
32040
32045
32049
32043
32042
32020
32043
32039
32028
32038
32038
32028
32028
32035
32035
32025
32041
32036
32039
32047
32037
32041
32046
32044
32034
32039
32036
32039
32033
32038
32027
32022
32033
32032
32041
32030
32036
32043
32025
32042
32042
32039
32044
32039
32036
32039
32036
32037
32038
32024
32028
32028
32030
32037
32029
32032
32039
32028
32039
32039
32036
32042
32044
32036
32031
32036
32039
32036
32039
32027
32031
32023
32030
32018
32025
32032
32036
32031
32030
32038
32015
32037
32036
32037
32030
32034
32021
32023
32030
32029
32021
32024
32007
32016
32025
32030
32005
32029
32036
32030
32036
32039
32036
32030
32035
32029
32028
32039
32025
32020
32023
32022
32029
32023
32026
32007
32026
32028
32023
32030
32030
32039
32032
32033
32036
32035
32029
32033
32027
32017
32022
32028
32022
32018
32020
32023
32031
32030
32031
32030
32039
32033
32016
32042
32038
32026
32032
32031
32020
32031
32028
32022
32012
32025
32022
32031
32037
32031
32035
32039
32039
32038
32039
32037
32039
32038
32038
32034
32042
32041
32044
32039
32037
32036
32046
32054
32077
32071
32068
32073
32073
32079
32082
32090
32095
32092
32100
32093
32089
32092
32067
32079
32070
32068
32066
32063
32063
32066
32063
32065
32063
32048
32051
32044
32063
32054
32053
32046
32044
32055
32042
32036
32043
32041
32039
32039
32048
32042
32052
32046
32053
32063
32055
32053
32055
32062
32042
32053
32042
32045
32039
32042
32044
32039
32036
32037
32049
32049
32042
32042
32050
32039
32055
32055
32049
32053
32044
32043
32039
32044
32039
32039
32039
32039
32044
32036
32037
32047
32054
32050
32049
32053
32055
32049
32044
32043
32042
32042
32023
32031
32036
32031
32038
32028
32031
32039
32034
32040
32051
32038
32048
32034
32053
32054
32047
32043
32028
32040
32038
32032
32039
32026
32031
32034
32035
32026
32038
32043
32040
32047
32033
32055
32046
32047
32045
32033
32043
32030
32036
32039
32039
32038
32030
32034
32029
32039
32028
32039
32031
32052
32042
32043
32051
32049
32042
32048
32049
32039
32041
32038
32031
32030
32043
32038
32043
32043
32046
32032
32050
32058
32051
32057
32033
32053
32059
32050
32052
32039
32053
32045
32036
32044
32037
32040
32051
32037
32044
32052
32052
32044
32067
32061
32061
32047
32059
32034
32055
32065
32063
32052
32055
32047
32053
32053
32046
32047
32065
32055
32071
32062
32066
32072
32070
32069
32065
32063
32052
32067
32068
32053
32057
32059
32063
32058
32054
32059
32062
32070
32070
32070
32077
32071
32073
32078
32079
32071
32073
32076
32071
32075
32070
32068
32064
32065
32070
32053
32071
32074
32079
32072
32078
32084
32076
32081
32081
32074
32073
32071
32070
32072
32066
32065
32069
32067
32062
32060
32066
32069
32069
32079
32079
32086
32071
32076
32074
32076
32066
32063
32068
32071
32062
32055
32057
32068
32055
32067
32066
32062
32060
32068
32071
32071
32066
32058
32063
32058
32063
32039
32054
32052
32041
32051
32040
32044
32049
32052
32057
32053
32045
32042
32061
32059
32051
32057
32042
32053
32044
32045
32037
32036
32039
32041
32036
32032
32036
32039
32039
32042
32042
32038
32039
32053
32034
32047
32044
32039
32030
32036
32029
32030
32035
32039
32032
32028
32029
32030
32031
32029
32040
32023
32039
32039
32036
32031
32034
32029
32037
32037
32029
32024
32031
32023
32026
32028
32020
32029
32023
32023
32036
32023
32029
32036
32038
32033
32043
32031
32031
32021
32022
32022
32021
32020
32023
32026
32028
32027
32028
32025
32023
32030
32033
32026
32034
32034
32014
32026
32029
32027
32028
32026
32016
32013
32015
32019
32012
32021
32023
32007
32023
32026
32032
32023
32029
32028
32033
32013
32028
32020
32024
32014
32022
32016
32004
32017
32022
32030
32021
32023
32023
32016
32029
32029
32021
32023
32029
32030
32005
32023
32021
32022
32010
32014
32020
32018
32028
32021
32028
32031
32020
32024
32026
32036
32028
32012
32028
32023
32031
32020
32022
32017
32017
32007
32015
32017
32013
32012
32022
32022
32031
32034
32032
32023
32021
32018
32025
32029
32028
32016
32013
32017
32007
32012
32015
32007
32019
31999
32020
32017
32020
32022
32026
32030
32028
32023
32024
32022
32015
32020
32020
32014
32015
32013
32018
32015
32020
32012
32020
32025
32020
32014
32018
32021
32023
32020
32023
32026
32029
32023
31999
32003
32007
32013
32017
32012
32001
32022
32015
32019
32015
32020
32015
32029
32023
32031
32020
32015
32020
32020
32016
32004
32014
32015
32007
32007
32004
32018
32023
32023
32015
32017
32021
32022
32023
32007
32029
32020
32023
32006
32020
32007
32015
32017
32004
32012
32014
32017
32023
32029
32012
32022
32015
32020
32025
32023
32015
32023
32017
32015
32015
32012
32007
32005
32007
32007
32007
32007
32020
32015
32020
32028
32029
32012
32023
32027
32017
32023
32020
32020
32006
32017
32004
32007
32006
32007
32015
32012
32020
32014
32017
32019
32020
32029
32010
32015
32024
32017
32021
32007
32017
32012
32012
32004
32013
31994
32020
32007
31998
32014
32015
32017
32023
32023
32030
32023
32017
32020
32001
32022
32013
32018
32013
32001
32007
32007
32010
32003
32021
32023
32017
32020
32017
32028
32022
32013
32018
32012
32018
32015
32022
32007
32011
32005
32004
32004
32007
32007
32007
32019
32017
32018
32022
32020
32029
32016
32020
32014
32005
32013
32015
32015
32003
32005
31999
32015
32007
32016
32005
32010
32012
32015
32010
32014
32023
32030
32013
32013
32020
32018
32007
32010
32014
32001
32004
32015
32015
32023
32007
32009
32020
32017
32023
32007
32021
32015
32000
32012
32015
32017
32018
32014
31996
32007
32007
32005
32007
32007
32012
32007
32015
32017
32027
32014
32018
32021
32020
32014
32003
32013
32006
32007
31994
32007
31999
32006
32005
32007
32013
31997
32004
32007
32008
32017
32020
32023
32022
32022
32015
32015
32007
31990
32007
32007
32007
32007
32004
32007
32020
32001
32020
32027
32027
32016
32027
32033
32018
32023
32031
32007
32019
32020
32007
32012
32007
32006
32020
32020
32018
32020
32031
32026
32031
32028
32047
32039
32043
32050
32051
32050
32041
32045
32060
32055
32063
32071
32063
32064
32071
32079
32090
32091
32071
32076
32070
32071
32071
32052
32061
32063
32053
32041
32039
32039
32031
32036
32034
32036
32033
32033
32039
32028
32046
32052
32043
32045
32038
32042
32029
32036
32039
32036
32028
32029
32039
32029
32038
32016
32039
32039
32042
32046
32053
32053
32053
32047
32049
32028
32042
32039
32036
32029
32023
32029
32031
32030
32016
32028
32025
32038
32032
32039
32038
32046
32033
32036
32039
32039
32010
32038
32034
32022
32020
32030
32024
32020
32023
32017
32012
32028
32036
32036
32030
32036
32026
32037
32036
32029
32031
32024
32012
32020
32023
32021
32013
32015
32023
32016
32028
32028
32007
32030
32033
32039
32033
32029
32038
32036
32036
32030
32028
32020
32020
32007
32015
32017
32014
32002
32020
32021
32020
32039
32022
32027
32034
32026
32028
32023
32031
32022
32021
32010
32021
32023
32018
32018
32023
32021
32015
32023
32032
32029
32025
32033
32031
32032
32034
32036
32023
32029
32020
32022
32007
32017
32023
32007
32020
32018
32020
32028
32037
32030
32031
32030
32039
32029
32025
32037
32030
32038
32032
32025
32020
32024
32023
32022
32031
32022
32026
32031
32031
32036
32039
32045
32048
32048
32050
32031
32039
32032
32031
32031
32029
32029
32029
32028
32028
32023
32036
32038
32038
32050
32030
32055
32053
32043
32045
32055
32047
32039
32049
32050
32036
32044
32038
32039
32039
32046
32045
32043
32049
32050
32055
32054
32054
32037
32052
32055
32056
32055
32042
32043
32033
32036
32031
32038
32045
32047
32039
32052
32050
32051
32059
32047
32052
32053
32048
32047
32046
32053
32044
32042
32036
32029
32040
32038
32035
32037
32039
32031
32039
32051
32042
32047
32036
32037
32040
32049
32033
32031
32025
32036
32020
32027
32031
32010
32031
32031
32031
32026
32028
32014
32042
32036
32038
32029
32017
32032
32030
32017
32028
32021
32017
32015
32007
32007
32015
32014
32021
32021
32015
32016
32021
32020
32023
32015
32017
32017
32009
32019
32015
32007
31999
32007
32001
32004
31999
32006
32007
32005
32007
32014
32004
32015
32013
32007
32004
32007
31999
32007
32001
32003
32005
31999
31998
31997
31976
31999
31998
31997
32006
32007
32007
32007
32007
32021
32004
32004
32005
32004
32005
31994
31997
31982
32003
31992
31997
31986
31999
31996
32003
31997
32007
31996
32005
32007
32002
32005
31999
31988
31994
31992
32003
31978
31991
31991
31993
31991
31989
31993
32001
32001
31996
31999
32002
32001
31998
31995
31992
31993
31996
31990
31995
31982
31991
31982
31989
31991
31978
31985
31996
31998
31985
31994
31999
31999
32002
31996
31996
31999
31999
31980
31990
31983
31987
31982
31983
31988
31989
31974
31989
31988
32001
31997
31998
31993
31994
31993
31991
31986
31988
31990
31983
31985
31983
31979
31986
31978
31990
32000
31985
31991
31988
31996
31997
31988
32003
32002
31987
31987
31991
31983
31985
31975
31980
31986
31980
31983
31982
31985
31988
31978
31997
31997
31995
31995
31991
31989
31984
31988
31986
31991
31981
31982
31980
31972
31983
31979
31985
31983
31983
31991
31980
31997
31991
31998
31990
31988
31982
31980
31983
31975
31977
31983
31983
31983
31972
31978
31978
31979
31980
31988
31981
31990
31984
31991
31998
31986
31988
31988
31983
31988
31976
31970
31985
31971
31979
31980
31975
31988
31978
31983
31982
31972
31976
31964
31978
31994
31982
31979
31982
31982
31983
31975
31975
31977
31976
31970
31982
31981
31983
31983
31991
31983
31983
31983
31991
31986
31975
31978
31975
31974
31959
31974
31978
31968
31966
31978
31983
31976
31975
31980
31982
31987
31980
31987
31989
31985
31983
31980
31983
31968
31969
31978
31974
31967
31961
31974
31973
31983
31973
31983
31974
31991
31983
31991
31991
31988
31982
31981
31983
31980
31974
31972
31962
31967
31966
31972
31972
31975
31979
31980
31983
31985
31991
31981
31983
31974
31981
31975
31973
31976
31978
31975
31972
31973
31975
31974
31981
31975
31980
31987
31980
31986
31982
31988
31988
31983
31983
31975
31974
31969
31975
31974
31967
31960
31975
31975
31974
31989
31975
31978
31986
31974
31974
31981
31981
31977
31972
31972
31970
31975
31975
31971
31972
31964
31959
31972
31973
31981
31972
31980
31969
31979
31975
31961
31977
31973
31975
31970
31975
31973
31972
31967
31967
31972
31960
31977
31962
31972
31981
31975
31976
31979
31972
31983
31973
31978
31967
31983
31972
31973
31972
31975
31970
31970
31970
31968
31959
31977
31983
31969
31980
31982
31975
31981
31986
31974
31978
31969
31972
31973
31972
31965
31975
31974
31969
31967
31979
31976
31979
31983
31981
31978
31985
31990
31975
31983
31982
31976
31971
31974
31968
31974
31970
31975
31979
31975
31974
31961
31975
31977
31983
31979
31995
31986
31989
31967
31984
31985
31980
31978
31973
31978
31970
31975
31983
31978
31982
31985
31976
31987
31986
31988
31982
31996
31993
31999
31996
31997
32003
31999
31998
31994
32015
32015
32012
32021
32015
32023
32025
32036
32030
32051
32053
32036
32052
32042
32020
32031
32026
32030
32020
32015
32007
32007
32007
31996
32007
32005
32005
32004
32007
32001
32001
32000
31994
32005
31991
31996
31997
31988
31996
31997
31993
31988
31991
31995
31995
31993
31996
31999
31999
32004
32007
31999
32004
32005
31999
32006
31996
31998
31990
31991
31984
31988
31989
31995
31996
31991
31999
31986
32007
32004
32004
32004
31991
32004
31991
31994
31995
31982
31984
31988
31991
31983
31977
31983
31994
31996
31986
31999
31994
32002
31987
31995
31991
31997
31985
31991
31988
31996
31985
31986
31982
31996
31988
31988
31983
31997
31979
31986
32004
31996
32007
31999
32005
31996
32002
31991
32004
31991
31989
31986
31988
31994
31988
31976
31982
31992
31980
31986
32000
31996
32002
31997
31996
31996
31996
31997
31990
31982
31991
31989
31986
31986
31983
31983
31991
31993
31993
31993
31998
31990
31995
31999
32001
31999
31994
31987
31991
31988
31979
31988
31990
31995
31991
31996
31986
31998
31996
31993
32002
32003
32007
32005
32004
32007
32005
31996
32001
31991
31990
31998
31997
31985
31989
31991
31999
32007
31999
32005
32005
32000
32007
32005
32005
32011
32006
31993
32007
32004
32002
31996
31992
31997
31999
31995
32006
32007
32007
32007
32014
32015
32015
32016
32019
32020
32010
32020
32014
32005
32007
32005
32005
32007
31998
32007
32018
32004
32018
32021
32026
32017
32020
32026
32030
32017
32023
32023
32021
32007
32018
32012
32007
32007
32015
32013
32014
32016
32023
32023
32023
32031
32015
32026
32028
31995
32023
32031
32023
32015
32018
32007
31996
32012
32026
32016
31990
32015
32013
32017
32021
32015
32022
32028
32023
32018
32020
32007
32010
32002
32018
31999
32006
32001
32007
32007
32001
32007
32006
32013
32004
32007
31993
32012
32007
31998
31999
31996
31997
32001
32001
32003
31988
31991
31994
31983
31988
31996
32000
32005
32007
31994
31998
31994
31999
31984
31998
31999
32002
31989
31980
31983
31980
31988
31973
31982
31991
31991
31991
31985
31989
31984
31989
31998
31978
31990
31995
31981
31983
31980
31968
31979
31975
31979
31988
31974
31976
31967
31990
31991
31983
31983
31986
31988
31985
31972
31987
31976
31973
31978
31981
31974
31969
31973
31972
31974
31976
31973
31966
31973
31983
31986
31973
31973
31967
31987
31980
31975
31972
31974
31971
31970
31969
31967
31970
31948
31975
31973
31972
31980
31975
31977
31977
31981
31974
31975
31974
31978
31973
31975
31960
31961
31966
31967
31967
31969
31970
31964
31966
31967
31972
31979
31981
31975
31974
31979
31973
31972
31973
31970
31961
31971
31964
31974
31966
31968
31970
31975
31981
31974
31978
31975
31973
31980
31978
31975
31974
31971
31962
31961
31967
31962
31966
31961
31967
31959
31964
31964
31956
31964
31973
31970
31968
31964
31972
31973
31968
31950
31961
31956
31958
31961
31958
31961
31959
31964
31975
31965
31968
31975
31965
31959
31969
31968
31960
31962
31959
31964
31967
31962
31950
31949
31959
31963
31963
31963
31951
31958
31967
31962
31965
31967
31966
31968
31966
31970
31966
31967
31964
31959
31965
31957
31951
31959
31958
31949
31959
31962
31967
31966
31972
31969
31951
31966
31960
31959
31966
31965
31951
31957
31959
31956
31952
31959
31955
31962
31958
31940
31952
31967
31971
31970
31964
31964
31959
31961
31967
31954
31962
31954
31957
31963
31956
31952
31937
31961
31956
31948
31958
31957
31967
31959
31964
31970
31962
31956
31958
31958
31952
31956
31957
31956
31942
31951
31949
31954
31958
31949
31952
31965
31959
31966
31959
31956
31963
31955
31959
31956
31943
31951
31951
31957
31949
31943
31948
31943
31952
31952
31951
31956
31961
31959
31956
31940
31956
31956
31958
31957
31948
31944
31954
31949
31946
31940
31946
31948
31954
31938
31953
31949
31953
31959
31953
31956
31956
31957
31950
31946
31959
31937
31945
31950
31945
31945
31939
31951
31948
31946
31948
31953
31953
31958
31952
31954
31953
31942
31959
31950
31942
31943
31949
31933
31941
31942
31945
31944
31946
31948
31951
31949
31943
31948
31946
31954
31936
31947
31938
31953
31948
31940
31935
31943
31942
31940
31944
31946
31944
31948
31942
31947
31947
31944
31950
31951
31942
31948
31949
31946
31942
31951
31942
31936
31940
31940
31943
31939
31950
31935
31943
31946
31954
31963
31940
31945
31948
31950
31950
31940
31941
31945
31937
31940
31934
31933
31931
31944
31943
31941
31940
31943
31953
31945
31953
31941
31945
31946
31943
31943
31940
31940
31934
31935
31943
31935
31940
31933
31937
31931
31941
31936
31940
31943
31945
31939
31938
31946
31953
31928
31938
31930
31928
31935
31935
31930
31919
31928
31939
31938
31937
31945
31937
31945
31945
31933
31933
31935
31942
31943
31940
31939
31937
31918
31932
31932
31938
31938
31941
31948
31952
31966
31949
31958
31965
31964
31965
31969
31974
31979
31979
31976
31980
31980
31989
31978
31986
31988
31994
31997
32003
32007
32012
32021
32026
32007
31991
31991
31980
31980
31980
31973
31969
31958
31947
31956
31959
31956
31945
31959
31958
31972
31959
31959
31964
31963
31940
31957
31956
31964
31956
31949
31956
31949
31949
31932
31943
31954
31954
31959
31959
31953
31964
31965
31966
31954
31961
31957
31956
31943
31948
31943
31948
31953
31949
31940
31940
31946
31941
31953
31950
31943
31954
31965
31961
31958
31951
31951
31954
31940
31951
31934
31946
31941
31943
31944
31927
31936
31941
31947
31947
31951
31950
31941
31946
31955
31951
31954
31950
31943
31945
31943
31943
31943
31933
31935
31937
31937
31946
31949
31950
31944
31943
31945
31932
31940
31949
31950
31944
31940
31924
31947
31936
31936
31938
31937
31938
31933
31943
31951
31940
31945
31943
31927
31941
31951
31950
31943
31948
31943
31930
31938
31939
31934
31943
31925
31934
31937
31939
31940
31943
31948
31950
31938
31944
31946
31943
31946
31937
31947
31942
31948
31939
31936
31942
31934
31940
31936
31940
31946
31947
31953
31950
31933
31945
31950
31948
31941
31930
31943
31943
31929
31931
31939
31943
31937
31935
31944
31941
31947
31948
31950
31948
31942
31957
31948
31956
31949
31949
31932
31951
31949
31937
31948
31948
31947
31948
31953
31947
31943
31958
31961
31945
31957
31950
31959
31963
31959
31962
31943
31949
31948
31950
31959
31946
31950
31951
31948
31951
31953
31961
31957
31959
31967
31962
31957
31958
31948
31963
31971
31942
31952
31950
31953
31950
31951
31959
31959
31946
31948
31956
31967
31964
31961
31974
31964
31964
31958
31949
31966
31962
31956
31948
31951
31946
31948
31952
31953
31950
31956
31951
31950
31955
31959
31940
31955
31961
31951
31951
31951
31940
31947
31949
31942
31945
31942
31943
31941
31946
31943
31942
31943
31951
31949
31944
31948
31945
31943
31943
31942
31934
31924
31929
31940
31935
31926
31936
31917
31930
31932
31930
31934
31930
31929
31947
31939
31934
31930
31930
31937
31921
31921
31925
31919
31922
31927
31916
31917
31927
31916
31926
31916
31928
31909
31927
31924
31922
31933
31920
31918
31919
31903
31911
31910
31901
31911
31915
31907
31916
31916
31919
31913
31917
31922
31927
31919
31916
31915
31911
31919
31918
31902
31905
31904
31903
31905
31905
31903
31911
31910
31911
31911
31916
31915
31915
31908
31894
31912
31911
31911
31904
31902
31900
31897
31900
31906
31903
31902
31903
31910
31909
31889
31906
31909
31907
31910
31917
31915
31903
31906
31900
31905
31903
31901
31910
31895
31893
31904
31901
31907
31912
31903
31902
31911
31911
31903
31911
31909
31903
31897
31895
31898
31896
31879
31893
31888
31900
31882
31894
31901
31900
31895
31906
31909
31905
31908
31911
31892
31902
31902
31882
31891
31898
31889
31887
31886
31881
31894
31898
31892
31887
31900
31902
31896
31903
31905
31895
31900
31900
31902
31903
31892
31889
31887
31890
31887
31895
31890
31888
31887
31890
31899
31885
31898
31901
31895
31906
31895
31894
31897
31887
31887
31889
31883
31886
31877
31889
31892
31894
31893
31887
31898
31895
31879
31892
31903
31901
31896
31895
31891
31893
31884
31868
31886
31884
31879
31879
31879
31884
31882
31879
31886
31894
31890
31895
31893
31900
31881
31890
31893
31894
31884
31881
31879
31877
31885
31873
31881
31881
31888
31887
31884
31887
31886
31890
31890
31879
31892
31892
31889
31884
31885
31890
31879
31871
31879
31876
31878
31886
31879
31880
31878
31887
31887
31891
31890
31892
31893
31879
31879
31879
31879
31881
31878
31879
31875
31879
31879
31878
31870
31879
31879
31884
31889
31879
31890
31880
31877
31885
31879
31874
31878
31885
31868
31878
31871
31875
31873
31878
31872
31879
31886
31879
31879
31882
31870
31887
31879
31879
31879
31883
31866
31870
31873
31868
31878
31868
31871
31863
31877
31877
31879
31879
31879
31863
31877
31882
31887
31884
31872
31867
31861
31869
31874
31874
31877
31876
31869
31875
31874
31873
31868
31879
31883
31882
31878
31879
31876
31876
31862
31869
31871
31863
31858
31863
31864
31855
31868
31868
31875
31868
31875
31877
31869
31879
31876
31871
31876
31875
31869
31873
31868
31866
31865
31862
31862
31869
31855
31860
31871
31866
31868
31871
31875
31871
31873
31874
31869
31861
31864
31848
31862
31863
31861
31859
31860
31857
31861
31864
31867
31868
31858
31869
31864
31868
31868
31860
31861
31868
31868
31854
31861
31867
31865
31863
31852
31860
31858
31863
31857
31857
31861
31871
31854
31871
31863
31866
31867
31871
31868
31868
31855
31853
31854
31852
31855
31855
31855
31858
31869
31863
31865
31852
31879
31882
31863
31861
31871
31863
31865
31871
31860
31857
31853
31863
31860
31868
31862
31875
31879
31876
31886
31884
31884
31892
31902
31900
31903
31903
31911
31911
31913
31911
31914
31916
31919
31918
31916
31932
31930
31924
31922
31908
31916
31909
31911
31895
31900
31884
31898
31897
31891
31879
31877
31865
31874
31875
31875
31871
31879
31874
31876
31871
31877
31882
31878
31863
31879
31877
31871
31879
31878
31866
31863
31864
31871
31865
31866
31863
31868
31873
31874
31879
31876
31872
31877
31876
31879
31863
31872
31871
31871
31863
31867
31860
31855
31868
31861
31860
31870
31868
31870
31855
31871
31872
31878
31867
31878
31854
31868
31873
31862
31860
31858
31861
31860
31852
31857
31854
31862
31849
31871
31869
31861
31866
31866
31861
31863
31863
31871
31853
31868
31844
31860
31854
31858
31857
31861
31845
31860
31858
31863
31866
31868
31870
31863
31868
31863
31856
31866
31849
31851
31845
31854
31863
31860
31855
31852
31855
31857
31854
31860
31867
31869
31863
31869
31863
31852
31867
31868
31857
31852
31853
31847
31854
31841
31849
31855
31853
31860
31855
31860
31863
31853
31869
31866
31867
31863
31860
31861
31846
31860
31855
31860
31859
31853
31861
31851
31855
31852
31868
31860
31867
31868
31863
31875
31876
31871
31860
31863
31861
31865
31852
31863
31855
31858
31859
31855
31855
31863
31862
31860
31866
31868
31866
31873
31871
31876
31870
31871
31868
31854
31868
31853
31863
31869
31861
31863
31875
31874
31879
31875
31875
31882
31860
31879
31879
31876
31872
31873
31873
31866
31872
31857
31873
31866
31866
31865
31869
31875
31879
31876
31879
31879
31885
31871
31887
31886
31875
31873
31878
31874
31868
31873
31871
31868
31868
31873
31874
31878
31876
31864
31876
31879
31879
31876
31879
31875
31879
31876
31879
31868
31870
31871
31866
31857
31859
31864
31870
31855
31862
31871
31873
31875
31864
31871
31875
31879
31860
31862
31871
31858
31858
31857
31849
31854
31854
31847
31855
31861
31858
31860
31860
31845
31860
31868
31863
31856
31857
31859
31842
31850
31853
31844
31842
31844
31833
31847
31847
31838
31837
31847
31855
31846
31839
31850
31847
31846
31847
31849
31839
31839
31838
31839
31836
31836
31839
31830
31831
31826
31839
31836
31839
31837
31834
31843
31842
31831
31837
31832
31826
31828
31828
31835
31815
31831
31823
31831
31829
31822
31831
31830
31836
31816
31828
31829
31835
31839
31821
31828
31828
31823
31828
31823
31814
31820
31815
31823
31831
31829
31820
31831
31812
31828
31838
31836
31821
31823
31838
31829
31815
31821
31820
31825
31814
31815
31817
31821
31821
31810
31820
31820
31830
31829
31826
31819
31823
31814
31823
31817
31814
31815
31818
31818
31815
31808
31815
31819
31808
31813
31820
31826
31815
31820
31823
31823
31820
31806
31817
31812
31820
31815
31815
31804
31799
31804
31811
31812
31814
31815
31804
31817
31820
31828
31825
31812
31815
31819
31822
31815
31814
31812
31815
31815
31810
31808
31809
31809
31812
31795
31805
31803
31815
31815
31820
31820
31815
31819
31796
31813
31806
31807
31815
31809
31797
31811
31806
31798
31807
31804
31803
31807
31814
31811
31813
31807
31804
31810
31811
31814
31810
31807
31804
31804
31804
31799
31803
31803
31805
31807
31811
31813
31818
31821
31813
31810
31805
31810
31797
31801
31796
31803
31804
31798
31802
31803
31806
31798
31806
31807
31814
31811
31809
31812
31813
31792
31808
31807
31814
31815
31807
31793
31797
31805
31805
31798
31780
31800
31803
31809
31811
31800
31804
31806
31806
31813
31807
31809
31807
31796
31799
31802
31796
31796
31796
31802
31799
31804
31804
31797
31803
31806
31812
31804
31804
31802
31803
31800
31801
31798
31802
31793
31799
31802
31791
31795
31796
31796
31781
31789
31792
31781
31801
31799
31799
31804
31803
31802
31799
31801
31792
31798
31788
31790
31791
31798
31802
31792
31793
31793
31790
31793
31803
31798
31797
31791
31802
31807
31798
31798
31799
31791
31788
31790
31791
31788
31788
31785
31788
31796
31799
31791
31802
31792
31802
31797
31796
31801
31783
31782
31791
31788
31783
31787
31783
31782
31781
31788
31790
31789
31786
31791
31796
31802
31801
31799
31788
31789
31793
31780
31788
31791
31797
31789
31775
31780
31783
31780
31782
31789
31788
31795
31788
31790
31796
31794
31795
31793
31790
31780
31787
31794
31790
31782
31781
31783
31780
31769
31780
31787
31776
31803
31793
31791
31789
31799
31797
31782
31789
31783
31790
31783
31791
31791
31785
31778
31779
31788
31781
31783
31778
31787
31790
31793
31788
31796
31780
31788
31789
31791
31793
31783
31782
31781
31776
31780
31777
31775
31783
31788
31793
31772
31786
31788
31791
31780
31789
31790
31791
31790
31783
31783
31783
31781
31779
31781
31780
31778
31783
31783
31783
31790
31788
31789
31791
31797
31782
31787
31786
31775
31780
31786
31772
31780
31779
31783
31780
31785
31783
31782
31791
31790
31793
31799
31797
31795
31790
31789
31790
31778
31796
31792
31793
31788
31787
31793
31789
31797
31793
31809
31807
31820
31814
31810
31816
31838
31828
31828
31837
31830
31836
31841
31838
31846
31846
31841
31825
31844
31831
31835
31839
31826
31830
31820
31829
31831
31808
31815
31814
31801
31812
31807
31799
31804
31799
31802
31798
31806
31804
31811
31802
31800
31811
31813
31790
31812
31811
31817
31809
31806
31811
31798
31801
31796
31788
31789
31796
31802
31794
31794
31804
31791
31801
31814
31798
31811
31796
31814
31807
31803
31799
31798
31804
31794
31795
31791
31788
31799
31780
31789
31799
31802
31804
31796
31803
31806
31797
31799
31799
31799
31790
31796
31796
31786
31783
31784
31786
31796
31791
31797
31799
31806
31805
31807
31813
31804
31806
31798
31799
31798
31794
31791
31789
31786
31775
31782
31783
31788
31785
31796
31798
31807
31804
31804
31796
31799
31802
31796
31797
31796
31796
31790
31785
31787
31789
31783
31787
31791
31790
31796
31796
31802
31799
31788
31799
31805
31799
31799
31805
31797
31799
31794
31782
31781
31787
31783
31789
31791
31791
31797
31797
31785
31806
31809
31806
31803
31796
31799
31796
31799
31798
31791
31791
31799
31792
31786
31784
31784
31793
31790
31788
31804
31811
31804
31803
31808
31798
31807
31808
31799
31796
31799
31796
31797
31798
31786
31796
31791
31796
31807
31811
31810
31805
31815
31815
31803
31816
31815
31815
31809
31811
31802
31807
31798
31805
31804
31807
31806
31806
31812
31815
31799
31823
31818
31821
31823
31826
31819
31810
31812
31814
31810
31815
31807
31813
31796
31806
31803
31817
31818
31811
31823
31823
31816
31823
31826
31828
31818
31823
31820
31820
31815
31809
31810
31810
31810
31812
31817
31825
31815
31815
31821
31820
31827
31823
31820
31825
31822
31803
31815
31815
31807
31812
31813
31804
31810
31807
31815
31804
31809
31810
31804
31812
31815
31815
31813
31812
31815
31813
31807
31811
31797
31797
31795
31795
31796
31796
31800
31799
31800
31800
31802
31799
31791
31798
31798
31796
31804
31800
31805
31796
31786
31787
31783
31782
31790
31783
31782
31790
31791
31780
31791
31790
31782
31790
31788
31789
31787
31783
31792
31787
31775
31768
31758
31777
31775
31775
31772
31778
31771
31780
31777
31774
31783
31782
31783
31788
31772
31773
31778
31775
31783
31767
31765
31770
31766
31767
31771
31760
31751
31774
31776
31783
31770
31773
31775
31780
31757
31773
31768
31774
31772
31775
31767
31764
31765
31764
31766
31759
31764
31772
31773
31772
31770
31772
31775
31775
31772
31764
31781
31772
31774
31761
31751
31756
31751
31762
31762
31764
31767
31764
31767
31764
31776
31766
31771
31770
31772
31764
31765
31763
31767
31769
31767
31758
31765
31762
31751
31762
31758
31764
31764
31764
31761
31765
31769
31769
31766
31767
31760
31751
31764
31764
31751
31751
31749
31757
31751
31751
31758
31749
31759
31767
31764
31766
31761
31767
31767
31765
31765
31756
31751
31749
31751
31751
31751
31749
31751
31751
31759
31751
31767
31764
31764
31766
31761
31767
31767
31766
31760
31763
31751
31764
31751
31749
31751
31751
31748
31748
31751
31751
31761
31759
31767
31751
31761
31759
31751
31751
31751
31749
31751
31750
31748
31749
31748
31749
31747
31743
31751
31750
31751
31751
31751
31751
31763
31758
31762
31751
31763
31757
31751
31751
31751
31751
31751
31751
31750
31745
31744
31748
31751
31751
31751
31751
31763
31759
31751
31751
31751
31751
31751
31751
31748
31737
31741
31745
31740
31724
31751
31741
31751
31751
31751
31748
31751
31749
31750
31742
31751
31749
31751
31746
31751
31747
31747
31741
31742
31746
31748
31751
31747
31751
31751
31751
31751
31751
31751
31751
31748
31743
31751
31742
31746
31743
31743
31743
31743
31751
31740
31749
31745
31749
31750
31746
31751
31751
31744
31747
31749
31743
31749
31743
31741
31739
31727
31747
31742
31749
31748
31748
31735
31747
31743
31750
31746
31747
31748
31745
31743
31740
31726
31740
31735
31743
31735
31738
31729
31740
31745
31743
31748
31749
31746
31751
31751
31751
31727
31741
31737
31740
31737
31735
31732
31738
31738
31740
31739
31732
31743
31737
31740
31743
31743
31748
31748
31735
31740
31740
31737
31741
31747
31741
31735
31734
31735
31728
31735
31735
31736
31735
31741
31743
31746
31740
31744
31744
31743
31746
31735
31740
31742
31732
31717
31737
31727
31729
31732
31735
31732
31741
31735
31746
31748
31746
31743
31744
31743
31751
31740
31740
31735
31738
31733
31727
31731
31723
31730
31732
31733
31726
31729
31734
31741
31737
31738
31740
31742
31748
31743
31740
31734
31735
31731
31733
31717
31725
31735
31733
31740
31735
31735
31736
31732
31737
31731
31735
31735
31740
31733
31735
31732
31732
31722
31730
31727
31713
31727
31721
31727
31719
31727
31736
31736
31743
31735
31740
31741
31740
31724
31727
31731
31732
31724
31727
31729
31727
31717
31724
31727
31733
31724
31740
31735
31735
31735
31740
31741
31737
31734
31736
31729
31734
31724
31727
31732
31724
31732
31733
31740
31737
31739
31740
31750
31751
31745
31757
31765
31764
31765
31774
31766
31751
31751
31770
31768
31791
31793
31790
31788
31799
31797
31796
31799
31798
31796
31777
31788
31788
31782
31777
31772
31774
31765
31761
31751
31751
31751
31749
31744
31751
31751
31751
31758
31763
31765
31765
31768
31751
31751
31748
31751
31751
31745
31733
31748
31748
31747
31736
31751
31748
31751
31759
31746
31751
31758
31765
31751
31750
31743
31751
31749
31748
31740
31732
31740
31748
31744
31743
31736
31751
31735
31743
31751
31751
31751
31735
31747
31742
31743
31746
31737
31743
31734
31732
31732
31735
31727
31738
31736
31740
31743
31740
31740
31751
31750
31743
31740
31751
31742
31740
31740
31740
31729
31732
31729
31727
31727
31724
31734
31743
31741
31737
31725
31727
31729
31740
31734
31734
31731
31732
31734
31740
31733
31729
31735
31724
31727
31733
31735
31732
31732
31745
31748
31751
31748
31751
31740
31742
31738
31732
31730
31727
31724
31738
31727
31723
31729
31733
31733
31737
31750
31743
31727
31740
31751
31750
31748
31743
31736
31740
31743
31740
31735
31732
31732
31740
31729
31735
31733
31749
31751
31748
31751
31751
31744
31751
31750
31748
31750
31745
31743
31732
31724
31734
31737
31743
31743
31741
31747
31749
31751
31751
31751
31751
31743
31751
31751
31751
31751
31751
31744
31751
31740
31747
31750
31746
31743
31734
31743
31751
31737
31751
31751
31759
31761
31764
31764
31771
31767
31751
31767
31751
31751
31742
31740
31751
31758
31764
31751
31761
31759
31762
31761
31767
31771
31775
31751
31751
31751
31769
31767
31751
31751
31751
31751
31751
31759
31751
31767
31751
31771
31771
31766
31767
31775
31763
31764
31764
31755
31756
31765
31759
31751
31751
31750
31751
31751
31761
31751
31751
31767
31758
31759
31759
31759
31751
31757
31747
31751
31751
31744
31746
31745
31746
31742
31749
31746
31746
31743
31740
31732
31737
31740
31743
31751
31740
31747
31745
31740
31741
31749
31740
31738
31736
31732
31732
31734
31735
31735
31733
31735
31734
31741
31725
31732
31734
31732
31730
31735
31732
31717
31719
31733
31727
31725
31727
31732
31732
31732
31726
31732
31717
31725
31722
31724
31722
31725
31726
31726
31725
31719
31716
31719
31714
31719
31719
31716
31718
31713
31711
31723
31705
31719
31727
31727
31708
31714
31718
31709
31704
31715
31709
31703
31708
31695
31719
31713
31713
31708
31692
31708
31719
31719
31716
31723
31719
31719
31724
31714
31711
31714
31711
31716
31709
31707
31716
31710
31707
31714
31708
31706
31714
31703
31711
31708
31718
31706
31725
31719
31716
31713
31712
31703
31705
31706
31711
31708
31700
31708
31700
31710
31702
31709
31716
31708
31708
31708
31708
31708
31711
31700
31712
31713
31707
31700
31705
31713
31710
31715
31708
31709
31709
31705
31715
31708
31713
31711
31702
31709
31711
31707
31701
31708
31709
31706
31698
31698
31702
31705
31706
31701
31707
31711
31706
31700
31706
31706
31714
31713
31703
31701
31701
31707
31708
31703
31701
31702
31701
31701
31705
31706
31702
31706
31709
31707
31707
31707
31701
31697
31701
31700
31699
31696
31690
31701
31689
31700
31700
31708
31701
31706
31708
31714
31701
31700
31701
31700
31708
31705
31703
31708
31695
31692
31696
31692
31694
31694
31697
31692
31690
31695
31684
31695
31693
31701
31706
31707
31700
31703
31690
31696
31695
31684
31687
31691
31690
31691
31694
31693
31705
31697
31697
31701
31691
31697
31701
31685
31692
31687
31699
31692
31688
31692
31689
31693
31690
31687
31687
31692
31684
31692
31692
31695
31701
31697
31703
31700
31684
31687
31686
31684
31686
31687
31686
31690
31691
31687
31680
31687
31689
31687
31687
31689
31690
31695
31686
31697
31694
31695
31692
31689
31698
31689
31684
31687
31689
31686
31687
31692
31694
31687
31685
31684
31679
31687
31686
31691
31684
31684
31687
31677
31687
31682
31684
31686
31679
31683
31671
31679
31673
31678
31685
31684
31690
31686
31693
31690
31686
31679
31684
31684
31685
31687
31686
31685
31683
31684
31685
31677
31682
31676
31681
31685
31676
31676
31686
31681
31670
31669
31684
31683
31679
31677
31684
31679
31679
31676
31679
31678
31677
31679
31687
31686
31684
31682
31668
31665
31684
31681
31681
31675
31674
31674
31677
31669
31671
31674
31679
31679
31674
31679
31681
31676
31678
31685
31687
31685
31679
31673
31676
31672
31678
31671
31679
31677
31671
31677
31670
31673
31666
31674
31673
31669
31675
31682
31680
31684
31687
31677
31682
31674
31683
31679
31673
31674
31670
31668
31674
31678
31676
31676
31670
31679
31674
31679
31683
31671
31676
31678
31671
31674
31669
31671
31665
31666
31668
31674
31671
31668
31671
31679
31682
31684
31679
31684
31679
31678
31676
31683
31676
31679
31668
31667
31671
31665
31673
31671
31673
31673
31670
31685
31676
31681
31676
31677
31679
31674
31668
31675
31684
31676
31669
31668
31647
31647
31657
31667
31665
31666
31668
31669
31671
31669
31670
31670
31674
31668
31679
31678
31669
31671
31669
31671
31673
31671
31669
31663
31653
31655
31653
31671
31669
31679
31676
31678
31679
31671
31671
31674
31681
31678
31668
31665
31666
31677
31675
31687
31687
31686
31687
31692
31695
31697
31708
31708
31713
31711
31710
31710
31716
31716
31722
31725
31731
31732
31733
31739
31726
31722
31709
31710
31711
31707
31710
31716
31702
31697
31703
31701
31685
31682
31686
31682
31676
31684
31687
31687
31687
31688
31687
31687
31667
31684
31687
31686
31687
31686
31687
31685
31685
31675
31674
31686
31684
31682
31687
31687
31676
31684
31687
31686
31685
31684
31688
31669
31690
31690
31694
31691
31687
31689
31680
31687
31657
31669
31678
31677
31674
31677
31679
31676
31687
31670
31678
31687
31683
31684
31677
31679
31679
31676
31679
31670
31670
31673
31663
31679
31674
31677
31672
31673
31679
31675
31679
31669
31679
31682
31686
31679
31685
31679
31678
31679
31670
31670
31668
31671
31674
31668
31670
31676
31677
31663
31670
31676
31684
31682
31677
31684
31679
31679
31671
31668
31668
31671
31665
31670
31676
31671
31670
31681
31670
31671
31674
31671
31662
31655
31672
31679
31676
31658
31662
31674
31668
31646
31661
31671
31671
31665
31672
31673
31674
31682
31682
31679
31686
31685
31676
31686
31683
31671
31674
31669
31668
31669
31669
31668
31662
31669
31678
31679
31671
31662
31684
31683
31684
31679
31684
31679
31678
31676
31673
31684
31676
31675
31671
31677
31670
31680
31686
31676
31684
31685
31685
31687
31688
31691
31679
31692
31688
31678
31686
31671
31681
31687
31683
31684
31684
31684
31685
31693
31687
31690
31687
31693
31694
31694
31692
31693
31691
31693
31694
31687
31687
31686
31685
31692
31690
31689
31700
31693
31694
31694
31695
31699
31700
31685
31697
31703
31693
31686
31687
31682
31689
31695
31681
31685
31688
31693
31695
31685
31693
31703
31700
31703
31694
31703
31700
31695
31697
31694
31695
31690
31685
31690
31687
31692
31684
31689
31683
31688
31694
31693
31685
31687
31673
31686
31692
31687
31682
31671
31681
31686
31678
31681
31663
31679
31684
31670
31679
31661
31679
31679
31676
31668
31667
31661
31676
31676
31657
31669
31668
31670
31675
31663
31657
31660
31663
31671
31671
31663
31660
31669
31671
31671
31668
31670
31671
31655
31662
31660
31660
31659
31662
31660
31654
31655
31655
31663
31658
31659
31650
31659
31652
31663
31640
31655
31661
31648
31654
31654
31643
31652
31653
31655
31652
31653
31645
31654
31647
31655
31652
31659
31652
31655
31655
31660
31648
31659
31650
31654
31652
31647
31649
31649
31649
31644
31644
31655
31642
31645
31655
31648
31649
31637
31650
31653
31646
31652
31641
31640
31652
31642
31641
31644
31644
31643
31637
31634
31647
31650
31643
31647
31638
31647
31652
31640
31643
31642
31653
31636
31646
31639
31648
31636
31639
31637
31639
31645
31641
31644
31639
31650
31642
31644
31634
31647
31652
31644
31646
31634
31634
31631
31647
31636
31631
31631
31623
31644
31639
31642
31637
31637
31629
31639
31649
31641
31637
31647
31644
31639
31637
31644
31642
31633
31637
31636
31639
31638
31647
31636
31640
31639
31647
31639
31639
31630
31639
31639
31645
31634
31636
31639
31644
31641
31639
31628
31639
31638
31635
31635
31635
31631
31636
31646
31625
31637
31628
31636
31633
31637
31634
31641
31628
31624
31631
31636
31637
31632
31629
31635
31638
31631
31636
31636
31631
31632
31625
31628
31628
31645
31639
31623
31626
31629
31625
31635
31623
31636
31627
31629
31628
31636
31632
31632
31628
31624
31636
31636
31627
31631
31631
31628
31628
31631
31630
31626
31631
31628
31627
31637
31631
31639
31631
31631
31629
31623
31623
31623
31629
31631
31635
31630
31634
31634
31621
31623
31627
31623
31623
31623
31615
31639
31620
31622
31631
31625
31636
31626
31629
31629
31631
31623
31623
31619
31622
31630
31628
31623
31622
31623
31626
31629
31636
31626
31623
31627
31623
31628
31623
31622
31623
31620
31622
31626
31623
31622
31614
31622
31622
31618
31629
31620
31618
31630
31623
31621
31624
31622
31631
31620
31627
31622
31621
31618
31620
31620
31631
31613
31621
31623
31622
31613
31625
31622
31620
31622
31618
31623
31623
31607
31631
31623
31622
31617
31621
31615
31612
31614
31612
31622
31621
31618
31622
31623
31620
31616
31623
31616
31623
31623
31619
31623
31623
31606
31616
31622
31621
31622
31620
31620
31619
31622
31614
31614
31614
31622
31620
31620
31615
31617
31614
31618
31615
31623
31621
31612
31612
31615
31615
31619
31620
31618
31620
31617
31599
31614
31622
31612
31612
31615
31614
31617
31617
31607
31615
31618
31620
31617
31614
31611
31609
31614
31610
31615
31612
31617
31614
31612
31617
31613
31623
31610
31606
31599
31622
31616
31604
31614
31604
31612
31611
31611
31614
31605
31612
31613
31611
31607
31607
31605
31611
31610
31612
31608
31612
31609
31612
31605
31604
31605
31608
31609
31612
31609
31610
31604
31612
31610
31611
31606
31596
31597
31604
31612
31607
31615
31601
31609
31597
31612
31609
31605
31612
31613
31613
31618
31607
31607
31609
31605
31604
31610
31606
31601
31599
31605
31615
31609
31614
31614
31607
31613
31615
31617
31604
31612
31594
31608
31621
31607
31611
31606
31614
31613
31602
31620
31612
31620
31620
31622
31622
31632
31636
31644
31642
31645
31650
31654
31655
31654
31660
31656
31661
31659
31665
31656
31671
31683
31669
31666
31668
31667
31661
31652
31654
31647
31639
31652
31649
31647
31623
31623
31628
31631
31622
31639
31628
31623
31623
31629
31630
31608
31623
31625
31629
31623
31622
31622
31612
31614
31623
31623
31620
31618
31612
31617
31616
31623
31612
31620
31620
31628
31620
31618
31622
31620
31623
31620
31620
31618
31612
31603
31617
31623
31618
31619
31615
31612
31619
31618
31620
31612
31621
31623
31623
31622
31607
31596
31606
31615
31612
31595
31605
31598
31593
31597
31604
31605
31607
31615
31607
31615
31606
31615
31599
31620
31608
31615
31615
31623
31612
31607
31604
31607
31603
31610
31596
31602
31609
31606
31607
31607
31615
31607
31613
31595
31607
31609
31604
31612
31615
31606
31613
31605
31610
31612
31609
31607
31620
31615
31605
31607
31609
31617
31609
31612
31615
31610
31615
31609
31607
31612
31611
31596
31605
31606
31602
31606
31596
31606
31602
31612
31611
31613
31615
31606
31607
31603
31606
31607
31604
31604
31607
31607
31604
31600
31611
31611
31612
31607
31607
31605
31605
31607
31611
31612
31606
31614
31615
31618
31618
31611
31599
31598
31604
31606
31607
31606
31612
31612
31611
31615
31612
31611
31613
31620
31614
31621
31612
31615
31612
31615
31612
31599
31613
31612
31615
31615
31618
31617
31618
31620
31620
31615
31618
31617
31617
31615
31607
31623
31615
31622
31614
31613
31612
31620
31623
31608
31609
31620
31617
31623
31623
31623
31623
31629
31624
31623
31628
31623
31623
31622
31618
31629
31626
31620
31631
31618
31620
31617
31624
31623
31628
31626
31623
31623
31615
31622
31625
31623
31631
31623
31605
31611
31615
31615
31615
31613
31621
31620
31619
31622
31614
31621
31610
31612
31618
31620
31620
31622
31609
31615
31615
31610
31595
31604
31604
31599
31606
31605
31603
31612
31613
31596
31603
31610
31611
31609
31607
31607
31596
31602
31591
31596
31597
31596
31599
31590
31592
31599
31598
31599
31599
31599
31594
31593
31590
31596
31591
31591
31591
31587
31590
31583
31590
31590
31580
31579
31581
31591
31580
31589
31589
31582
31591
31588
31584
31575
31588
31585
31585
31588
31582
31580
31581
31582
31581
31574
31585
31583
31580
31585
31575
31583
31583
31570
31567
31575
31570
31578
31580
31575
31575
31572
31575
31578
31580
31573
31576
31572
31587
31577
31580
31581
31580
31583
31576
31569
31578
31575
31572
31570
31570
31574
31572
31582
31573
31570
31572
31573
31579
31580
31573
31575
31575
31569
31575
31575
31575
31564
31562
31567
31567
31565
31549
31572
31572
31567
31574
31561
31575
31566
31562
31567
31570
31572
31574
31560
31567
31567
31563
31566
31559
31570
31572
31575
31569
31567
31566
31567
31561
31572
31578
31578
31575
31574
31574
31577
31559
31563
31565
31563
31559
31567
31564
31562
31559
31556
31562
31564
31562
31573
31567
31565
31567
31563
31564
31566
31567
31564
31562
31567
31556
31559
31562
31560
31563
31549
31558
31558
31558
31558
31562
31565
31559
31558
31559
31543
31564
31571
31557
31565
31557
31561
31558
31550
31559
31556
31559
31555
31559
31543
31551
31552
31550
31561
31563
31547
31559
31559
31553
31559
31559
31558
31551
31556
31550
31557
31557
31558
31559
31543
31554
31553
31559
31551
31559
31556
31558
31557
31544
31548
31541
31540
31541
31546
31546
31548
31551
31555
31546
31556
31548
31557
31556
31557
31553
31543
31554
31544
31551
31545
31551
31549
31543
31547
31554
31544
31542
31548
31546
31548
31552
31551
31555
31548
31553
31550
31554
31546
31547
31540
31551
31553
31549
31546
31543
31553
31556
31542
31550
31548
31550
31559
31549
31549
31551
31550
31549
31556
31547
31559
31551
31546
31543
31540
31545
31545
31543
31543
31550
31550
31539
31548
31543
31545
31548
31543
31543
31551
31552
31548
31548
31547
31549
31544
31546
31548
31548
31548
31545
31549
31548
31550
31551
31546
31549
31544
31549
31548
31550
31548
31544
31548
31547
31524
31548
31542
31542
31542
31547
31543
31545
31545
31546
31548
31543
31546
31549
31540
31525
31532
31534
31536
31543
31543
31545
31536
31535
31537
31543
31547
31546
31543
31551
31546
31544
31527
31535
31543
31542
31540
31540
31541
31528
31535
31534
31540
31531
31539
31537
31543
31547
31536
31541
31541
31536
31537
31540
31534
31534
31534
31534
31539
31534
31540
31535
31532
31540
31528
31541
31542
31540
31543
31540
31527
31535
31537
31538
31535
31533
31530
31537
31535
31527
31527
31532
31535
31535
31532
31538
31539
31542
31540
31541
31540
31535
31535
31537
31537
31532
31535
31528
31531
31537
31539
31524
31543
31543
31539
31530
31532
31533
31527
31538
31538
31537
31538
31535
31537
31538
31539
31527
31527
31534
31528
31534
31532
31537
31540
31532
31534
31535
31526
31533
31533
31535
31527
31530
31539
31535
31534
31530
31527
31540
31528
31538
31542
31543
31547
31540
31543
31534
31542
31538
31537
31540
31524
31548
31541
31545
31547
31548
31548
31549
31557
31564
31560
31562
31580
31578
31582
31580
31582
31590
31586
31588
31596
31606
31599
31599
31595
31601
31595
31592
31583
31587
31583
31582
31580
31575
31570
31566
31570
31564
31566
31557
31557
31553
31550
31548
31551
31547
31540
31558
31553
31559
31553
31557
31557
31548
31551
31548
31551
31548
31551
31550
31554
31548
31557
31550
31548
31540
31545
31548
31550
31552
31548
31551
31559
31551
31548
31551
31558
31538
31548
31548
31546
31547
31542
31529
31540
31548
31552
31547
31549
31545
31544
31534
31542
31549
31551
31548
31536
31547
31549
31534
31556
31556
31547
31551
31551
31548
31546
31543
31532
31543
31541
31550
31545
31552
31546
31548
31548
31558
31550
31548
31548
31551
31551
31551
31533
31540
31548
31538
31536
31545
31534
31543
31532
31543
31534
31536
31541
31540
31541
31545
31537
31542
31542
31540
31532
31535
31535
31543
31540
31540
31547
31540
31551
31545
31546
31548
31543
31540
31545
31548
31546
31541
31549
31548
31542
31542
31538
31551
31550
31555
31542
31555
31540
31550
31548
31547
31540
31553
31551
31544
31548
31553
31527
31550
31545
31544
31551
31549
31557
31549
31553
31553
31559
31556
31556
31553
31553
31550
31558
31553
31551
31558
31551
31556
31554
31559
31548
31558
31561
31562
31556
31561
31559
31561
31558
31562
31562
31559
31558
31566
31563
31562
31563
31566
31567
31563
31552
31567
31564
31566
31567
31549
31549
31563
31564
31564
31562
31562
31567
31562
31564
31571
31567
31566
31564
31559
31565
31565
31567
31565
31566
31570
31579
31583
31575
31569
31566
31566
31575
31574
31574
31567
31569
31573
31566
31561
31568
31574
31572
31567
31567
31558
31562
31563
31567
31566
31574
31575
31569
31575
31572
31566
31557
31556
31569
31559
31548
31559
31557
31558
31548
31567
31566
31558
31562
31548
31546
31564
31544
31551
31547
31545
31566
31541
31558
31559
31556
31558
31537
31548
31548
31556
31553
31555
31553
31548
31551
31546
31551
31545
31542
31548
31546
31535
31537
31541
31543
31540
31532
31524
31524
31548
31533
31527
31531
31529
31526
31537
31543
31538
31535
31541
31540
31535
31537
31529
31528
31540
31540
31535
31531
31535
31535
31534
31541
31518
31521
31528
31527
31527
31532
31528
31532
31529
31526
31524
31524
31527
31529
31524
31524
31526
31531
31527
31519
31532
31530
31532
31535
31527
31530
31525
31526
31531
31527
31526
31519
31516
31516
31509
31527
31523
31527
31529
31521
31524
31527
31524
31527
31525
31526
31527
31522
31524
31527
31519
31513
31519
31519
31525
31527
31516
31521
31519
31514
31524
31530
31510
31519
31523
31522
31522
31524
31520
31522
31519
31529
31527
31523
31527
31514
31519
31527
31521
31514
31519
31523
31527
31524
31517
31524
31524
31517
31511
31508
31524
31521
31519
31518
31516
31517
31524
31519
31516
31519
31524
31520
31518
31520
31518
31523
31527
31523
31519
31522
31529
31527
31517
31525
31524
31524
31516
31523
31511
31519
31522
31524
31523
31525
31527
31523
31528
31521
31525
31525
31523
31516
31519
31518
31512
31517
31524
31520
31508
31521
31521
31530
31519
31525
31522
31525
31518
31516
31521
31516
31526
31519
31518
31523
31511
31517
31519
31523
31526
31518
31516
31519
31523
31525
31518
31519
31521
31517
31518
31518
31511
31503
31516
31517
31513
31516
31516
31517
31517
31512
31511
31503
31501
31516
31523
31519
31509
31503
31519
31517
31516
31513
31516
31515
31514
31511
31518
31498
31495
31519
31524
31511
31508
31515
31511
31506
31517
31518
31508
31517
31526
31517
31516
31516
31519
31513
31519
31527
31514
31518
31518
31519
31513
31517
31517
31524
31516
31521
31521
31515
31513
31503
31508
31518
31517
31516
31519
31511
31516
31519
31509
31514
31515
31523
31517
31513
31509
31514
31503
31499
31509
31505
31519
31511
31515
31516
31515
31511
31517
31517
31519
31518
31512
31522
31516
31512
31514
31514
31511
31510
31511
31516
31517
31508
31516
31512
31516
31517
31519
31516
31508
31523
31516
31516
31516
31518
31513
31513
31518
31511
31516
31516
31513
31513
31511
31516
31525
31517
31518
31512
31519
31508
31511
31506
31511
31514
31514
31516
31509
31511
31509
31519
31523
31514
31495
31505
31508
31515
31496
31507
31500
31508
31516
31510
31501
31511
31508
31508
31513
31505
31518
31514
31508
31518
31508
31513
31511
31512
31508
31507
31508
31512
31514
31517
31508
31509
31510
31521
31506
31509
31511
31511
31509
31517
31511
31507
31514
31513
31514
31510
31518
31510
31509
31516
31517
31518
31514
31509
31508
31511
31508
31511
31509
31514
31515
31514
31516
31510
31514
31516
31518
31516
31516
31507
31509
31517
31511
31516
31518
31509
31516
31521
31520
31511
31519
31524
31516
31511
31521
31506
31512
31513
31512
31521
31509
31518
31517
31509
31511
31517
31518
31511
31515
31511
31509
31514
31515
31515
31519
31516
31521
31521
31519
31527
31524
31513
31508
31516
31514
31515
31516
31517
31514
31511
31519
31512
31521
31518
31522
31521
31519
31527
31524
31524
31524
31524
31527
31529
31522
31523
31531
31525
31530
31534
31542
31549
31548
31544
31552
31550
31551
31558
31564
31565
31572
31570
31576
31577
31584
31584
31583
31583
31580
31575
31567
31566
31575
31564
31566
31556
31554
31551
31551
31543
31548
31540
31541
31544
31537
31535
31544
31543
31532
31535
31529
31532
31535
31535
31543
31552
31544
31548
31548
31545
31549
31535
31526
31545
31536
31532
31539
31533
31535
31533
31538
31537
31543
31546
31539
31537
31527
31540
31543
31546
31540
31546
31527
31532
31506
31519
31511
31519
31527
31541
31535
31536
31535
31541
31537
31530
31527
31521
31520
31539
31532
31540
31532
31532
31529
31534
31528
31533
31528
31527
31534
31535
31530
31532
31522
31527
31534
31534
31532
31535
31535
31532
31528
31535
31524
31535
31535
31527
31527
31526
31535
31533
31530
31533
31534
31524
31540
31539
31530
31527
31537
31535
31530
31527
31538
31530
31535
31524
31535
31532
31531
31526
31526
31522
31524
31532
31526
31535
31528
31535
31532
31531
31535
31532
31532
31531
31531
31535
31528
31527
31527
31535
31532
31530
31529
31532
31535
31540
31540
31540
31543
31543
31535
31534
31540
31537
31535
31543
31540
31542
31541
31538
31535
31537
31533
31541
31546
31540
31543
31553
31535
31542
31538
31550
31552
31543
31542
31546
31549
31551
31550
31554
31555
31559
31540
31551
31565
31552
31559
31548
31549
31551
31553
31548
31546
31551
31557
31542
31559
31564
31557
31554
31559
31556
31554
31539
31566
31556
31558
31558
31564
31559
31560
31563
31556
31556
31565
31559
31551
31552
31567
31564
31571
31556
31566
31561
31561
31563
31569
31569
31561
31567
31565
31563
31558
31558
31565
31563
31567
31567
31558
31559
31562
31566
31564
31569
31566
31561
31564
31555
31559
31561
31561
31559
31550
31558
31551
31540
31567
31559
31559
31557
31558
31548
31557
31559
31551
31552
31556
31559
31546
31554
31559
31559
31551
31557
31554
31559
31551
31556
31548
31546
31551
31550
31549
31549
31545
31551
31543
31533
31541
31548
31535
31534
31539
31536
31538
31543
31533
31532
31521
31540
31535
31535
31538
31537
31538
31530
31529
31532
31535
31530
31532
31530
31535
31539
31532
31534
31537
31529
31535
31524
31527
31527
31522
31524
31526
31532
31532
31528
31531
31524
31532
31506
31530
31527
31527
31524
31525
31527
31529
31520
31519
31527
31524
31524
31524
31524
31530
31519
31527
31527
31539
31527
31524
31526
31522
31517
31527
31527
31525
31527
31516
31516
31526
31527
31533
31531
31520
31525
31511
31527
31512
31520
31524
31524
31521
31525
31527
31523
31518
31516
31524
31524
31526
31519
31524
31527
31519
31524
31525
31526
31524
31520
31521
31519
31522
31524
31520
31519
31519
31516
31516
31511
31511
31524
31519
31527
31516
31519
31517
31516
31519
31516
31516
31519
31516
31524
31522
31522
31519
31518
31518
31519
31514
31519
31518
31521
31525
31518
31518
31513
31514
31513
31519
31513
31514
31516
31527
31518
31522
31524
31516
31492
31517
31519
31519
31518
31518
31518
31516
31517
31516
31519
31516
31514
31518
31524
31512
31512
31511
31518
31519
31516
31513
31519
31519
31511
31516
31519
31517
31511
31516
31524
31511
31511
31516
31517
31512
31519
31519
31518
31519
31524
31519
31516
31514
31506
31519
31521
31511
31508
31518
31520
31519
31511
31514
31521
31519
31515
31511
31508
31511
31515
31511
31511
31509
31516
31516
31514
31511
31509
31520
31513
31512
31508
31498
31519
31514
31519
31500
31517
31519
31511
31516
31517
31514
31511
31514
31516
31517
31519
31516
31503
31511
31505
31513
31508
31513
31511
31513
31513
31513
31509
31495
31498
31509
31509
31511
31513
31511
31514
31513
31508
31508
31509
31502
31506
31511
31502
31509
31514
31509
31499
31507
31515
31512
31508
31515
31511
31510
31503
31508
31509
31511
31503
31511
31508
31510
31511
31515
31513
31515
31507
31506
31508
31508
31503
31505
31498
31505
31511
31502
31511
31510
31497
31508
31511
31498
31508
31511
31501
31504
31509
31505
31503
31495
31495
31495
31511
31514
31511
31509
31509
31511
31507
31505
31503
31503
31511
31506
31503
31506
31506
31501
31505
31503
31505
31498
31503
31503
31514
31511
31503
31494
31507
31500
31508
31496
31499
31489
31508
31511
31506
31506
31504
31503
31503
31506
31502
31511
31509
31495
31506
31508
31507
31503
31495
31502
31509
31495
31495
31503
31495
31495
31495
31497
31495
31492
31495
31494
31492
31501
31494
31495
31495
31500
31500
31503
31506
31506
31504
31500
31506
31500
31502
31503
31499
31509
31507
31508
31509
31499
31501
31501
31503
31502
31508
31503
31495
31485
31495
31502
31503
31495
31495
31499
31500
31495
31498
31503
31492
31502
31495
31500
31503
31494
31500
31495
31495
31494
31482
31490
31486
31489
31486
31496
31492
31495
31495
31492
31495
31495
31495
31502
31492
31492
31495
31507
31503
31500
31492
31492
31503
31495
31495
31502
31486
31501
31495
31495
31488
31492
31494
31502
31490
31494
31491
31492
31495
31501
31503
31500
31507
31506
31511
31506
31501
31511
31518
31509
31491
31495
31494
31495
31495
31492
31495
31495
31495
31506
31503
31495
31503
31502
31514
31510
31514
31519
31517
31518
31517
31525
31527
31535
31532
31537
31543
31547
31551
31544
31556
31557
31558
31555
31572
31578
31578
31567
31558
31556
31556
31545
31550
31539
31543
31540
31537
31539
31529
31525
31531
31525
31526
31525
31519
31509
31519
31517
31525
31519
31516
31524
31517
31516
31512
31517
31523
31525
31524
31523
31522
31524
31519
31512
31525
31527
31523
31523
31523
31521
31519
31515
31526
31519
31509
31517
31508
31511
31519
31524
31524
31525
31520
31524
31516
31516
31518
31519
31523
31511
31515
31513
31509
31511
31511
31495
31508
31513
31508
31503
31500
31513
31503
31505
31507
31505
31506
31516
31508
31504
31511
31514
31509
31505
31495
31510
31503
31511
31507
31503
31509
31510
31503
31514
31513
31511
31495
31494
31500
31515
31495
31493
31506
31509
31491
31508
31511
31510
31505
31505
31509
31506
31509
31501
31506
31507
31510
31503
31516
31505
31514
31517
31516
31503
31503
31506
31503
31507
31511
31503
31508
31504
31513
31509
31508
31516
31511
31510
31516
31511
31504
31500
31507
31508
31502
31502
31507
31503
31511
31497
31507
31511
31511
31503
31511
31505
31516
31513
31518
31517
31512
31505
31508
31516
31513
31505
31510
31510
31510
31519
31511
31516
31515
31515
31519
31516
31519
31516
31514
31514
31524
31524
31511
31515
31515
31511
31516
31513
31508
31519
31521
31509
31518
31516
31523
31526
31525
31525
31525
31512
31524
31519
31525
31524
31516
31526
31520
31524
31522
31521
31525
31524
31533
31508
31525
31526
31532
31535
31529
31531
31532
31533
31527
31516
31522
31527
31529
31532
31527
31501
31525
31527
31535
31526
31525
31521
31527
31532
31527
31529
31526
31531
31527
31526
31529
31526
31527
31527
31524
31530
31525
31517
31525
31524
31524
31519
31525
31524
31527
31519
31524
31517
31524
31519
31520
31509
31518
31522
31518
31521
31511
31506
31527
31512
31515
31516
31516
31516
31522
31501
31507
31508
31513
31508
31516
31508
31509
31507
31508
31510
31514
31491
31504
31503
31503
31501
31503
31492
31487
31503
31494
31494
31495
31495
31505
31503
31502
31492
31493
31491
31492
31495
31484
31495
31495
31495
31490
31488
31492
31494
31491
31486
31486
31487
31487
31484
31486
31485
31487
31488
31487
31479
31484
31477
31485
31487
31488
31492
31490
31486
31485
31484
31490
31481
31486
31484
31478
31483
31476
31479
31485
31465
31479
31469
31478
31484
31479
31483
31485
31479
31476
31479
31465
31478
31486
31476
31479
31482
31479
31468
31479
31476
31471
31464
31472
31476
31479
31479
31478
31476
31479
31477
31474
31470
31473
31473
31471
31471
31467
31463
31469
31469
31471
31475
31473
31470
31468
31468
31470
31477
31466
31463
31462
31453
31458
31461
31471
31466
31471
31476
31476
31477
31474
31479
31468
31471
31471
31476
31476
31476
31468
31473
31479
31483
31469
31469
31466
31479
31476
31471
31471
31476
31471
31471
31475
31471
31475
31471
31471
31470
31466
31470
31460
31469
31466
31467
31469
31471
31462
31462
31469
31463
31464
31470
31463
31461
31463
31455
31462
31463
31471
31460
31460
31459
31462
31468
31457
31460
31462
31462
31462
31463
31460
31463
31468
31461
31452
31457
31465
31462
31463
31456
31452
31463
31471
31460
31455
31461
31462
31462
31463
31467
31461
31462
31463
31452
31453
31455
31461
31462
31463
31463
31463
31460
31455
31462
31452
31461
31458
31456
31448
31460
31461
31460
31460
31456
31456
31463
31449
31461
31457
31457
31462
31457
31458
31455
31447
31449
31465
31463
31459
31454
31451
31456
31452
31460
31460
31458
31452
31452
31455
31460
31459
31450
31460
31461
31456
31454
31463
31457
31465
31456
31453
31455
31454
31452
31455
31459
31451
31450
31442
31445
31455
31458
31459
31453
31451
31452
31454
31460
31455
31450
31449
31445
31455
31453
31455
31456
31452
31455
31448
31451
31450
31447
31447
31445
31454
31455
31447
31447
31444
31449
31452
31443
31441
31448
31448
31450
31447
31447
31452
31441
31445
31445
31452
31447
31450
31453
31446
31449
31442
31444
31453
31441
31452
31451
31444
31447
31442
31446
31447
31449
31437
31455
31448
31440
31450
31450
31437
31433
31444
31442
31447
31447
31448
31446
31452
31439
31445
31447
31451
31448
31445
31435
31434
31439
31443
31445
31445
31438
31438
31445
31445
31446
31440
31434
31442
31447
31445
31446
31446
31444
31454
31438
31443
31444
31445
31450
31439
31445
31441
31434
31428
31438
31445
31442
31447
31449
31430
31447
31438
31446
31445
31439
31434
31447
31439
31444
31440
31444
31447
31439
31444
31439
31438
31438
31439
31443
31431
31438
31439
31436
31436
31433
31447
31442
31438
31438
31439
31442
31439
31437
31436
31437
31438
31439
31439
31444
31441
31437
31440
31429
31447
31429
31439
31445
31436
31439
31436
31439
31436
31433
31431
31434
31437
31438
31437
31428
31441
31429
31439
31438
31431
31439
31431
31424
31438
31438
31439
31438
31436
31442
31439
31435
31443
31434
31439
31437
31439
31438
31448
31443
31440
31444
31441
31436
31438
31445
31445
31442
31434
31429
31446
31433
31444
31439
31445
31449
31444
31454
31455
31454
31463
31463
31469
31474
31469
31476
31474
31484
31483
31476
31484
31492
31486
31490
31503
31508
31500
31505
31504
31479
31483
31491
31484
31482
31482
31479
31471
31471
31468
31463
31463
31467
31457
31452
31455
31454
31452
31441
31451
31451
31450
31449
31450
31454
31450
31459
31450
31450
31448
31447
31448
31447
31454
31448
31453
31452
31452
31460
31441
31445
31452
31453
31453
31452
31454
31455
31454
31459
31448
31447
31441
31444
31445
31446
31448
31447
31443
31439
31447
31441
31445
31442
31439
31451
31437
31445
31440
31431
31436
31437
31441
31447
31451
31444
31443
31439
31439
31444
31440
31442
31446
31445
31439
31434
31437
31445
31441
31442
31444
31443
31444
31441
31447
31444
31447
31439
31439
31440
31444
31444
31446
31451
31431
31434
31436
31428
31431
31443
31433
31443
31438
31436
31421
31437
31432
31439
31433
31445
31439
31439
31439
31436
31429
31436
31430
31434
31429
31426
31431
31431
31439
31450
31431
31438
31431
31433
31432
31433
31439
31433
31434
31445
31438
31436
31431
31423
31437
31437
31438
31438
31437
31437
31433
31433
31436
31446
31439
31438
31438
31428
31434
31430
31431
31441
31434
31439
31431
31437
31438
31438
31437
31447
31445
31438
31444
31440
31446
31447
31439
31447
31444
31439
31439
31445
31446
31442
31450
31441
31455
31450
31444
31447
31442
31445
31445
31447
31451
31447
31455
31452
31432
31444
31441
31438
31451
31457
31439
31452
31453
31457
31452
31452
31447
31438
31448
31455
31455
31446
31438
31447
31446
31447
31455
31447
31453
31452
31451
31453
31454
31451
31448
31457
31455
31455
31455
31456
31455
31463
31450
31455
31453
31455
31455
31447
31457
31452
31452
31452
31451
31455
31449
31452
31455
31447
31452
31455
31452
31451
31454
31446
31447
31450
31445
31449
31452
31449
31444
31447
31439
31447
31446
31439
31439
31432
31447
31440
31441
31447
31438
31432
31437
31428
31430
31435
31438
31444
31435
31436
31439
31436
31432
31435
31431
31431
31431
31435
31428
31426
31417
31421
31426
31423
31414
31406
31407
31429
31426
31426
31432
31413
31423
31418
31422
31413
31421
31423
31415
31419
31423
31419
31419
31415
31407
31418
31415
31412
31407
31419
31419
31420
31415
31415
31415
31413
31415
31414
31413
31415
31415
31414
31410
31414
31410
31412
31405
31407
31415
31410
31405
31412
31409
31409
31402
31404
31405
31409
31402
31405
31399
31397
31405
31401
31405
31401
31404
31407
31404
31405
31399
31406
31405
31391
31407
31405
31399
31405
31399
31399
31393
31394
31394
31407
31401
31394
31405
31405
31399
31396
31399
31391
31391
31400
31397
31393
31399
31406
31399
31399
31392
31404
31399
31394
31401
31398
31389
31388
31397
31399
31402
31396
31404
31393
31396
31394
31399
31400
31403
31398
31399
31396
31391
31396
31393
31397
31397
31397
31388
31388
31397
31397
31396
31395
31393
31394
31398
31391
31388
31387
31396
31391
31390
31399
31395
31385
31391
31392
31391
31390
31388
31394
31389
31393
31391
31396
31397
31399
31391
31385
31391
31395
31395
31395
31389
31391
31392
31391
31388
31388
31382
31390
31391
31391
31383
31391
31390
31388
31391
31378
31382
31365
31398
31391
31393
31386
31388
31383
31385
31375
31389
31386
31383
31386
31383
31385
31383
31380
31386
31388
31383
31387
31387
31387
31382
31382
31395
31388
31391
31391
31380
31374
31381
31375
31386
31385
31380
31387
31379
31381
31378
31380
31383
31390
31381
31388
31369
31380
31381
31388
31384
31378
31380
31382
31380
31390
31382
31383
31382
31380
31367
31380
31380
31383
31382
31375
31377
31380
31387
31375
31382
31377
31367
31381
31374
31376
31374
31378
31379
31374
31374
31383
31375
31391
31382
31387
31383
31380
31380
31377
31377
31372
31375
31375
31375
31365
31371
31374
31374
31375
31381
31378
31373
31377
31372
31375
31380
31373
31374
31372
31375
31371
31372
31377
31373
31372
31377
31366
31372
31374
31370
31367
31365
31367
31377
31367
31375
31370
31375
31372
31375
31377
31375
31373
31373
31373
31362
31364
31364
31366
31374
31372
31374
31373
31369
31372
31373
31367
31373
31366
31367
31368
31373
31378
31367
31367
31367
31367
31374
31367
31362
31375
31369
31374
31367
31372
31369
31372
31372
31367
31375
31370
31373
31367
31367
31368
31370
31371
31367
31367
31367
31367
31365
31362
31363
31363
31367
31366
31371
31364
31367
31372
31366
31372
31361
31362
31364
31361
31355
31366
31367
31356
31358
31367
31367
31351
31365
31364
31362
31367
31364
31363
31367
31367
31364
31342
31362
31362
31362
31359
31364
31365
31363
31367
31364
31360
31366
31359
31367
31366
31358
31366
31351
31362
31359
31365
31365
31364
31359
31361
31364
31351
31359
31367
31362
31361
31367
31366
31367
31364
31364
31365
31363
31358
31356
31339
31356
31352
31370
31365
31367
31358
31359
31358
31365
31359
31358
31358
31357
31362
31361
31367
31365
31364
31367
31367
31372
31375
31380
31382
31386
31381
31385
31391
31398
31399
31402
31403
31403
31407
31419
31415
31423
31424
31431
31429
31439
31423
31423
31419
31412
31412
31399
31411
31392
31398
31399
31391
31389
31391
31383
31383
31383
31378
31386
31379
31377
31373
31376
31380
31383
31377
31367
31366
31372
31374
31370
31367
31372
31365
31367
31370
31373
31367
31366
31372
31367
31378
31367
31368
31371
31373
31371
31380
31376
31367
31371
31367
31359
31358
31367
31364
31369
31366
31367
31367
31364
31373
31364
31362
31374
31366
31367
31368
31370
31367
31367
31362
31367
31352
31364
31371
31364
31367
31365
31367
31367
31363
31365
31362
31367
31351
31365
31372
31367
31362
31367
31362
31364
31362
31364
31366
31359
31364
31364
31364
31362
31364
31360
31359
31361
31364
31351
31365
31356
31365
31362
31363
31365
31356
31356
31357
31351
31362
31359
31363
31361
31359
31359
31361
31356
31360
31365
31359
31365
31366
31358
31352
31348
31359
31363
31359
31364
31348
31356
31359
31363
31364
31355
31362
31357
31358
31359
31356
31359
31356
31359
31366
31360
31358
31363
31354
31357
31364
31365
31365
31365
31362
31367
31364
31367
31360
31351
31364
31367
31366
31367
31372
31372
31370
31367
31368
31348
31367
31363
31356
31367
31366
31364
31373
31372
31364
31352
31361
31375
31374
31372
31380
31367
31367
31379
31375
31375
31376
31380
31367
31367
31365
31367
31367
31375
31375
31375
31377
31380
31374
31367
31379
31372
31366
31378
31375
31363
31382
31383
31374
31373
31381
31378
31383
31380
31378
31380
31383
31383
31384
31373
31378
31380
31385
31386
31380
31382
31380
31381
31382
31379
31388
31380
31388
31383
31386
31383
31388
31372
31382
31380
31388
31383
31395
31388
31391
31383
31374
31386
31383
31379
31375
31377
31375
31379
31377
31374
31375
31380
31376
31375
31367
31367
31375
31367
31374
31373
31370
31373
31373
31367
31373
31367
31367
31364
31372
31367
31357
31357
31367
31372
31359
31361
31364
31359
31367
31365
31355
31363
31364
31358
31351
31356
31351
31359
31353
31359
31366
31360
31364
31356
31356
31356
31356
31357
31355
31354
31355
31356
31359
31356
31351
31357
31352
31346
31348
31354
31351
31349
31343
31343
31352
31353
31351
31365
31348
31358
31351
31332
31351
31342
31348
31347
31344
31346
31348
31349
31342
31358
31353
31347
31345
31357
31340
31339
31348
31343
31339
31343
31340
31340
31340
31342
31343
31342
31345
31338
31344
31342
31341
31351
31335
31341
31340
31343
31339
31337
31339
31340
31340
31340
31349
31343
31341
31343
31345
31346
31351
31341
31340
31342
31338
31340
31343
31337
31343
31345
31335
31343
31343
31346
31342
31343
31333
31347
31341
31341
31340
31339
31343
31341
31340
31340
31337
31326
31345
31343
31334
31342
31348
31339
31340
31343
31339
31343
31348
31343
31343
31343
31346
31337
31340
31332
31329
31334
31343
31336
31334
31340
31343
31343
31337
31349
31341
31343
31340
31335
31340
31338
31340
31342
31334
31336
31343
31332
31332
31342
31334
31340
31343
31337
31343
31346
31328
31339
31340
31344
31341
31343
31343
31341
31345
31347
31343
31339
31342
31347
31340
31345
31339
31335
31341
31341
31345
31343
31343
31343
31341
31343
31333
31332
31334
31341
31345
31335
31333
31335
31340
31340
31335
31342
31336
31347
31326
31333
31340
31343
31342
31339
31344
31343
31349
31348
31335
31340
31341
31340
31348
31343
31335
31340
31338
31343
31347
31343
31340
31351
31337
31349
31343
31338
31343
31347
31349
31347
31351
31338
31346
31347
31340
31341
31336
31343
31341
31345
31341
31343
31328
31328
31328
31337
31338
31345
31341
31341
31339
31334
31341
31340
31340
31341
31341
31332
31341
31341
31348
31343
31340
31347
31350
31339
31348
31340
31348
31342
31343
31343
31343
31348
31345
31335
31335
31341
31342
31348
31349
31348
31351
31348
31346
31343
31340
31343
31342
31346
31332
31343
31335
31338
31338
31340
31343
31341
31349
31348
31343
31348
31349
31346
31348
31349
31346
31342
31343
31339
31338
31343
31343
31341
31343
31338
31343
31343
31348
31351
31340
31343
31351
31343
31348
31349
31348
31343
31342
31342
31343
31347
31343
31343
31336
31340
31343
31346
31342
31343
31339
31346
31345
31348
31340
31343
31340
31342
31351
31340
31340
31345
31347
31342
31346
31340
31341
31337
31342
31343
31341
31349
31344
31340
31349
31351
31343
31333
31349
31347
31345
31343
31337
31348
31350
31348
31345
31348
31342
31343
31356
31352
31347
31349
31354
31349
31351
31348
31350
31348
31348
31349
31344
31351
31348
31348
31344
31346
31343
31346
31343
31335
31335
31338
31348
31338
31342
31343
31343
31338
31340
31332
31349
31343
31347
31346
31342
31343
31343
31350
31351
31343
31351
31332
31343
31343
31351
31350
31335
31338
31350
31349
31354
31357
31357
31350
31343
31355
31356
31349
31355
31347
31354
31351
31351
31352
31353
31361
31361
31362
31356
31359
31359
31365
31367
31364
31364
31374
31372
31375
31374
31391
31388
31392
31403
31398
31404
31406
31412
31413
31411
31418
31420
31413
31421
31415
31415
31398
31403
31396
31395
31391
31394
31389
31384
31388
31388
31381
31380
31366
31369
31372
31375
31376
31375
31376
31372
31375
31367
31369
31371
31373
31371
31383
31381
31380
31363
31367
31367
31376
31374
31368
31367
31380
31365
31375
31380
31375
31379
31377
31372
31378
31375
31372
31377
31374
31375
31374
31374
31372
31374
31366
31372
31367
31367
31374
31373
31366
31367
31370
31375
31379
31367
31372
31373
31373
31367
31367
31367
31361
31356
31367
31370
31367
31375
31372
31364
31367
31367
31367
31367
31367
31367
31374
31372
31362
31362
31364
31367
31373
31367
31370
31367
31377
31375
31375
31364
31370
31375
31380
31367
31372
31367
31366
31370
31378
31367
31367
31372
31371
31367
31366
31361
31377
31370
31367
31367
31366
31367
31362
31367
31367
31367
31373
31365
31373
31365
31359
31366
31373
31367
31373
31371
31370
31367
31375
31362
31374
31372
31368
31367
31372
31373
31372
31377
31375
31377
31388
31385
31362
31367
31374
31380
31360
31383
31375
31383
31382
31383
31380
31383
31385
31383
31386
31393
31386
31388
31391
31382
31383
31388
31390
31389
31390
31383
31383
31380
31381
31393
31382
31388
31388
31389
31388
31393
31388
31397
31383
31391
31391
31394
31389
31396
31399
31398
31399
31395
31392
31397
31398
31399
31398
31399
31399
31404
31399
31404
31399
31404
31401
31399
31402
31396
31399
31399
31399
31399
31399
31400
31394
31403
31400
31406
31411
31396
31405
31396
31398
31407
31395
31398
31399
31401
31407
31398
31397
31397
31399
31399
31396
31396
31399
31399
31404
31395
31386
31399
31405
31404
31399
31399
31396
31397
31396
31387
31396
31397
31396
31398
31399
31396
31391
31388
31391
31391
31393
31385
31394
31391
31394
31382
31390
31394
31396
31397
31388
31383
31394
31388
31381
31380
31375
31380
31388
31380
31376
31379
31383
31372
31376
31385
31382
31390
31375
31372
31375
31375
31371
31367
31378
31380
31360
31361
31375
31375
31372
31377
31381
31362
31375
31375
31364
31369
31367
31367
31367
31374
31373
31366
31365
31365
31371
31360
31367
31366
31359
31367
31367
31349
31367
31367
31367
31367
31364
31367
31362
31359
31366
31367
31358
31364
31357
31359
31360
31365
31356
31359
31365
31367
31364
31361
31358
31358
31362
31364
31357
31356
31351
31359
31366
31363
31364
31351
31358
31355
31362
31361
31357
31348
31353
31356
31359
31355
31355
31356
31359
31361
31354
31358
31351
31339
31351
31353
31356
31359
31356
31356
31350
31359
31348
31344
31358
31350
31350
31357
31348
31357
31356
31359
31354
31359
31359
31365
31358
31357
31358
31355
31357
31362
31359
31361
31356
31359
31361
31359
31356
31348
31351
31353
31351
31351
31345
31351
31354
31337
31356
31358
31364
31351
31354
31358
31356
31356
31359
31358
31361
31362
31356
31363
31356
31361
31357
31356
31357
31359
31358
31353
31359
31365
31358
31356
31361
31359
31359
31351
31350
31356
31359
31359
31354
31357
31356
31356
31354
31356
31362
31357
31357
31359
31353
31354
31339
31347
31361
31348
31351
31356
31350
31358
31358
31357
31351
31351
31357
31351
31351
31349
31354
31354
31348
31351
31349
31354
31351
31358
31348
31351
31350
31354
31348
31353
31351
31356
31351
31348
31348
31349
31357
31356
31365
31359
31357
31353
31358
31356
31350
31340
31359
31340
31347
31353
31357
31351
31356
31350
31348
31355
31351
31348
31357
31354
31344
31348
31353
31349
31348
31351
31354
31349
31357
31343
31353
31351
31356
31348
31351
31355
31352
31351
31347
31351
31351
31356
31342
31344
31348
31348
31351
31351
31340
31361
31349
31354
31356
31356
31358
31341
31347
31354
31354
31344
31350
31348
31342
31337
31340
31349
31343
31349
31351
31340
31353
31358
31343
31349
31353
31348
31346
31351
31348
31350
31351
31357
31350
31359
31354
31349
31343
31334
31335
31337
31344
31343
31359
31351
31351
31351
31350
31346
31353
31340
31343
31351
31351
31354
31357
31351
31351
31343
31342
31337
31351
31357
31343
31350
31351
31341
31356
31341
31341
31351
31349
31349
31343
31351
31348
31347
31348
31349
31343
31349
31351
31356
31353
31351
31348
31348
31342
31349
31348
31351
31350
31354
31350
31334
31346
31343
31335
31343
31341
31343
31343
31349
31340
31346
31351
31346
31343
31340
31348
31343
31343
31346
31343
31343
31349
31347
31343
31348
31344
31344
31343
31349
31337
31340
31336
31343
31350
31344
31350
31349
31349
31340
31349
31341
31343
31341
31337
31340
31343
31351
31346
31346
31349
31343
31348
31338
31342
31345
31339
31343
31343
31338
31343
31337
31350
31333
31332
31351
31343
31345
31348
31346
31347
31346
31345
31338
31344
31341
31328
31327
31328
31328
31332
31327
31346
31332
31329
31340
31348
31348
31343
31340
31327
31331
31324
31335
31332
31356
31349
31350
31357
31351
31354
31356
31360
31358
31364
31365
31370
31374
31379
31381
31392
31388
31398
31385
31393
31396
31399
31401
31418
31399
31406
31400
31400
31404
31396
31391
31393
31383
31380
31387
31380
31375
31375
31379
31367
31372
31364
31375
31367
31370
31363
31364
31367
31367
31364
31370
31366
31367
31359
31367
31367
31367
31362
31374
31363
31351
31375
31376
31371
31374
31365
31365
31359
31357
31348
31357
31366
31367
31364
31364
31364
31366
31367
31367
31367
31367
31367
31364
31356
31367
31367
31361
31362
31367
31356
31367
31366
31367
31375
31365
31365
31349
31361
31367
31359
31363
31355
31359
31359
31367
31375
31360
31365
31358
31361
31353
31356
31367
31352
31367
31359
31356
31361
31358
31354
31363
31361
31371
31362
31366
31367
31359
31358
31359
31365
31367
31365
31351
31362
31367
31367
31364
31367
31360
31350
31364
31359
31364
31364
31361
31357
31357
31367
31367
31358
31365
31364
31366
31359
31369
31364
31364
31359
31365
31361
31367
31367
31367
31362
31366
31364
31364
31364
31370
31377
31374
31366
31372
31367
31366
31367
31367
31364
31367
31373
31371
31364
31367
31366
31364
31370
31367
31366
31349
31367
31372
31364
31372
31374
31371
31365
31367
31377
31369
31367
31371
31378
31371
31367
31373
31371
31367
31367
31374
31387
31377
31367
31385
31383
31377
31376
31371
31389
31383
31383
31380
31374
31367
31373
31381
31379
31380
31389
31387
31391
31387
31375
31387
31388
31391
31387
31390
31387
31385
31386
31390
31369
31391
31399
31392
31391
31391
31394
31385
31377
31389
31392
31385
31377
31389
31402
31397
31397
31390
31393
31388
31389
31386
31389
31389
31386
31386
31388
31387
31384
31398
31391
31398
31395
31388
31390
31390
31396
31388
31377
31383
31389
31380
31386
31380
31387
31383
31380
31381
31382
31383
31383
31383
31382
31388
31380
31383
31372
31375
31370
31373
31381
31367
31364
31367
31370
31375
31375
31369
31374
31367
31367
31364
31357
31354
31361
31356
31357
31362
31358
31361
31356
31359
31358
31364
31352
31353
31356
31351
31349
31343
31352
31359
31358
31356
31350
31355
31342
31348
31346
31348
31350
31351
31341
31340
31349
31343
31342
31342
31346
31351
31343
31337
31351
31346
31348
31343
31353
31344
31355
31353
31348
31348
31351
31344
31340
31343
31347
31340
31343
31343
31334
31340
31349
31342
31338
31342
31335
31339
31335
31340
31339
31333
31334
31342
31334
31331
31333
31328
31333
31335
31335
31339
31337
31330
31327
31330
31327
31326
31327
31330
31324
31327
31324
31327
31332
31330
31322
31321
31327
31324
31323
31326
31318
31324
31319
31319
31332
31324
31321
31323
31324
31327
31323
31324
31317
31316
31319
31323
31319
31316
31317
31318
31310
31313
31309
31309
31306
31319
31316
31317
31313
31305
31303
31319
31308
31307
31305
31311
31303
31311
31312
31310
31304
31312
31311
31302
31311
31303
31302
31301
31306
31302
31303
31303
31294
31300
31301
31295
31294
31291
31297
31294
31291
31300
31303
31299
31300
31292
31300
31281
31297
31298
31290
31286
31292
31285
31284
31289
31286
31293
31292
31290
31285
31285
31287
31284
31279
31277
31276
31270
31281
31279
31279
31279
31274
31271
31282
31269
31260
31287
31277
31273
31282
31276
31279
31272
31270
31266
31279
31271
31265
31263
31271
31269
31268
31269
31266
31268
31262
31270
31262
31271
31269
31268
31262
31255
31263
31260
31268
31263
31269
31262
31265
31255
31262
31255
31263
31255
31260
31255
31252
31253
31257
31255
31261
31255
31255
31254
31239
31250
31247
31249
31252
31244
31239
31239
31246
31239
31239
31239
31239
31239
31237
31220
31239
31239
31239
31239
31239
31228
31237
31239
31238
31239
31239
31239
31227
31232
31239
31229
31239
31239
31228
31239
31210
31236
31238
31239
31231
31230
31238
31232
31239
31228
31228
31230
31228
31226
31231
31230
31239
31230
31226
31234
31228
31229
31225
31223
31228
31219
31221
31228
31214
31215
31228
31221
31217
31215
31220
31215
31220
31215
31210
31214
31212
31210
31205
31206
31210
31212
31217
31215
31215
31214
31199
31207
31202
31204
31204
31201
31201
31207
31213
31207
31205
31215
31217
31207
31212
31206
31206
31208
31210
31209
31206
31204
31204
31205
31204
31206
31206
31207
31211
31204
31207
31206
31204
31197
31203
31191
31202
31199
31207
31207
31199
31206
31199
31204
31203
31204
31189
31191
31204
31199
31197
31204
31196
31196
31199
31196
31204
31198
31204
31203
31205
31199
31198
31201
31194
31198
31198
31200
31197
31194
31199
31199
31194
31191
31194
31201
31199
31195
31191
31191
31193
31191
31177
31201
31204
31197
31204
31202
31196
31190
31203
31192
31188
31199
31201
31194
31199
31194
31203
31206
31198
31188
31190
31198
31196
31194
31198
31204
31196
31204
31202
31198
31192
31190
31196
31194
31199
31194
31199
31198
31196
31203
31199
31199
31196
31197
31203
31204
31206
31181
31197
31196
31206
31205
31207
31205
31205
31206
31199
31186
31181
31185
31186
31210
31204
31204
31211
31207
31210
31208
31219
31213
31215
31223
31220
31230
31227
31239
31238
31239
31239
31252
31255
31254
31250
31247
31253
31252
31264
31266
31270
31271
31269
31266
31255
31260
31253
31239
31254
31238
31239
31237
31236
31239
31228
31231
31228
31229
31223
31227
31217
31223
31223
31217
31223
31220
31216
31223
31222
31213
31217
31218
31220
31217
31223
31216
31219
31223
31220
31209
31231
31231
31226
31221
31222
31223
31231
31227
31231
31227
31210
31215
31207
31198
31204
31218
31212
31226
31220
31222
31223
31221
31219
31215
31227
31221
31214
31196
31212
31215
31213
31215
31215
31215
31217
31214
31215
31210
31197
31219
31213
31206
31206
31206
31207
31211
31213
31213
31212
31221
31213
31215
31215
31218
31215
31217
31212
31214
31218
31217
31215
31215
31221
31213
31218
31216
31215
31204
31215
31220
31212
31212
31214
31208
31210
31207
31206
31212
31207
31207
31203
31207
31218
31210
31213
31215
31212
31209
31215
31212
31220
31215
31207
31205
31212
31207
31221
31219
31212
31213
31219
31223
31217
31217
31215
31215
31210
31206
31212
31213
31207
31213
31211
31215
31215
31220
31204
31220
31220
31229
31231
31231
31215
31221
31218
31205
31214
31216
31218
31221
31223
31223
31220
31224
31231
31231
31204
31221
31221
31218
31221
31223
31228
31227
31215
31222
31223
31235
31226
31225
31220
31231
31233
31231
31233
31229
31236
31231
31239
31239
31235
31237
31239
31215
31239
31239
31239
31236
31239
31239
31239
31237
31239
31239
31239
31239
31239
31239
31249
31239
31239
31239
31239
31239
31247
31248
31239
31255
31239
31245
31246
31239
31228
31236
31239
31239
31239
31239
31239
31239
31239
31250
31251
31252
31249
31244
31250
31239
31252
31245
31233
31247
31239
31239
31239
31239
31239
31239
31249
31239
31239
31250
31239
31228
31235
31239
31239
31238
31239
31239
31239
31239
31239
31239
31239
31239
31239
31234
31238
31232
31234
31237
31239
31234
31239
31229
31236
31235
31223
31221
31222
31228
31233
31229
31226
31230
31221
31231
31228
31228
31223
31236
31220
31216
31215
31225
31215
31217
31220
31215
31222
31217
31223
31220
31213
31213
31217
31223
31213
31220
31207
31215
31220
31225
31221
31215
31209
31206
31212
31213
31210
31215
31212
31215
31214
31210
31209
31215
31212
31218
31206
31213
31215
31210
31209
31213
31218
31212
31209
31209
31213
31207
31209
31210
31199
31206
31207
31214
31207
31211
31215
31222
31207
31212
31215
31215
31215
31207
31212
31221
31204
31219
31213
31207
31205
31214
31206
31207
31215
31211
31209
31206
31208
31215
31205
31204
31215
31212
31215
31217
31215
31217
31212
31211
31214
31215
31207
31211
31207
31196
31207
31207
31215
31213
31208
31204
31216
31212
31210
31207
31211
31204
31212
31212
31207
31208
31209
31212
31218
31215
31223
31199
31206
31215
31211
31206
31201
31215
31211
31217
31215
31215
31217
31204
31217
31215
31215
31205
31214
31215
31215
31212
31212
31215
31215
31208
31207
31215
31209
31205
31215
31209
31208
31201
31202
31215
31215
31215
31220
31211
31212
31221
31214
31221
31207
31220
31207
31213
31207
31206
31209
31206
31206
31207
31212
31214
31218
31211
31215
31210
31213
31212
31208
31214
31208
31215
31209
31213
31207
31209
31205
31214
31215
31212
31215
31211
31219
31213
31215
31212
31223
31221
31215
31215
31213
31212
31212
31218
31219
31220
31206
31215
31223
31214
31214
31216
31221
31220
31223
31223
31223
31221
31221
31215
31220
31223
31218
31223
31215
31218
31215
31217
31217
31223
31227
31212
31214
31220
31220
31223
31221
31222
31222
31223
31222
31229
31223
31220
31219
31209
31220
31214
31220
31222
31220
31213
31215
31215
31215
31225
31218
31222
31216
31214
31216
31222
31222
31210
31225
31223
31226
31221
31223
31220
31225
31223
31217
31216
31221
31226
31223
31222
31221
31222
31218
31220
31220
31217
31213
31223
31222
31223
31214
31227
31220
31205
31221
31221
31222
31234
31226
31223
31225
31231
31227
31223
31215
31210
31223
31221
31231
31223
31225
31220
31228
31220
31223
31218
31223
31221
31207
31229
31223
31228
31228
31228
31218
31215
31209
31221
31228
31225
31226
31229
31229
31222
31221
31223
31220
31215
31218
31223
31218
31220
31215
31223
31215
31216
31221
31214
31206
31218
31215
31217
31231
31222
31217
31229
31237
31228
31221
31223
31231
31222
31225
31226
31222
31223
31223
31233
31228
31228
31231
31224
31229
31226
31233
31231
31229
31231
31235
31227
31229
31230
31229
31233
31230
31236
31233
31236
31229
31230
31236
31226
31233
31226
31230
31227
31231
31229
31224
31222
31226
31237
31229
31228
31228
31228
31231
31220
31231
31229
31231
31230
31238
31223
31235
31239
31239
31235
31236
31239
31234
31231
31236
31237
31231
31239
31237
31233
31238
31239
31229
31234
31238
31239
31234
31236
31234
31238
31236
31233
31235
31239
31238
31237
31239
31239
31223
31238
31239
31234
31236
31239
31237
31239
31236
31237
31239
31236
31229
31239
31237
31234
31239
31247
31253
31254
31254
31255
31263
31263
31265
31275
31270
31284
31293
31290
31303
31302
31294
31294
31301
31299
31301
31305
31311
31311
31302
31301
31310
31299
31284
31281
31284
31284
31284
31282
31279
31276
31286
31274
31259
31262
31265
31273
31266
31273
31265
31263
31263
31263
31256
31270
31267
31255
31266
31268
31263
31256
31260
31261
31262
31261
31261
31263
31255
31263
31263
31263
31263
31263
31263
31260
31258
31267
31262
31252
31262
31259
31266
31257
31265
31263
31258
31263
31262
31250
31252
31261
31262
31260
31261
31260
31265
31261
31263
31265
31269
31263
31265
31263
31250
31252
31261
31268
31262
31260
31260
31252
31263
31262
31260
31247
31255
31261
31268
31265
31267
31260
31261
31262
31253
31259
31247
31265
31266
31260
31269
31238
31261
31269
31271
31262
31261
31264
31265
31263
31260
31252
31239
31247
31263
31239
31254
31260
31260
31261
31262
31263
31260
31265
31262
31262
31260
31259
31268
31266
31265
31260
31263
31268
31260
31260
31267
31268
31270
31264
31263
31270
31265
31263
31261
31250
31263
31255
31254
31257
31267
31267
31262
31268
31262
31268
31267
31263
31255
31270
31268
31260
31267
31263
31261
31266
31268
31265
31271
31270
31273
31269
31268
31269
31270
31271
31260
31277
31271
31262
31267
31269
31271
31267
31273
31275
31276
31272
31273
31280
31271
31270
31278
31277
31276
31277
31281
31279
31271
31276
31281
31276
31282
31287
31287
31289
31280
31284
31284
31292
31295
31291
31287
31290
31293
31296
31292
31298
31294
31295
31307
31298
31301
31301
31294
31300
31295
31296
31302
31290
31283
31295
31297
31300
31301
31296
31290
31308
31303
31305
31303
31297
31303
31295
31304
31300
31287
31284
31291
31301
31304
31308
31298
31301
31303
31302
31284
31310
31311
31307
31300
31300
31291
31303
31303
31295
31301
31298
31297
31298
31303
31295
31278
31293
31295
31285
31290
31303
31288
31301
31292
31286
31296
31292
31291
31277
31295
31287
31283
31290
31284
31288
31287
31276
31287
31287
31292
31279
31281
31284
31281
31279
31282
31273
31282
31278
31278
31276
31278
31276
31281
31273
31278
31278
31281
31279
31272
31274
31279
31276
31273
31273
31270
31276
31276
31276
31279
31277
31278
31271
31268
31276
31273
31271
31271
31257
31270
31268
31276
31273
31265
31251
31259
31254
31271
31269
31271
31252
31263
31252
31265
31263
31270
31266
31270
31271
31273
31268
31263
31266
31262
31267
31268
31267
31271
31267
31265
31268
31271
31266
31268
31267
31262
31265
31268
31260
31258
31250
31265
31262
31270
31263
31267
31255
31262
31262
31260
31258
31260
31267
31260
31258
31263
31271
31252
31257
31260
31262
31261
31257
31255
31252
31255
31255
31261
31261
31263
31255
31259
31255
31254
31255
31252
31255
31255
31252
31252
31255
31247
31255
31259
31250
31252
31252
31231
31252
31258
31263
31253
31254
31249
31239
31255
31258
31252
31254
31258
31252
31262
31252
31252
31245
31252
31246
31248
31257
31255
31257
31252
31255
31247
31246
31252
31246
31255
31249
31249
31246
31247
31251
31252
31247
31250
31239
31235
31251
31239
31250
31239
31255
31251
31246
31245
31263
31247
31255
31247
31253
31252
31247
31255
31239
31249
31256
31244
31252
31239
31239
31247
31244
31239
31239
31249
31239
31251
31249
31251
31249
31239
31239
31239
31239
31239
31239
31239
31247
31239
31246
31239
31239
31244
31238
31239
31239
31249
31239
31239
31239
31239
31239
31239
31247
31239
31239
31239
31239
31238
31239
31239
31253
31237
31239
31220
31247
31239
31239
31239
31239
31239
31248
31239
31239
31239
31239
31244
31237
31239
31239
31239
31238
31239
31237
31239
31239
31236
31231
31239
31236
31233
31239
31239
31225
31228
31237
31223
31234
31233
31239
31228
31237
31239
31236
31232
31238
31239
31233
31239
31238
31236
31239
31239
31239
31231
31231
31228
31228
31231
31235
31234
31236
31229
31233
31237
31231
31236
31239
31239
31230
31236
31235
31230
31222
31225
31228
31220
31229
31231
31222
31225
31221
31228
31228
31231
31223
31228
31235
31228
31231
31230
31228
31228
31234
31227
31214
31220
31233
31222
31231
31219
31229
31231
31233
31228
31225
31231
31228
31222
31221
31231
31217
31223
31222
31223
31223
31233
31224
31220
31222
31227
31228
31225
31223
31225
31225
31228
31227
31220
31223
31220
31223
31223
31223
31215
31222
31223
31223
31221
31227
31221
31229
31223
31223
31226
31227
31219
31228
31223
31221
31220
31228
31226
31220
31219
31227
31207
31215
31219
31223
31223
31207
31223
31217
31227
31218
31223
31223
31221
31213
31223
31214
31215
31223
31215
31216
31206
31221
31207
31215
31215
31221
31222
31218
31220
31206
31217
31213
31213
31215
31217
31209
31213
31212
31215
31209
31210
31215
31226
31223
31215
31223
31220
31217
31228
31220
31215
31222
31214
31221
31210
31213
31213
31227
31222
31225
31229
31224
31228
31229
31232
31237
31238
31236
31239
31252
31263
31252
31260
31260
31268
31268
31271
31266
31275
31279
31282
31270
31277
31283
31276
31274
31268
31260
31269
31262
31252
31249
31256
31252
31247
31239
31239
31239
31239
31236
31224
31231
31231
31233
31233
31231
31230
31228
31223
31231
31229
31230
31231
31225
31218
31216
31229
31224
31228
31215
31223
31220
31230
31214
31217
31228
31221
31223
31215
31220
31213
31213
31206
31223
31224
31228
31225
31223
31220
31218
31220
31213
31209
31205
31214
31218
31214
31214
31219
31220
31216
31220
31220
31214
31217
31213
31219
31214
31205
31215
31215
31207
31210
31206
31220
31215
31209
31213
31215
31211
31210
31197
31212
31221
31220
31219
31220
31214
31209
31207
31217
31209
31207
31207
31220
31207
31209
31207
31206
31207
31207
31212
31210
31212
31215
31215
31206
31207
31211
31201
31211
31206
31207
31207
31207
31207
31206
31213
31207
31215
31207
31212
31210
31210
31207
31212
31206
31205
31196
31207
31204
31206
31207
31207
31203
31204
31204
31210
31207
31207
31207
31202
31204
31207
31207
31205
31209
31204
31204
31213
31205
31203
31206
31207
31207
31204
31212
31212
31219
31212
31207
31216
31204
31199
31203
31206
31196
31213
31214
31210
31215
31208
31210
31214
31208
31212
31221
31221
31214
31213
31208
31215
31204
31215
31209
31215
31209
31214
31210
31215
31220
31215
31212
31213
31215
31220
31221
31223
31217
31222
31215
31206
31217
31220
31222
31220
31218
31215
31222
31221
31215
31219
31221
31221
31228
31220
31217
31219
31223
31223
31215
31220
31218
31233
31220
31207
31204
31215
31212
31222
31221
31223
31223
31221
31228
31222
31222
31223
31221
31226
31221
31219
31222
31223
31222
31219
31221
31221
31216
31206
31221
31217
31219
31219
31217
31223
31213
31215
31211
31207
31204
31215
31211
31210
31217
31209
31215
31204
31210
31207
31207
31207
31207
31199
31207
31204
31207
31201
31207
31199
31206
31197
31210
31204
31204
31204
31193
31199
31202
31196
31202
31200
31196
31191
31196
31191
31186
31190
31185
31195
31190
31183
31195
31187
31191
31191
31188
31183
31183
31175
31185
31183
31180
31183
31172
31189
31188
31191
31183
31188
31180
31175
31185
31177
31181
31179
31180
31177
31175
31170
31173
31167
31174
31173
31174
31180
31174
31171
31175
31174
31175
31173
31165
31162
31174
31174
31173
31166
31167
31175
31170
31174
31170
31166
31172
31172
31166
31170
31164
31167
31169
31171
31169
31175
31170
31166
31164
31167
31169
31167
31168
31171
31167
31165
31169
31172
31172
31173
31173
31168
31161
31165
31158
31150
31154
31163
31149
31151
31159
31155
31154
31151
31159
31151
31160
31159
31167
31159
31158
31162
31165
31165
31167
31159
31159
31161
31158
31159
31153
31157
31159
31157
31159
31159
31167
31159
31166
31158
31156
31156
31164
31159
31143
31155
31163
31164
31158
31151
31157
31156
31153
31151
31157
31157
31153
31148
31157
31157
31146
31163
31163
31171
31156
31160
31156
31159
31150
31143
31149
31151
31162
31159
31150
31157
31156
31143
31151
31164
31151
31157
31153
31152
31154
31153
31151
31148
31154
31151
31148
31157
31159
31157
31156
31151
31157
31151
31143
31148
31146
31143
31142
31143
31159
31158
31159
31150
31150
31157
31146
31151
31148
31143
31146
31150
31151
31140
31143
31137
31153
31143
31143
31149
31142
31143
31140
31151
31142
31148
31145
31140
31140
31142
31148
31143
31147
31143
31142
31153
31156
31151
31151
31141
31151
31145
31143
31142
31141
31140
31142
31149
31143
31142
31143
31143
31143
31143
31149
31141
31143
31143
31147
31134
31142
31134
31125
31140
31137
31130
31127
31137
31135
31133
31133
31133
31129
31141
31135
31135
31135
31141
31137
31141
31135
31135
31135
31139
31138
31137
31132
31132
31132
31134
31137
31130
31132
31135
31141
31141
31135
31135
31132
31124
31132
31129
31131
31130
31132
31129
31134
31124
31132
31133
31138
31135
31140
31135
31134
31135
31126
31124
31127
31134
31135
31125
31131
31127
31135
31133
31124
31127
31124
31133
31127
31132
31129
31118
31132
31135
31126
31134
31127
31125
31124
31119
31117
31121
31116
31127
31119
31119
31127
31119
31125
31119
31132
31127
31127
31121
31129
31130
31127
31124
31118
31126
31124
31119
31119
31121
31115
31124
31118
31119
31120
31119
31121
31119
31126
31118
31119
31122
31124
31119
31117
31117
31123
31117
31117
31117
31116
31119
31125
31119
31117
31119
31116
31127
31116
31116
31118
31116
31116
31113
31118
31111
31119
31117
31119
31115
31111
31112
31116
31119
31117
31124
31111
31116
31124
31112
31113
31111
31119
31119
31119
31119
31114
31119
31121
31119
31111
31111
31119
31118
31117
31111
31119
31116
31117
31108
31111
31126
31113
31111
31117
31117
31122
31114
31102
31111
31111
31108
31115
31111
31116
31111
31111
31111
31118
31119
31111
31117
31118
31119
31119
31122
31122
31125
31122
31124
31132
31140
31137
31134
31133
31140
31144
31148
31158
31169
31168
31156
31166
31169
31167
31180
31176
31177
31180
31186
31175
31175
31165
31169
31165
31156
31158
31151
31151
31145
31149
31140
31140
31142
31136
31127
31138
31132
31127
31139
31135
31130
31125
31125
31130
31124
31121
31125
31127
31125
31119
31118
31121
31119
31129
31133
31134
31132
31126
31127
31125
31119
31118
31124
31114
31127
31123
31124
31123
31125
31125
31117
31098
31126
31127
31135
31131
31124
31120
31125
31100
31118
31118
31117
31113
31124
31123
31125
31117
31127
31125
31116
31119
31111
31116
31117
31114
31115
31115
31111
31111
31111
31117
31111
31110
31114
31111
31119
31111
31111
31108
31111
31108
31108
31108
31119
31111
31110
31111
31111
31111
31111
31111
31119
31110
31110
31111
31111
31106
31119
31111
31111
31111
31111
31111
31117
31111
31113
31110
31113
31117
31111
31110
31112
31111
31111
31111
31111
31111
31119
31110
31092
31111
31092
31118
31111
31114
31111
31113
31117
31117
31115
31111
31111
31106
31108
31113
31111
31109
31111
31110
31109
31110
31111
31090
31123
31119
31113
31111
31125
31108
31112
31115
31108
31107
31119
31119
31110
31110
31105
31103
31108
31113
31111
31116
31111
31111
31112
31114
31115
31111
31122
31119
31121
31119
31119
31125
31135
31118
31127
31119
31125
31123
31119
31124
31121
31132
31127
31119
31131
31126
31122
31127
31119
31119
31127
31124
31119
31131
31127
31124
31130
31123
31126
31123
31126
31124
31127
31126
31126
31133
31127
31127
31135
31125
31124
31127
31109
31127
31126
31137
31140
31137
31135
31111
31119
31127
31129
31127
31115
31116
31132
31130
31124
31127
31129
31127
31132
31127
31129
31133
31127
31130
31129
31133
31124
31132
31124
31117
31126
31125
31123
31125
31119
31115
31121
31118
31113
31111
31114
31122
31125
31116
31114
31111
31117
31105
31113
31118
31111
31124
31116
31111
31111
31111
31116
31111
31110
31109
31108
31111
31107
31109
31110
31105
31106
31103
31101
31107
31096
31106
31102
31092
31103
31102
31099
31097
31099
31097
31091
31093
31094
31095
31100
31099
31087
31087
31094
31093
31097
31093
31095
31095
31092
31085
31082
31091
31084
31089
31088
31086
31093
31081
31084
31079
31078
31078
31076
31076
31081
31087
31083
31087
31087
31087
31085
31084
31077
31087
31082
31063
31077
31084
31076
31081
31087
31082
31061
31081
31075
31087
31077
31078
31077
31077
31074
31075
31081
31079
31076
31077
31079
31079
31079
31076
31076
31079
31069
31066
31078
31079
31075
31071
31073
31066
31072
31079
31072
31078
31076
31074
31074
31071
31070
31079
31074
31064
31068
31068
31079
31069
31074
31071
31077
31070
31066
31078
31076
31073
31077
31079
31079
31079
31075
31075
31068
31071
31063
31063
31069
31066
31062
31070
31067
31068
31074
31062
31065
31062
31060
31065
31063
31070
31067
31063
31068
31074
31065
31064
31063
31069
31068
31068
31063
31065
31060
31068
31068
31063
31070
31071
31068
31069
31055
31056
31068
31060
31065
31063
31068
31055
31060
31060
31057
31068
31065
31063
31070
31055
31071
31060
31065
31065
31057
31066
31063
31066
31055
31062
31059
31059
31053
31061
31067
31066
31063
31070
31067
31068
31062
31069
31071
31068
31063
31061
31062
31063
31058
31061
31065
31062
31063
31055
31063
31051
31054
31065
31054
31063
31060
31044
31062
31055
31057
31055
31063
31061
31060
31054
31055
31052
31057
31052
31052
31054
31057
31057
31060
31061
31063
31058
31060
31062
31053
31062
31060
31054
31033
31052
31055
31047
31052
31061
31052
31052
31044
31048
31050
31046
31048
31044
31047
31053
31049
31053
31047
31051
31050
31053
31058
31054
31055
31050
31057
31050
31051
31054
31046
31052
31057
31052
31047
31047
31055
31047
31060
31047
31052
31058
31053
31036
31050
31053
31048
31052
31053
31048
31045
31051
31052
31049
31049
31046
31055
31053
31057
