EDA
24294
24286
24291
24286
24290
24290
24286
24284
24292
24272
24280
24275
24282
24285
24278
24277
24290
24278
24284
24281
24286
24290
24274
24289
24290
24272
24282
24288
24278
24274
24271
24278
24277
24268
24275
24286
24271
24282
24271
24279
24249
24282
24285
24279
24283
24278
24280
24265
24279
24272
24270
24268
24276
24268
24272
24287
24271
24274
24271
24274
24285
24269
24279
24284
24270
24276
24266
24270
24295
24270
24271
24255
24264
24250
24260
24249
24263
24244
24269
24246
24268
24251
24264
24246
24274
24281
24244
24263
24319
24266
24286
24247
24277
24276
24247
24276
24256
24278
24278
24266
24277
24277
24279
24274
24279
24278
24275
24271
24275
24269
24264
24276
24270
24269
24263
24268
24268
24268
24267
24273
24276
24271
24269
24271
24274
24265
24269
24264
24268
24263
24259
24260
24265
24257
24262
24261
24257
24268
24262
24263
24261
24269
24263
24260
24262
24262
24261
24262
24260
24256
24257
24254
24255
24259
24260
24250
24255
24262
24255
24263
24261
24265
24263
24258
24259
24252
24263
24259
24260
24257
24256
24256
24247
24255
24248
24249
24254
24247
24257
24253
24256
24258
24248
24252
24256
24245
24260
24260
24246
24251
24246
24235
24252
24248
24241
24247
24248
24246
24248
24257
24244
24249
24255
24259
24240
24249
24252
24241
24249
24245
24239
24247
24247
24244
24247
24236
24252
24246
24244
24249
24250
24244
24244
24247
24250
24241
24245
24246
24243
24242
24240
24236
24245
24247
24251
24236
24238
24243
24249
24238
24244
24247
24249
24240
24242
24247
24260
24238
24237
24252
24231
24238
24230
24247
24245
24229
24241
24233
24239
24231
24230
24241
24244
24237
24238
24255
24232
24241
24232
24233
24236
24228
24239
24235
24229
24230
24245
24231
24233
24231
24244
24242
24236
24236
24233
24241
24244
24229
24235
24226
24233
24237
24234
24235
24222
24231
24238
24226
24230
24229
24233
24236
24231
24237
24229
24231
24237
24223
24230
24232
24224
24226
24223
24225
24238
24229
24228
24225
24239
24233
24220
24228
24230
24244
24229
24227
24244
24223
24228
24220
24228
24229
24211
24225
24228
24218
24224
24229
24217
24220
24231
24231
24225
24228
24228
24244
24220
24224
24231
24217
24226
24223
24229
24215
24225
24220
24227
24214
24217
24227
24214
24236
24220
24230
24231
24220
24220
24220
24226
24214
24227
24222
24215
24220
24216
24223
24220
24223
24227
24212
24221
24230
24214
24228
24228
24214
24223
24219
24219
24222
24221
24218
24207
24221
24220
24217
24214
24220
24228
24214
24223
24221
24214
24223
24222
24223
24213
24212
24215
24216
24212
24209
24210
24220
24206
24209
24213
24208
24216
24212
24218
24213
24214
24218
24213
24209
24212
24215
24218
24209
24210
24211
24206
24210
24209
24219
24204
24207
24215
24204
24204
24218
24216
24206
24214
24212
24200
24209
24205
24216
24202
24204
24206
24203
24208
24204
24205
24210
24207
24198
24213
24212
24204
24212
24212
24218
24200
24205
24206
24197
24199
24206
24206
24194
24200
24203
24207
24199
24203
24217
24205
24204
24212
24208
24208
24196
24197
24201
24199
24199
24205
24202
24194
24196
24202
24194
24207
24206
24208
24201
24209
24205
24203
24200
24203
24209
24199
24204
24207
24192
24199
24199
24198
24204
24199
24204
24195
24203
24200
24200
24194
24207
24202
24195
24198
24201
24198
24199
24200
24189
24196
24197
24188
24194
24196
24191
24191
24199
24193
24197
24199
24209
24194
24202
24209
24190
24199
24203
24187
24192
24186
24195
24198
24185
24193
24193
24192
24196
24188
24199
24199
24191
24199
24200
24193
24189
24196
24194
24186
24188
24189
24183
24188
24190
24180
24183
24192
24188
24190
24192
24196
24191
24188
24192
24192
24181
24191
24191
24193
24180
24178
24180
24182
24183
24187
24174
24182
24192
24183
24185
24191
24188
24188
24188
24183
24182
24176
24181
24174
24186
24179
24189
24176
24172
24180
24180
24174
24180
24183
24177
24183
24189
24183
24182
24169
24183
24183
24175
24187
24173
24180
24180
24166
24177
24180
24143
24168
24180
24191
24172
24181
24181
24175
24177
24182
24175
24172
24170
24180
24184
24171
24170
24167
24166
24175
24171
24169
24166
24171
24172
24171
24180
24166
24175
24178
24165
24170
24176
24164
24172
24166
24167
24174
24164
24172
24178
24164
24170
24175
24171
24166
24175
24167
24170
24179
24166
24167
24172
24159
24162
24181
24171
24164
24160
24166
24161
24164
24168
24160
24166
24161
24167
24167
24175
24172
24161
24164
24178
24159
24162
24150
24162
24164
24157
24157
24167
24153
24167
24164
24159
24170
24158
24170
24156
24160
24159
24167
24164
24158
24163
24155
24164
24151
24157
24152
24165
24158
24164
24155
24159
24158
24167
24153
24163
24181
24164
24161
24150
24159
24147
24161
24158
24148
24148
24163
24150
24155
24134
24156
24165
24149
24158
24148
24161
24150
24164
24158
24145
24158
24145
24151
24157
24143
24150
24148
24157
24159
24148
24154
24138
24155
24152
24149
24148
24156
24164
24146
24151
24143
24150
24139
24153
24155
24137
24143
24163
24151
24149
24147
24140
24151
24157
24147
24150
24137
24143
24152
24138
24143
24145
24135
24140
24137
24140
24142
24142
24139
24148
24142
24147
24148
24159
24140
24141
24137
24138
24148
24137
24137
24127
24146
24138
24122
24140
24141
24133
24133
24138
24142
24136
24140
24138
24142
24143
24129
24137
24145
24132
24141
24152
24131
24136
24123
24138
24137
24122
24132
24159
24133
24135
24141
24133
24128
24143
24127
24133
24138
24129
24135
24127
24132
24132
24121
24137
24130
24124
24122
24132
24132
24127
24129
24133
24126
24134
24138
24121
24124
24124
24135
24116
24125
24138
24122
24129
24119
24125
24133
24117
24124
24138
24127
24131
24132
24124
24126
24135
24118
24124
24119
24125
24130
24119
24126
24109
24127
24117
24125
24120
24117
24120
24139
24122
24121
24135
24117
24126
24117
24125
24118
24117
24112
24127
24116
24118
24110
24114
24125
24109
24118
24119
24119
24122
24116
24114
24127
24121
24116
24125
24124
24108
24116
24106
24119
24110
24110
24110
24106
24122
24118
24112
24113
24127
24119
24108
24124
24127
24111
24113
24121
24121
24110
24116
24118
24111
24113
24109
24112
24118
24125
24110
24115
24127
24104
24109
24119
24110
24116
24104
24109
24108
24110
24111
24100
24111
24101
24106
24114
24113
24102
24116
24103
24111
24111
24104
24114
24112
24101
24114
24121
24101
24104
24105
24100
24105
24087
24101
24113
24116
24105
24106
24100
24111
24108
24100
24111
24110
24095
24101
24106
24094
24105
24092
24108
24102
24117
24099
24105
24102
24098
24108
24106
24097
24104
24110
24094
24108
24102
24086
24095
24096
24108
24075
24113
24099
24116
24076
24103
24100
24128
24071
24118
24108
24082
24117
24105
24081
24093
24100
24114
24082
24116
24106
24085
24113
24108
24094
24100
24103
24101
24100
24108
24114
24104
24110
24106
24106
24100
24100
24102
24100
24095
24098
24094
24099
24099
24100
24100
24101
24101
24094
24098
24101
24099
24101
24092
24095
24101
24095
24090
24086
24092
24086
24089
24085
24084
24091
24086
24092
24092
24094
24093
24095
24082
24094
24089
24080
24089
24088
24086
24077
24081
24080
24086
24086
24092
24086
24083
24084
24090
24086
24082
24090
24079
24092
24087
24078
24081
24082
24079
24081
24078
24084
24071
24075
24085
24076
24084
24085
24079
24084
24087
24085
24080
24084
24078
24078
24083
24071
24082
24082
24071
24071
24071
24079
24080
24071
24068
24071
24076
24088
24071
24080
24078
24068
24071
24071
24084
24065
24070
24071
24063
24069
24071
24071
24063
24064
24071
24069
24062
24069
24071
24077
24062
24070
24068
24071
24064
24066
24066
24052
24056
24062
24067
24061
24062
24070
24060
24063
24064
24063
24060
24071
24065
24071
24054
24067
24065
24054
24054
24055
24056
24046
24055
24055
24058
24051
24062
24059
24046
24052
24065
24063
24076
24048
24064
24060
24055
24052
24053
24059
24040
24047
24052
24044
24048
24059
24039
24050
24063
24049
24053
24042
24056
24047
24052
24052
24052
24053
24042
24053
24044
24043
24049
24036
24045
24034
24036
24047
24039
24039
24047
24065
24043
24045
24053
24036
24047
24047
24043
24033
24034
24041
24026
24032
24046
24031
24039
24042
24033
24043
24039
24030
24044
24042
24032
24036
24032
24037
24023
24042
24037
24023
24042
24038
24022
24024
24027
24036
24026
24038
24033
24034
24032
24040
24024
24036
24032
24023
24030
24030
24017
24031
24026
24022
24021
24027
24030
24016
24027
24028
24030
24020
24028
24032
24028
24011
24031
24024
24014
24012
24017
24028
24018
24025
24014
24018
24024
24010
24014
24016
24020
24014
24015
24018
24021
24010
24017
24012
24025
24008
24014
24011
24020
24004
24011
24015
24015
24004
24011
24014
24016
24008
24013
24014
24017
24004
24005
24007
24013
23999
24007
24004
24010
23999
24002
24005
23999
23998
24007
24008
24002
24008
24002
24010
23998
23998
24000
23995
23996
24002
23998
23988
23993
23992
24003
23988
23988
23998
23996
23996
23992
23995
23998
24005
23994
23997
23988
23988
23995
23996
23980
23984
23990
23988
23977
23980
23988
23988
23980
23991
23985
23989
23997
23978
23988
23985
23973
23978
23983
23986
23974
23980
23975
23983
23970
23982
23983
23974
23979
23980
23978
23972
23973
23979
23982
23970
23970
23972
23973
23969
23973
23974
23963
23976
23973
23970
23970
23978
23965
23976
23967
23972
23986
23973
23972
23963
23972
23964
23963
23971
23963
23959
23965
23962
23964
23967
23967
23972
23967
23964
23961
23967
23964
23963
23961
23966
23966
23956
23966
23960
23952
23959
23962
23950
23958
23958
23965
23953
23962
23972
23955
23956
23966
23956
23956
23967
23955
23958
23958
23951
23950
23946
23958
23949
23956
23958
23951
23961
23960
23948
23956
23957
23954
23959
23959
23950
23952
23951
23964
23943
23953
23956
23943
23951
23956
23948
23951
23961
23953
23952
23956
23955
23953
23959
23944
23955
23950
23941
23946
23943
23959
23938
23943
23947
23941
23941
23954
23937
23950
23948
23956
23942
23943
23940
23933
23945
23956
23940
23947
23932
23940
23936
23932
23938
23945
23943
23940
23935
23942
23943
23934
23941
23942
23935
23942
23943
23929
23937
23943
23930
23937
23934
23934
23933
23929
23932
23942
23934
23935
23942
23938
23935
23943
23938
23932
23943
23937
23929
23935
23940
23931
23925
23935
23930
23924
23926
23932
23934
23943
23925
23940
23935
23921
23934
23934
23941
23919
23935
23935
23924
23932
23930
23917
23929
23927
23921
23925
23931
23935
23926
23930
23937
23921
23935
23934
23919
23924
23929
23928
23919
23926
23922
23906
23919
23926
23933
23894
23917
23925
23920
23925
23930
23923
23924
23935
23923
23924
23918
23918
23925
23917
23914
23923
23924
23923
23924
23927
23914
23922
23925
23919
23924
23924
23940
23913
23924
23935
23918
23922
23912
23913
23916
23908
23917
23924
23933
23919
23923
23913
23925
23928
23909
23914
23918
23927
23909
23919
23919
23909
23911
23918
23930
23906
23915
23919
23911
23908
23919
23921
23911
23916
23922
23909
23916
23919
23908
23913
23922
23904
23909
23914
23903
23905
23917
23904
23913
23918
23905
23916
23919
23911
23913
23917
23911
23914
23912
23906
23909
23910
23899
23911
23910
23907
23905
23908
23913
23908
23910
23911
23902
23910
23911
23916
23906
23910
23917
23905
23908
23915
23898
23904
23904
23899
23907
23909
23901
23907
23911
23899
23915
23916
23905
23916
23901
23908
23914
23897
23910
23897
23904
23905
23894
23896
23919
23902
23903
23896
23897
23908
23893
23903
23911
23902
23901
23902
23904
23897
23899
23898
23906
23893
23893
23896
23905
23887
23901
23906
23915
23892
23912
23906
23897
23897
23902
23908
23895
23895
23897
23900
23892
23896
23901
23884
23898
23897
23884
23892
23900
23895
23896
23906
23893
23903
23892
23891
23900
23893
23887
23897
23916
23882
23895
23898
23892
23896
23902
23887
23894
23904
23890
23897
23898
23889
23892
23896
23901
23886
23895
23892
23881
23889
23894
23882
23892
23889
23885
23889
23892
23885
23895
23889
23895
23899
23884
23902
23893
23886
23893
23892
23882
23884
23884
23892
23884
23892
23886
23895
23883
23888
23892
23882
23894
23890
23878
23894
23890
23878
23881
23888
23877
23883
23877
23880
23884
23876
23878
23883
23892
23872
23881
23892
23876
23886
23886
23879
23894
23887
23876
23882
23881
23876
23878
23884
23863
23879
23884
23875
23884
23900
23877
23880
23895
23879
23879
23886
23877
23879
23873
23881
23877
23878
23875
23879
23862
23876
23884
23871
23876
23876
23885
23874
23882
23887
23876
23877
23876
23883
23868
23875
23878
23879
23868
23874
23877
23886
23871
23878
23871
23870
23879
23884
23871
23879
23890
23870
23883
23882
23871
23874
23871
23869
23879
23872
23879
23877
23866
23872
23887
23870
23878
23884
23875
23885
23884
23876
23879
23877
23882
23872
23877
23881
23865
23870
23879
23868
23876
23877
23864
23871
23887
23860
23877
23894
23852
23866
23885
23849
23887
23879
23909
23848
23884
23870
23894
23850
23884
23891
23857
23872
23901
23862
23882
23893
23864
23877
23888
23871
23879
23880
23892
23876
23887
23878
23876
23878
23881
23884
23878
23879
23885
23882
23883
23880
23880
23882
23879
23875
23877
23876
23873
23879
23875
23866
23876
23884
23872
23875
23873
23876
23877
23880
23878
23879
23878
23874
23870
23878
23880
23871
23876
23875
23870
23876
23873
23870
23878
23877
23874
23881
23878
23871
23874
23883
23879
23877
23879
23867
23870
23879
23865
23870
23860
23870
23870
23869
23871
23874
23870
23872
23882
23873
23873
23874
23870
23872
23878
23865
23866
23863
23871
23869
23860
23866
23877
23870
23873
23866
23872
23868
23873
23873
23875
23874
23869
23876
23865
23864
23879
23868
23875
23863
23879
23863
23864
23864
23866
23873
23862
23874
23871
23862
23866
23875
23864
23870
23873
23860
23869
23873
23858
23864
23869
23854
23866
23871
23863
23867
23870
23861
23868
23875
23867
23873
23873
23861
23862
23868
23874
23856
23868
23868
23857
23860
23859
23869
23869
23854
23866
23872
23858
23868
23874
23863
23862
23868
23860
23864
23852
23858
23860
23857
23870
23868
23847
23864
23868
23857
23869
23859
23865
23869
23875
23857
23861
23864
23857
23873
23868
23863
23868
23858
23857
23853
23861
23878
23855
23863
23860
23868
23873
23852
23863
23868
23865
23873
23868
23860
23860
23866
23861
23860
23860
23852
23861
23869
23862
23870
23862
23870
23868
23860
23868
23871
23861
23864
23867
23844
23854
23869
23854
23860
23864
23848
23854
23862
23858
23857
23867
23855
23871
23871
23862
23878
23868
23861
23860
23868
23855
23871
23864
23843
23853
23862
23875
23859
23863
23858
23876
23870
23860
23874
23868
23879
23860
23864
23857
23864
23862
23858
23852
23858
23862
23854
23860
23861
23850
23869
23864
23858
23871
23871
23854
23852
23858
23864
23862
23862
23860
23853
23854
23858
23870
23851
23863
23870
23854
23862
23853
23865
23863
23854
23869
23862
23852
23861
23867
23854
23860
23860
23854
23855
23875
23855
23854
23847
23860
23863
23855
23860
23852
23856
23869
23852
23860
23858
23851
23853
23848
23850
23851
23852
23845
23844
23857
23847
23847
23856
23854
23861
23858
23841
23846
23855
23860
23847
23847
23847
23846
23851
23849
23846
23845
23853
23847
23850
23845
23845
23844
23857
23844
23847
23853
23844
23851
23847
23844
23843
23840
23842
23839
23849
23848
23842
23836
23839
23843
23841
23854
23837
23850
23854
23847
23846
23841
23851
23845
23836
23846
23845
23842
23840
23841
23842
23845
23834
23841
23841
23836
23844
23847
23857
23842
23844
23846
23833
23842
23846
23832
23840
23842
23831
23836
23833
23837
23844
23836
23845
23844
23832
23847
23850
23837
23843
23833
23847
23843
23832
23838
23847
23830
23839
23847
23831
23835
23851
23843
23841
23831
23839
23842
23834
23836
23844
23838
23841
23837
23834
23844
23833
23841
23827
23841
23834
23828
23836
23840
23833
23836
23844
23835
23844
23844
23831
23839
23838
23840
23826
23838
23836
23827
23835
23834
23821
23835
23834
23828
23839
23837
23816
23829
23836
23846
23833
23841
23842
23827
23836
23830
23830
23820
23837
23827
23822
23826
23836
23836
23828
23835
23828
23834
23839
23847
23831
23829
23831
23822
23828
23830
23821
23828
23827
23843
23826
23826
23831
23823
23833
23833
23826
23828
23822
23838
23831
23823
23823
23833
23818
23822
23826
23813
23816
23831
23815
23827
23815
23831
23815
23821
23835
23820
23826
23834
23826
23822
23818
23832
23831
23815
23822
23812
23820
23826
23826
23809
23815
23820
23815
23817
23823
23828
23815
23820
23821
23828
23814
23820
23825
23814
23817
23818
23803
23819
23815
23810
23817
23820
23815
23818
23821
23812
23825
23825
23814
23820
23818
23814
23815
23818
23818
23808
23814
23819
23813
23815
23815
23811
23813
23822
23814
23818
23811
23812
23824
23807
23815
23811
23810
23812
23807
23811
23815
23807
23810
23823
23808
23814
23805
23813
23824
23810
23821
23812
23819
23815
23810
23812
23815
23804
23808
23812
23802
23813
23812
23802
23807
23812
23806
23812
23806
23823
23820
23807
23815
23798
23811
23818
23815
23820
23815
23812
23810
23809
23800
23815
23815
23807
23812
23820
23805
23810
23807
23802
23815
23814
23800
23809
23809
23830
23804
23807
23815
23801
23806
23812
23798
23815
23815
23806
23815
23821
23809
23815
23826
23806
23813
23800
23807
23810
23802
23807
23807
23826
23799
23806
23813
23802
23810
23812
23805
23802
23808
23815
23804
23809
23815
23804
23815
23815
23800
23804
23812
23804
23807
23815
23801
23802
23810
23818
23804
23814
23818
23806
23809
23810
23827
23802
23807
23799
23804
23815
23797
23807
23809
23793
23812
23809
23801
23812
23824
23807
23815
23815
23811
23807
23815
23800
23812
23810
23815
23796
23805
23799
23814
23810
23798
23807
23811
23805
23809
23815
23822
23806
23809
23817
23804
23812
23810
23797
23797
23802
23793
23807
23809
23794
23797
23810
23812
23807
23801
23809
23815
23799
23811
23813
23799
23810
23809
23791
23804
23809
23796
23801
23794
23808
23813
23798
23812
23798
23811
23810
23797
23807
23810
23799
23802
23804
23807
23807
23793
23800
23802
23798
23807
23803
23794
23807
23806
23800
23806
23807
23812
23799
23799
23801
23807
23798
23796
23801
23805
23792
23788
23799
23810
23792
23797
23801
23797
23806
23805
23801
23804
23810
23796
23799
23799
23806
23815
23790
23799
23803
23788
23793
23800
23788
23795
23794
23805
23794
23804
23802
23791
23798
23801
23821
23794
23797
23789
23792
23799
23788
23802
23786
23797
23806
23785
23799
23796
23788
23792
23813
23806
23799
23801
23786
23796
23793
23788
23800
23799
23790
23799
23799
23791
23791
23800
23791
23795
23804
23795
23800
23815
23794
23802
23815
23796
23796
23784
23795
23800
23789
23793
23802
23788
23799
23786
23804
23796
23788
23801
23793
23798
23815
23796
23805
23801
23784
23796
23815
23785
23796
23790
23786
23793
23791
23797
23799
23785
23799
23801
23791
23799
23788
23803
23802
23789
23792
23802
23807
23791
23799
23796
23789
23790
23799
23789
23798
23788
23796
23801
23790
23794
23811
23788
23794
23783
23783
23799
23784
23782
23792
23771
23780
23805
23761
23804
23798
23768
23780
23806
23772
23774
23795
23814
23778
23791
23807
23775
23783
23803
23780
23793
23798
23790
23786
23794
23803
23814
23798
23804
23805
23801
23804
23800
23800
23805
23801
23798
23796
23794
23799
23793
23793
23792
23792
23799
23803
23798
23798
23801
23802
23796
23804
23802
23800
23804
23795
23790
23790
23791
23796
23796
23794
23798
23802
23790
23798
23795
23799
23796
23796
23793
23793
23800
23792
23801
23792
23792
23783
23796
23786
23798
23787
23788
23794
23783
23793
23800
23789
23797
23794
23797
23788
23795
23793
23794
23793
23799
23796
23786
23785
23792
23788
23797
23785
23791
23788
23793
23788
23798
23794
23800
23791
23795
23799
23803
23790
23793
23795
23792
23785
23786
23798
23783
23793
23795
23788
23797
23798
23798
23789
23799
23795
23802
23783
23787
23794
23783
23791
23790
23790
23781
23782
23786
23788
23804
23783
23793
23788
23793
23783
23785
23789
23797
23781
23788
23786
23788
23781
23786
23788
23788
23791
23779
23785
23781
23792
23780
23790
23788
23780
23791
23790
23794
23783
23792
23787
23782
23783
23791
23788
23781
23783
23791
23783
23786
23777
23791
23797
23783
23785
23794
23795
23783
23789
23784
23789
23770
23789
23785
23789
23772
23786
23781
23780
23770
23783
23785
23777
23781
23781
23793
23779
23783
23785
23781
23783
23800
23773
23780
23788
23770
23772
23781
23793
23775
23778
23781
23775
23788
23785
23799
23777
23791
23787
23775
23786
23783
23771
23779
23783
23767
23776
23782
23769
23779
23791
23770
23778
23788
23775
23785
23776
23781
23788
23774
23778
23787
23768
23780
23783
23788
23767
23782
23768
23785
23788
23775
23784
23775
23782
23766
23782
23782
23774
23778
23783
23764
23772
23780
23766
23775
23774
23777
23772
23781
23781
23768
23773
23781
23792
23778
23783
23788
23776
23779
23772
23768
23780
23780
23791
23773
23774
23780
23776
23776
23780
23791
23779
23780
23781
23773
23780
23784
23774
23783
23783
23766
23775
23789
23775
23777
23769
23779
23779
23785
23775
23774
23775
23781
23780
23778
23782
23782
23772
23777
23778
23772
23771
23781
23775
23773
23778
23779
23771
23774
23780
23773
23774
23778
23775
23772
23776
23783
23774
23778
23774
23766
23777
23776
23770
23768
23775
23769
23773
23780
23768
23773
23781
23773
23778
23767
23777
23777
23776
23766
23769
23780
23771
23769
23766
23772
23775
23767
23776
23770
23772
23775
23778
23782
23780
23778
23772
23776
23782
23748
23770
23770
23782
23766
23770
23781
23765
23773
23770
23764
23772
23781
23763
23782
23777
23767
23775
23780
23767
23773
23778
23764
23765
23770
23764
23770
23770
23761
23771
23760
23774
23775
23760
23775
23769
23772
23776
23780
23773
23768
23780
23763
23766
23767
23760
23766
23772
23774
23764
23770
23770
23770
23777
23778
23775
23780
23766
23766
23775
23772
23765
23763
23764
23782
23766
23768
23767
23762
23772
23758
23767
23775
23768
23771
23764
23765
23774
23768
23779
23773
23765
23763
23770
23761
23757
23765
23773
23763
23764
23764
23768
23758
23767
23777
23761
23773
23775
23765
23765
23785
23764
23762
23754
23766
23766
23761
23760
23772
23753
23764
23761
23769
23766
23765
23774
23779
23759
23770
23775
23764
23770
23759
23762
23755
23759
23767
23756
23765
23771
23754
23765
23756
23767
23773
23763
23768
23756
23773
23780
23771
23772
23754
23762
23751
23759
23764
23752
23754
23770
23752
23761
23761
23767
23757
23771
23766
23761
23768
23765
23754
23766
23765
23751
23758
23764
23750
23762
23762
23753
23759
23751
23756
23752
23767
23754
23764
23751
23762
23770
23755
23764
23762
23750
23757
23757
23760
23750
23761
23765
23750
23754
23757
23755
23756
23770
23756
23774
23764
23750
23762
23765
23750
23755
23764
23748
23760
23750
23754
23757
23750
23752
23758
23750
23761
23767
23748
23753
23766
23749
23759
23765
23751
23752
23759
23751
23760
23759
23745
23753
23758
23751
23753
23772
23753
23762
23764
23750
23756
23759
23761
23746
23751
23756
23752
23749
23747
23752
23758
23746
23751
23776
23751
23754
23748
23755
23748
23760
23763
23748
23751
23743
23743
23753
23743
23749
23768
23751
23759
23742
23750
23740
23750
23758
23750
23757
23753
23748
23751
23757
23743
23748
23753
23736
23748
23754
23741
23750
23752
23745
23755
23751
23745
23743
23754
23739
23750
23754
23742
23754
23746
23750
23750
23737
23743
23758
23739
23746
23750
23735
23742
23751
23740
23748
23746
23741
23751
23753
23743
23748
23750
23732
23750
23748
23755
23732
23746
23742
23750
23737
23748
23750
23749
23743
23748
23751
23741
23741
23751
23743
23740
23746
23764
23736
23744
23759
23735
23741
23762
23738
23739
23748
23764
23742
23755
23748
23734
23742
23751
23740
23737
23743
23745
23739
23740
23743
23732
23728
23740
23741
23732
23742
23750
23736
23745
23750
23739
23746
23745
23737
23740
23741
23743
23731
23738
23732
23746
23742
23730
23739
23746
23739
23743
23727
23739
23746
23732
23739
23745
23732
23741
23743
23730
23733
23732
23743
23726
23735
23731
23729
23737
23735
23726
23746
23744
23733
23742
23734
23749
23751
23732
23742
23733
23735
23724
23738
23741
23727
23735
23729
23730
23742
23733
23738
23732
23738
23747
23727
23738
23730
23738
23725
23740
23740
23727
23733
23741
23725
23737
23748
23732
23737
23741
23732
23743
23729
23742
23735
23725
23739
23724
23739
23751
23727
23730
23740
23731
23728
23731
23732
23729
23735
23735
23752
23735
23742
23746
23725
23730
23738
23722
23738
23742
23724
23731
23732
23720
23729
23732
23734
23725
23732
23738
23725
23738
23748
23733
23738
23725
23732
23739
23720
23735
23730
23721
23733
23732
23721
23727
23735
23726
23735
23726
23731
23748
23730
23735
23726
23738
23739
23724
23727
23719
23727
23723
23717
23725
23732
23724
23729
23732
23724
23732
23735
23724
23736
23743
23732
23726
23737
23730
23730
23729
23746
23719
23725
23731
23716
23729
23731
23717
23740
23728
23724
23734
23732
23747
23724
23732
23738
23721
23726
23734
23719
23724
23711
23715
23726
23730
23719
23734
23727
23720
23728
23733
23724
23722
23731
23719
23727
23735
23724
23722
23718
23730
23726
23713
23722
23726
23721
23735
23730
23720
23727
23735
23726
23727
23733
23725
23737
23729
23716
23726
23724
23712
23717
23720
23734
23712
23730
23730
23708
23729
23734
23709
23732
23733
23703
23728
23701
23714
23742
23700
23719
23701
23698
23719
23742
23700
23719
23745
23707
23722
23742
23710
23728
23740
23722
23739
23729
23720
23725
23732
23723
23727
23720
23725
23724
23726
23722
23727
23732
23727
23733
23722
23727
23721
23733
23726
23732
23726
23725
23726
23724
23719
23722
23727
23692
23719
23726
23727
23724
23722
23727
23722
23730
23727
23719
23729
23727
23717
23724
23732
23714
23727
23722
23719
23711
23723
23716
23733
23722
23722
23718
23723
23727
23732
23724
23724
23729
23722
23721
23724
23715
23717
23721
23726
23712
23721
23718
23713
23721
23721
23724
23720
23727
23727
23727
23719
23727
23727
23719
23720
23724
23718
23716
23713
23709
23718
23722
23731
23716
23719
23725
23721
23719
23726
23726
23718
23729
23723
23716
23715
23719
23722
23709
23716
23722
23722
23714
23719
23717
23720
23734
23713
23721
23724
23722
23733
23719
23727
23724
23719
23711
23718
23718
23714
23715
23718
23728
23713
23718
23722
23714
23726
23724
23727
23716
23717
23717
23724
23711
23713
23726
23717
23725
23706
23717
23719
23711
23719
23723
23708
23713
23721
23722
23717
23718
23721
23721
23716
23713
23713
23723
23728
23711
23717
23708
23721
23701
23711
23710
23720
23711
23709
23718
23716
23727
23729
23709
23712
23719
23722
23711
23709
23714
23720
23720
23711
23715
23720
23685
23713
23716
23721
23716
23716
23722
23723
23711
23719
23716
23722
23712
23718
23719
23718
23707
23714
23713
23716
23739
23711
23727
23720
23720
23713
23724
23724
23714
23726
23717
23738
23700
23717
23723
23706
23724
23717
23704
23718
23718
23709
23711
23713
23729
23713
23716
23729
23712
23718
23724
23706
23716
23718
23694
23706
23719
23721
23710
23717
23719
23715
23713
23724
23717
23732
23717
23729
23722
23716
23710
23711
23714
23715
23717
23710
23713
23721
23724
23711
23715
23721
23721
23716
23717
23720
23725
23712
23721
23722
23703
23710
23712
23719
23714
23710
23714
23716
23708
23719
23717
23715
23713
23718
23719
23716
23718
23721
23708
23722
23719
23723
23706
23713
23716
23703
23710
23718
23715
23726
23708
23719
23731
23714
23716
23708
23718
23721
23711
23705
23716
23708
23708
23718
23716
23703
23709
23715
23706
23713
23717
23708
23716
23716
23711
23722
23721
23706
23711
23716
23707
23711
23716
23706
23709
23700
23713
23709
23708
23706
23710
23709
23706
23702
23719
23707
23708
23723
23710
23711
23719
23699
23706
23706
23698
23702
23708
23695
23710
23710
23704
23711
23719
23701
23712
23716
23710
23706
23707
23710
23697
23706
23710
23695
23704
23707
23697
23704
23704
23695
23703
23703
23716
23701
23705
23703
23709
23713
23719
23705
23706
23707
23699
23702
23706
23692
23707
23708
23703
23703
23699
23710
23706
23703
23706
23713
23701
23707
23708
23698
23711
23701
23696
23706
23705
23703
23703
23706
23692
23699
23703
23713
23701
23702
23682
23703
23708
23701
23703
23700
23686
23695
23698
23701
23692
23699
23703
23706
23695
23700
23703
23712
23697
23705
23708
23697
23703
23704
23708
23697
23695
23700
23703
23694
23689
23697
23700
23687
23701
23699
23703
23698
23706
23700
23697
23695
23708
23711
23695
23701
23703
23694
23695
23698
23712
23686
23698
23695
23695
23688
23707
23700
23713
23697
23701
23706
23693
23702
23703
23686
23694
23696
23687
23701
23701
23687
23693
23701
23687
23695
23703
23687
23693
23700
23694
23697
23703
23689
23695
23701
23687
23692
23695
23686
23688
23695
23682
23692
23695
23700
23687
23687
23698
23703
23694
23694
23695
23700
23687
23692
23695
23696
23687
23690
23687
23692
23684
23694
23687
23686
23693
23707
23684
23695
23703
23687
23703
23696
23687
23697
23692
23687
23684
23692
23682
23690
23695
23684
23695
23694
23685
23693
23702
23687
23696
23708
23691
23697
23695
23709
23687
23691
23687
23695
23683
23692
23692
23706
23687
23693
23693
23687
23687
23694
23698
23687
23703
23695
23686
23695
23696
23683
23695
23689
23679
23686
23687
23684
23682
23687
23690
23694
23687
23687
23695
23697
23692
23694
23692
23681
23679
23695
23686
23693
23672
23687
23689
23700
23676
23684
23692
23694
23682
23694
23690
23685
23687
23687
23696
23689
23684
23691
23680
23691
23686
23686
23679
23687
23687
23698
23685
23690
23683
23687
23679
23692
23681
23695
23688
23705
23679
23692
23682
23688
23676
23676
23692
23676
23687
23687
23679
23692
23693
23684
23685
23704
23681
23685
23694
23679
23684
23692
23670
23685
23684
23676
23679
23683
23698
23679
23686
23700
23682
23690
23693
23672
23684
23690
23677
23679
23690
23677
23668
23684
23685
23670
23686
23684
23679
23684
23686
23675
23685
23684
23685
23674
23687
23683
23683
23683
23684
23677
23671
23679
23686
23666
23683
23684
23668
23682
23687
23667
23677
23689
23676
23684
23686
23695
23674
23681
23682
23691
23671
23679
23685
23670
23679
23684
23664
23676
23684
23668
23684
23694
23669
23684
23685
23667
23678
23680
23680
23668
23673
23679
23666
23676
23669
23679
23668
23676
23682
23692
23670
23682
23674
23668
23673
23701
23671
23679
23678
23683
23670
23671
23671
23680
23661
23668
23676
23663
23680
23679
23668
23675
23678
23691
23669
23671
23678
23663
23671
23666
23671
23657
23668
23677
23669
23671
23676
23668
23672
23679
23667
23672
23684
23669
23677
23682
23667
23679
23674
23665
23663
23677
23671
23679
23665
23661
23668
23673
23663
23673
23675
23678
23665
23665
23676
23674
23676
23661
23661
23678
23674
23657
23677
23665
23658
23674
23673
23660
23668
23666
23673
23668
23661
23663
23663
23674
23671
23665
23670
23670
23655
23665
23661
23677
23669
23652
23664
23667
23660
23655
23662
23668
23676
23663
23670
23669
23660
23660
23668
23668
23655
23661
23661
23671
23653
23663
23664
23655
23660
23668
23671
23661
23662
23667
23667
23655
23656
23661
23671
23657
23660
23663
23652
23659
23669
23653
23658
23663
23654
23662
23667
23655
23668
23664
23674
23660
23661
23662
23652
23657
23656
23654
23660
23661
23670
23653
23655
23663
23653
23663
23663
23652
23660
23665
23655
23660
23666
23653
23652
23657
23663
23652
23655
23648
23658
23661
23655
23664
23654
23663
23668
23657
23666
23653
23667
23677
23662
23669
23655
23661
23645
23653
23683
23659
23659
23646
23650
23666
23639
23655
23671
23647
23660
23634
23655
23636
23660
23666
23636
23652
23686
23636
23651
23729
23642
23667
23639
23668
23639
23652
23667
23724
23652
23667
23684
23656
23668
23661
23664
23662
23658
23657
23659
23659
23660
23665
23658
23665
23665
23660
23666
23664
23663
23663
23669
23660
23661
23656
23669
23660
23654
23662
23655
23655
23663
23652
23656
23659
23655
23658
23663
23658
23657
23660
23663
23661
23659
23658
23658
23659
23655
23654
23657
23659
23654
23657
23660
23653
23660
23665
23659
23668
23669
23657
23657
23660
23652
23662
23663
23654
23668
23660
23652
23653
23656
23666
23655
23663
23668
23657
23663
23653
23663
23673
23655
23669
23669
23657
23661
23654
23663
23665
23653
23658
23659
23652
23662
23660
23650
23653
23655
23676
23660
23663
23666
23658
23655
23659
23662
23657
23653
23660
23658
23652
23654
23655
23671
23652
23659
23660
23658
23663
23666
23654
23665
23655
23664
23661
23655
23663
23650
23655
23654
23645
23653
23658
23652
23658
23658
23653
23664
23666
23653
23664
23666
23669
23655
23659
23660
23648
23662
23657
23650
23656
23655
23649
23654
23655
23652
23662
23667
23649
23655
23665
23654
23656
23663
23654
23655
23662
23644
23658
23651
23660
23665
23642
23653
23659
23646
23652
23661
23654
23661
23660
23649
23665
23658
23647
23652
23657
23644
23650
23657
23641
23650
23649
23665
23649
23652
23661
23647
23654
23668
23654
23657
23659
23652
23656
23663
23641
23658
23654
23644
23655
23652
23645
23646
23651
23655
23644
23649
23660
23647
23653
23661
23646
23653
23655
23646
23648
23659
23644
23653
23657
23645
23647
23656
23647
23655
23658
23646
23655
23661
23650
23649
23656
23650
23648
23656
23662
23639
23650
23652
23642
23646
23648
23655
23645
23652
23652
23663
23647
23653
23655
23644
23649
23655
23652
23671
23638
23644
23655
23638
23655
23655
23639
23647
23655
23654
23646
23647
23654
23642
23649
23655
23647
23652
23654
23658
23640
23652
23642
23640
23646
23650
23641
23649
23653
23639
23657
23654
23655
23644
23650
23655
23655
23642
23645
23649
23653
23639
23649
23650
23637
23640
23644
23650
23638
23645
23652
23645
23652
23648
23637
23641
23647
23645
23637
23643
23644
23654
23639
23636
23639
23643
23631
23645
23647
23644
23637
23641
23646
23649
23639
23640
23641
23646
23637
23636
23637
23644
23630
23637
23639
23631
23637
23638
23644
23639
23639
23647
23635
23646
23645
23635
23634
23641
23645
23630
23638
23637
23637
23628
23634
23636
23630
23638
23634
23628
23633
23639
23631
23632
23641
23643
23633
23639
23650
23636
23639
23630
23633
23626
23632
23636
23626
23636
23638
23625
23644
23639
23639
23634
23635
23641
23629
23639
23639
23639
23624
23634
23632
23637
23643
23622
23636
23639
23626
23629
23643
23631
23636
23637
23640
23634
23639
23636
23641
23622
23633
23636
23624
23627
23631
23633
23621
23626
23630
23630
23627
23630
23632
23631
23630
23626
23631
23641
23623
23634
23629
23638
23623
23629
23629
23621
23616
23622
23629
23641
23620
23624
23624
23626
23637
23625
23625
23629
23629
23620
23624
23623
23613
23623
23622
23644
23615
23621
23622
23623
23635
23620
23634
23630
23621
23627
23626
23619
23620
23624
23615
23622
23624
23617
23620
23622
23621
23622
23622
23623
23626
23620
23623
23623
23618
23626
23624
23631
23617
23620
23625
23612
23623
23618
23634
23607
23629
23618
23630
23614
23622
23622
23621
23612
23623
23609
23620
23612
23620
23614
23610
23614
23619
23623
23622
23621
23604
23622
23612
23616
23615
23618
23626
23631
23618
23615
23623
23624
23633
23607
23615
23621
23637
23608
23623
23619
23618
23611
23608
23623
23616
23624
23615
23615
23623
23622
23621
23632
23607
23613
23617
23623
23611
23623
23609
23622
23610
23621
23618
23626
23612
23617
23623
23609
23619
23621
23614
23621
23618
23618
23607
23618
23618
23629
23605
23615
23620
23608
23606
23615
23605
23615
23623
23591
23618
23622
23610
23611
23619
23621
23611
23622
23616
23628
23607
23617
23615
23620
23609
23620
23621
23612
23615
23622
23618
23614
23625
23607
23619
23621
23609
23619
23628
23612
23617
23607
23613
23612
23620
23609
23615
23623
23608
23618
23620
23623
23610
23621
23624
23609
23617
23615
23605
23612
23616
23601
23613
23615
23605
23614
23618
23621
23609
23620
23610
23630
23607
23612
23619
23604
23604
23609
23617
23605
23615
23619
23622
23605
23607
23627
23617
23621
23612
23615
23613
23620
23607
23623
23617
23607
23613
23623
23604
23609
23613
23605
23612
23612
23619
23607
23621
23620
23611
23613
23617
23623
23608
23614
23615
23626
23606
23619
23616
23631
23601
23611
23617
23615
23603
23612
23620
23620
23611
23615
23619
23606
23613
23614
23622
23607
23612
23613
23612
23604
23606
23611
23616
23598
23615
23623
23604
23619
23621
23609
23614
23616
23625
23602
23613
23612
23607
23607
23612
23601
23618
23615
23599
23610
23623
23611
23616
23607
23623
23623
23610
23619
23617
23607
23614
23619
23605
23620
23613
23611
23605
23604
23607
23613
23604
23606
23615
23614
23604
23607
23613
23623
23609
23619
23615
23604
23615
23614
23627
23604
23609
23623
23605
23609
23612
23603
23615
23605
23608
23615
23605
23607
23609
23620
23599
23605
23611
23601
23610
23610
23601
23613
23609
23607
23618
23605
23612
23612
23624
23612
23627
23613
23606
23604
23609
23614
23599
23596
23597
23609
23624
23586
23602
23597
23609
23657
23585
23599
23609
23588
23591
23623
23613
23633
23584
23587
23602
23617
23590
23595
23613
23588
23621
23622
23589
23610
23617
23636
23610
23617
23615
23612
23617
23613
23610
23608
23609
23611
23609
23605
23612
23612
23612
23611
23607
23608
23613
23610
23615
23612
23618
23609
23609
23613
23607
23602
23606
23610
23607
23607
23612
23604
23615
23612
23598
23608
23608
23612
23614
23613
23601
23614
23613
23607
23606
23605
23599
23603
23602
23597
23607
23604
23597
23606
23604
23609
23610
23605
23604
23610
23607
23608
23612
23605
23601
23605
23615
23603
23604
23607
23594
23608
23600
23604
23596
23607
23612
23602
23602
23613
23601
23607
23611
23604
23612
23604
23595
23603
23601
23592
23598
23602
23593
23604
23605
23595
23601
23604
23597
23604
23612
23599
23607
23604
23598
23598
23601
23594
23599
23598
23590
23596
23597
23606
23611
23593
23604
23609
23599
23602
23607
23596
23599
23599
23603
23592
23598
23605
23588
23604
23609
23590
23597
23599
23601
23590
23597
23600
23607
23596
23615
23611
23595
23607
23607
23595
23599
23605
23589
23598
23588
23593
23596
23589
23601
23612
23595
23599
23606
23610
23595
23605
23608
23591
23597
23607
23589
23594
23601
23588
23596
23606
23591
23597
23607
23591
23603
23602
23595
23605
23608
23618
23593
23604
23590
23604
23602
23588
23595
23590
23598
23601
23590
23594
23595
23590
23596
23599
23607
23590
23604
23612
23588
23605
23602
23590
23605
23595
23589
23593
23594
23599
23589
23592
23597
23612
23589
23607
23599
23603
23591
23592
23599
23604
23589
23598
23599
23600
23589
23588
23594
23599
23587
23584
23598
23601
23585
23596
23602
23614
23591
23601
23601
23586
23596
23607
23588
23599
23604
23591
23591
23597
23587
23598
23591
23604
23593
23593
23596
23604
23596
23599
23599
23606
23586
23590
23602
23590
23591
23596
23587
23592
23597
23586
23595
23597
23613
23591
23593
23614
23588
23592
23603
23591
23593
23598
23588
23591
23596
23591
23595
23581
23596
23594
23588
23601
23598
23591
23597
23596
23593
23599
23598
23588
23591
23608
23586
23589
23567
23585
23585
23585
23586
23592
23588
23588
23601
23590
23597
23591
23590
23607
23588
23596
23589
23591
23593
23583
23591
23580
23588
23593
23583
23589
23588
23590
23599
23589
23599
23590
23594
23603
23590
23589
23590
23594
23590
23581
23591
23588
23581
23582
23576
23591
23593
23583
23592
23599
23585
23589
23593
23591
23583
23597
23593
23601
23589
23583
23591
23588
23579
23588
23590
23580
23585
23589
23587
23588
23590
23586
23586
23591
23603
23591
23591
23575
23591
23587
23578
23591
23590
23579
23581
23587
23595
23579
23585
23585
23577
23592
23589
23577
23594
23591
23579
23588
23588
23582
23581
23587
23582
23581
23589
23591
23575
23587
23593
23586
23585
23589
23585
23592
23583
23581
23585
23596
23580
23581
23575
23588
23582
23573
23588
23586
23574
23590
23588
23564
23580
23588
23586
23581
23586
23590
23577
23579
23577
23588
23581
23567
23575
23589
23577
23578
23596
23575
23580
23591
23579
23586
23590
23580
23582
23588
23572
23583
23574
23582
23591
23578
23583
23569
23583
23581
23565
23586
23590
23579
23580
23588
23572
23583
23575
23577
23583
23596
23567
23581
23582
23573
23566
23579
23581
23571
23578
23582
23571
23580
23583
23572
23577
23583
23570
23569
23575
23591
23575
23575
23576
23567
23578
23580
23588
23558
23575
23580
23570
23581
23579
23574
23580
23580
23569
23575
23580
23566
23572
23568
23580
23559
23575
23580
23559
23571
23581
23569
23575
23588
23574
23574
23576
23569
23575
23583
23559
23570
23580
23567
23571
23559
23559
23565
23570
23563
23572
23585
23566
23567
23583
23559
23567
23581
23565
23580
23578
23559
23573
23570
23559
23567
23572
23559
23559
23571
23567
23565
23572
23588
23565
23570
23559
23569
23572
23564
23564
23559
23580
23555
23559
23566
23552
23572
23566
23570
23557
23567
23567
23557
23564
23567
23559
23562
23570
23559
23565
23584
23558
23559
23548
23555
23555
23559
23556
23559
23553
23566
23582
23559
23559
23566
23554
23567
23556
23559
23559
23548
23559
23550
23565
23566
23552
23559
23549
23564
23565
23558
23566
23550
23558
23568
23557
23559
23530
23559
23558
23548
23559
23559
23547
23557
23555
23550
23553
23545
23552
23575
23558
23562
23556
23548
23559
23558
23551
23567
23559
23567
23546
23556
23554
23543
23546
23551
23542
23554
23556
23543
23554
23558
23564
23552
23559
23559
23544
23559
23555
23545
23546
23558
23543
23551
23554
23543
23550
23527
23558
23557
23541
23553
23564
23563
23559
23546
23552
23545
23555
23550
23537
23548
23553
23538
23550
23535
23548
23540
23549
23557
23540
23550
23544
23554
23556
23542
23548
23553
23545
23542
23555
23538
23540
23544
23537
23542
23553
23534
23547
23550
23543
23547
23555
23539
23556
23542
23543
23554
23536
23546
23537
23544
23532
23543
23549
23535
23540
23550
23540
23548
23559
23544
23545
23539
23547
23547
23543
23546
23551
23538
23550
23533
23532
23541
23535
23540
23545
23537
23540
23540
23548
23551
23532
23553
23548
23537
23544
23545
23534
23535
23547
23535
23546
23543
23534
23541
23545
23533
23540
23548
23534
23547
23558
23537
23547
23551
23536
23540
23546
23529
23535
23546
23526
23535
23525
23530
23540
23529
23536
23541
23549
23534
23538
23559
23537
23545
23535
23549
23546
23532
23541
23541
23524
23529
23535
23525
23540
23543
23528
23543
23540
23554
23538
23540
23551
23537
23543
23531
23541
23543
23525
23540
23549
23527
23543
23531
23534
23542
23530
23543
23556
23539
23541
23534
23544
23536
23533
23540
23557
23533
23540
23529
23532
23525
23529
23531
23535
23541
23527
23532
23543
23545
23530
23540
23543
23537
23538
23538
23532
23532
23533
23533
23524
23524
23525
23537
23521
23540
23535
23548
23519
23534
23545
23515
23513
23524
23543
23514
23524
23538
23611
23501
23545
23532
23550
23500
23511
23528
23558
23511
23533
23552
23518
23536
23547
23524
23533
23538
23551
23530
23538
23543
23532
23539
23537
23539
23537
23534
23539
23535
23533
23538
23536
23535
23537
23540
23539
23535
23533
23531
23535
23534
23540
23530
23530
23534
23526
23532
23534
23527
23535
23530
23534
23532
23532
23530
23531
23535
23530
23528
23535
23526
23527
23534
23500
23523
23527
23528
23531
23532
23535
23522
23532
23543
23527
23532
23534
23523
23534
23532
23524
23531
23529
23523
23526
23525
23525
23527
23533
23524
23528
23528
23525
23530
23527
23527
23530
23524
23525
23527
23533
23519
23522
23527
23527
23517
23527
23527
23532
23521
23526
23527
23523
23526
23534
23533
23526
23517
23522
23527
23516
23526
23527
23511
23523
23526
23524
23511
23527
23525
23519
23521
23531
23529
23523
23521
23534
23519
23526
23522
23512
23511
23521
23519
23516
23525
23517
23516
23524
23533
23519
23521
23529
23517
23527
23527
23517
23518
23525
23524
23508
23524
23520
23509
23513
23518
23508
23522
23520
23513
23520
23514
23519
23527
23516
23526
23530
23517
23523
23520
23506
23517
23510
23518
23516
23509
23513
23526
23513
23516
23534
23506
23518
23519
23512
23516
23523
23511
23514
23518
23511
23509
23514
23506
23511
23511
23500
23511
23513
23536
23506
23526
23516
23505
23512
23519
23519
23507
23509
23521
23503
23511
23515
23498
23517
23519
23499
23518
23519
23506
23511
23516
23522
23507
23506
23514
23521
23501
23511
23515
23516
23499
23506
23517
23502
23513
23508
23506
23503
23515
23506
23508
23532
23506
23514
23505
23519
23513
23499
23509
23517
23499
23518
23514
23498
23506
23513
23498
23508
23533
23506
23511
23506
23510
23516
23508
23508
23504
23498
23511
23497
23514
23505
23501
23504
23509
23496
23502
23505
23502
23505
23513
23511
23503
23516
23514
23504
23511
23507
23518
23503
23503
23510
23493
23517
23501
23495
23502
23509
23498
23504
23511
23496
23510
23509
23501
23500
23505
23518
23499
23505
23517
23502
23508
23509
23502
23494
23502
23500
23498
23508
23506
23502
23501
23503
23516
23498
23503
23493
23508
23503
23491
23497
23501
23488
23495
23497
23495
23503
23500
23498
23498
23506
23498
23497
23496
23492
23495
23495
23506
23495
23490
23502
23487
23493
23493
23482
23494
23496
23486
23497
23502
23487
23503
23493
23492
23489
23497
23499
23487
23487
23493
23483
23484
23495
23487
23494
23492
23484
23489
23503
23487
23493
23482
23495
23496
23487
23489
23487
23489
23494
23479
23485
23496
23479
23479
23486
23493
23481
23487
23487
23495
23502
23477
23486
23489
23491
23484
23494
23489
23479
23487
23487
23492
23477
23483
23490
23479
23481
23494
23478
23488
23490
23483
23492
23495
23494
23484
23485
23490
23479
23491
23500
23479
23487
23485
23483
23483
23478
23485
23495
23481
23486
23492
23481
23487
23486
23475
23483
23485
23487
23473
23480
23486
23466
23486
23485
23474
23479
23478
23484
23484
23476
23486
23483
23477
23483
23484
23476
23483
23470
23481
23476
23462
23476
23472
23468
23481
23481
23471
23476
23479
23481
23475
23481
23485
23487
23471
23476
23485
23470
23474
23482
23467
23479
23481
23469
23468
23477
23471
23483
23484
23466
23478
23487
23471
23486
23479
23481
23471
23474
23469
23468
23462
23471
23481
23470
23473
23488
23471
23474
23471
23473
23476
23487
23470
23472
23486
23467
23471
23477
23462
23471
23469
23487
23462
23474
23463
23464
23475
23470
23477
23479
23479
23479
23478
23470
23473
23471
23456
23471
23468
23463
23471
23475
23458
23471
23472
23463
23477
23479
23469
23470
23484
23470
23473
23472
23460
23463
23474
23479
23464
23469
23476
23460
23468
23468
23462
23470
23479
23463
23482
23477
23464
23473
23491
23466
23474
23477
23465
23466
23477
23455
23469
23461
23487
23459
23466
23491
23463
23467
23479
23462
23471
23478
23465
23473
23470
23460
23463
23466
23473
23451
23468
23466
23470
23457
23471
23463
23487
23461
23468
23471
23460
23469
23475
23463
23466
23461
23471
23460
23465
23478
23471
23463
23455
23467
23471
23456
23466
23469
23477
23458
23475
23474
23479
23461
23461
23466
23457
23462
23469
23460
23464
23465
23452
23461
23463
23453
23465
23471
23462
23471
23460
23471
23471
23454
23465
23463
23470
23458
23469
23454
23470
23466
23461
23462
23468
23458
23460
23463
23475
23458
23463
23469
23459
23471
23470
23454
23464
23465
23451
23461
23482
23460
23463
23456
23458
23462
23473
23455
23464
23471
23457
23464
23460
23455
23449
23460
23465
23454
23453
23456
23462
23448
23450
23460
23469
23480
23456
23461
23468
23452
23460
23460
23468
23459
23455
23463
23475
23452
23459
23464
23452
23455
23457
23449
23454
23458
23460
23471
23455
23464
23464
23471
23455
23463
23457
23466
23450
23450
23455
23463
23451
23452
23460
23446
23452
23454
23463
23454
23465
23467
23447
23455
23456
23464
23452
23444
23454
23461
23441
23447
23452
23455
23444
23459
23463
23450
23457
23465
23452
23450
23462
23479
23446
23451
23460
23463
23442
23458
23451
23461
23437
23461
23448
23446
23449
23454
23460
23445
23453
23461
23445
23454
23460
23440
23450
23461
23436
23456
23448
23444
23448
23457
23437
23450
23468
23447
23450
23442
23452
23454
23468
23451
23462
23456
23444
23445
23452
23444
23436
23452
23450
23441
23447
23450
23458
23441
23450
23461
23446
23444
23452
23460
23444
23452
23459
23439
23450
23455
23441
23452
23451
23438
23452
23452
23440
23446
23457
23436
23452
23459
23445
23452
23455
23447
23444
23446
23437
23444
23447
23435
23438
23443
23447
23437
23444
23463
23437
23446
23453
23438
23444
23446
23447
23457
23435
23445
23443
23465
23439
23439
23446
23436
23437
23446
23435
23448
23441
23448
23443
23446
23450
23439
23444
23437
23444
23447
23429
23443
23430
23431
23447
23431
23447
23444
23436
23432
23444
23435
23447
23444
23426
23439
23447
23451
23438
23438
23446
23429
23426
23444
23429
23444
23433
23431
23434
23438
23446
23433
23439
23445
23433
23444
23445
23428
23439
23439
23455
23427
23431
23449
23423
23441
23431
23445
23425
23441
23438
23441
23430
23436
23430
23446
23430
23436
23437
23442
23429
23431
23435
23423
23439
23436
23428
23428
23439
23442
23423
23438
23438
23442
23422
23443
23438
23415
23414
23424
23442
23403
23438
23437
23403
23436
23428
23400
23417
23421
23442
23409
23423
23435
23415
23431
23433
23493
23418
23430
23446
23420
23431
23434
23424
23422
23434
23428
23436
23430
23428
23431
23439
23437
23430
23431
23434
23430
23433
23430
23433
23423
23426
23426
23428
23420
23425
23428
23427
23422
23419
23431
23433
23439
23428
23430
23431
23433
23424
23423
23426
23421
23415
23420
23422
23428
23417
23420
23424
23418
23421
23425
23428
23439
23421
23429
23430
23425
23423
23415
23423
23418
23420
23417
23422
23420
23422
23417
23420
23423
23412
23419
23422
23431
23418
23423
23426
23419
23423
23424
23414
23415
23423
23412
23414
23421
23421
23409
23421
23420
23415
23422
23425
23430
23416
23426
23423
23431
23415
23417
23420
23418
23411
23414
23421
23417
23410
23412
23418
23420
23415
23415
23414
23417
23415
23415
23420
23419
23428
23406
23409
23419
23422
23404
23413
23414
23411
23415
23420
23407
23415
23412
23419
23408
23409
23413
23421
23412
23412
23415
23423
23398
23414
23413
23400
23415
23417
23401
23418
23407
23407
23413
23415
23409
23410
23413
23415
23415
23406
23415
23412
23420
23398
23406
23409
23404
23404
23405
23411
23402
23405
23407
23415
23403
23409
23413
23415
23398
23404
23405
23412
23401
23398
23411
23407
23410
23397
23401
23407
23414
23400
23414
23414
23416
23398
23414
23411
23425
23406
23404
23407
23397
23396
23407
23406
23397
23402
23397
23409
23420
23399
23421
23411
23430
23402
23415
23407
23412
23396
23398
23399
23401
23404
23409
23407
23399
23408
23411
23397
23407
23397
23409
23398
23415
23405
23419
23399
23420
23415
23396
23405
23414
23391
23401
23406
23400
23407
23407
23412
23399
23407
23410
23398
23402
23404
23414
23398
23413
23411
23399
23399
23403
23408
23395
23397
23403
23407
23394
23403
23407
23421
23399
23410
23427
23399
23399
23412
23398
23399
23398
23406
23393
23398
23406
23406
23391
23399
23405
23393
23400
23402
23399
23401
23405
23415
23399
23409
23406
23398
23397
23401
23405
23395
23397
23402
23405
23395
23401
23401
23405
23396
23399
23407
23397
23405
23410
23397
23396
23404
23395
23405
23399
23387
23397
23399
23405
23396
23399
23404
23393
23401
23404
23396
23399
23403
23407
23394
23393
23399
23403
23401
23389
23394
23392
23398
23391
23403
23390
23394
23393
23401
23406
23398
23403
23413
23388
23399
23404
23391
23398
23390
23393
23399
23388
23399
23398
23390
23393
23399
23388
23392
23394
23401
23395
23402
23412
23399
23392
23394
23382
23399
23394
23388
23392
23398
23388
23389
23396
23389
23402
23396
23395
23401
23400
23391
23412
23400
23385
23398
23396
23386
23396
23398
23407
23388
23391
23391
23384
23386
23397
23399
23391
23399
23399
23397
23402
23404
23384
23399
23399
23388
23388
23396
23386
23387
23397
23395
23382
23399
23396
23391
23389
23390
23402
23390
23396
23399
23388
23391
23398
23386
23393
23389
23404
23382
23390
23395
23382
23395
23401
23387
23385
23399
23388
23390
23396
23390
23390
23392
23376
23388
23395
23381
23388
23394
23378
23381
23390
23383
23391
23391
23388
23393
23386
23397
23393
23383
23386
23390
23386
23384
23369
23382
23388
23378
23390
23375
23381
23375
23395
23393
23382
23390
23382
23397
23391
23383
23382
23380
23383
23399
23380
23382
23372
23377
23385
23375
23379
23383
23380
23383
23397
23381
23392
23377
23387
23377
23384
23377
23366
23381
23370
23382
23372
23386
23381
23371
23381
23375
23378
23382
23391
23381
23383
23354
23392
23392
23378
23384
23372
23378
23384
23372
23375
23380
23373
23378
23375
23385
23377
23375
23381
23391
23377
23396
23382
23392
23373
23380
23390
23375
23381
23367
23371
23380
23372
23380
23372
23383
23374
23383
23383
23374
23390
23390
23373
23374
23373
23379
23366
23382
23379
23365
23369
23368
23380
23366
23381
23381
23371
23379
23380
23370
23380
23390
23378
23383
23367
23372
23382
23370
23378
23375
23362
23381
23377
23363
23374
23380
23366
23375
23381
23367
23379
23388
23375
23376
23364
23372
23375
23367
23368
23374
23380
23369
23370
23362
23383
23374
23364
23377
23382
23370
23383
23382
23368
23367
23375
23378
23362
23366
23375
23382
23364
23370
23375
23363
23371
23366
23375
23375
23377
23375
23378
23375
23373
23369
23383
23383
23363
23372
23363
23359
23374
23370
23363
23364
23377
23363
23374
23369
23371
23379
23377
23369
23371
23376
23361
23370
23369
23361
23373
23366
23388
23362
23366
23354
23367
23368
23363
23376
23375
23363
23383
23374
23362
23367
23372
23356
23368
23359
23366
23367
23356
23366
23370
23360
23372
23357
23368
23375
23362
23368
23377
23367
23366
23375
23363
23365
23393
23359
23366
23352
23362
23361
23358
23364
23368
23382
23358
23368
23366
23371
23371
23360
23367
23368
23358
23365
23370
23359
23358
23376
23360
23367
23356
23364
23368
23364
23367
23359
23366
23370
23361
23364
23359
23376
23368
23355
23367
23366
23348
23366
23366
23351
23351
23359
23356
23360
23356
23371
23369
23354
23361
23383
23366
23366
23356
23364
23351
23364
23366
23349
23354
23360
23348
23354
23360
23351
23356
23357
23367
23359
23365
23371
23356
23359
23366
23349
23363
23358
23347
23354
23358
23360
23351
23355
23361
23352
23361
23379
23356
23358
23378
23357
23358
23369
23349
23348
23357
23359
23348
23367
23359
23343
23358
23360
23350
23356
23352
23360
23351
23350
23359
23364
23368
23345
23362
23363
23349
23360
23360
23348
23347
23356
23356
23345
23352
23362
23351
23353
23353
23362
23350
23367
23364
23362
23345
23360
23358
23348
23348
23355
23361
23345
23356
23359
23343
23354
23354
23345
23351
23361
23364
23345
23359
23360
23344
23358
23357
23359
23343
23341
23354
23350
23356
23348
23348
23358
23353
23345
23349
23359
23356
23359
23361
23371
23346
23353
23353
23345
23346
23350
23353
23342
23346
23348
23357
23359
23343
23358
23357
23367
23343
23349
23351
23359
23345
23359
23351
23357
23335
23347
23349
23356
23340
23342
23351
23348
23353
23345
23342
23356
23356
23359
23345
23348
23355
23343
23342
23347
23337
23340
23338
23350
23338
23343
23342
23332
23344
23353
23352
23342
23347
23354
23337
23340
23343
23334
23337
23347
23356
23331
23340
23346
23335
23342
23348
23334
23348
23350
23338
23351
23334
23348
23353
23338
23344
23345
23336
23343
23332
23337
23335
23342
23333
23345
23340
23351
23338
23345
23334
23351
23354
23344
23349
23345
23343
23341
23348
23340
23338
23343
23355
23333
23341
23350
23332
23335
23350
23335
23342
23352
23328
23342
23354
23322
23338
23357
23319
23335
23385
23319
23333
23358
23313
23356
23344
23319
23324
23335
23354
23393
23327
23346
23358
23332
23351
23344
23356
23333
23342
23348
23334
23343
23336
23346
23343
23341
23341
23348
23345
23348
23341
23348
23355
23344
23341
23348
23339
23343
23340
23334
23340
23343
23337
23342
23342
23335
23336
23342
23338
23346
23344
23336
23343
23344
23343
23335
23334
23338
23333
23334
23339
23337
23333
23341
23343
23334
23340
23340
23334
23337
23343
23356
23340
23337
23337
23339
23347
23348
23332
23333
23345
23335
23335
23348
23330
23342
23348
23335
23342
23332
23339
23343
23343
23345
23335
23335
23335
23332
23333
23332
23335
23335
23330
23330
23332
23331
23333
23336
23346
23333
23339
23340
23332
23336
23343
23335
23334
23348
23326
23335
23339
23325
23335
23335
23328
23330
23337
23340
23335
23339
23345
23328
23333
23343
23341
23328
23328
23337
23336
23326
23335
23332
23343
23327
23334
23335
23330
23340
23335
23327
23335
23333
23340
23329
23331
23336
23338
23324
23325
23332
23340
23322
23328
23332
23343
23325
23334
23350
23324
23336
23354
23326
23337
23340
23325
23329
23332
23340
23328
23330
23328
23335
23346
23322
23335
23333
23335
23326
23332
23345
23322
23328
23333
23327
23328
23328
23335
23320
23328
23338
23317
23330
23332
23336
23321
23335
23335
23340
23321
23327
23335
23345
23323
23330
23338
23322
23316
23332
23327
23334
23316
23337
23332
23320
23323
23331
23340
23324
23332
23341
23324
23334
23337
23324
23326
23326
23335
23317
23330
23329
23323
23327
23331
23309
23321
23334
23320
23331
23333
23317
23333
23317
23322
23329
23338
23316
23319
23335
23319
23324
23340
23313
23319
23327
23309
23328
23332
23316
23333
23330
23316
23325
23338
23319
23332
23329
23316
23314
23320
23325
23310
23311
23316
23322
23311
23319
23323
23332
23322
23320
23327
23332
23319
23324
23322
23332
23313
23316
23327
23311
23317
23324
23310
23327
23324
23313
23320
23327
23319
23330
23324
23317
23319
23320
23320
23311
23317
23327
23313
23316
23319
23309
23309
23315
23335
23316
23317
23311
23320
23321
23316
23320
23325
23311
23321
23312
23307
23312
23316
23315
23306
23310
23311
23322
23315
23316
23314
23303
23323
23321
23311
23316
23323
23316
23319
23307
23306
23313
23301
23308
23314
23305
23319
23311
23313
23303
23308
23316
23303
23312
23316
23330
23311
23309
23319
23300
23305
23309
23299
23300
23303
23317
23294
23303
23310
23303
23312
23314
23300
23314
23324
23314
23318
23313
23313
23303
23306
23306
23297
23308
23294
23306
23303
23302
23303
23311
23302
23305
23298
23311
23311
23303
23313
23310
23299
23303
23306
23306
23292
23305
23303
23295
23308
23302
23297
23301
23306
23300
23303
23310
23294
23304
23314
23297
23308
23303
23292
23300
23303
23290
23295
23300
23292
23300
23310
23300
23306
23292
23300
23295
23306
23303
23294
23303
23295
23292
23301
23300
23282
23301
23294
23284
23295
23292
23310
23289
23292
23302
23295
23303
23302
23290
23309
23303
23292
23291
23303
23284
23295
23295
23284
23292
23297
23294
23291
23300
23290
23292
23291
23297
23291
23294
23297
23284
23287
23295
23295
23286
23287
23295
23292
23283
23293
23289
23283
23287
23295
23285
23284
23293
23303
23279
23298
23298
23283
23284
23291
23295
23285
23279
23287
23288
23270
23284
23292
23282
23284
23293
23278
23295
23298
23289
23286
23287
23295
23276
23284
23295
23276
23289
23284
23277
23277
23285
23289
23274
23287
23281
23293
23292
23281
23292
23290
23282
23283
23291
23298
23279
23285
23287
23271
23278
23280
23283
23277
23279
23290
23292
23279
23298
23285
23292
23276
23283
23292
23277
23278
23285
23271
23272
23281
23268
23276
23294
23277
23279
23294
23276
23290
23274
23287
23287
23272
23287
23287
23266
23273
23280
23278
23270
23279
23277
23267
23277
23286
23271
23276
23284
23272
23284
23271
23283
23286
23274
23277
23279
23292
23271
23274
23276
23268
23271
23272
23278
23286
23271
23273
23279
23287
23274
23277
23285
23290
23273
23281
23276
23281
23266
23268
23272
23263
23271
23271
23262
23279
23277
23291
23274
23280
23285
23275
23275
23277
23287
23271
23270
23282
23286
23268
23271
23269
23277
23263
23278
23276
23265
23270
23283
23285
23270
23279
23286
23268
23277
23283
23284
23263
23273
23263
23269
23263
23271
23272
23268
23277
23265
23275
23267
23285
23276
23277
23285
23271
23271
23277
23281
23266
23271
23275
23260
23271
23269
23289
23263
23278
23271
23271
23269
23278
23284
23270
23278
23277
23268
23271
23277
23276
23265
23271
23268
23255
23258
23271
23271
23285
23262
23270
23281
23270
23274
23284
23271
23271
23279
23270
23269
23264
23274
23253
23255
23278
23266
23271
23280
23262
23268
23273
23279
23281
23264
23275
23269
23277
23286
23263
23268
23274
23276
23261
23270
23265
23276
23254
23268
23269
23276
23263
23270
23285
23262
23282
23279
23278
23265
23276
23272
23259
23266
23270
23279
23259
23265
23271
23257
23262
23268
23269
23267
23272
23276
23276
23268
23278
23271
23279
23255
23263
23263
23268
23254
23263
23260
23267
23250
23263
23273
23258
23263
23279
23265
23270
23271
23277
23260
23263
23260
23268
23255
23271
23258
23265
23248
23257
23255
23269
23255
23259
23262
23271
23275
23264
23267
23271
23265
23272
23261
23253
23255
23264
23249
23263
23262
23249
23249
23260
23266
23270
23259
23267
23263
23274
23257
23266
23271
23261
23255
23255
23260
23277
23245
23263
23258
23266
23246
23263
23260
23273
23260
23266
23268
23261
23264
23269
23269
23253
23257
23263
23248
23246
23254
23252
23249
23249
23253
23262
23253
23252
23255
23266
23271
23255
23260
23268
23266
23269
23251
23258
23252
23269
23244
23255
23254
23256
23246
23253
23258
23248
23246
23252
23259
23252
23258
23257
23265
23250
23260
23255
23254
23240
23241
23256
23257
23242
23238
23251
23256
23248
23247
23253
23259
23269
23247
23266
23256
23254
23249
23249
23247
23251
23268
23239
23252
23251
23238
23247
23249
23244
23255
23262
23263
23268
23249
23260
23252
23255
23255
23239
23239
23239
23245
23240
23233
23243
23244
23247
23255
23262
23242
23247
23254
23253
23257
23263
23246
23257
23250
23248
23235
23244
23247
23236
23239
23247
23245
23239
23246
23269
23242
23246
23258
23236
23248
23263
23236
23244
23256
23286
23214
23234
23233
23255
23212
23237
23237
23262
23218
23261
23258
23223
23230
23268
23252
23276
23231
23249
23265
23230
23238
23246
23259
23241
23247
23254
23246
23247
23246
23250
23240
23255
23251
23253
23255
23252
23253
23245
23243
23249
23243
23247
23238
23238
23239
23235
23246
23238
23248
23247
23246
23246
23245
23247
23251
23250
23244
23241
23245
23240
23237
23237
23247
23236
23239
23241
23237
23232
23239
23239
23238
23239
23245
23245
23238
23245
23247
23235
23238
23237
23231
23243
23236
23247
23231
23240
23242
23234
23236
23239
23247
23240
23245
23249
23243
23244
23249
23237
23242
23238
23235
23238
23236
23241
23231
23235
23242
23231
23239
23239
23232
23239
23241
23246
23241
23248
23240
23234
23231
23238
23226
23236
23236
23228
23231
23234
23245
23231
23239
23237
23238
23236
23240
23247
23263
23239
23245
23238
23247
23228
23236
23236
23228
23233
23235
23226
23229
23229
23239
23231
23236
23239
23246
23234
23247
23241
23249
23236
23239
23230
23231
23239
23223
23224
23241
23223
23230
23250
23229
23237
23260
23233
23239
23247
23241
23248
23233
23234
23242
23226
23225
23237
23231
23236
23220
23223
23228
23238
23227
23236
23236
23242
23229
23238
23235
23244
23223
23238
23232
23239
23219
23227
23237
23220
23228
23231
23237
23220
23231
23234
23223
23238
23234
23226
23231
23234
23239
23226
23237
23232
23214
23220
23223
23231
23219
23220
23228
23243
23224
23229
23241
23221
23239
23238
23250
23227
23223
23231
23221
23214
23216
23224
23214
23220
23220
23214
23220
23225
23245
23217
23224
23237
23220
23231
23236
23222
23230
23231
23214
23222
23224
23226
23213
23228
23217
23225
23211
23217
23223
23228
23243
23220
23223
23232
23214
23226
23231
23215
23223
23223
23209
23215
23221
23206
23219
23228
23213
23218
23223
23230
23217
23225
23233
23219
23227
23228
23232
23213
23215
23218
23223
23211
23220
23218
23207
23205
23212
23223
23210
23226
23226
23212
23220
23231
23214
23226
23223
23212
23212
23217
23223
23207
23215
23213
23223
23204
23215
23217
23209
23205
23223
23211
23212
23222
23212
23220
23207
23205
23207
23215
23203
23205
23207
23205
23199
23197
23211
23206
23210
23205
23208
23213
23215
23206
23211
23220
23213
23209
23207
23210
23203
23219
23195
23195
23202
23199
23202
23201
23207
23200
23205
23225
23205
23205
23206
23200
23206
23209
23196
23204
23199
23210
23191
23197
23200
23212
23197
23192
23199
23205
23214
23194
23206
23204
23215
23196
23202
23207
23190
23199
23199
23201
23188
23186
23201
23196
23182
23190
23197
23200
23196
23197
23200
23207
23192
23199
23201
23194
23196
23193
23184
23185
23197
23197
23188
23199
23196
23189
23190
23184
23192
23201
23197
23199
23201
23198
23189
23196
23188
23183
23201
23189
23191
23181
23185
23188
23192
23180
23198
23194
23187
23193
23196
23207
23191
23192
23197
23191
23183
23188
23191
23178
23189
23185
23199
23185
23185
23191
23182
23181
23198
23196
23188
23192
23196
23189
23189
23194
23182
23185
23189
23182
23182
23182
23189
23176
23185
23186
23191
23181
23196
23191
23196
23186
23182
23191
23197
23194
23176
23187
23185
23173
23172
23182
23186
23194
23170
23182
23188
23204
23182
23189
23193
23183
23184
23196
23177
23193
23190
23173
23175
23180
23188
23170
23175
23178
23199
23175
23183
23195
23174
23185
23190
23183
23190
23188
23178
23180
23181
23183
23166
23181
23180
23180
23172
23168
23175
23180
23191
23172
23175
23188
23186
23190
23204
23177
23181
23187
23185
23190
23175
23171
23166
23176
23167
23171
23172
23179
23187
23168
23175
23180
23184
23190
23175
23177
23182
23183
23167
23186
23173
23183
23168
23180
23175
23182
23164
23180
23181
23180
23168
23182
23188
23175
23190
23185
23174
23175
23180
23169
23175
23180
23164
23172
23170
23166
23169
23175
23151
23171
23182
23180
23170
23178
23189
23171
23173
23174
23175
23161
23167
23173
23188
23160
23165
23172
23164
23171
23165
23177
23164
23182
23181
23168
23170
23177
23174
23161
23175
23172
23140
23164
23164
23170
23159
23169
23171
23156
23171
23166
23172
23163
23169
23167
23194
23165
23167
23156
23174
23168
23153
23168
23167
23149
23156
23169
23155
23156
23172
23158
23175
23169
23159
23163
23180
23171
23173
23155
23165
23151
23150
23157
23148
23153
23162
23151
23156
23167
23151
23159
23161
23172
23158
23175
23174
23153
23161
23168
23151
23150
23158
23162
23146
23167
23164
23148
23167
23161
23149
23167
23164
23152
23164
23167
23153
23161
23171
23147
23159
23153
23148
23151
23153
23148
23153
23159
23140
23155
23154
23151
23158
23166
23156
23169
23166
23166
23150
23150
23153
23159
23144
23149
23156
23143
23139
23155
23159
23143
23155
23165
23149
23159
23159
23145
23161
23159
23148
23143
23151
23154
23145
23144
23151
23151
23138
23145
23164
23143
23151
23159
23147
23151
23148
23145
23166
23164
23155
23142
23148
23142
23155
23143
23167
23143
23138
23154
23149
23166
23140
23146
23156
23156
23144
23161
23153
23162
23140
23149
23156
23142
23146
23144
23149
23131
23142
23143
23158
23135
23143
23150
23141
23148
23157
23142
23145
23151
23134
23134
23141
23150
23138
23141
23141
23146
23133
23135
23149
23135
23143
23147
23141
23146
23156
23137
23143
23153
23143
23140
23141
23142
23139
23135
23132
23141
23129
23142
23143
23125
23147
23145
23135
23142
23148
23150
23137
23140
23148
23135
23142
23142
23127
23134
23139
23125
23141
23143
23129
23136
23143
23128
23146
23145
23134
23144
23136
23141
23130
23143
23126
23136
23141
23141
23122
23132
23141
23129
23133
23132
23140
23142
23132
23141
23146
23137
23134
23142
23143
23125
23127
23130
23135
23143
23118
23127
23135
23122
23122
23136
23132
23145
23126
23140
23143
23133
23129
23136
23138
23121
23132
23139
23124
23125
23135
23119
23128
23127
23132
23119
23124
23128
23143
23126
23140
23137
23127
23142
23136
23121
23127
23135
23121
23124
23132
23114
23127
23134
23114
23124
23129
23124
23127
23132
23148
23124
23134
23137
23121
23122
23134
23117
23113
23124
23125
23108
23116
23123
23116
23120
23124
23140
23118
23124
23132
23121
23127
23128
23148
23119
23121
23124
23111
23115
23119
23129
23110
23115
23124
23124
23111
23120
23124
23117
23119
23121
23131
23116
23118
23127
23125
23124
23107
23117
23123
23108
23117
23112
23137
23114
23126
23121
23126
23113
23125
23126
23117
23113
23121
23122
23108
23122
23119
23108
23113
23116
23126
23111
23121
23120
23116
23123
23127
23112
23119
23130
23119
23127
23125
23116
23120
23110
23122
23102
23122
23110
23119
23100
23105
23108
23125
23092
23098
23110
23116
23139
23096
23126
23124
23184
23092
23103
23128
23085
23104
23127
23089
23128
23129
23095
23114
23142
23110
23122
23109
23127
23133
23113
23127
23124
23110
23112
23117
23109
23112
23113
23100
23113
23112
23111
23115
23109
23110
23118
23125
23111
23117
23121
23112
23118
23116
23104
23111
23109
23100
23108
23110
23112
23104
23108
23111
23108
23111
23114
23120
23109
23113
23116
23115
23108
23108
23110
23107
23098
23110
23105
23095
23103
23112
23117
23109
23116
23113
23104
23115
23114
23108
23109
23111
23108
23106
23106
23100
23101
23103
23109
23100
23102
23116
23104
23108
23095
23103
23108
23110
23103
23111
23113
23110
23105
23098
23104
23112
23094
23098
23102
23098
23108
23096
23104
23106
23100
23106
23106
23118
23104
23108
23112
23098
23098
23106
23104
23114
23097
23098
23110
23092
23097
23100
23093
23097
23103
23103
23094
23102
23111
23097
23111
23115
23098
23103
23101
23094
23099
23102
23092
23095
23102
23086
23109
23107
23093
23098
23110
23102
23108
23110
23102
23101
23107
23094
23095
23100
23086
23100
23096
23091
23095
23102
23089
23102
23093
23100
23108
23099
23111
23106
23095
23099
23103
23104
23090
23098
23096
23084
23088
23102
23084
23095
23089
23101
23103
23092
23101
23102
23121
23094
23104
23088
23103
23087
23103
23097
23085
23090
23092
23085
23087
23092
23097
23082
23088
23099
23105
23094
23100
23106
23091
23091
23092
23098
23104
23076
23090
23090
23101
23079
23092
23090
23092
23080
23094
23095
23099
23084
23092
23094
23103
23084
23094
23092
23081
23091
23096
23077
23081
23090
23079
23087
23095
23084
23090
23115
23087
23093
23102
23087
23096
23087
23084
23094
23082
23093
23091
23072
23089
23094
23076
23087
23076
23092
23078
23090
23102
23087
23087
23094
23103
23079
23094
23090
23078
23084
23085
23087
23070
23090
23091
23073
23079
23084
23093
23079
23089
23092
23065
23086
23089
23082
23075
23086
23084
23075
23086
23089
23075
23075
23075
23084
23075
23090
23091
23077
23085
23096
23087
23102
23085
23090
23090
23076
23079
23078
23089
23072
23075
23077
23080
23071
23080
23078
23079
23076
23087
23081
23078
23085
23089
23077
23077
23087
23074
23078
23086
23069
23073
23077
23063
23079
23074
23075
23081
23078
23079
23074
23079
23092
23078
23078
23075
23090
23069
23070
23079
23063
23067
23071
23073
23063
23065
23063
23069
23083
23068
23075
23078
23078
23072
23074
23076
23079
23065
23068
23079
23057
23070
23070
23076
23067
23068
23074
23068
23079
23078
23078
23071
23079
23077
23066
23067
23076
23072
23074
23058
23064
23071
23054
23058
23070
23075
23061
23071
23085
23066
23074
23076
23070
23071
23079
23062
23076
23070
23053
23057
23065
23062
23055
23060
23062
23060
23071
23078
23059
23072
23076
23073
23065
23072
23074
23061
23069
23068
23056
23055
23060
23066
23049
23063
23068
23061
23067
23068
23060
23060
23070
23079
23060
23071
23064
23076
23060
23061
23063
23069
23050
23060
23068
23055
23060
23068
23054
23062
23071
23062
23069
23060
23063
23066
23061
23071
23047
23068
23055
23065
23047
23057
23060
23046
23064
23065
23052
23060
23063
23079
23062
23068
23072
23064
23060
23069
23046
23056
23058
23060
23045
23047
23060
23046
23068
23060
23081
23047
23065
23066
23055
23055
23058
23070
23047
23060
23055
23046
23053
23047
23055
23041
23047
23060
23044
23050
23064
23047
23061
23051
23056
23070
23047
23052
23062
23047
23047
23057
23039
23051
23050
23035
23047
23061
23044
23047
23060
23047
23055
23063
23047
23057
23055
23055
23060
23060
23044
23056
23047
23039
23047
23054
23037
23047
23058
23044
23055
23047
23063
23047
23055
23076
23060
23060
23044
23050
23065
23045
23054
23038
23053
23050
23041
23045
23038
23042
23055
23042
23060
23055
23044
23054
23062
23045
23060
23060
23041
23054
23047
23039
23045
23051
23036
23046
23039
23044
23047
23039
23053
23055
23047
23047
23060
23047
23057
23039
23047
23047
23036
23047
23037
23044
23052
23037
23047
23040
23046
23034
23060
23058
23046
23051
23047
23062
23063
23044
23053
23037
23047
23033
23041
23043
23036
23045
23032
23039
23052
23036
23054
23042
23064
23054
23045
23047
23059
23039
23047
23063
23038
23044
23046
23029
23041
23044
23036
23046
23047
23037
23038
23047
23054
23038
23047
23046
23047
23038
23047
23047
23030
23039
23047
23029
23043
23044
23038
23046
23047
23038
23046
23047
23039
23042
23044
23051
23043
23046
23030
23037
23045
23030
23039
23044
23028
23042
23039
23028
23034
23040
23038
23043
23047
23041
23039
23047
23039
23042
23047
23024
23044
23042
23026
23039
23036
23028
23031
23039
23040
23034
23041
23046
23036
23046
23031
23055
23047
23037
23043
23030
23031
23047
23031
23037
23029
23034
23028
23036
23056
23033
23047
23034
23055
23047
23031
23046
23035
23046
23041
23025
23035
23023
23032
23038
23019
23035
23024
23033
23034
23027
23045
23047
23034
23037
23037
23045
23042
23055
23036
23025
23035
23022
23043
23035
23031
23039
23027
23032
23047
23037
23042
23032
23037
23047
23036
23042
23040
23026
23032
23023
23035
23035
23021
23032
23031
23023
23026
23039
23020
23035
23041
23042
23028
23044
23039
23031
23025
23030
23037
23017
23022
23028
23033
23018
23035
23023
23016
23015
23031
23049
23025
23034
23044
23023
23029
23037
23038
23028
23031
23028
23032
23023
23015
23021
23029
23018
23028
23029
23015
23026
23032
23023
23040
23035
23023
23031
23037
23023
23027
23015
23024
23034
23018
23022
23015
23025
23030
23013
23034
23031
23022
23028
23047
23035
23033
23023
23031
23015
23028
23015
23014
23028
23021
23025
23014
23020
23012
23031
23015
23027
23015
23023
23050
23023
23028
23017
23025
23028
23015
23020
23015
23025
23027
23009
23016
23038
23016
23023
23013
23021
23031
23015
23023
23017
23023
23028
23013
23022
23015
23016
23012
23028
23021
23008
23023
23019
23007
23015
23027
23007
23025
23016
23013
23024
23014
23027
23023
23014
23017
23028
23012
23015
23007
23010
23015
23007
23015
23021
23033
23014
23020
23010
23020
23034
23013
23019
23010
23022
23035
23029
23005
23032
23025
23010
23032
23017
23012
23011
23004
23039
23023
23020
23012
23010
23027
23018
23022
23010
23036
23012
23011
23018
23007
22999
23012
23014
23012
23004
23001
23011
23011
23018
23011
23025
23028
23012
23018
23003
23020
23018
23004
23012
23007
23014
23016
23004
23010
23004
23014
23022
23011
23015
23023
23015
23021
23036
23013
23012
22999
23005
23015
23004
23012
23005
23002
23002
23013
23002
23015
23015
23014
23010
23015
23021
23012
23012
23025
23004
23012
23014
23000
23015
23012
23002
23007
23016
23009
23014
23006
23013
23025
23021
23021
23013
23012
23022
23005
23019
23016
22994
23007
23015
22988
23004
22988
23013
23014
22982
23020
23026
22996
23017
22993
23003
23009
23039
22990
23009
23028
22988
23013
22991
23021
23025
22993
23006
23047
23002
23015
23006
23014
23020
23015
23021
23021
23013
23021
23018
23012
23012
23013
23003
23007
23006
23014
23009
23010
23011
23009
23012
23013
23018
23015
23007
23018
23018
23006
23006
23009
23014
23005
23001
22999
22999
23008
23012
23007
23010
23007
23011
23014
23012
23015
23012
23006
23017
23004
23008
23013
23004
23007
22997
23001
23002
22994
23004
23010
22998
23008
23013
23001
23012
23017
23008
23017
23010
23008
23004
23005
23009
22999
23002
23004
22990
23001
22993
23004
23013
22999
23010
23012
23004
23010
23014
23013
23000
23010
23009
22998
22997
23005
22991
22997
23000
22996
22996
23000
22993
22999
22999
23015
23012
23000
23006
23009
22998
23007
23012
22994
23004
23013
22992
22998
22988
23002
22999
22991
23005
23004
22999
23009
23010
23025
22998
23005
23013
22994
23003
23006
22992
22997
22999
22989
22992
22996
22987
22997
22991
22993
22994
23004
22993
23005
23010
23009
23006
22997
22998
23003
22990
22995
23002
22984
22990
22997
22984
22996
23004
22991
23001
23007
23001
23005
22997
22999
22991
22996
23006
22989
22996
22988
22995
22999
22986
22993
22984
22999
23002
22989
22999
22993
23007
23008
22994
23004
23002
22988
22997
22996
22985
22994
22988
22982
22997
22994
22981
22988
22998
22987
23000
23002
22990
22998
23007
22990
22999
23009
22983
22999
23012
22991
22992
22980
22988
22996
22987
22996
22985
23005
23001
22988
23001
23007
22991
22998
23014
22991
22990
23013
22982
22994
23006
22978
22985
22996
22987
22998
22999
22983
22999
23007
22987
23000
23003
23012
22988
22996
23001
22982
22996
22996
22982
22988
22989
23002
22983
22999
22994
23002
22988
22989
22999
23004
22994
23009
23011
22990
22995
22992
23001
22983
22999
22998
22979
22998
22998
22986
22991
22991
23006
22991
22999
23007
22997
23006
23007
23018
22988
22989
22998
22986
22995
22988
22996
22986
22983
22995
22999
22989
22994
23004
22991
23001
23004
22991
22998
22999
23013
22987
23000
22997
22981
22986
22991
22991
23004
22987
22989
23003
22988
22986
22998
23003
23006
22991
22993
22992
22996
22985
22989
22993
22996
22987
22991
22993
22987
22996
22994
22986
22993
22994
22984
22993
22998
23012
22988
22990
22982
22994
22991
22982
22982
22990
22982
22983
22988
22983
22991
22997
22980
22996
22996
22997
22990
22991
22994
22999
22984
22996
22993
22983
22985
22985
22990
22977
22983
22992
22980
22994
22994
22983
22993
22999
22990
22989
22993
22981
22985
22989
22988
22989
22980
22983
22988
22980
22982
22986
22984
22989
22998
22991
22992
22987
22993
22992
22986
22993
22999
22982
22988
22987
22980
22977
22986
22997
22980
22981
22993
22976
22991
22997
22983
22993
22999
22999
22981
22991
22994
22981
22977
22985
22975
22980
22985
22977
22990
22991
22981
22986
22991
22982
22986
22996
23004
22986
22995
22993
22981
23001
22991
22981
22986
22988
22973
22981
22984
22990
22976
22995
22990
23012
22980
22991
22988
22987
23003
23007
22980
22985
22989
22976
22980
22987
22988
22978
22983
22985
22973
22986
22984
23010
22983
22988
22999
22988
22990
22996
22977
22988
22993
22972
22989
22983
22991
22976
22978
22980
22980
22983
22979
22990
22988
23001
22986
22990
22981
22999
22990
22977
22981
22983
22975
22973
22979
22988
22961
22970
22983
22980
22993
22980
22990
22993
22980
22982
22992
22981
22982
22983
22979
22981
22982
22971
22980
22982
22973
22982
22972
22980
22985
23007
22977
22991
22980
22991
22992
22980
22991
22973
22978
22983
22973
22982
22973
22979
22988
22975
22986
22987
22974
22986
22975
22986
22988
22979
22989
22984
22976
22977
22975
22991
22967
22977
22983
22972
22974
22986
22976
22986
22988
22975
22984
22995
22982
22982
22990
23000
22972
22983
22998
22972
22980
22999
22973
22977
22988
22972
22982
22987
22978
22983
22993
22980
22987
22988
22980
22983
22983
22972
22979
22967
22978
22979
22973
22973
22985
22968
22981
22984
22975
22983
22988
22979
22993
22993
22975
22990
22990
22967
22980
22981
22972
22983
22983
22967
22978
22970
22977
22980
22975
22988
22990
22977
22984
22993
22981
22985
22975
22980
22970
22974
22990
22983
22979
22965
22983
22967
22975
22983
22970
22982
23005
22978
22982
22992
22979
22988
22986
22967
22983
22980
22967
22974
22977
22964
22980
22980
22972
22981
22977
22970
22981
22991
22979
22986
22973
22980
22973
22977
22982
22973
22980
22969
22976
22972
22976
22966
22985
22987
22975
22983
23005
22975
22986
22970
22981
22982
22972
22969
22975
22985
22964
22973
22980
22969
22972
22987
22973
22976
22983
22975
22991
22992
22972
22993
22984
22979
22983
22970
22980
22967
22974
22964
22970
22982
22970
22980
22966
22990
22984
22970
22988
22978
22986
22949
22991
22991
22974
22980
22966
22980
22969
22981
22981
22961
22972
22964
22981
22983
22974
22983
22988
22976
22983
22974
22991
22974
22982
22968
22986
22978
22966
22979
22964
22971
22978
22965
22975
22970
22990
22985
22969
22983
22978
22976
22985
22974
22972
22980
22964
22982
22976
22965
22972
22983
22970
22973
22967
22972
22983
22978
22990
22988
22974
22981
22997
22980
22985
22965
22978
22985
22973
22976
22960
22974
22986
22972
22981
22968
22983
22971
22977
23001
22983
22981
22977
22988
22981
22973
22978
22985
22965
22973
22979
22964
22975
22978
22970
22978
22983
22972
22982
22988
22979
22983
22987
22975
22974
22979
22983
22965
22975
22985
22958
22975
22980
22971
22980
22983
22986
22973
22993
22992
22982
22976
22983
22983
22975
22981
22977
22960
22978
22973
22962
22973
22977
22966
22978
22983
23006
22972
22983
22988
22974
22983
22983
22968
22981
22981
22972
22978
22977
22965
22972
22976
22967
22975
22983
22991
22975
22982
22970
22978
22980
22974
22978
22983
22971
22972
22979
22964
22972
22978
22961
22981
22979
22962
22976
22979
22977
22982
22986
22975
22984
22982
22988
22967
22973
22975
22975
22964
22969
22974
22978
22959
22980
22978
22959
22968
22981
22985
22970
22983
22982
22973
22973
22975
22986
22965
22967
22972
22977
22952
22978
22976
22959
22967
22973
22965
22972
22986
22969
22987
22981
22972
22973
22976
22977
22981
22962
22959
22966
22972
22962
22962
22969
22978
22967
22964
22980
22964
22976
22983
22983
22967
22968
22975
22973
22987
22965
22968
22991
22965
22970
22983
22963
22969
22977
22967
22974
22980
22970
22980
22985
22973
22980
22975
22996
22967
22968
22974
22962
22973
22953
22963
22975
22954
22974
22975
22951
22982
22986
22951
22975
22984
22950
22976
23009
22951
22962
23024
22951
22970
23004
22954
22973
23015
22959
22977
23008
22973
22983
22972
22977
22988
22977
22984
22984
22980
22970
22975
22982
22965
22977
22978
22969
22980
22981
22975
22977
22988
22975
22982
22988
22980
22980
22976
22975
22972
22979
22967
22970
22972
22961
22975
22972
22966
22966
22978
22964
22981
22981
22975
22978
22972
22982
22972
22975
22978
22974
22960
22971
22968
22963
22960
22967
22975
22982
22965
22972
22978
22970
22983
22975
22982
22966
22972
22972
22957
22965
22969
22983
22962
22964
22954
22968
22973
22960
22970
22983
22966
22976
22967
22982
22981
22964
22973
22978
22963
22968
22959
22964
22964
22959
22970
22971
22958
22967
22969
22964
22980
22971
22978
22983
22967
22971
22974
22967
22967
22971
22952
22962
22968
22956
22965
22956
22959
22961
22977
22963
22964
22977
22966
22973
22965
22967
22974
22959
22964
22972
22948
22957
22962
22967
22956
22972
22969
22957
22967
22977
22964
22964
22973
22964
22973
22975
22958
22960
22973
22951
22961
22970
22954
22959
22972
22956
22964
22962
22969
22975
22959
22967
22980
22963
22970
22974
22960
22964
22956
22962
22967
22956
22958
22975
22965
22968
22957
22966
22956
22970
22958
22968
22975
22970
22965
22973
22959
22970
22967
22952
22951
22964
22964
22950
22965
22958
22966
22958
22964
22967
22976
22966
22964
22969
22974
22964
22958
22967
22970
22952
22970
22967
22965
22950
22956
22960
22972
22951
22967
22966
22961
22968
22975
22959
22972
22970
22952
22964
22979
22952
22962
22969
22950
22955
22962
22964
22950
22965
22970
22959
22959
22968
22976
22963
22961
22967
22968
22951
22973
22967
22983
22950
22966
22959
22953
22953
22966
22973
22952
22975
22975
22960
22966
22974
22963
22966
22961
22969
22957
22963
22968
22949
22959
22966
22951
22962
22964
22985
22958
22969
22974
22959
22972
22973
22959
22967
22969
22977
22959
22963
22967
22955
22958
22963
22964
22950
22964
22967
22959
22967
22972
22964
22971
22982
22964
22971
22975
22960
22965
22931
22954
22964
22970
22958
22964
22969
22955
22969
22966
22957
22970
22965
22973
22965
22970
22974
22961
22965
22964
22958
22963
22969
22950
22961
22962
22952
22963
22963
22956
22967
22970
22967
22975
22979
22959
22976
22967
22952
22956
22959
22966
22951
22956
22964
22962
22966
22949
22967
22960
22954
22965
22970
22963
22977
22965
22965
22965
22959
22959
22960
22964
22957
22957
22951
22957
22967
22962
22962
22962
22966
22959
22966
22971
22964
22967
22972
22959
22961
22971
22957
22956
22964
22956
22955
22962
22966
22954
22951
22967
22969
22958
22969
22972
22935
22965
22972
22971
22959
22964
22964
22955
22961
22961
22954
22950
22959
22962
22971
22954
22963
22968
22972
22965
22961
22971
22972
22980
22958
22964
22951
22956
22966
22957
22958
22957
22967
22958
22961
22959
22972
22959
22970
22984
22960
22972
22982
22960
22964
22969
22958
22961
22946
22953
22961
22964
22957
22961
22970
22954
22959
22966
22975
22967
22972
22979
22964
22964
22966
22956
22956
22965
22956
22955
22955
22975
22959
22965
22969
22959
22964
22973
22966
22973
22979
22964
22966
22991
22958
22964
22969
22954
22959
22957
22965
22948
22972
22967
22977
22959
22964
22972
22956
22963
22971
22964
22967
22967
22964
22962
22959
22967
22959
22969
22959
22967
22964
22963
22964
22970
22975
22960
22975
22973
22962
22969
22973
22980
22959
22961
22963
22949
22956
22956
22967
22959
22950
22965
22965
22974
22956
22967
22972
22943
22966
22965
22969
22964
22964
22970
22957
22951
22964
22966
22953
22966
22957
22942
22964
22966
22956
22969
22967
22964
22967
22972
22968
22963
22969
22966
22987
22958
22965
22970
22953
22958
22971
22951
22964
22978
22962
22965
22974
22962
22977
22972
22987
22967
22964
22974
22959
22972
22960
22951
22953
22958
22972
22958
22967
22983
22964
22975
22965
22974
22982
22967
22964
22968
22972
22958
22970
22965
22953
22967
22965
22953
22956
22972
22954
22964
22967
22959
22974
22975
22964
22969
22975
22964
22967
22956
22967
22967
22951
22971
22961
22954
22970
22965
22956
22965
22972
22964
22966
22983
22967
22970
22975
22952
22967
22968
22956
22962
22968
22951
22969
22964
22950
22962
22975
22964
22964
22957
22975
22973
22960
22964
22972
22957
22959
22964
22967
22957
22949
22965
22964
22955
22955
22961
22952
22973
22971
22986
22959
22983
22977
22983
22959
22967
22975
22953
22968
22966
22953
22959
22959
22969
22954
22964
22969
22975
22959
22964
22967
22976
22962
22973
22970
22960
22967
22970
22982
22950
22971
22964
22973
22956
22959
22967
22962
22965
22964
22972
22964
22964
22974
22995
22964
22970
22975
22964
22958
22967
22983
22951
22972
22964
22959
22954
22966
22972
22958
22967
22974
22979
22962
22967
22968
22972
22983
22959
22967
22965
22988
22953
22956
22964
22967
22966
22959
22968
22972
22976
22959
22966
22975
22974
22964
22959
22972
22961
22966
22972
22953
22951
22962
22962
22960
22974
22951
22959
22965
22970
22988
22965
22973
22977
22983
22956
22966
22972
22959
22959
22969
22953
22959
22964
22979
22962
22971
22959
22964
22975
22983
22959
22977
22974
22979
22964
22961
22959
22969
22955
22966
22964
22956
22956
22967
22975
22962
22967
22973
22959
22980
22980
22962
22971
22965
22976
22974
22951
22959
22963
22967
22955
22962
22967
22969
22954
22965
22972
22959
22969
22964
22981
22983
22964
22978
22973
22960
22960
22967
22959
22964
22967
22967
22957
22964
22972
22957
22967
22972
22959
22978
22977
22959
22966
22972
22962
22966
22967
22956
22955
22965
22957
22956
22964
22965
22952
22967
22967
22972
22963
22972
22978
22962
22973
22969
22962
22969
22967
22953
22955
22964
22964
22949
22961
22971
22952
22961
22972
22960
22975
22973
22959
22982
22975
22964
22963
22972
22951
22968
22967
22950
22956
22965
22948
22957
22962
22977
22964
22966
22958
22968
22979
22964
22969
22973
22974
22961
22964
22966
22956
22963
22961
22955
22959
22964
22961
22961
22964
22986
22967
22972
22988
22958
22970
22969
22956
22959
22961
22981
22940
22958
22970
22932
22958
22956
23047
22943
22964
22942
22977
22982
22950
22966
22995
22952
22975
22950
22982
22977
22948
22980
22980
22959
22970
22974
22965
22979
22972
22969
22978
22983
22975
22980
22979
22968
22974
22979
22970
22967
22970
22965
22966
22972
22962
22967
22965
22970
22967
22971
22972
22975
22972
22972
22974
22973
22977
22967
22967
22961
22967
22958
22961
22962
22961
22961
22969
22981
22964
22969
22974
22970
22973
22981
22975
22970
22967
22967
22961
22959
22967
22957
22969
22961
22959
22963
22975
22961
22967
22972
22964
22970
22978
22970
22977
22967
22966
22968
22975
22959
22961
22973
22955
22959
22967
22955
22968
22966
22959
22958
22974
22974
22960
22973
22972
22979
22959
22964
22967
22956
22962
22966
22964
22951
22956
22967
22956
22966
22969
22964
22974
22968
22964
22973
22975
22961
22969
22974
22959
22969
22972
22957
22959
22964
22955
22959
22974
22959
22962
22959
22977
22968
22961
22967
22955
22972
22971
22956
22962
22972
22959
22967
22953
22965
22967
22957
22964
22972
22959
22966
22983
22959
22969
22988
22966
22966
22975
22959
22964
22968
22951
22959
22964
22950
22958
22964
22951
22966
22965
22973
22956
22960
22967
22976
22959
22976
22970
22971
22959
22961
22962
22955
22959
22962
22950
22961
22958
22987
22955
22966
22989
22955
22964
22975
22956
22959
22961
22967
22950
22957
22961
22946
22950
22954
22960
22946
22967
22964
22951
22962
22969
22955
22975
22971
22961
22965
22966
22971
22949
22956
22964
22948
22951
22954
22967
22950
22953
22969
22958
22974
22972
22978
22956
22973
22969
22957
22968
22964
22951
22965
22955
22936
22964
22961
22945
22956
22965
22951
22950
22971
22967
22980
22955
22969
22966
22967
22954
22958
22959
22963
22981
22949
22956
22961
22951
22961
22958
22948
22970
22969
22951
22959
22967
22972
22959
22964
22967
22951
22956
22954
22975
22948
22961
22957
22949
22954
22957
22967
22953
22967
22965
22956
22958
22970
22956
22964
22967
22954
22951
22954
22948
22951
22951
22972
22948
22951
22958
22950
22957
22955
22964
22955
22972
22964
22956
22971
22964
22953
22966
22958
22948
22953
22959
22945
22951
22956
22951
22956
22961
22949
22959
22952
22967
22959
22956
22964
22955
22959
22948
22951
22951
22951
22944
22949
22956
22957
22949
22948
22958
22966
22952
22959
22958
22954
22954
22956
22959
22950
22956
22951
22942
22949
22949
22941
22954
22955
22942
22943
22950
22958
22950
22957
22958
22958
22954
22957
22957
22947
22947
22950
22950
22930
22943
22949
22950
22948
22949
22953
22946
22952
22957
22947
22956
22952
22950
22951
22952
22960
22938
22945
22949
22951
22934
22948
22943
22951
22940
22942
22948
22956
22944
22951
22946
22957
22945
22948
22951
22949
22934
22941
22942
22962
22935
22943
22949
22935
22950
22948
22943
22947
22955
22935
22951
22951
22939
22947
22941
22955
22947
22949
22943
22940
22941
22938
22937
22935
22930
22935
22951
22945
22938
22959
22948
22952
22941
22948
22948
22940
22945
22941
22932
22935
22941
22919
22932
22933
22942
22933
22938
22946
22947
22938
22943
22943
22950
22933
22937
22941
22948
22930
22937
22958
22928
22938
22927
22943
22924
22940
22940
22934
22945
22951
22932
22948
22949
22965
22937
22935
22941
22926
22942
22935
22945
22927
22935
22942
22933
22942
22948
22935
22943
22951
22936
22943
22944
22935
22935
22936
22948
22933
22929
22943
22923
22927
22931
22941
22930
22935
22941
22950
22934
22943
22943
22943
22932
22937
22942
22943
22921
22924
22931
22937
22927
22932
22931
22937
22922
22943
22935
22924
22930
22940
22944
22933
22941
22942
22959
22926
22936
22942
22922
22923
22927
22935
22921
22926
22935
22944
22933
22939
22951
22934
22951
22948
22933
22938
22935
22949
22925
22929
22934
22919
22932
22937
22946
22926
22929
22941
22925
22938
22942
22931
22938
22943
22933
22939
22949
22932
22933
22938
22925
22921
22937
22916
22927
22931
22924
22935
22935
22942
22927
22943
22942
22928
22938
22945
22919
22936
22929
22938
22919
22921
22930
22931
22918
22927
22925
22936
22924
22937
22935
22944
22927
22938
22946
22942
22920
22927
22932
22918
22936
22934
22915
22932
22932
22919
22919
22932
22935
22955
22924
22933
22940
22924
22927
22941
22932
22941
22925
22923
22931
22930
22919
22921
22924
22929
22919
22929
22942
22922
22934
22935
22929
22933
22937
22925
22935
22932
22918
22927
22933
22932
22916
22928
22926
22916
22918
22920
22932
22917
22924
22935
22927
22942
22923
22932
22933
22930
22918
22931
22921
22933
22908
22918
22931
22916
22922
22929
22938
22932
22920
22929
22934
22936
22918
22922
22926
22927
22919
22928
22911
22916
22916
22926
22912
22919
22919
22929
22919
22925
22930
22921
22933
22935
22919
22921
22921
22929
22916
22916
22916
22921
22905
22915
22919
22929
22911
22926
22919
22914
22916
22927
22918
22919
22924
22935
22911
22918
22924
22914
22914
22904
22909
22916
22922
22911
22915
22921
22908
22919
22927
22918
22919
22929
22941
22918
22922
22922
22907
22926
22912
22909
22910
22918
22939
22906
22919
22909
22918
22919
22934
22914
22918
22932
22917
22913
22919
22918
22908
22918
22914
22927
22909
22911
22914
22905
22906
22916
22921
22909
22915
22922
22923
22919
22913
22919
22949
22909
22911
22919
22903
22906
22912
22918
22902
22908
22916
22906
22910
22924
22928
22919
22911
22924
22935
22910
22929
22918
22931
22903
22911
22908
22920
22903
22910
22918
22906
22913
22919
22910
22919
22919
22909
22914
22913
22924
22938
22907
22914
22910
22919
22900
22901
22911
22912
22904
22911
22914
22935
22905
22912
22923
22914
22924
22923
22911
22910
22911
22919
22901
22905
22908
22919
22895
22903
22909
22913
22903
22907
22915
22916
22906
22911
22916
22925
22929
22903
22915
22912
22903
22910
22908
22895
22910
22913
22903
22903
22909
22918
22907
22908
22917
22927
22910
22916
22921
22909
22918
22913
22933
22902
22908
22918
22898
22908
22913
22898
22916
22916
22909
22908
22917
22908
22911
22916
22910
22912
22913
22897
22918
22910
22896
22894
22902
22908
22894
22902
22908
22910
22903
22918
22921
22901
22913
22930
22913
22930
22903
22908
22917
22891
22908
22909
22895
22911
22910
22895
22903
22910
22923
22903
22911
22925
22905
22908
22913
22919
22900
22900
22905
22909
22890
22900
22901
22905
22894
22900
22910
22899
22917
22914
22905
22902
22909
22918
22896
22908
22911
22895
22903
22908
22920
22890
22901
22911
22895
22906
22909
22900
22903
22917
22911
22923
22908
22908
22911
22896
22903
22916
22902
22910
22910
22897
22902
22908
22892
22900
22908
22895
22916
22915
22900
22913
22900
22906
22908
22898
22896
22903
22908
22892
22898
22903
22898
22897
22905
22892
22909
22911
22903
22902
22914
22903
22906
22911
22916
22893
22903
22903
22906
22886
22888
22898
22910
22882
22897
22922
22876
22903
22917
22879
22902
22886
22920
22913
22876
22895
22903
22878
22894
22909
22874
22892
22924
22882
22900
22913
22892
22903
22920
22900
22919
22902
22912
22913
22903
22910
22911
22901
22903
22900
22895
22903
22901
22898
22898
22899
22903
22905
22899
22915
22903
22905
22909
22905
22908
22909
22902
22901
22898
22894
22900
22892
22896
22895
22891
22898
22902
22899
22903
22901
22906
22903
22901
22913
22903
22906
22899
22902
22902
22886
22900
22900
22887
22898
22896
22897
22893
22901
22903
22914
22898
22902
22905
22903
22901
22895
22900
22912
22894
22895
22878
22886
22892
22902
22890
22892
22900
22895
22908
22901
22898
22903
22905
22897
22908
22900
22889
22891
22894
22892
22887
22901
22886
22903
22889
22898
22894
22908
22889
22902
22900
22912
22895
22903
22901
22887
22892
22895
22902
22887
22889
22893
22895
22880
22889
22889
22903
22886
22898
22897
22912
22895
22910
22906
22891
22887
22895
22900
22887
22884
22890
22888
22888
22913
22894
22906
22895
22910
22897
22903
22894
22892
22901
22908
22894
22892
22893
22893
22894
22885
22894
22899
22902
22886
22895
22898
22882
22894
22893
22903
22890
22901
22905
22894
22889
22895
22898
22883
22897
22895
22882
22884
22892
22914
22876
22892
22903
22884
22888
22902
22887
22892
22911
22890
22903
22898
22900
22885
22885
22890
22895
22881
22879
22895
22895
22885
22884
22892
22903
22889
22886
22902
22903
22891
22903
22898
22879
22896
22895
22884
22886
22887
22902
22882
22887
22895
22879
22892
22907
22891
22896
22919
22897
22901
22889
22892
22892
22903
22884
22887
22895
22877
22886
22896
22874
22891
22903
22887
22895
22911
22893
22900
22888
22891
22900
22903
22899
22884
22892
22899
22881
22891
22890
22879
22881
22892
22905
22885
22903
22896
22884
22895
22897
22916
22885
22886
22895
22887
22879
22891
22892
22879
22874
22889
22892
22879
22881
22891
22895
22911
22886
22897
22901
22917
22884
22891
22894
22895
22885
22893
22888
22893
22883
22884
22890
22895
22882
22887
22891
22905
22890
22892
22895
22908
22885
22895
22893
22885
22892
22887
22895
22881
22890
22886
22881
22881
22889
22895
22908
22887
22895
22901
22887
22886
22895
22894
22878
22887
22889
22878
22892
22884
22879
22884
22884
22893
22883
22882
22899
22883
22884
22897
22890
22884
22887
22887
22897
22876
22881
22883
22883
22877
22876
22877
22889
22877
22887
22887
22883
22895
22891
22887
22890
22892
22879
22893
22890
22879
22887
22882
22865
22882
22892
22873
22880
22887
22878
22884
22885
22898
22884
22889
22891
22886
22887
22878
22886
22878
22875
22883
22884
22876
22874
22887
22881
22886
22877
22890
22885
22908
22879
22890
22894
22891
22879
22883
22882
22885
22868
22883
22887
22874
22883
22879
22886
22876
22881
22887
22879
22890
22893
22886
22885
22890
22894
22877
22887
22884
22867
22868
22884
22879
22884
22868
22868
22879
22883
22887
22881
22879
22881
22893
22885
22885
22884
22876
22881
22881
22889
22871
22874
22879
22877
22886
22869
22885
22884
22887
22879
22887
22887
22893
22874
22878
22886
22879
22883
22880
22866
22873
22887
22870
22880
22889
22866
22874
22883
22871
22886
22884
22900
22876
22887
22883
22887
22877
22871
22876
22876
22865
22868
22874
22879
22870
22874
22879
22868
22866
22876
22884
22886
22874
22885
22880
22893
22876
22882
22875
22882
22863
22863
22877
22876
22880
22860
22871
22876
22885
22869
22878
22874
22887
22874
22875
22877
22885
22865
22873
22883
22863
22875
22871
22876
22863
22866
22873
22885
22868
22878
22881
22884
22877
22874
22874
22887
22865
22868
22872
22872
22876
22863
22861
22868
22864
22881
22863
22881
22881
22867
22872
22879
22870
22872
22876
22895
22870
22877
22878
22854
22866
22869
22858
22863
22873
22874
22863
22870
22872
22869
22868
22878
22882
22863
22873
22876
22887
22865
22871
22871
22860
22867
22873
22858
22868
22871
22887
22862
22874
22879
22868
22880
22866
22875
22877
22869
22876
22869
22856
22858
22871
22857
22861
22868
22855
22859
22866
22874
22863
22871
22883
22867
22874
22881
22865
22867
22875
22878
22862
22860
22867
22856
22864
22867
22857
22871
22866
22861
22863
22870
22869
22871
22876
22863
22863
22868
22876
22860
22861
22859
22853
22855
22859
22852
22866
22863
22882
22851
22864
22866
22837
22857
22872
22877
22879
22862
22859
22870
22852
22861
22860
22868
22850
22854
22854
22862
22857
22855
22862
22869
22886
22858
22871
22871
22869
22855
22863
22862
22851
22857
22859
22863
22846
22863
22860
22881
22848
22863
22868
22855
22853
22862
22875
22857
22858
22871
22866
22854
22849
22853
22865
22845
22845
22857
22862
22847
22847
22860
22857
22866
22853
22860
22866
22869
22852
22862
22861
22871
22846
22849
22852
22855
22859
22847
22855
22854
22860
22849
22861
22856
22871
22855
22860
22863
22869
22853
22862
22856
22863
22847
22850
22855
22860
22842
22854
22852
22859
22842
22853
22854
22859
22868
22855
22864
22862
22858
22863
22848
22849
22858
22853
22859
22841
22843
22856
22855
22855
22847
22849
22855
22863
22868
22852
22861
22863
22867
22852
22850
22854
22859
22845
22842
22849
22854
22841
22847
22851
22855
22870
22847
22852
22856
22863
22846
22862
22863
22850
22842
22854
22854
22837
22849
22853
22855
22839
22855
22854
22863
22839
22860
22854
22861
22851
22851
22855
22861
22842
22847
22858
22844
22851
22866
22842
22849
22861
22848
22852
22845
22844
22854
22861
22850
22858
22857
22823
22843
22850
22852
22845
22842
22855
22852
22855
22839
22854
22852
22860
22840
22851
22852
22843
22860
22854
22851
22852
22851
22867
22841
22852
22852
22859
22836
22846
22849
22834
22846
22848
22855
22843
22858
22854
22860
22843
22844
22855
22879
22846
22852
22868
22832
22845
22852
22837
22836
22852
22859
22834
22853
22852
22839
22842
22852
22858
22846
22847
22849
22855
22859
22843
22855
22842
22846
22838
22849
22834
22844
22854
22835
22837
22850
22857
22863
22843
22847
22853
22855
22839
22838
22839
22849
22837
22841
22841
22849
22833
22850
22850
22858
22832
22849
22854
22838
22847
22853
22857
22842
22847
22845
22863
22836
22839
22845
22831
22841
22842
22828
22836
22844
22863
22837
22850
22841
22855
22859
22842
22850
22836
22839
22845
22855
22831
22842
22845
22831
22839
22843
22831
22842
22847
22856
22840
22847
22852
22857
22842
22854
22847
22862
22833
22844
22838
22847
22826
22834
22841
22846
22832
22843
22845
22867
22842
22847
22855
22836
22846
22844
22851
22832
22836
22842
22828
22834
22839
22823
22838
22839
22828
22841
22844
22837
22843
22853
22836
22854
22845
22863
22832
22836
22842
22831
22825
22844
22834
22839
22844
22823
22843
22834
22829
22830
22845
22853
22833
22847
22849
22854
22831
22836
22839
22824
22829
22842
22837
22850
22823
22832
22836
22844
22830
22846
22844
22844
22849
22833
22839
22839
22840
22847
22829
22827
22830
22835
22855
22826
22831
22839
22827
22823
22830
22837
22844
22832
22834
22841
22849
22833
22834
22842
22846
22822
22825
22836
22823
22823
22822
22831
22823
22823
22835
22843
22830
22834
22834
22840
22831
22836
22838
22841
22821
22841
22834
22829
22836
22832
22823
22834
22838
22830
22835
22840
22847
22839
22847
22844
22852
22828
22835
22846
22831
22833
22859
22815
22827
22842
22819
22831
22839
22810
22834
22836
22809
22818
22832
22855
22808
22853
22847
22810
22835
22839
22806
22836
22847
22812
22841
22840
22817
22818
22836
22855
22824
22847
22853
22832
22842
22847
22836
22836
22837
22839
22829
22828
22836
22831
22830
22831
22838
22816
22830
22845
22847
22838
22844
22838
22838
22839
22842
22836
22831
22830
22838
22830
22836
22831
22836
22826
22831
22838
22831
22836
22838
22844
22831
22838
22845
22836
22842
22839
22825
22824
22830
22831
22826
22828
22830
22823
22828
22836
22839
22831
22836
22837
22832
22842
22842
22833
22834
22836
22843
22824
22826
22834
22826
22829
22823
22836
22837
22830
22841
22833
22845
22836
22842
22835
22844
22846
22831
22833
22832
22827
22828
22829
22823
22821
22830
22834
22823
22831
22843
22830
22834
22829
22834
22834
22839
22825
22835
22844
22827
22823
22832
22823
22821
22828
22830
22822
22829
22835
22820
22838
22848
22837
22837
22827
22833
22837
22827
22834
22831
22816
22823
22831
22822
22838
22828
22819
22830
22831
22849
22821
22842
22839
22826
22827
22837
22844
22829
22829
22836
22817
22829
22828
22817
22828
22828
22820
22832
22830
22822
22822
22832
22852
22828
22839
22844
22821
22833
22831
22823
22824
22825
22811
22822
22834
22819
22820
22825
22837
22822
22826
22834
22844
22824
22839
22839
22822
22841
22834
22818
22832
22831
22815
22825
22808
22825
22815
22830
22826
22833
22815
22824
22832
22837
22824
22830
22839
22825
22841
22814
22822
22829
22813
22824
22825
22815
22814
22820
22828
22820
22826
22841
22823
22831
22851
22826
22828
22835
22821
22827
22814
22821
22842
22820
22823
22811
22831
22815
22836
22834
22824
22833
22853
22829
22820
22830
22819
22830
22814
22833
22825
22813
22811
22825
22820
22814
22827
22823
22816
22839
22833
22823
22837
22823
22836
22835
22820
22826
22831
22816
22821
22828
22815
22823
22831
22814
22822
22821
22819
22820
22822
22831
22819
22828
22830
22832
22819
22830
22824
22839
22814
22822
22823
22815
22815
22823
22824
22815
22822
22831
22793
22823
22827
22831
22823
22831
22835
22816
22826
22831
22828
22812
22820
22831
22813
22819
22828
22814
22825
22822
22831
22820
22831
22824
22820
22831
22830
22818
22818
22820
22812
22821
22823
22805
22807
22820
22823
22814
22823
22830
22820
22823
22830
22820
22823
22822
22829
22820
22823
22822
22810
22812
22825
22811
22819
22822
22809
22816
22814
22820
22828
22822
22822
22819
22825
22834
22817
22823
22823
22807
22812
22818
22807
22812
22805
22813
22807
22814
22812
22825
22820
22813
22822
22829
22819
22820
22821
22810
22815
22815
22831
22805
22815
22823
22805
22812
22822
22804
22812
22821
22809
22819
22827
22812
22818
22822
22812
22814
22812
22807
22820
22812
22804
22802
22810
22818
22814
22812
22818
22804
22812
22822
22812
22820
22815
22828
22821
22807
22812
22817
22801
22810
22828
22805
22808
22805
22806
22813
22816
22807
22812
22823
22813
22815
22808
22813
22815
22827
22810
22812
22802
22809
22810
22799
22809
22810
22804
22812
22815
22803
22823
22821
22807
22815
22823
22808
22815
22815
22829
22807
22810
22811
22818
22797
22804
22809
22819
22800
22800
22809
22815
22806
22817
22822
22807
22819
22821
22807
22810
22818
22797
22813
22805
22802
22801
22805
22818
22803
22807
22814
22801
22808
22812
22820
22810
22811
22814
22818
22797
22804
22815
22791
22812
22806
22799
22804
22810
22796
22804
22819
22801
22818
22817
22800
22820
22812
22802
22810
22815
22802
22806
22809
22799
22797
22807
22791
22804
22809
22799
22801
22814
22801
22810
22812
22803
22803
22812
22812
22799
22813
22798
22809
22791
22807
22806
22791
22799
22804
22796
22815
22814
22796
22807
22823
22799
22810
22791
22804
22810
22821
22789
22800
22810
22790
22802
22807
22799
22795
22804
22813
22797
22813
22815
22797
22807
22810
22815
22796
22807
22809
22794
22798
22806
22794
22801
22810
22795
22798
22805
22810
22798
22814
22813
22804
22806
22808
22812
22798
22807
22814
22790
22801
22804
22791
22799
22796
22811
22791
22803
22808
22794
22807
22811
22800
22800
22805
22799
22808
22805
22791
22804
22803
22787
22802
22800
22791
22798
22796
22806
22794
22798
22800
22809
22795
22810
22823
22795
22794
22801
22790
22791
22801
22801
22791
22797
22800
22783
22790
22796
22805
22791
22807
22801
22805
22799
22797
22800
22830
22789
22801
22791
22794
22796
22816
22789
22799
22807
22790
22804
22806
22791
22804
22807
22809
22796
22803
22801
22808
22783
22799
22806
22787
22805
22799
22786
22799
22799
22782
22785
22801
22810
22796
22814
22809
22814
22791
22804
22804
22790
22807
22798
22788
22791
22804
22781
22795
22783
22789
22799
22791
22797
22812
22790
22800
22820
22792
22803
22789
22807
22804
22788
22784
22795
22770
22785
22788
22797
22788
22807
22803
22791
22790
22801
22807
22791
22805
22801
22791
22796
22797
22782
22786
22788
22783
22790
22794
22796
22780
22791
22798
22812
22791
22804
22808
22791
22807
22799
22788
22796
22798
22801
22781
22784
22791
22799
22783
22791
22813
22791
22796
22802
22785
22801
22806
22789
22799
22802
22788
22786
22791
22799
22781
22798
22791
22812
22785
22791
22790
22787
22787
22794
22799
22790
22788
22794
22803
22785
22785
22788
22791
22788
22776
22790
22788
22802
22778
22785
22802
22787
22795
22804
22786
22797
22786
22793
22798
22802
22785
22796
22797
22775
22791
22788
22791
22775
22780
22791
22779
22783
22791
22803
22788
22792
22804
22788
22791
22804
22782
22788
22797
22783
22780
22807
22778
22783
22791
22775
22790
22788
22779
22791
22803
22784
22791
22800
22781
22788
22804
22786
22788
22791
22770
22782
22777
22786
22799
22778
22784
22778
22775
22788
22797
22779
22794
22791
22782
22781
22788
22792
22772
22785
22788
22769
22773
22778
22787
22772
22772
22783
22790
22780
22785
22796
22779
22785
22786
22791
22782
22785
22785
22809
22772
22774
22783
22762
22766
22781
22791
22779
22777
22781
22783
22783
22774
22775
22792
22785
22796
22772
22783
22781
22786
22767
22780
22779
22783
22765
22781
22780
22783
22773
22779
22783
22791
22776
22781
22788
22771
22781
22781
22762
22778
22778
22791
22766
22772
22765
22772
22780
22796
22779
22779
22787
22776
22775
22781
22785
22768
22769
22773
22777
22797
22764
22779
22775
22764
22767
22774
22778
22766
22774
22781
22774
22777
22772
22777
22775
22784
22764
22783
22775
22762
22761
22775
22775
22782
22758
22773
22777
22799
22767
22783
22779
22781
22789
22770
22769
22775
22775
22777
22763
22776
22767
22782
22758
22771
22780
22763
22769
22772
22782
22785
22774
22775
22786
22773
22782
22780
22762
22756
22765
22779
22756
22757
22771
22768
22759
22759
22774
22773
22779
22769
22764
22788
22778
22780
22767
22775
22775
22773
22761
22767
22768
22772
22759
22758
22783
22764
22769
22759
22766
22773
22759
22759
22767
22785
22751
22766
22762
22780
22742
22750
22758
22783
22738
22777
22770
22789
22751
22757
22775
22789
22763
22758
22779
22796
22764
22768
22779
22774
22794
22764
22767
22774
22770
22767
22770
22769
22780
22775
22779
22780
22785
22776
22778
22780
22776
22775
22775
22769
22760
22772
22766
22767
22765
22772
22767
22775
22764
22767
22773
22774
22774
22769
22766
22775
22779
22762
22776
22771
22759
22762
22774
22765
22759
22758
22764
22771
22756
22766
22770
22778
22765
22775
22776
22762
22774
22767
22774
22767
22765
22772
22754
22767
22764
22774
22758
22766
22773
22760
22773
22777
22764
22772
22783
22766
22772
22760
22775
22767
22765
22759
22757
22757
22771
22754
22764
22769
22758
22772
22775
22781
22764
22774
22774
22775
22759
22758
22764
22770
22759
22759
22758
22771
22754
22749
22761
22778
22757
22769
22773
22740
22761
22766
22772
22764
22765
22766
22783
22756
22759
22764
22751
22767
22759
22765
22754
22761
22764
22753
22758
22764
22767
22758
22759
22772
22758
22758
22759
22764
22749
22751
22755
22763
22748
22759
22767
22749
22748
22757
22767
22752
22758
22759
22765
22755
22755
22759
22775
22749
22756
22767
22745
22743
22749
22756
22780
22747
22759
22762
22767
22756
22767
22767
22776
22756
22762
22759
22764
22748
22761
22759
22746
22749
22756
22758
22745
22764
22762
22779
22754
22762
22762
22783
22752
22771
22761
22745
22756
22753
22759
22743
22756
22755
22727
22748
22756
22749
22751
22757
22771
22744
22767
22766
22783
22742
22757
22758
22765
22742
22748
22751
22758
22741
22749
22755
22737
22751
22747
22757
22772
22751
22756
22766
22749
22748
22765
22757
22764
22749
22740
22751
22755
22775
22741
22745
22759
22740
22749
22748
22759
22787
22748
22756
22764
22749
22752
22753
22757
22735
22744
22754
22732
22745
22763
22741
22750
22740
22748
22757
22762
22748
22767
22759
22745
22755
22753
22738
22746
22750
22743
22740
22748
22753
22739
22742
22751
22739
22742
22755
22759
22750
22757
22759
22747
22756
22762
22745
22750
22738
22755
22753
22729
22746
22758
22740
22750
22740
22751
22751
22740
22751
22753
22752
22750
22755
22741
22744
22745
22751
22741
22743
22742
22754
22739
22745
22750
22739
22740
22750
22751
22756
22746
22749
22750
22743
22744
22751
22737
22746
22748
22739
22741
22745
22730
22740
22741
22734
22748
22745
22743
22743
22752
22756
22744
22759
22747
22738
22740
22743
22743
22727
22736
22742
22731
22732
22745
22729
22738
22743
22751
22738
22752
22751
22762
22741
22749
22746
22735
22734
22739
22759
22735
22727
22732
22735
22746
22734
22734
22740
22735
22751
22748
22758
22741
22739
22743
22736
22743
22736
22728
22730
22732
22740
22727
22741
22740
22745
22732
22745
22746
22734
22743
22743
22764
22739
22743
22746
22728
22744
22738
22724
22729
22749
22724
22735
22749
22729
22739
22727
22739
22746
22751
22735
22740
22750
22730
22740
22753
22736
22740
22727
22728
22732
22730
22735
22730
22735
22738
22731
22745
22745
22735
22744
22741
22746
22730
22734
22735
22727
22726
22735
22720
22730
22732
22722
22734
22739
22727
22743
22736
22708
22727
22740
22743
22730
22741
22733
22724
22739
22732
22740
22724
22732
22728
22723
22727
22725
22735
22726
22731
22743
22730
22738
22737
22735
22740
22741
22724
22727
22732
22717
22730
22728
22745
22720
22727
22739
22723
22732
22743
22722
22742
22737
22725
22727
22737
22732
22722
22733
22732
22719
22723
22732
22714
22733
22736
22721
22728
22748
22735
22739
22724
22734
22729
22733
22735
22724
22725
22728
22714
22729
22735
22717
22718
22727
22714
22724
22717
22729
22734
22724
22730
22732
22745
22722
22728
22739
22716
22730
22726
22710
22725
22724
22715
22722
22718
22725
22720
22731
22714
22730
22724
22732
22724
22740
22734
22718
22721
22724
22725
22718
22709
22710
22728
22722
22713
22734
22723
22719
22715
22728
22727
22719
22721
22732
22724
22721
22714
22721
22730
22716
22727
22714
22713
22722
22726
22712
22717
22726
22744
22719
22726
22718
22721
22728
22717
22721
22725
22710
22725
22719
22708
22711
22721
22738
22707
22718
22731
22716
22722
22730
22718
22723
22727
22750
22716
22723
22738
22709
22719
22728
22710
22723
22710
22712
22713
22727
22711
22726
22730
22716
22717
22724
22732
22718
22724
22743
22716
22718
22731
22713
22716
22729
22703
22712
22726
22713
22726
22738
22719
22726
22718
22733
22728
22722
22727
22732
22709
22712
22726
22710
22724
22705
22713
22722
22708
22725
22710
22719
22716
22724
22727
22728
22728
22714
22717
22719
22727
22706
22716
22717
22705
22708
22716
22734
22704
22721
22727
22712
22723
22721
22714
22719
22727
22745
22716
22718
22720
22702
22710
22718
22722
22702
22716
22730
22706
22716
22727
22708
22726
22727
22747
22719
22720
22730
22714
22716
22736
22710
22720
22704
22708
22713
22713
22700
22713
22715
22718
22707
22716
22726
22711
22721
22730
22714
22720
22726
22705
22707
22715
22716
22700
22705
22711
22714
22707
22719
22715
22711
22716
22713
22729
22706
22722
22727
22708
22714
22721
22700
22706
22711
22715
22695
22708
22719
22697
22710
22718
22708
22711
22722
22708
22712
22722
22724
22701
22719
22712
22705
22704
22715
22701
22709
22721
22695
22710
22711
22698
22711
22718
22705
22714
22718
22706
22711
22723
22703
22708
22721
22692
22706
22710
22693
22696
22710
22714
22700
22714
22706
22715
22703
22714
22721
22708
22714
22721
22709
22709
22695
22714
22710
22692
22706
22710
22699
22695
22706
22718
22703
22719
22716
22727
22707
22713
22717
22699
22700
22706
22711
22693
22716
22704
22692
22690
22703
22706
22695
22695
22704
22713
22703
22700
22708
22715
22700
22705
22710
22699
22715
22706
22694
22695
22707
22695
22700
22718
22700
22706
22703
22713
22700
22711
22708
22724
22701
22711
22719
22700
22706
22689
22704
22706
22692
22695
22691
22704
22708
22695
22708
22697
22702
22708
22693
22714
22718
22700
22706
22695
22695
22707
22687
22700
22705
22689
22703
22701
22691
22704
22711
22692
22707
22711
22717
22703
22704
22705
22694
22698
22704
22695
22698
22702
22693
22700
22684
22695
22703
22691
22709
22711
22698
22708
22696
22703
22706
22695
22703
22712
22695
22701
22678
22698
22696
22719
22689
22695
22706
22692
22703
22705
22693
22711
22709
22699
22709
22706
22694
22700
22701
22686
22695
22685
22694
22695
22687
22698
22703
22694
22699
22695
22706
22706
22697
22700
22711
22692
22702
22708
22692
22694
22713
22688
22693
22699
22689
22692
22705
22693
22700
22708
22692
22705
22713
22698
22701
22705
22692
22708
22697
22702
22719
22678
22698
22699
22684
22686
22693
22740
22683
22695
22678
22712
22708
22677
22711
22711
22673
22700
22698
22797
22670
22686
22705
22666
22698
22694
22717
22681
22694
22714
22685
22719
22716
22692
22706
22710
22695
22699
22700
22695
22701
22696
22693
22696
22692
22690
22694
22694
22694
22701
22697
22692
22698
22707
22698
22698
22700
22692
22690
22691
22686
22687
22692
22692
22692
22695
22699
22693
22694
22691
22696
22703
22695
22695
22695
22687
22696
22695
22686
22681
22688
22660
22688
22692
22685
22686
22695
22685
22690
22695
22694
22692
22695
22704
22692
22694
22687
22693
22684
22684
22694
22679
22684
22687
22676
22686
22689
22683
22686
22693
22688
22696
22688
22698
22689
22692
22685
22685
22688
22676
22687
22679
22680
22671
22680
22688
22679
22683
22677
22684
22695
22685
22693
22680
22690
22690
22693
22677
22685
22673
22689
22685
22673
22680
22680
22675
22687
22687
22682
22683
22691
22695
22684
22692
22678
22686
22691
22679
22684
22686
22679
22679
22678
22675
22676
22681
22686
22676
22686
22694
22677
22686
22696
22679
22698
22689
22676
22684
22688
22670
22676
22683
22669
22677
22683
22676
22678
22688
22676
22685
22694
22677
22689
22680
22684
22690
22671
22679
22679
22665
22672
22677
22661
22674
22673
22685
22669
22678
22685
22710
22679
22678
22681
22679
22678
22681
22692
22671
22671
22684
22667
22664
22673
22663
22671
22688
22664
22673
22680
22665
22678
22679
22671
22672
22676
22664
22673
22673
22662
22670
22673
22661
22665
22679
22660
22667
22676
22663
22679
22674
22701
22676
22684
22674
22676
22676
22663
22671
22676
22658
22668
22660
22671
22676
22658
22677
22678
22663
22670
22674
22694
22670
22676
22687
22664
22685
22673
22663
22666
22668
22684
22660
22666
22676
22670
22668
22662
22671
22686
22661
22673
22684
22663
22679
22660
22668
22676
22662
22669
22655
22666
22667
22654
22663
22668
22659
22665
22679
22661
22668
22679
22662
22673
22676
22657
22663
22669
22660
22671
22664
22649
22668
22669
22655
22659
22666
22684
22658
22666
22676
22663
22663
22671
22676
22663
22667
22674
22659
22664
22662
22649
22662
22657
22653
22655
22670
22663
22658
22663
22666
22660
22662
22668
22670
22659
22663
22663
22650
22659
22664
22652
22654
22668
22658
22657
22651
22647
22656
22657
22654
22663
22666
22652
22655
22658
22663
22652
22653
22661
22639
22647
22648
22650
22639
22652
22655
22647
22663
22659
22652
22652
22658
22667
22648
22654
22663
22647
22662
22653
22644
22639
22647
22656
22639
22644
22655
22640
22652
22670
22647
22654
22662
22646
22658
22655
22648
22651
22653
22637
22643
22644
22651
22636
22643
22651
22642
22646
22656
22642
22653
22659
22648
22655
22663
22636
22647
22658
22637
22642
22650
22637
22647
22636
22640
22651
22638
22644
22641
22647
22653
22646
22652
22660
22644
22646
22656
22644
22644
22647
22629
22639
22649
22633
22641
22648
22638
22644
22652
22638
22644
22651
22661
22643
22661
22654
22638
22647
22669
22645
22650
22632
22634
22646
22636
22629
22643
22635
22651
22645
22633
22649
22662
22647
22651
22632
22647
22649
22638
22634
22644
22625
22634
22655
22628
22639
22662
22631
22642
22641
22647
22635
22644
22649
22658
22637
22638
22650
22629
22639
22638
22628
22628
22636
22630
22639
22644
22631
22637
22650
22632
22640
22634
22639
22647
22633
22642
22648
22628
22633
22634
22636
22628
22634
22632
22638
22627
22633
22637
22645
22630
22633
22645
22635
22651
22644
22629
22636
22627
22636
22635
22621
22631
22638
22620
22628
22644
22628
22637
22627
22645
22646
22628
22639
22642
22628
22634
22644
22628
22631
22621
22630
22639
22621
22629
22639
22627
22633
22624
22634
22655
22630
22637
22630
22633
22639
22624
22637
22647
22622
22626
22620
22622
22634
22637
22623
22637
22639
22620
22630
22634
22624
22636
22639
22631
22631
22644
22623
22633
22631
22625
22625
22630
22630
22618
22624
22631
22652
22628
22642
22635
22639
22623
22628
22634
22637
22623
22624
22628
22631
22616
22622
22613
22634
22630
22608
22621
22628
22631
22620
22620
22631
22637
22631
22626
22633
22620
22635
22629
22614
22615
22627
22612
22617
22627
22609
22622
22623
22616
22630
22628
22618
22622
22627
22630
22614
22622
22628
22619
22624
22626
22606
22614
22624
22606
22623
22623
22610
22615
22628
22616
22626
22615
22631
22625
22621
22617
22628
22613
22619
22621
22601
22624
22614
22603
22615
22626
22607
22618
22628
22613
22625
22630
22613
22622
22622
22613
22612
22622
22606
22617
22619
22601
22604
22612
22602
22615
22616
22610
22615
22625
22618
22615
22623
22624
22612
22629
22618
22603
22605
22612
22602
22604
22611
22629
22602
22610
22604
22617
22617
22614
22631
22623
22615
22613
22623
22607
22619
22615
22600
22608
22618
22605
22607
22600
22607
22612
22600
22621
22616
22604
22604
22615
22619
22608
22605
22618
22601
22607
22620
22598
22599
22612
22596
22599
22605
22622
22597
22604
22621
22604
22612
22599
22611
22624
22599
22607
22598
22609
22610
22595
22609
22608
22594
22605
22599
22611
22592
22601
22608
22598
22607
22612
22623
22600
22610
22605
22608
22593
22590
22592
22604
22584
22591
22597
22601
22583
22597
22602
22591
22593
22603
22609
22590
22600
22606
22592
22598
22602
22586
22599
22596
22581
22589
22599
22581
22597
22598
22583
22594
22598
22615
22594
22607
22604
22609
22587
22594
22591
22600
22582
22592
22593
22609
22581
22587
22593
22582
22591
22593
22603
22587
22603
22599
22620
22589
22595
22598
22584
22587
22588
22591
22581
22596
22588
22604
22581
22597
22591
22584
22592
22598
22588
22598
22597
22582
22591
22588
22578
22586
22588
22579
22594
22583
22575
22572
22585
22598
22580
22588
22611
22583
22599
22583
22586
22594
22578
22599
22594
22574
22583
22583
22570
22575
22587
22574
22587
22586
22602
22581
22588
22596
22584
22588
22598
22576
22591
22593
22569
22582
22587
22575
22581
22572
22584
22587
22568
22592
22593
22573
22588
22596
22601
22581
22586
22600
22581
22586
22592
22574
22583
22572
22577
22586
22570
22572
22584
22573
22577
22570
22587
22587
22572
22590
22589
22576
22576
22582
22586
22570
22574
22581
22567
22572
22598
22575
22578
22591
22575
22580
22590
22577
22581
22588
22575
22580
22583
22598
22565
22576
22582
22566
22574
22572
22588
22565
22572
22584
22571
22573
22586
22569
22576
22583
22570
22577
22582
22567
22564
22570
22560
22574
22570
22559
22567
22570
22561
22566
22572
22581
22566
22580
22577
22566
22588
22577
22566
22573
22581
22562
22571
22555
22562
22567
22558
22571
22556
22568
22558
22575
22578
22567
22575
22573
22567
22577
22565
22574
22581
22559
22569
22559
22559
22567
22567
22557
22567
22576
22561
22568
22575
22581
22564
22569
22578
22560
22565
22559
22562
22535
22559
22563
22553
22567
22565
22554
22556
22564
22574
22556
22567
22571
22583
22562
22566
22574
22566
22569
22566
22550
22559
22557
22570
22546
22556
22572
22554
22558
22573
22544
22556
22565
22580
22545
22560
22562
22606
22535
22551
22572
22527
22565
22560
22525
22566
22558
22528
22553
22572
22535
22557
22607
22562
22571
22548
22557
22615
22566
22566
22549
22554
22574
22557
22553
22552
22556
22548
22554
22551
22561
22559
22565
22563
22560
22564
22561
22556
22553
22554
22553
22544
22558
22547
22551
22544
22556
22555
22548
22555
22550
22556
22555
22554
22565
22556
22547
22548
22547
22546
22542
22548
22551
22548
22552
22543
22553
22562
22553
22554
22558
22547
22554
22554
22557
22543
22550
22552
22557
22541
22545
22549
22552
22540
22551
22548
22552
22543
22556
22553
22556
22550
22544
22562
22561
22558
22551
22547
22562
22553
22558
22542
22550
22548
22550
22542
22552
22552
22542
22558
22559
22548
22558
22548
22555
22566
22550
22565
22558
22545
22551
22562
22548
22551
22542
22546
22553
22548
22550
22566
22549
22556
22554
22557
22563
22553
22559
22560
22544
22549
22559
22544
22558
22557
22524
22546
22550
22557
22541
22552
22577
22546
22558
22554
22559
22565
22546
22560
22561
22544
22557
22563
22547
22558
22546
22547
22554
22542
22551
22554
22546
22558
22574
22564
22566
22561
22564
22551
22562
22557
22543
22552
22557
22544
22553
22547
22567
22557
22562
22543
22556
22559
22550
22556
22560
22551
22560
22585
22550
22561
22544
22552
22544
22557
22559
22544
22554
22574
22557
22559
22546
22558
22566
22552
22566
22554
22561
22564
22551
22559
22542
22551
22542
22550
22558
22555
22541
22556
22549
22568
22558
22544
22558
22567
22548
22564
22564
22547
22559
22559
22544
22551
22557
22540
22546
22559
22535
22560
22557
22539
22553
22563
22551
22564
22549
22556
22564
22546
22564
22544
22561
22556
22542
22551
22561
22548
22558
22535
22546
22536
22556
22556
22540
22558
22546
22560
22562
22538
22560
22555
22542
22546
22561
22543
22545
22534
22543
22563
22542
22554
22535
22552
22535
22551
22553
22546
22555
22558
22540
22554
22547
22532
22549
22543
22530
22555
22548
22534
22542
22551
22535
22544
22552
22539
22542
22534
22540
22548
22534
22540
22541
22524
22535
22538
22529
22535
22524
22542
22540
22526
22533
22535
22530
22546
22538
22532
22538
22543
22529
22529
22535
22519
22527
22522
22527
22527
22521
22527
22524
22527
22535
22524
22532
22535
22525
22529
22535
22520
22529
22535
22517
22521
22518
22518
22511
22521
22525
22511
22517
22534
22516
22524
22523
22519
22519
22527
22510
22522
22511
22523
22517
22510
22511
22513
22519
22503
22514
22516
22506
22518
22521
22506
22513
22517
22535
22515
22519
22504
22516
22515
22502
22505
22508
22496
22503
22509
22498
22505
22500
22497
22509
22499
22504
22511
22508
22522
22507
22497
22508
22489
22498
22495
22493
22498
22492
22508
22498
22494
22487
22501
22495
22492
22512
22500
22505
22484
22498
22490
22490
22496
22494
22481
22489
22486
22476
22482
22488
22474
22494
22490
22479
22484
22489
22482
22482
22487
22492
22468
22481
22476
22483
22464
22470
22482
22482
22464
22473
22487
22471
22478
22470
22472
22488
22474
22479
22471
22475
22468
22479
22479
22460
22475
22471
22460
22465
22470
22456
22463
22457
22461
22471
22456
22471
22474
22459
22471
