EDA
20390
20383
20388
20387
20393
20401
20401
20420
20374
20369
20379
20372
20376
20395
20388
20391
20396
20367
20379
20387
20391
20388
20393
20393
20397
20377
20373
20381
20387
20394
20401
20409
20379
20371
20383
20396
20384
20398
20397
20402
20402
20374
20375
20374
20376
20388
20384
20387
20400
20403
20399
20430
20413
20404
20411
20377
20383
20377
20380
20385
20392
20387
20394
20399
20401
20407
20351
20375
20372
20373
20377
20383
20394
20405
20433
20376
20380
20391
20397
20399
20422
20376
20376
20383
20396
20398
20398
20392
20393
20400
20412
20375
20365
20383
20396
20391
20396
20415
20375
20382
20384
20405
20437
20377
20380
20378
20387
20402
20399
20385
20391
20406
20415
20448
20376
20382
20396
20391
20405
20415
20375
20383
20392
20396
20399
20410
20381
20379
20384
20394
20393
20405
20395
20406
20420
20452
20380
20384
20391
20401
20397
20396
20399
20422
20380
20392
20394
20400
20417
20377
20407
20402
20406
20437
20386
20387
20389
20386
20390
20391
20406
20398
20396
20395
20399
20412
20428
20439
20382
20381
20378
20380
20385
20404
20396
20402
20409
20410
20380
20394
20385
20390
20394
20392
20390
20393
20399
20410
20411
20427
20380
20388
20397
20398
20396
20405
20384
20383
20390
20396
20390
20397
20411
20413
20382
20389
20396
20399
20381
20398
20396
20405
20422
20382
20385
20391
20393
20408
20422
20380
20383
20390
20392
20391
20397
20422
20372
20380
20394
20389
20391
20393
20412
20438
20380
20383
20393
20390
20397
20396
20399
20401
20404
20410
20380
20380
20388
20391
20393
20404
20403
20412
20374
20383
20385
20399
20394
20396
20407
20436
20380
20382
20402
20393
20393
20394
20404
20408
20380
20377
20380
20385
20398
20404
20392
20388
20397
20391
20399
20409
20383
20381
20381
20397
20396
20405
20410
20412
20410
20382
20378
20377
20377
20392
20388
20396
20411
20418
20387
20383
20380
20377
20382
20383
20390
20396
20389
20388
20391
20398
20399
20411
20412
20423
20379
20376
20386
20402
20394
20390
20400
20434
20377
20382
20401
20392
20407
20436
20382
20404
20391
20399
20412
20379
20383
20390
20397
20396
20403
20433
20373
20386
20393
20406
20376
20382
20390
20404
20443
20381
20392
20394
20411
20379
20377
20397
20393
20405
20382
20383
20399
20394
20400
20387
20373
20386
20390
20393
20409
20422
20374
20374
20376
20395
20399
20402
20379
20385
20395
20392
20394
20411
20386
20377
20382
20399
20392
20388
20399
20400
20414
20429
20378
20377
20380
20390
20406
20389
20407
20410
20379
20381
20389
20406
20391
20392
20409
20423
20374
20373
20378
20393
20391
20395
20399
20407
20413
20385
20380
20383
20393
20390
20404
20352
20376
20388
20391
20399
20405
20420
20378
20382
20398
20397
20402
20422
20377
20375
20396
20394
20407
20427
20375
20384
20391
20399
20404
20447
20373
20386
20389
20395
20412
20380
20380
20387
20378
20398
20407
20418
20375
20381
20384
20401
20402
20407
20378
20381
20399
20394
20406
20380
20372
20388
20388
20408
20381
20381
20393
20391
20414
20374
20395
20394
20412
20371
20391
20396
20443
20375
20388
20383
20398
20375
20377
20390
20398
20396
20410
20381
20380
20379
20400
20389
20405
20373
20377
20388
20401
20428
20375
20395
20383
20397
20415
20375
20375
20391
20393
20394
20403
20379
20383
20388
20391
20412
20380
20375
20378
20384
20390
20400
20374
20374
20399
20388
20405
20377
20387
20381
20391
20400
20423
20373
20385
20386
20388
20396
20439
20380
20373
20386
20384
20398
20419
20370
20385
20394
20393
20404
20380
20384
20387
20393
20413
20372
20365
20395
20390
20390
20401
20422
20380
20383
20384
20401
20431
20380
20391
20390
20399
20429
20374
20373
20389
20382
20391
20397
20422
20433
20375
20378
20375
20377
20381
20388
20389
20390
20399
20382
20381
20380
20388
20397
20400
20405
20416
20449
20388
20393
20401
20412
20404
20426
20447
20380
20404
20415
20425
20429
20452
20396
20389
20404
20407
20413
20423
20452
20388
20401
20407
20421
20434
20388
20394
20404
20406
20390
20389
20402
20407
20406
20388
20380
20393
20391
20408
20421
20369
20373
20389
20396
20391
20405
20380
20399
20403
20383
20391
20390
20393
20388
20397
20404
20376
20370
20375
20381
20391
20399
20412
20375
20398
20378
20385
20391
20388
20398
20381
20387
20395
20388
20395
20397
20406
20372
20370
20375
20373
20372
20393
20388
20391
20402
20416
20375
20396
20415
20383
20380
20396
20389
20377
20392
20376
20397
20376
20404
20380
20382
20390
20367
20390
20391
20404
20377
20395
20394
20390
20372
20391
20391
20399
20376
20374
20381
20390
20412
20372
20382
20382
20394
20428
20369
20380
20386
20382
20395
20409
20373
20380
20383
20396
20375
20375
20390
20382
20406
20364
20383
20384
20392
20404
20367
20373
20390
20384
20390
20400
20372
20372
20378
20386
20390
20372
20376
20381
20386
20389
20393
20394
20404
20411
20371
20372
20380
20383
20386
20390
20402
20378
20370
20377
20386
20386
20388
20398
20409
20365
20359
20364
20375
20388
20393
20383
20381
20387
20388
20390
20396
20398
20369
20370
20370
20389
20391
20392
20394
20422
20371
20368
20378
20377
20386
20382
20387
20390
20390
20396
20400
20420
20373
20370
20383
20383
20380
20405
20369
20372
20383
20376
20398
20370
20373
20381
20391
20400
20425
20373
20372
20372
20373
20385
20389
20386
20389
20407
20355
20369
20374
20396
20388
20394
20414
20369
20372
20374
20378
20383
20391
20391
20386
20394
20406
20425
20372
20366
20377
20384
20401
20391
20397
20404
20418
20387
20380
20385
20396
20406
20409
20376
20372
20383
20388
20391
20399
20407
20375
20370
20380
20391
20384
20384
20395
20396
20403
20405
20412
20374
20379
20379
20380
20388
20392
20392
20389
20389
20404
20375
20374
20378
20381
20391
20389
20401
20406
20348
20376
20374
20377
20389
20395
20395
20412
20374
20381
20396
20392
20395
20404
20430
20372
20373
20382
20391
20383
20388
20393
20388
20403
20416
20375
20372
20374
20396
20389
20394
20399
20418
20371
20375
20382
20388
20382
20380
20379
20385
20390
20398
20393
20406
20378
20377
20383
20391
20386
20389
20388
20394
20405
20372
20383
20390
20398
20390
20399
20407
20374
20377
20377
20392
20385
20390
20404
20378
20386
20387
20401
20370
20384
20387
20399
20406
20374
20376
20388
20391
20390
20391
20392
20395
20423
20378
20372
20375
20386
20382
20390
20402
20399
20410
20408
20369
20382
20383
20372
20375
20373
20380
20376
20376
20378
20374
20369
20396
20389
20396
20387
20384
20383
20393
20395
20384
20391
20392
20401
20394
20406
20359
20372
20372
20374
20385
20394
20388
20383
20389
20395
20403
20374
20372
20372
20382
20382
20390
20390
20401
20398
20397
20409
20431
20379
20372
20383
20382
20391
20394
20400
20370
20362
20367
20373
20386
20401
20380
20390
20399
20398
20416
20377
20377
20372
20375
20391
20376
20383
20393
20388
20392
20391
20394
20411
20431
20373
20370
20372
20376
20384
20393
20388
20391
20390
20401
20404
20430
20366
20369
20372
20376
20388
20389
20382
20393
20405
20439
20375
20372
20369
20381
20391
20389
20392
20389
20382
20380
20380
20381
20389
20387
20390
20388
20389
20385
20383
20380
20376
20377
20373
20372
20372
20383
20385
20388
20393
20397
20363
20367
20368
20374
20389
20380
20385
20383
20390
20390
20393
20402
20365
20375
20370
20369
20372
20394
20380
20387
20388
20384
20387
20394
20399
20405
20405
20430
20370
20367
20372
20383
20383
20390
20389
20395
20408
20365
20367
20365
20388
20378
20390
20396
20404
20393
20405
20402
20364
20364
20364
20368
20383
20393
20383
20396
20392
20373
20367
20367
20366
20387
20385
20385
20398
20431
20364
20373
20374
20380
20380
20386
20385
20390
20381
20379
20383
20385
20383
20390
20395
20394
20392
20404
20410
20372
20362
20367
20380
20382
20392
20393
20396
20423
20371
20366
20373
20360
20386
20383
20391
20422
20361
20373
20389
20382
20384
20409
20367
20369
20367
20383
20378
20381
20385
20395
20364
20362
20369
20367
20377
20390
20391
20392
20393
20394
20422
20362
20369
20364
20366
20367
20369
20364
20365
20369
20365
20364
20373
20374
20381
20381
20386
20385
20378
20373
20380
20387
20384
20387
20389
20388
20388
20373
20374
20382
20388
20390
20393
20393
20356
20357
20360
20369
20375
20374
20387
20395
20401
20412
20364
20417
20396
20394
20418
20359
20367
20361
20365
20361
20360
20366
20364
20373
20375
20375
20391
20392
20362
20364
20370
20407
20400
20412
20372
20373
20370
20371
20379
20372
20372
20375
20388
20412
20390
20393
20400
20404
20422
20442
20481
20382
20385
20385
20402
20398
20419
20383
20398
20421
20375
20377
20408
20395
20403
20415
20419
20376
20373
20370
20390
20390
20390
20395
20396
20399
20405
20442
20370
20367
20364
20385
20390
20388
20390
20390
20388
20393
20413
20375
20373
20373
20370
20384
20381
20384
20388
20393
20367
20367
20366
20372
20387
20380
20398
20399
20369
20366
20367
20371
20388
20386
20383
20389
20390
20395
20370
20370
20363
20377
20370
20381
20380
20388
20390
20391
20424
20370
20368
20382
20368
20386
20367
20365
20365
20372
20390
20366
20383
20405
20386
20370
20379
20381
20389
20399
20420
20362
20361
20358
20366
20367
20373
20387
20376
20380
20381
20380
20382
20386
20383
20396
20407
20423
20359
20363
20357
20361
20359
20358
20362
20361
20369
20372
20376
20377
20375
20383
20385
20388
20397
20359
20354
20359
20364
20367
20380
20371
20374
20380
20389
20390
20392
20362
20359
20366
20352
20372
20380
20382
20378
20390
20390
20400
20361
20364
20363
20376
20372
20380
20389
20364
20361
20363
20370
20378
20372
20371
20383
20383
20359
20358
20370
20374
20378
20388
20383
20418
20359
20367
20363
20380
20369
20374
20380
20389
20394
20352
20355
20366
20383
20369
20378
20389
20399
20357
20363
20372
20399
20361
20380
20368
20394
20376
20375
20395
20382
20404
20380
20396
20377
20394
20385
20431
20365
20406
20378
20405
20366
20391
20358
20389
20362
20394
20362
20394
20363
20388
20365
20390
20365
20375
20372
20382
20390
20436
20364
20358
20370
20384
20377
20383
20389
20400
20361
20361
20368
20373
20369
20378
20391
20359
20359
20364
20380
20388
20381
20388
20399
20430
20359
20368
20378
20380
20386
20393
20367
20362
20364
20371
20376
20387
20385
20396
20365
20362
20362
20385
20377
20382
20390
20382
20369
20361
20374
20375
20382
20394
20367
20364
20373
20382
20380
20391
20363
20361
20370
20370
20378
20387
20386
20388
20410
20364
20367
20368
20383
20376
20381
20392
20358
20356
20372
20381
20386
20402
20367
20364
20373
20380
20373
20378
20380
20378
20383
20381
20409
20362
20366
20380
20378
20388
20359
20372
20372
20377
20398
20358
20372
20367
20377
20380
20394
20364
20359
20357
20370
20368
20376
20386
20413
20358
20359
20377
20372
20377
20385
20363
20354
20364
20372
20372
20381
20385
20359
20366
20371
20374
20367
20381
20392
20365
20355
20358
20380
20373
20380
20388
20392
20359
20366
20364
20380
20380
20380
20396
20362
20364
20377
20367
20375
20376
20378
20390
20364
20358
20359
20366
20377
20376
20386
20404
20362
20371
20369
20382
20387
20359
20366
20372
20381
20406
20356
20359
20364
20370
20383
20390
20356
20366
20377
20384
20365
20366
20372
20375
20380
20398
20358
20356
20370
20389
20423
20351
20364
20381
20373
20382
20412
20356
20355
20363
20386
20375
20370
20380
20389
20423
20357
20354
20358
20357
20370
20380
20373
20376
20388
20385
20358
20359
20366
20372
20374
20383
20398
20362
20357
20362
20366
20380
20386
20356
20351
20354
20374
20373
20393
20359
20359
20372
20372
20386
20409
20356
20357
20364
20369
20378
20404
20351
20353
20360
20369
20369
20381
20380
20388
20415
20357
20355
20356
20367
20374
20377
20398
20348
20358
20360
20362
20372
20371
20380
20416
20353
20370
20372
20376
20391
20356
20357
20359
20380
20367
20381
20384
20354
20356
20366
20363
20374
20375
20384
20352
20353
20360
20359
20370
20375
20374
20376
20379
20379
20388
20385
20397
20357
20356
20357
20360
20366
20372
20380
20414
20349
20355
20366
20372
20377
20391
20354
20365
20375
20373
20383
20402
20353
20354
20358
20374
20360
20371
20376
20404
20359
20358
20354
20359
20364
20378
20386
20390
20353
20351
20365
20361
20378
20380
20359
20348
20351
20377
20380
20415
20353
20355
20369
20374
20367
20378
20382
20378
20391
20359
20358
20354
20358
20372
20368
20379
20394
20350
20365
20362
20364
20376
20389
20353
20357
20374
20367
20368
20368
20383
20360
20356
20353
20361
20373
20368
20381
20391
20412
20346
20351
20347
20380
20366
20381
20353
20356
20358
20366
20363
20379
20383
20348
20350
20359
20362
20368
20367
20388
20346
20349
20359
20377
20375
20365
20364
20377
20377
20354
20352
20370
20367
20383
20347
20347
20347
20369
20359
20372
20379
20409
20353
20342
20350
20351
20364
20369
20374
20375
20353
20359
20370
20359
20374
20391
20348
20343
20356
20371
20367
20381
20348
20348
20359
20370
20365
20378
20383
20404
20351
20348
20354
20364
20358
20365
20359
20361
20371
20375
20417
20347
20351
20361
20359
20373
20383
20354
20351
20369
20366
20365
20378
20390
20358
20354
20374
20373
20388
20350
20370
20373
20391
20442
20361
20390
20384
20412
20364
20367
20370
20389
20392
20404
20420
20365
20370
20380
20383
20404
20420
20487
20366
20358
20371
20379
20389
20402
20365
20362
20385
20388
20401
20361
20359
20380
20372
20379
20390
20412
20351
20358
20373
20363
20379
20387
20334
20354
20367
20373
20364
20369
20381
20357
20352
20357
20372
20374
20374
20379
20394
20353
20351
20352
20360
20372
20366
20379
20388
20353
20358
20370
20364
20375
20351
20351
20354
20365
20362
20380
20349
20343
20353
20370
20367
20377
20380
20353
20350
20354
20351
20357
20361
20359
20368
20376
20389
20348
20351
20350
20372
20360
20367
20418
20351
20368
20367
20375
20370
20379
20367
20394
20360
20350
20364
20348
20369
20356
20377
20365
20406
20356
20347
20369
20358
20399
20363
20350
20369
20357
20375
20361
20388
20359
20348
20362
20344
20363
20343
20364
20350
20381
20361
20391
20372
20391
20364
20382
20359
20380
20366
20373
20356
20372
20367
20358
20351
20368
20384
20344
20341
20343
20357
20359
20373
20378
20343
20349
20365
20365
20367
20350
20364
20363
20348
20343
20346
20351
20358
20374
20335
20346
20359
20360
20365
20372
20393
20345
20344
20350
20354
20357
20359
20370
20372
20342
20348
20353
20364
20354
20362
20369
20373
20372
20377
20379
20381
20399
20348
20349
20351
20351
20356
20352
20359
20361
20365
20359
20365
20362
20366
20371
20373
20385
20414
20343
20345
20356
20358
20359
20373
20380
20350
20358
20372
20414
20343
20345
20372
20362
20373
20384
20342
20343
20359
20357
20370
20386
20343
20350
20365
20358
20367
20375
20378
20414
20343
20340
20343
20347
20346
20359
20367
20365
20367
20370
20381
20384
20348
20353
20348
20346
20348
20352
20366
20357
20359
20366
20379
20423
20345
20366
20369
20345
20360
20377
20399
20344
20352
20362
20361
20359
20375
20374
20351
20346
20355
20354
20364
20367
20366
20383
20348
20343
20348
20347
20352
20365
20356
20365
20364
20369
20368
20393
20350
20346
20346
20343
20346
20359
20355
20358
20350
20364
20360
20374
20370
20374
20374
20380
20370
20386
20390
20348
20347
20343
20339
20341
20345
20347
20348
20356
20363
20365
20359
20359
20357
20361
20356
20359
20364
20362
20370
20373
20344
20338
20343
20348
20358
20361
20367
20403
20340
20348
20359
20359
20365
20377
20350
20347
20346
20351
20356
20359
20364
20364
20382
20343
20338
20353
20355
20359
20372
20382
20348
20342
20346
20364
20356
20363
20372
20338
20347
20359
20359
20366
20337
20341
20359
20356
20368
20380
20337
20343
20338
20346
20352
20363
20362
20383
20343
20361
20359
20344
20343
20350
20366
20412
20336
20351
20356
20361
20373
20337
20342
20341
20356
20360
20366
20337
20342
20346
20349
20354
20363
20353
20354
20358
20378
20340
20333
20352
20356
20357
20361
20390
20343
20342
20348
20353
20357
20365
20386
20335
20335
20355
20359
20333
20361
20387
20366
20375
20343
20354
20351
20356
20378
20340
20346
20349
20355
20360
20375
20332
20338
20361
20353
20362
20331
20343
20347
20360
20359
20358
20339
20364
20345
20383
20358
20340
20383
20361
20343
20365
20356
20337
20362
20350
20329
20359
20351
20382
20348
20333
20353
20333
20356
20353
20326
20356
20338
20367
20355
20340
20392
20359
20337
20330
20351
20335
20367
20359
20335
20352
20335
20373
20355
20336
20359
20351
20357
20344
20340
20356
20351
20359
20374
20397
20325
20343
20355
20361
20376
20337
20350
20355
20361
20384
20343
20334
20351
20356
20363
20327
20332
20357
20344
20359
20374
20337
20331
20330
20357
20352
20362
20364
20340
20343
20350
20364
20340
20340
20350
20352
20364
20337
20336
20341
20354
20354
20364
20397
20338
20362
20337
20339
20356
20364
20355
20359
20365
20367
20335
20338
20353
20355
20365
20330
20340
20348
20354
20351
20367
20373
20382
20335
20327
20334
20343
20352
20356
20356
20358
20351
20337
20361
20346
20365
20342
20339
20348
20409
20346
20328
20337
20354
20337
20366
20354
20368
20338
20367
20347
20362
20355
20380
20360
20380
20356
20364
20398
20332
20340
20348
20356
20364
20366
20369
20341
20341
20343
20349
20353
20352
20369
20328
20338
20338
20358
20351
20352
20369
20380
20340
20327
20334
20332
20335
20333
20343
20348
20355
20345
20340
20350
20358
20359
20372
20330
20330
20335
20342
20353
20359
20372
20333
20333
20351
20340
20353
20358
20331
20334
20345
20359
20332
20335
20343
20351
20399
20332
20359
20352
20362
20334
20329
20346
20344
20349
20354
20359
20329
20340
20345
20349
20340
20348
20352
20355
20359
20335
20333
20344
20359
20375
20332
20337
20351
20348
20355
20364
20361
20342
20332
20334
20352
20347
20349
20367
20335
20332
20331
20342
20349
20359
20333
20332
20337
20353
20332
20334
20345
20347
20349
20359
20371
20338
20361
20359
20369
20333
20335
20359
20363
20375
20341
20342
20354
20362
20383
20356
20351
20356
20385
20370
20391
20501
20345
20377
20369
20384
20399
20355
20351
20365
20382
20365
20388
20396
20351
20346
20347
20356
20364
20372
20356
20349
20409
20358
20361
20399
20350
20329
20352
20397
20369
20391
20361
20379
20350
20340
20342
20353
20359
20354
20353
20357
20333
20338
20357
20350
20351
20361
20380
20335
20342
20350
20357
20359
20335
20343
20352
20348
20358
20364
20335
20335
20331
20332
20342
20351
20364
20332
20329
20333
20348
20343
20344
20356
20324
20333
20340
20340
20343
20342
20346
20338
20351
20354
20331
20332
20333
20330
20348
20347
20351
20357
20366
20330
20333
20330
20335
20335
20335
20345
20345
20348
20338
20345
20351
20355
20361
20358
20372
20325
20333
20327
20331
20328
20335
20334
20348
20340
20343
20350
20356
20324
20332
20345
20340
20350
20357
20367
20376
20339
20316
20327
20329
20340
20341
20336
20350
20356
20376
20327
20328
20327
20333
20344
20337
20336
20347
20336
20336
20341
20353
20360
20375
20326
20324
20327
20347
20343
20342
20345
20351
20327
20327
20326
20337
20342
20339
20344
20350
20356
20354
20385
20329
20325
20330
20342
20347
20325
20334
20340
20364
20325
20337
20340
20350
20359
20320
20322
20330
20328
20335
20351
20348
20343
20337
20341
20357
20330
20327
20336
20343
20350
20361
20325
20326
20335
20345
20350
20307
20322
20326
20347
20340
20347
20357
20332
20328
20335
20340
20364
20321
20326
20335
20319
20327
20351
20343
20350
20357
20318
20332
20335
20349
20361
20327
20329
20347
20335
20356
20362
20316
20323
20325
20340
20334
20349
20348
20364
20324
20324
20325
20336
20343
20348
20359
20329
20327
20326
20327
20343
20346
20343
20348
20345
20324
20329
20331
20346
20361
20385
20326
20325
20340
20333
20343
20355
20330
20329
20334
20337
20353
20324
20326
20347
20339
20351
20327
20331
20340
20334
20348
20351
20387
20322
20326
20340
20340
20350
20330
20330
20331
20347
20337
20342
20341
20347
20359
20379
20325
20326
20343
20334
20338
20346
20325
20327
20330
20341
20335
20340
20347
20355
20309
20319
20332
20343
20350
20326
20325
20343
20347
20349
20322
20326
20345
20335
20338
20346
20363
20325
20324
20341
20340
20381
20318
20343
20338
20344
20327
20350
20343
20310
20335
20316
20343
20333
20362
20335
20326
20339
20327
20319
20375
20328
20329
20340
20331
20355
20350
20316
20329
20318
20338
20322
20335
20326
20338
20319
20336
20332
20338
20332
20334
20344
20372
20325
20321
20329
20342
20335
20338
20335
20345
20367
20324
20326
20335
20330
20333
20337
20340
20353
20320
20318
20319
20326
20335
20330
20340
20344
20359
20319
20316
20327
20344
20336
20338
20324
20327
20324
20341
20338
20349
20391
20318
20330
20346
20359
20321
20320
20335
20335
20339
20363
20322
20327
20330
20342
20365
20318
20313
20324
20345
20329
20342
20359
20317
20315
20335
20330
20341
20345
20383
20323
20325
20334
20327
20332
20335
20334
20347
20317
20313
20330
20335
20334
20342
20359
20316
20319
20331
20329
20329
20335
20341
20343
20356
20311
20315
20318
20340
20327
20339
20361
20312
20314
20334
20327
20335
20348
20312
20317
20319
20335
20326
20343
20372
20320
20324
20333
20354
20316
20322
20331
20342
20348
20356
20316
20315
20332
20329
20338
20355
20316
20311
20327
20336
20325
20332
20333
20359
20313
20314
20308
20330
20328
20337
20365
20316
20317
20340
20333
20343
20348
20317
20311
20318
20330
20334
20327
20329
20340
20355
20309
20313
20315
20316
20329
20335
20340
20350
20311
20327
20330
20343
20319
20318
20324
20327
20332
20342
20354
20310
20311
20318
20325
20333
20331
20327
20327
20339
20340
20342
20341
20357
20318
20316
20307
20321
20328
20325
20328
20329
20341
20338
20343
20357
20310
20310
20321
20324
20333
20346
20316
20319
20319
20325
20332
20343
20313
20311
20322
20332
20345
20310
20311
20343
20330
20337
20360
20316
20316
20324
20332
20354
20311
20312
20322
20324
20326
20338
20308
20316
20327
20326
20356
20308
20325
20324
20327
20334
20343
20362
20310
20316
20315
20316
20323
20326
20337
20338
20351
20310
20311
20329
20323
20340
20344
20311
20313
20318
20327
20326
20332
20334
20346
20311
20311
20319
20323
20320
20343
20317
20311
20305
20334
20324
20335
20346
20309
20309
20319
20322
20333
20343
20340
20329
20309
20327
20306
20333
20317
20366
20329
20370
20334
20390
20324
20309
20324
20351
20341
20341
20367
20314
20315
20315
20302
20313
20313
20315
20316
20320
20332
20330
20330
20327
20348
20309
20308
20306
20335
20329
20338
20346
20316
20316
20322
20327
20329
20335
20337
20309
20311
20311
20326
20327
20340
20305
20309
20333
20326
20334
20308
20311
20321
20319
20322
20339
20343
20298
20310
20330
20319
20332
20333
20311
20311
20311
20327
20324
20345
20306
20305
20324
20324
20329
20335
20307
20311
20316
20331
20356
20302
20310
20325
20320
20324
20332
20364
20308
20310
20318
20321
20330
20337
20318
20317
20323
20334
20377
20319
20326
20345
20372
20315
20327
20329
20348
20358
20391
20325
20325
20328
20331
20349
20348
20352
20364
20383
20330
20329
20342
20343
20359
20363
20367
20319
20319
20325
20336
20337
20345
20338
20350
20323
20317
20321
20335
20331
20336
20338
20319
20313
20331
20339
20312
20317
20324
20335
20335
20332
20341
20339
20320
20319
20316
20327
20330
20327
20337
20311
20313
20322
20317
20324
20334
20370
20309
20325
20322
20332
20349
20309
20319
20330
20325
20321
20325
20332
20306
20307
20311
20319
20325
20336
20339
20375
20302
20308
20327
20313
20324
20324
20325
20335
20310
20311
20315
20319
20324
20328
20298
20303
20309
20319
20326
20328
20323
20324
20337
20338
20337
20351
20307
20303
20326
20321
20320
20324
20339
20307
20306
20300
20304
20320
20332
20319
20315
20326
20333
20358
20305
20301
20311
20313
20322
20319
20326
20329
20356
20305
20302
20308
20328
20319
20327
20344
20303
20305
20325
20319
20322
20326
20307
20307
20312
20315
20319
20324
20321
20316
20318
20319
20319
20320
20327
20339
20307
20305
20309
20306
20312
20327
20322
20326
20330
20303
20308
20303
20306
20300
20304
20305
20330
20321
20325
20343
20371
20303
20300
20300
20310
20317
20327
20316
20320
20329
20330
20311
20300
20306
20324
20319
20318
20327
20338
20350
20305
20301
20307
20307
20327
20319
20324
20326
20339
20300
20305
20308
20327
20317
20324
20335
20367
20299
20308
20329
20319
20330
20337
20334
20352
20303
20303
20305
20307
20314
20314
20327
20361
20298
20308
20332
20323
20327
20338
20362
20301
20297
20326
20323
20324
20329
20335
20337
20354
20304
20300
20307
20321
20318
20318
20329
20332
20348
20303
20305
20304
20311
20318
20331
20340
20308
20310
20327
20326
20333
20309
20305
20308
20318
20324
20342
20373
20296
20323
20324
20338
20306
20314
20321
20320
20332
20307
20311
20321
20318
20324
20327
20328
20369
20300
20309
20316
20329
20335
20298
20307
20311
20330
20313
20319
20324
20329
20310
20308
20308
20304
20309
20314
20324
20327
20340
20302
20301
20315
20309
20313
20328
20327
20332
20357
20307
20309
20316
20313
20312
20321
20324
20302
20299
20324
20317
20326
20330
20335
20363
20297
20300
20312
20313
20323
20319
20330
20343
20303
20303
20303
20306
20319
20321
20325
20308
20302
20303
20324
20324
20333
20303
20298
20292
20312
20315
20313
20320
20326
20303
20296
20308
20316
20328
20359
20298
20300
20302
20313
20306
20313
20320
20324
20335
20298
20301
20295
20304
20316
20315
20317
20313
20326
20298
20299
20303
20314
20305
20318
20319
20332
20331
20358
20297
20297
20308
20314
20311
20316
20321
20342
20294
20297
20301
20322
20309
20311
20325
20367
20295
20296
20318
20313
20326
20303
20308
20319
20313
20323
20345
20293
20300
20312
20309
20293
20316
20300
20327
20314
20292
20323
20340
20320
20338
20327
20332
20309
20323
20300
20327
20341
20294
20297
20302
20305
20314
20326
20289
20292
20320
20311
20316
20327
20329
20333
20297
20296
20296
20298
20296
20293
20294
20296
20295
20296
20296
20300
20308
20322
20308
20308
20318
20324
20327
20295
20301
20294
20298
20294
20309
20303
20316
20316
20315
20324
20290
20287
20292
20302
20305
20308
20306
20305
20311
20304
20302
20304
20316
20308
20319
20337
20287
20287
20292
20296
20292
20294
20307
20303
20311
20322
20289
20290
20295
20302
20303
20307
20313
20321
20314
20292
20287
20297
20302
20309
20308
20315
20351
20298
20287
20295
20307
20307
20319
20316
20325
20292
20292
20290
20295
20294
20288
20297
20306
20300
20300
20310
20316
20327
20331
20289
20292
20289
20284
20286
20296
20295
20307
20311
20324
20291
20287
20282
20292
20309
20304
20316
20337
20286
20284
20292
20310
20308
20317
20292
20284
20311
20297
20303
20311
20334
20343
20286
20287
20282
20290
20292
20302
20308
20294
20308
20324
20284
20281
20303
20298
20309
20310
20316
20345
20290
20284
20290
20293
20303
20312
20364
20280
20290
20312
20296
20303
20314
20287
20291
20302
20300
20309
20311
20334
20281
20285
20292
20304
20300
20306
20314
20321
20351
20286
20279
20281
20286
20295
20300
20296
20309
20309
20306
20310
20314
20312
20323
20340
20356
20284
20283
20280
20287
20299
20309
20295
20308
20329
20283
20289
20297
20292
20303
20299
20313
20348
20288
20287
20297
20295
20301
20319
20281
20282
20296
20305
20298
20300
20314
20321
20292
20288
20285
20293
20296
20296
20300
20305
20302
20318
20291
20286
20284
20289
20303
20298
20295
20310
20315
20292
20287
20286
20285
20292
20302
20300
20303
20304
20309
20324
20279
20287
20281
20286
20288
20304
20307
20300
20300
20313
20327
20285
20287
20292
20299
20302
20294
20302
20290
20301
20295
20298
20316
20327
20280
20283
20284
20293
20308
20298
20293
20301
20298
20305
20303
20320
20279
20284
20302
20292
20306
20335
20276
20291
20298
20309
20313
20321
20280
20280
20289
20303
20306
20285
20295
20309
20276
20288
20301
20310
20279
20275
20293
20294
20308
20274
20280
20289
20301
20295
20299
20310
20310
20282
20279
20278
20283
20292
20295
20303
20308
20270
20277
20272
20281
20296
20291
20295
20310
20325
20286
20281
20288
20303
20301
20311
20313
20352
20281
20291
20292
20306
20310
20318
20343
20290
20297
20319
20316
20341
20426
20292
20310
20317
20329
20337
20298
20293
20314
20327
20346
20291
20294
20307
20319
20341
20292
20289
20301
20309
20319
20295
20288
20299
20301
20308
20282
20282
20305
20305
20327
20285
20287
20296
20313
20288
20282
20297
20297
20298
20311
20290
20286
20286
20294
20292
20307
20281
20282
20292
20292
20305
20314
20282
20281
20310
20297
20296
20302
20287
20286
20295
20299
20309
20308
20277
20287
20299
20291
20289
20292
20301
20311
20280
20275
20274
20282
20287
20290
20295
20292
20292
20297
20322
20282
20275
20283
20292
20295
20295
20312
20278
20278
20283
20290
20290
20291
20308
20311
20286
20280
20284
20290
20292
20301
20274
20276
20279
20290
20289
20294
20343
20276
20294
20294
20301
20325
20275
20288
20293
20295
20302
20276
20293
20285
20303
20281
20280
20282
20297
20318
20273
20279
20286
20300
20321
20270
20278
20300
20290
20295
20305
20271
20273
20292
20287
20297
20271
20269
20277
20290
20289
20296
20302
20272
20275
20278
20287
20285
20292
20292
20310
20279
20285
20293
20288
20299
20311
20273
20271
20294
20294
20303
20307
20271
20278
20284
20284
20289
20298
20311
20277
20283
20283
20294
20286
20295
20302
20316
20266
20269
20277
20290
20287
20293
20275
20281
20278
20300
20255
20277
20280
20280
20293
20288
20291
20302
20326
20273
20272
20295
20283
20290
20295
20301
20310
20277
20275
20278
20280
20300
20289
20294
20308
20271
20274
20275
20294
20287
20300
20321
20271
20262
20290
20284
20296
20311
20319
20279
20284
20277
20277
20280
20282
20290
20293
20310
20273
20268
20273
20284
20294
20287
20293
20299
20307
20314
20335
20279
20277
20285
20294
20292
20299
20309
20278
20276
20275
20281
20287
20302
20290
20295
20306
20319
20274
20294
20299
20305
20325
20282
20293
20290
20298
20277
20280
20288
20298
20320
20271
20273
20268
20278
20292
20295
20300
20297
20282
20285
20292
20296
20299
20316
20277
20279
20275
20284
20292
20281
20294
20299
20303
20301
20269
20265
20276
20285
20286
20297
20286
20292
20290
20300
20319
20271
20276
20277
20293
20276
20284
20295
20291
20315
20270
20274
20270
20272
20276
20276
20282
20284
20284
20283
20285
20293
20287
20288
20286
20300
20314
20264
20267
20273
20270
20283
20289
20282
20286
20292
20288
20298
20305
20274
20270
20268
20279
20284
20285
20290
20287
20299
20270
20266
20288
20287
20297
20266
20266
20276
20292
20280
20281
20288
20303
20314
20264
20263
20270
20265
20293
20296
20261
20266
20265
20266
20286
20279
20285
20293
20295
20297
20265
20267
20276
20285
20281
20287
20298
20304
20264
20262
20272
20284
20278
20281
20293
20322
20269
20270
20276
20281
20285
20284
20301
20267
20265
20260
20266
20273
20281
20278
20278
20287
20288
20297
20256
20267
20271
20277
20278
20282
20287
20308
20264
20280
20276
20293
20263
20269
20276
20278
20287
20300
20260
20271
20284
20294
20330
20268
20268
20286
20276
20278
20286
20303
20261
20269
20273
20285
20292
20324
20256
20282
20280
20295
20264
20269
20287
20282
20288
20292
20262
20290
20279
20261
20271
20258
20271
20253
20267
20332
20272
20252
20285
20327
20268
20325
20273
20280
20293
20295
20260
20263
20260
20263
20261
20266
20282
20275
20274
20286
20300
20326
20254
20260
20258
20260
20287
20270
20276
20273
20285
20287
20312
20260
20254
20278
20283
20284
20294
20258
20257
20262
20272
20268
20279
20273
20279
20278
20278
20286
20292
20262
20262
20261
20266
20282
20266
20276
20278
20289
20295
20324
20255
20257
20261
20276
20272
20282
20288
20257
20260
20268
20263
20270
20271
20279
20289
20293
20249
20253
20276
20272
20282
20321
20269
20278
20271
20288
20264
20260
20271
20269
20278
20286
20256
20254
20275
20272
20285
20248
20261
20267
20266
20268
20284
20322
20259
20277
20268
20280
20279
20289
20257
20257
20263
20263
20273
20262
20271
20278
20280
20284
20285
20296
20248
20257
20274
20273
20274
20276
20273
20277
20293
20258
20255
20255
20265
20261
20265
20272
20280
20257
20253
20257
20258
20278
20268
20272
20280
20284
20295
20255
20252
20254
20258
20278
20264
20268
20276
20279
20287
20288
20279
20251
20252
20262
20266
20276
20272
20287
20250
20257
20261
20262
20268
20282
20255
20247
20249
20256
20263
20267
20269
20274
20271
20273
20285
20284
20251
20257
20257
20267
20267
20277
20279
20292
20309
20308
20292
20250
20252
20253
20251
20252
20250
20246
20254
20260
20267
20277
20265
20280
20271
20276
20283
20319
20252
20250
20247
20272
20265
20265
20277
20286
20254
20254
20260
20265
20271
20286
20308
20255
20253
20260
20266
20263
20264
20266
20272
20294
20254
20250
20268
20268
20279
20249
20249
20264
20276
20309
20252
20252
20262
20270
20290
20247
20245
20255
20268
20264
20269
20267
20268
20269
20268
20281
20253
20250
20255
20261
20260
20269
20266
20274
20294
20246
20253
20257
20254
20270
20280
20263
20244
20244
20243
20251
20254
20260
20268
20262
20265
20269
20294
20256
20250
20245
20255
20250
20261
20271
20285
20241
20246
20247
20253
20269
20265
20264
20271
20270
20270
20277
20254
20246
20256
20262
20267
20275
20291
20239
20253
20250
20264
20260
20258
20257
20261
20265
20267
20269
20254
20257
20260
20260
20253
20268
20263
20279
20295
20255
20253
20260
20263
20279
20282
20286
20305
20314
20335
20260
20268
20268
20270
20262
20283
20284
20295
20292
20282
20284
20282
20296
20326
20261
20258
20256
20265
20266
20272
20278
20273
20277
20284
20289
20319
20254
20251
20253
20253
20256
20280
20260
20263
20263
20279
20281
20290
20254
20251
20258
20262
20263
20266
20259
20263
20260
20268
20278
20242
20250
20251
20258
20263
20268
20268
20263
20259
20263
20263
20263
20263
20262
20263
20263
20266
20276
20268
20308
20240
20243
20245
20255
20268
20260
20262
20271
20249
20248
20249
20249
20260
20256
20262
20266
20279
20242
20253
20244
20249
20247
20250
20262
20258
20259
20261
20264
20272
20248
20246
20248
20262
20255
20259
20257
20254
20254
20252
20254
20260
20261
20267
20285
20238
20237
20239
20251
20263
20261
20256
20259
20244
20249
20247
20241
20252
20251
20260
20297
20249
20252
20248
20261
20264
20268
20284
20242
20236
20240
20245
20260
20258
20260
20263
20268
20264
20296
20240
20234
20239
20234
20240
20255
20248
20255
20248
20244
20247
20243
20254
20247
20250
20262
20252
20257
20264
20269
20263
20272
20282
20240
20252
20263
20256
20270
20272
20292
20241
20243
20247
20260
20255
20260
20261
20261
20268
20284
20311
20241
20239
20241
20239
20239
20240
20237
20244
20237
20241
20244
20244
20246
20251
20243
20255
20248
20249
20262
20262
20257
20256
20256
20247
20265
20268
20254
20255
20261
20263
20271
20277
20305
20241
20244
20258
20260
20264
20265
20272
20240
20242
20244
20244
20259
20261
20266
20269
20265
20254
20260
20265
20266
20264
20262
20252
20253
20269
20268
20293
20237
20239
20238
20251
20262
20255
20259
20268
20279
20279
20284
20287
20311
20309
20248
20245
20255
20252
20263
20266
20270
20268
20270
20257
20254
20257
20260
20259
20268
20273
20275
20250
20258
20250
20259
20254
20263
20266
20269
20282
20305
20245
20246
20252
20250
20249
20261
20255
20261
20265
20270
20279
20245
20250
20255
20261
20258
20254
20263
20267
20277
20296
20241
20240
20248
20247
20266
20252
20264
20264
20276
20292
20244
20242
20238
20246
20244
20256
20262
20261
20256
20260
20273
20240
20248
20253
20250
20259
20270
20268
20271
20245
20241
20247
20256
20261
20254
20255
20255
20261
20273
20249
20238
20248
20251
20260
20255
20263
20269
20268
20245
20241
20241
20250
20245
20242
20249
20249
20257
20253
20261
20257
20260
20260
20250
20254
20258
20252
20261
20257
20260
20262
20249
20260
20256
20252
20258
20261
20259
20255
20266
20268
20238
20241
20251
20257
20263
20272
20297
20247
20243
20257
20255
20291
20242
20261
20270
20242
20255
20253
20239
20252
20241
20250
20239
20263
20245
20277
20260
20244
20260
20241
20264
20244
20255
20263
20292
20237
20233
20259
20251
20257
20261
20262
20282
20238
20239
20241
20263
20250
20257
20258
20265
20290
20238
20238
20240
20250
20252
20252
20246
20256
20267
20273
20309
20236
20236
20236
20241
20255
20247
20258
20263
20234
20238
20236
20233
20239
20244
20255
20260
20254
20246
20262
20257
20273
20231
20234
20239
20262
20255
20246
20259
20269
20232
20233
20232
20248
20245
20248
20262
20288
20235
20236
20238
20243
20258
20252
20255
20266
20289
20232
20244
20241
20248
20252
20245
20266
20268
20227
20228
20244
20247
20255
20263
20231
20236
20236
20244
20253
20245
20260
20260
20231
20231
20237
20233
20236
20240
20248
20263
20230
20230
20261
20247
20255
20266
20282
20266
20238
20234
20229
20247
20247
20255
20232
20253
20253
20236
20229
20231
20246
20249
20254
20262
20273
20229
20231
20231
20228
20231
20237
20241
20250
20250
20248
20252
20244
20242
20253
20266
20261
20275
20231
20225
20231
20235
20242
20253
20248
20237
20249
20250
20259
20250
20254
20260
20228
20225
20228
20229
20234
20239
20247
20256
20255
20255
20247
20248
20253
20257
20248
20255
20254
20252
20252
20253
20263
20284
20287
20223
20228
20235
20227
20226
20224
20235
20247
20235
20245
20246
20251
20246
20262
20254
20252
20260
20265
20268
20292
20228
20224
20226
20242
20237
20239
20249
20249
20252
20260
20260
20255
20260
20261
20284
20229
20232
20224
20219
20233
20252
20245
20239
20252
20253
20268
20236
20226
20221
20228
20229
20232
20243
20240
20242
20244
20242
20246
20247
20244
20250
20250
20261
20229
20229
20228
20225
20234
20247
20243
20250
20253
20244
20244
20252
20266
20284
20288
20222
20231
20224
20230
20247
20242
20252
20266
20228
20226
20242
20239
20245
20259
20257
20224
20224
20228
20226
20232
20250
20243
20240
20236
20253
20247
20256
20259
20258
20257
20249
20259
20263
20265
20261
20263
20269
20264
20253
20267
20228
20231
20226
20225
20224
20223
20225
20228
20229
20243
20243
20240
20252
20259
20258
20279
20229
20230
20218
20237
20252
20234
20238
20238
20247
20259
20271
20223
20228
20225
20239
20242
20249
20246
20250
20226
20222
20229
20238
20243
20250
20271
20222
20225
20238
20245
20287
20223
20230
20239
20244
20261
20229
20226
20226
20246
20240
20242
20247
20246
20264
20222
20226
20247
20241
20255
20287
20228
20222
20244
20243
20237
20243
20239
20246
20263
20226
20217
20231
20240
20230
20236
20247
20261
20279
20220
20216
20221
20225
20234
20242
20259
20260
20224
20221
20228
20242
20236
20242
20241
20251
20218
20222
20219
20227
20231
20234
20248
20242
20239
20250
20252
20259
20245
20244
20244
20247
20242
20247
20263
20260
20268
20280
20289
20309
20240
20241
20244
20241
20247
20254
20274
20261
20271
20277
20290
20335
20244
20244
20239
20235
20239
20248
20251
20255
20254
20258
20254
20246
20247
20236
20241
20235
20236
20236
20232
20231
20230
20226
20236
20237
20248
20249
20242
20245
20244
20247
20253
20253
20284
20230
20228
20240
20242
20242
20249
20233
20229
20228
20235
20246
20241
20239
20246
20250
20258
20274
20222
20219
20228
20225
20224
20229
20232
20236
20233
20229
20225
20233
20233
20238
20231
20242
20254
20253
20260
20291
20220
20229
20223
20224
20230
20242
20245
20235
20235
20231
20239
20244
20266
20215
20229
20242
20221
20231
20239
20250
20218
20230
20231
20229
20234
20242
20245
20245
20237
20237
20241
20241
20244
20260
20255
20250
20254
20271
20220
20221
20217
20226
20220
20222
20223
20229
20237
20237
20237
20237
20239
20238
20243
20246
20255
20251
20218
20215
20220
20217
20218
20231
20218
20222
20229
20242
20236
20236
20238
20239
20238
20240
20242
20249
20246
20255
20286
20279
20222
20215
20208
20228
20242
20236
20235
20238
20248
20248
20248
20260
20220
20220
20219
20218
20217
20219
20221
20217
20222
20221
20228
20226
20224
20222
20229
20228
20231
20230
20239
20234
20236
20244
20231
20238
20244
20252
20264
20266
20299
20295
20237
20220
20218
20223
20236
20246
20238
20238
20231
20239
20238
20235
20236
20236
20239
20243
20247
20257
20222
20221
20224
20225
20220
20235
20236
20242
20250
20228
20228
20231
20233
20244
20235
20234
20239
20248
20275
20223
20218
20217
20228
20240
20245
20239
20241
20251
20250
20260
20271
20228
20223
20229
20245
20233
20240
20256
20220
20220
20222
20259
20247
20244
20260
20271
20295
20228
20225
20228
20226
20232
20240
20237
20248
20276
20222
20225
20239
20239
20251
20298
20225
20234
20240
20239
20244
20249
20248
20260
20231
20230
20238
20236
20238
20250
20222
20223
20220
20238
20233
20242
20254
20222
20220
20226
20236
20246
20232
20234
20239
20241
20252
20220
20218
20225
20229
20231
20229
20238
20253
20218
20216
20226
20231
20237
20233
20233
20242
20239
20239
20248
20258
20212
20209
20220
20236
20229
20231
20240
20255
20214
20229
20230
20239
20232
20245
20246
20254
20221
20222
20218
20221
20220
20239
20230
20230
20240
20212
20220
20236
20250
20215
20232
20232
20272
20219
20234
20230
20221
20230
20220
20228
20217
20224
20243
20220
20239
20220
20247
20223
20242
20222
20259
20228
20211
20228
20222
20239
20216
20243
20231
20245
20226
20236
20223
20239
20226
20251
20230
20268
20237
20260
20228
20209
20227
20213
20225
20219
20223
20212
20227
20219
20242
20231
20222
20207
20250
20222
20247
20230
20250
20234
20264
20223
20270
20234
20244
20223
20242
20218
20227
20234
20229
20226
20228
20237
20247
20250
20210
20207
20213
20212
20224
20233
20226
20228
20237
20243
20247
20251
20207
20204
20211
20222
20226
20223
20236
20241
20247
20228
20211
20217
20223
20231
20223
20228
20239
20246
20239
20263
20203
20207
20262
20252
20207
20207
20207
20218
20215
20225
20228
20230
20241
20268
20204
20206
20212
20221
20218
20228
20252
20209
20218
20214
20231
20279
20207
20211
20221
20237
20203
20212
20215
20225
20229
20257
20209
20212
20221
20220
20220
20232
20203
20207
20205
20210
20223
20223
20235
20240
20262
20202
20212
20237
20222
20231
20240
20211
20214
20219
20222
20237
20253
20201
20211
20209
20230
20244
20201
20206
20207
20225
20222
20228
20262
20208
20208
20218
20220
20226
20237
20204
20204
20220
20226
20227
20203
20212
20212
20224
20241
20277
20207
20205
20218
20228
20231
20257
20204
20204
20208
20211
20217
20216
20222
20203
20251
20199
20199
20215
20220
20227
20234
20248
20203
20201
20206
20202
20205
20215
20226
20217
20228
20233
20199
20200
20199
20221
20220
20231
20270
20200
20204
20223
20212
20221
20231
20239
20247
20260
20205
20203
20200
20216
20222
20219
20223
20229
20277
20198
20204
20215
20202
20218
20233
20205
20200
20213
20217
20222
20229
20207
20199
20214
20212
20223
20249
20198
20203
20213
20223
20236
20196
20195
20224
20214
20218
20228
20241
20196
20202
20226
20218
20217
20225
20243
20200
20202
20199
20199
20205
20222
20214
20220
20236
20231
20250
20198
20196
20199
20208
20215
20211
20209
20217
20231
20226
20238
20245
20260
20261
20194
20197
20210
20212
20221
20223
20231
20199
20203
20217
20211
20220
20229
20201
20198
20204
20208
20218
20231
20197
20199
20202
20221
20217
20213
20224
20230
20231
20200
20199
20208
20206
20218
20223
20232
20263
20191
20196
20196
20198
20201
20221
20209
20206
20223
20225
20227
20231
20201
20199
20204
20215
20215
20220
20228
20236
20262
20196
20192
20197
20229
20197
20258
20220
20204
20230
20215
20237
20207
20220
20198
20215
20196
20202
20200
20207
20198
20195
20210
20214
20213
20214
20219
20220
20224
20229
20188
20199
20198
20202
20220
20209
20211
20211
20205
20210
20212
20206
20211
20211
20207
20214
20208
20217
20220
20213
20219
20221
20228
20198
20203
20196
20194
20204
20206
20208
20213
20222
20244
20190
20199
20199
20212
20205
20215
20217
20230
20192
20187
20197
20210
20204
20209
20222
20222
20260
20193
20193
20201
20196
20206
20212
20223
20238
20186
20199
20200
20202
20217
20199
20196
20198
20204
20218
20224
20190
20197
20198
20204
20215
20220
20228
20238
20246
20206
20206
20238
20231
20254
20205
20212
20239
20230
20249
20268
20365
20202
20210
20239
20231
20245
20262
20210
20214
20243
20223
20243
20274
20207
20214
20217
20223
20227
20232
20271
20199
20225
20222
20199
20219
20216
20225
20236
20198
20198
20223
20214
20220
20203
20208
20213
20212
20215
20231
20198
20195
20206
20220
20230
20195
20216
20209
20219
20245
20200
20211
20212
20221
20197
20197
20211
20207
20218
20192
20194
20200
20214
20258
20191
20204
20209
20214
20241
20192
20194
20204
20205
20209
20209
20206
20212
20214
20209
20214
20226
20196
20190
20189
20196
20207
20212
20206
20204
20208
20210
20221
20194
20198
20190
20192
20195
20208
20199
20202
20214
20214
20225
20220
20222
20230
20255
20189
20191
20196
20205
20206
20210
20200
20201
20207
20201
20199
20196
20198
20200
20198
20196
20204
20194
20207
20215
20220
20223
20184
20191
20192
20196
20204
20202
20198
20202
20200
20207
20204
20215
20215
20219
20220
20244
20183
20187
20181
20188
20196
20212
20203
20205
20207
20213
20230
20188
20189
20188
20202
20202
20201
20209
20219
20183
20188
20193
20206
20207
20214
20224
20188
20190
20192
20191
20201
20196
20202
20212
20246
20180
20203
20196
20212
20218
20189
20189
20190
20193
20201
20218
20191
20199
20215
20187
20185
20189
20200
20202
20205
20226
20188
20181
20193
20199
20202
20209
20216
20235
20180
20184
20197
20205
20198
20200
20206
20220
20185
20183
20185
20190
20202
20197
20212
20234
20185
20186
20193
20192
20201
20207
20204
20215
20215
20223
20192
20188
20188
20183
20191
20198
20206
20201
20192
20202
20210
20212
20219
20220
20203
20189
20194
20189
20197
20204
20201
20206
20204
20208
20210
20217
20220
20216
20227
20193
20190
20208
20212
20234
20188
20217
20211
20206
20199
20207
20213
20212
20215
20218
20217
20224
20212
20242
20190
20191
20191
20191
20188
20194
20195
20188
20192
20196
20195
20199
20194
20196
20188
20193
20190
20188
20184
20195
20186
20183
20187
20185
20186
20188
20193
20195
20198
20205
20210
20211
20198
20196
20198
20198
20199
20204
20204
20208
20212
20200
20210
20212
20209
20216
20207
20210
20212
20206
20204
20207
20207
20206
20212
20212
20229
20238
20184
20181
20188
20184
20207
20199
20200
20207
20210
20210
20214
20208
20211
20214
20213
20212
20212
20207
20207
20212
20206
20223
20185
20181
20182
20180
20181
20197
20207
20204
20200
20199
20202
20202
20201
20197
20198
20203
20205
20198
20218
20217
20225
20242
20183
20188
20177
20190
20202
20206
20194
20196
20196
20215
20206
20212
20213
20210
20210
20215
20204
20207
20204
20206
20215
20212
20212
20213
20213
20211
20215
20223
20193
20184
20185
20182
20186
20182
20193
20187
20191
20189
20200
20212
20181
20186
20193
20200
20195
20204
20212
20219
20185
20182
20184
20191
20198
20196
20201
20208
20229
20243
20188
20174
20175
20175
20186
20188
20199
20194
20200
20212
20186
20188
20188
20205
20199
20205
20175
20172
20178
20187
20188
20196
20215
20183
20189
20188
20197
20212
20216
20183
20185
20184
20182
20186
20191
20190
20196
20196
20207
20212
20223
20177
20181
20185
20180
20183
20195
20193
20201
20198
20206
20206
20215
20178
20179
20190
20190
20197
20202
20214
20258
20177
20180
20182
20182
20192
20200
20193
20198
20202
20179
20180
20183
20198
20193
20201
20205
20217
20172
20174
20180
20197
20193
20199
20212
20175
20179
20179
20191
20189
20198
20202
20218
20180
20176
20178
20180
20179
20197
20187
20199
20198
20208
20209
20209
20214
20239
20244
20226
20206
20178
20178
20229
20210
20228
20205
20207
20209
20216
20215
20227
20261
20178
20170
20179
20170
20179
20175
20184
20190
20199
20199
20202
20195
20197
20196
20194
20191
20207
20195
20193
20197
20188
20192
20188
20189
20188
20198
20196
20202
20200
20199
20207
20204
20199
20215
20214
20206
20204
20206
20250
20170
20172
20170
20173
20179
20177
20184
20192
20192
20200
20191
20188
20192
20191
20197
20199
20186
20185
20185
20193
20200
20196
20187
20192
20197
20200
20207
20211
20239
20178
20175
20168
20184
20188
20193
20189
20196
20199
20198
20198
20199
20201
20199
20197
20197
20194
20198
20194
20195
20196
20190
20194
20188
20198
20205
20214
20220
20224
20206
20204
20204
20209
20206
20206
20200
20203
20209
20172
20178
20174
20179
20166
20169
20177
20181
20178
20191
20183
20183
20198
20198
20206
20166
20173
20184
20184
20196
20181
20197
20204
20178
20173
20185
20185
20184
20198
20194
20206
20163
20166
20180
20197
20186
20197
20196
20201
20206
20230
20172
20177
20185
20196
20173
20175
20193
20246
20162
20172
20178
20187
20184
20193
20196
20204
20210
20167
20173
20176
20172
20181
20196
20185
20186
20198
20220
20238
20170
20165
20165
20166
20170
20165
20172
20177
20188
20186
20187
20195
20186
20184
20184
20196
20198
20170
20168
20170
20181
20181
20188
20199
20245
20166
20166
20185
20178
20183
20190
20189
20189
20187
20192
20197
20204
20166
20162
20159
20167
20171
20176
20186
20191
20193
20179
20176
20182
20190
20204
20228
20167
20179
20185
20183
20180
20194
20197
20163
20163
20167
20190
20181
20183
20196
20197
20166
20167
20172
20168
20165
20180
20181
20182
20194
20207
20165
20156
20156
20164
20168
20181
20174
20179
20188
20197
20208
20161
20169
20177
20186
20183
20186
20186
20201
20207
20245
20175
20172
20180
20188
20204
20225
20272
20180
20180
20181
20184
20182
20186
20188
20207
20217
20200
20226
20184
20207
20212
20176
20197
20209
20215
20175
20176
20184
20201
20191
20202
20208
20220
20177
20172
20179
20189
20186
20183
20192
20190
20199
20212
20165
20166
20165
20168
20187
20180
20195
20206
20174
20168
20171
20171
20183
20182
20187
20180
20169
20166
20165
20183
20176
20187
20189
20190
20163
20170
20179
20185
20180
20184
20188
20186
20172
20164
20169
20182
20174
20176
20177
20187
20175
20184
20187
20191
20194
20157
20159
20173
20173
20181
20169
20180
20184
20186
20186
20188
20196
20162
20162
20166
20162
20169
20182
20170
20176
20188
20202
20156
20163
20168
20175
20175
20183
20173
20181
20182
20198
20161
20158
20164
20167
20180
20186
20212
20151
20162
20160
20174
20185
20170
20179
20180
20188
20208
20166
20165
20170
20169
20172
20182
20192
20154
20159
20166
20156
20184
20168
20180
20186
20212
20162
20164
20178
20173
20176
20176
20176
20186
20154
20156
20159
20170
20174
20174
20192
20169
20161
20161
20180
20175
20183
20176
20185
20181
20186
20164
20162
20165
20182
20170
20175
20168
20164
20179
20177
20190
20203
20229
20157
20153
20158
20163
20160
20170
20174
20168
20170
20182
20186
20165
20155
20154
20191
20169
20154
20171
20154
20192
20172
20160
20182
20164
20201
20170
20164
20190
20171
20164
20158
20180
20169
20150
20172
20155
20170
20213
20166
20183
20164
20182
20193
20166
20197
20158
20161
20166
20161
20162
20164
20181
20167
20170
20179
20188
20196
20164
20154
20161
20159
20161
20164
20187
20177
20169
20174
20181
20186
20188
20218
20159
20158
20166
20168
20178
20166
20180
20184
20198
20198
20225
20157
20156
20157
20164
20182
20175
20173
20183
20189
20150
20159
20158
20169
20182
20167
20184
20196
20225
20160
20164
20161
20167
20183
20174
20180
20182
20208
20156
20156
20167
20169
20168
20174
20184
20212
20158
20156
20165
20174
20170
20173
20182
20192
20162
20164
20165
20164
20169
20169
20180
20201
20157
20170
20171
20176
20188
20192
20159
20166
20161
20174
20172
20177
20182
20180
20160
20160
20159
20167
20167
20169
20189
20167
20168
20186
20200
20157
20151
20160
20173
20181
20159
20163
20172
20168
20164
20174
20195
20159
20158
20172
20166
20176
20184
20201
20149
20160
20180
20175
20171
20182
20152
20156
20161
20157
20164
20169
20170
20165
20166
20168
20178
20180
20210
20152
20156
20162
20173
20165
20173
20183
20189
20156
20164
20149
20155
20164
20162
20159
20160
20180
20174
20164
20166
20175
20180
20203
20149
20148
20147
20173
20160
20174
20168
20171
20198
20150
20153
20149
20155
20169
20165
20167
20160
20165
20172
20174
20176
20180
20181
20182
20190
20148
20150
20149
20149
20149
20156
20170
20162
20169
20172
20175
20182
20186
20196
20185
20185
20192
20149
20147
20148
20154
20148
20140
20153
20165
20158
20159
20160
20175
20188
20146
20140
20142
20146
20172
20174
20159
20163
20167
20173
20175
20188
20145
20148
20143
20154
20147
20144
20154
20156
20166
20170
20167
20175
20178
20173
20175
20167
20164
20160
20161
20164
20166
20163
20162
20160
20163
20167
20164
20163
20164
20170
20170
20164
20162
20156
20166
20171
20174
20178
20182
20150
20147
20142
20158
20154
20164
20167
20174
20140
20142
20142
20149
20173
20178
20143
20142
20154
20144
20147
20145
20146
20145
20149
20156
20165
20163
20151
20159
20157
20167
20166
20175
20143
20142
20140
20165
20156
20162
20160
20171
20162
20164
20168
20174
20183
20144
20136
20138
20142
20162
20150
20156
20163
20164
20165
20169
20172
20137
20140
20138
20147
20147
20150
20148
20164
20150
20154
20152
20165
20164
20165
20165
20166
20171
20174
20202
20136
20139
20143
20143
20142
20153
20144
20157
20154
20158
20160
20166
20174
20135
20136
20138
20142
20142
20167
20155
20161
20166
20178
20168
20166
20167
20180
20193
20135
20128
20133
20142
20156
20152
20156
20161
20178
20182
20140
20134
20143
20148
20162
20152
20159
20164
20195
20143
20135
20135
20143
20151
20156
20151
20160
20162
20164
20171
20166
20169
20183
20175
20170
20164
20167
20193
20133
20132
20135
20141
20148
20157
20157
20148
20159
20161
20165
20173
20198
20142
20202
20143
20137
20138
20137
20132
20134
20140
20148
20155
20154
20162
20166
20198
20196
20142
20138
20135
20133
20134
20136
20135
20138
20142
20143
20149
20152
20142
20148
20146
20152
20159
20144
20157
20165
20173
20171
20140
20148
20148
20167
20140
20139
20137
20145
20150
20158
20158
20146
20161
20154
20156
20146
20153
20161
20175
20133
20137
20132
20135
20134
20137
20141
20148
20156
20151
20151
20162
20143
20169
20134
20142
20165
20132
20134
20136
20133
20151
20149
20153
20158
20167
20165
20141
20138
20137
20145
20157
20150
20152
20159
20146
20148
20154
20160
20156
20156
20164
20159
20168
20136
20138
20136
20145
20148
20148
20155
20158
20157
20134
20136
20142
20154
20159
20171
20174
20172
20134
20133
20137
20132
20134
20141
20150
20159
20147
20150
20157
20158
20175
20136
20138
20127
20136
20143
20154
20148
20162
20133
20133
20154
20149
20153
20182
20136
20140
20148
20156
20180
20128
20132
20143
20150
20148
20163
20185
20132
20125
20153
20156
20150
20159
20153
20132
20136
20159
20145
20153
20160
20164
20174
20196
20138
20137
20138
20149
20164
20167
20172
20189
20146
20144
20168
20167
20191
20250
20148
20153
20172
20191
20180
20187
20207
20266
20153
20154
20167
20166
20175
20186
20192
20206
20150
20149
20160
20161
20172
20176
20180
20138
20142
20138
20141
20143
20160
20150
20155
20151
20166
20169
20172
20143
20134
20140
20150
20148
20154
20154
20153
20153
20154
20158
20164
20166
20171
20133
20202
20134
20134
20134
20135
20138
20141
20156
20150
20151
20155
20135
20132
20138
20152
20142
20157
20161
20200
20134
20134
20151
20145
20143
20152
20156
20158
20164
20132
20135
20130
20138
20146
20142
20146
20158
20159
20157
20157
20173
20195
20131
20133
20135
20134
20132
20128
20136
20142
20151
20142
20152
20149
20156
20159
20166
20124
20130
20130
20134
20135
20156
20138
20141
20148
20154
20171
20134
20132
20133
20128
20133
20146
20141
20151
20159
20167
20188
20124
20130
20135
20141
20151
20166
20134
20133
20150
20148
20154
20127
20138
20139
20142
20152
20128
20127
20132
20135
20158
20144
20146
20148
20156
20160
20130
20132
20130
20132
20146
20141
20140
20145
20144
20151
20158
20177
20129
20124
20135
20139
20141
20148
20156
20164
20129
20130
20130
20136
20143
20144
20144
20158
20175
20124
20132
20122
20143
20145
20138
20151
20159
20164
20176
20172
20128
20129
20135
20149
20141
20151
20155
20161
20132
20124
20127
20136
20135
20144
20165
20128
20151
20153
20130
20132
20152
20142
20152
20164
20179
20131
20121
20133
20132
20140
20152
20140
20148
20152
20165
20192
20126
20131
20144
20146
20156
20170
20123
20142
20145
20152
20165
20126
20130
20138
20142
20150
20154
20171
20150
20122
20134
20152
20150
20159
20164
20133
20137
20146
20143
20147
20151
20143
20128
20144
20140
20148
20156
20128
20126
20133
20150
20150
20165
20163
20199
20135
20129
20130
20133
20132
20133
20124
20135
20144
20157
20140
20146
20162
20126
20131
20133
20130
20126
20129
20135
20148
20142
20143
20143
20151
20166
20184
20126
20124
20127
20132
20142
20151
20138
20148
20153
20166
20128
20128
20136
20143
20142
20134
20143
20144
20156
20152
20122
20116
20122
20121
20129
20132
20134
20136
20130
20121
20136
20149
20137
20142
20142
20148
20148
20122
20119
20124
20158
20152
20182
20128
20175
20167
20122
20119
20119
20126
20140
20137
20135
20133
20145
20146
20146
20127
20120
20124
20122
20121
20127
20127
20135
20142
20134
20140
20136
20149
20141
20140
20148
20151
20154
20149
20155
20124
20122
20123
20129
20138
20143
20138
20133
20145
20145
20164
20113
20175
20120
20116
20118
20122
20122
20124
20126
20133
20127
20127
20142
20132
20146
20146
20144
20144
20149
20145
20147
20151
20154
20164
20170
20127
20119
20118
20123
20118
20122
20124
20129
20136
20130
20143
20143
20158
20180
20115
20121
20118
20124
20119
20129
20143
20137
20135
20136
20142
20154
20156
20154
20162
20185
20113
20111
20118
20124
20126
20143
20126
20139
20148
20154
20152
20127
20120
20127
20124
20126
20121
20133
20142
20129
20132
20133
20143
20142
20140
20136
20138
20130
20127
20126
20135
20144
20135
20144
20135
20133
20132
20137
20142
20140
20143
20144
20166
20117
20113
20121
20126
20136
20137
20134
20134
20142
20145
20150
20169
20118
20114
20118
20116
20104
20111
20120
20135
20129
20131
20140
20137
20151
20152
20118
20116
20117
20121
20124
20126
20132
20127
20133
20145
20187
20111
20110
20119
20126
20141
20131
20128
20140
20144
20155
20116
20113
20118
20136
20126
20133
20135
20134
20146
20135
20142
20135
20138
20139
20148
20147
20151
20172
20118
20108
20115
20119
20120
20134
20127
20128
20148
20116
20116
20116
20134
20132
20132
20137
20149
20108
20110
20116
20137
20127
20134
20144
20114
20117
20127
20120
20130
20127
20109
20111
20135
20126
20126
20134
20133
20130
20139
20142
20146
20124
20112
20111
20113
20113
20116
20126
20132
20116
20122
20125
20130
20140
20142
20148
20180
20112
20108
20111
20126
20127
20126
20143
20134
20140
20111
20108
20109
20109
20108
20106
20103
20105
20110
20108
20109
20110
20108
20129
20124
20128
20142
20114
20112
20119
20130
20128
20128
20128
20142
20113
20103
20112
20128
20125
20129
20141
20105
20112
20116
20130
20119
20126
20127
20135
20144
20110
20112
20121
20135
20134
20143
20149
20106
20104
20110
20128
20129
20129
20137
20153
20104
20109
20115
20120
20124
20124
20125
20129
20132
20143
20108
20106
20103
20123
20121
20134
20123
20121
20129
20137
20144
20151
20108
20116
20114
20124
20121
20124
20126
20130
20144
20106
20113
20128
20123
20132
20134
20137
20154
20157
20110
20112
20116
20118
20119
20119
20118
20127
20130
20135
20168
20106
20114
20120
20134
20161
20111
20116
20120
20131
20140
20145
20107
20108
20122
20124
20130
20140
20163
20109
20103
20126
20123
20145
20175
20103
20101
20117
20124
20129
20134
20150
20108
20115
20117
20118
20120
20134
20147
20165
20106
20100
20107
20109
20113
20126
20116
20124
20129
20135
20137
20136
20151
20111
20114
20102
20107
20113
20118
20123
20123
20133
20142
20100
20103
20118
20117
20114
20126
20132
20138
20158
20108
20103
20107
20110
20119
20120
20124
20129
20135
20100
20103
20131
20123
20133
20138
20106
20098
20105
20112
20119
20114
20123
20120
20127
20126
20149
20100
20103
20109
20133
20121
20126
20133
20142
20113
20120
20118
20138
20131
20142
20143
20191
20113
20121
20137
20149
20137
20152
20135
20117
20143
20114
20153
20122
20166
20146
20207
20143
20214
20148
20126
20138
20119
20146
20134
20132
20145
20143
20190
20113
20111
20120
20136
20122
20126
20135
20126
20133
20141
20142
20134
20143
20143
20114
20109
20120
20128
20124
20127
20137
20176
20103
20105
20118
20125
20126
20121
20132
20130
20133
20134
20133
20141
20109
20111
20110
20115
20121
20108
20118
20126
20127
20132
20136
20106
20101
20106
20119
20118
20116
20122
20121
20124
20103
20107
20114
20120
20136
20103
20103
20119
20118
20122
20131
20166
20100
20107
20109
20110
20121
20129
20103
20105
20116
20118
20122
20142
20101
20096
20102
20116
20108
20116
20124
20124
20132
20097
20103
20113
20119
20118
20119
20130
20135
20103
20100
20098
20113
20112
20118
20121
20124
20148
20103
20102
20108
20122
20113
20118
20122
20113
20122
20131
20100
20094
20103
20116
20117
20114
20116
20108
20117
20117
20114
20119
20122
20126
20127
20129
20132
20129
20095
20103
20103
20111
20108
20118
20117
20120
20122
20124
20111
20110
20116
20117
20119
20118
20119
20120
20111
20115
20113
20120
20123
20130
20097
20098
20100
20113
20123
20112
20116
20118
20124
20098
20101
20128
20106
20123
20102
20128
20102
20120
20103
20110
20103
20111
20100
20124
20135
20101
20105
20103
20101
20089
20101
20103
20103
20109
20115
20126
20116
20112
20123
20125
20129
20125
20128
20134
20143
20141
20146
20098
20098
20098
20102
20103
20113
20119
20117
20127
20151
20103
20106
20113
20123
20135
20102
20097
20118
20116
20126
20129
20139
20152
20110
20102
20106
20105
20102
20095
20105
20104
20105
20112
20131
20116
20116
20123
20126
20129
20126
20132
20137
20145
20103
20109
20100
20104
20116
20119
20118
20121
20130
20134
20134
20153
20147
20141
20130
20141
20143
20148
20102
20169
20097
20101
20162
20170
20107
20149
20105
20108
20103
20106
20109
20101
20103
20101
20095
20100
20103
20105
20103
20103
20097
20097
20100
20103
20103
20107
20105
20140
20127
20116
20114
20103
20154
20132
20120
20117
20117
20120
20123
20119
20117
20100
20100
20099
20101
20150
20132
20125
20115
20118
20112
20120
20103
20095
20102
20105
20166
20129
20126
20114
20112
20108
20116
20105
20101
20102
20143
20126
20120
20123
20114
20117
20110
20106
20101
20119
20115
20111
20099
20100
20098
20097
20096
20103
20148
20137
20131
20126
20118
20119
20125
20114
20120
20125
20127
20127
20125
20123
20119
20118
20107
20116
20111
20116
20116
20119
20124
20117
20119
20121
20118
20112
20106
20109
20114
20106
20102
20097
20096
20157
20153
20097
20097
20099
20094
20112
20110
20105
20110
20113
20112
20113
20114
20119
20123
20120
20127
20141
20108
20095
20103
20103
20093
20098
20103
20104
20115
20110
20118
20106
20109
20113
20119
20123
20103
20106
20104
20108
20113
20118
20123
20120
20131
20128
20130
20130
20122
20124
20125
20121
20124
20118
20128
20131
20126
20129
20132
20152
20094
20093
20093
20098
20095
20156
20138
20102
20099
20100
20099
20092
20097
20095
20094
20090
20094
20095
20091
20091
20093
20149
20142
20136
20134
20125
20122
20125
20119
20114
20109
20102
20102
20111
20111
20113
20101
20097
20092
20094
20092
20088
20095
20092
20092
20100
20093
20092
20094
20090
20096
20090
20092
20105
20125
20090
20105
20155
20093
20094
20100
20105
20108
20123
20134
20092
20098
20092
20095
20092
20096
20111
20103
20106
20107
20105
20111
20120
20127
20122
20127
20132
20159
20095
20095
20093
20093
20095
20095
20094
20103
20101
20105
20114
20119
20120
20092
20090
20090
20093
20099
20115
20100
20101
20108
20106
20116
20111
20112
20112
20149
20091
20090
20088
20103
20100
20102
20114
20112
20123
20124
20068
20084
20098
20101
20101
20103
20111
20119
20081
20087
20087
20092
20091
20105
20097
20102
20111
20116
20134
20089
20087
20102
20102
20114
20108
20140
20095
20091
20105
20108
20113
20117
20157
20084
20096
20101
20102
20102
20114
20100
20105
20107
20113
20132
20092
20092
20111
20107
20117
20086
20086
20101
20101
20110
20121
20084
20097
20107
20098
20111
20148
20087
20084
20106
20105
20124
20089
20092
20107
20103
20107
20135
20085
20087
20091
20092
20092
20106
20093
20094
20103
20105
20108
20114
20148
20085
20095
20099
20100
20110
20133
20082
20082
20073
20079
20092
20091
20102
20111
20132
20077
20082
20087
20098
20093
20095
20109
20112
20084
20081
20102
20096
20108
20068
20084
20087
20107
20096
20112
20136
20083
20082
20093
20096
20106
20113
20112
20086
20092
20098
20100
20111
20116
20079
20078
20088
20104
20093
20103
20111
20087
20079
20090
20087
20093
20100
20113
20124
20085
20084
20093
20095
20104
20116
20087
20090
20090
20109
20133
20082
20089
20098
20109
20116
20085
20095
20094
20109
20082
20087
20100
20111
20084
20092
20100
20111
20162
20076
20078
20087
20094
20104
20116
20085
20090
20103
20103
20102
20109
20081
20079
20079
20084
20100
20088
20101
20114
20079
20081
20095
20103
20113
20136
20078
20092
20095
20100
20111
20082
20084
20081
20078
20087
20101
20102
20106
20140
20086
20084
20084
20091
20098
20094
20100
20103
20109
20110
20116
20127
20133
20079
20069
20077
20092
20091
20101
20143
20079
20095
20099
20113
20072
20100
20076
20107
20100
20079
20090
20083
20094
20081
20099
20084
20108
20080
20117
20102
20155
20103
20088
20110
20095
20135
20115
20176
20109
20095
20118
20096
20125
20095
20154
20134
20097
20130
20103
20168
20111
20093
20135
20111
20196
20114
20103
20132
20103
20097
20128
20113
20098
20118
20098
20140
20105
20090
20124
20106
20086
20111
20091
20118
20095
20148
20107
20086
20111
20087
20110
20090
20101
20089
20095
20086
20100
20086
20100
20078
20098
20078
20094
20107
20100
20102
20133
20088
20087
20095
20094
20100
20100
20118
20078
20083
20103
20097
20100
20105
20142
20086
20081
20087
20094
20098
20105
20100
20102
20102
20100
20101
20079
20080
20079
20079
20095
20084
20095
20103
20119
20077
20078
20093
20092
20095
20103
20118
20074
20082
20090
20095
20101
20074
20076
20081
20084
20095
20106
20087
20069
20069
20079
20092
20085
20092
20098
20103
20118
20075
20076
20084
20092
20081
20091
20092
20100
20112
20072
20071
20074
20074
20089
20089
20093
20096
20110
20074
20077
20074
20087
20089
20095
20102
20102
20077
20076
20069
20071
20084
20099
20093
20093
20099
20103
20110
20083
20077
20072
20074
20090
20088
20091
20091
20082
20092
20092
20101
20101
20099
20098
20105
20144
20079
20075
20077
20094
20093
20098
20097
20109
20081
20077
20074
20073
20076
20071
20076
20068
20078
20095
20087
20092
20093
20094
20093
20100
20098
20095
20097
20094
20103
20097
20103
20111
20103
20103
20118
20113
20113
20111
20135
20075
20078
20079
20081
20082
20087
20087
20095
20093
20092
20090
20088
20089
20084
20081
20083
20087
20094
20087
20096
20097
20108
20125
20082
20078
20077
20079
20095
20095
20098
20095
20104
20121
20076
20075
20079
20079
20092
20102
20110
20119
20069
20071
20078
20096
20092
20099
20104
20119
20075
20075
20087
20095
20096
20103
20135
20076
20084
20075
20085
20085
20077
20082
20096
20092
20102
20115
20076
20083
20086
20103
20095
20103
20106
20079
20081
20094
20095
20103
20129
20077
20076
20100
20100
20101
20105
20083
20084
20086
20094
20092
20102
20109
20071
20071
20074
20084
20095
20088
20099
20107
20133
20076
20076
20082
20092
20094
20101
20072
20078
20087
20090
20093
20107
20071
20071
20073
20088
20086
20095
20093
20103
20110
20076
20074
20092
20086
20090
20097
20116
20072
20079
20087
20094
20100
20135
20069
20076
20097
20095
20097
20105
20077
20082
20076
20077
20082
20092
20079
20094
20093
20099
20116
20070
20074
20072
20073
20081
20084
20094
20084
20084
20087
20094
20089
20092
20095
20108
20076
20079
20089
20095
20097
20134
20065
20067
20092
20085
20095
20075
20072
20097
20097
20132
20079
20094
20074
20095
20084
20102
20088
20070
20085
20067
20092
20070
20095
20073
20103
20094
20084
20089
20099
20108
20071
20072
20082
20079
20092
20109
20071
20078
20089
20086
20094
20102
20068
20071
20071
20089
20083
20093
20093
20129
20063
20069
20087
20084
20084
20087
20097
20103
20061
20064
20065
20085
20077
20094
20095
20108
20128
20070
20069
20068
20095
20090
20091
20110
20071
20070
20072
20074
20081
20132
20073
20084
20064
20074
20087
20096
20109
20066
20065
20069
20070
20076
20075
20085
20085
20089
20100
20067
20067
20092
20076
20092
20138
20070
20070
20087
20080
20087
20093
20103
20135
20070
20071
20070
20078
20078
20089
20098
20067
20087
20063
20084
20061
20090
20081
20102
20079
20100
20081
20102
20081
20067
20076
20069
20079
20067
20090
20071
20092
20064
20097
20060
20100
20073
20142
20078
20063
20084
20068
20089
20072
20071
20078
20071
20079
20077
20085
20116
20066
20074
20069
20084
20106
20061
20060
20073
20083
20079
20098
20068
20071
20084
20082
20097
20064
20063
20071
20079
20095
20057
20060
20065
20077
20082
20085
20100
20141
20060
20067
20076
20078
20079
20086
20087
20100
20060
20062
20063
20078
20084
20087
20092
20052
20060
20062
20064
20074
20081
20075
20079
20085
20092
20122
20060
20061
20064
20076
20076
20083
20093
20061
20061
20079
20075
20074
20085
20090
20108
20060
20068
20069
20081
20066
20085
20087
20116
20055
20063
20072
20072
20071
20092
20061
20061
20081
20080
20090
20055
20066
20070
20085
20111
20062
20066
20071
20086
20093
20058
20058
20061
20085
20071
20076
20086
20106
20056
20058
20052
20063
20084
20074
20076
20091
20066
20063
20062
20068
20078
20086
20058
20055
20050
20078
20073
20077
20079
20098
20055
20063
20059
20068
20068
20074
20070
20074
20074
20088
20110
20057
20059
20068
20081
20071
20074
20081
20100
20092
20057
20059
20065
20065
20069
20082
20077
20079
20088
20112
20054
20054
20066
20084
20065
20070
20071
20077
20084
20100
20052
20127
20131
20053
20058
20075
20065
20074
20103
20055
20060
20073
20068
20084
20123
20047
20068
20070
20073
20082
20081
20086
20092
20117
20064
20061
20058
20065
20064
20072
20055
20070
20077
20086
20116
20140
20052
20048
20052
20049
20056
20060
20060
20054
20051
20071
20068
20073
20073
20079
20078
20081
20090
20094
20052
20052
20050
20048
20053
20047
20056
20053
20080
20072
20071
20069
20070
20065
20071
20068
20071
20064
20076
20084
20132
20046
20050
20044
20053
20052
20057
20051
20055
20060
20075
20065
20068
20072
20079
20078
20081
20110
20052
20047
20050
20047
20051
20049
20047
20049
20048
20051
20055
20055
20062
20072
20055
20070
20073
20068
20072
20081
20097
20046
20047
20051
20051
20054
20059
20068
20069
20074
20055
20062
20070
20077
20060
20065
20067
20068
20072
20081
20082
20101
20166
20060
20059
20060
20091
20087
20107
20138
20065
20092
20116
20132
20072
20077
20076
20065
20069
20079
20080
20097
20097
20087
20084
20092
20104
20066
20064
20066
20065
20065
20059
20056
20060
20060
20066
20058
20060
20063
20061
20076
20070
20079
20078
20079
20087
20124
20055
20060
20058
20058
20068
20068
20072
20074
20075
20089
20057
20057
20068
20068
20077
20084
20047
20054
20071
20070
20077
20054
20055
20053
20070
20063
20067
20067
20065
20055
20066
20051
20069
20062
20063
20069
20079
20117
20046
20053
20056
20059
20063
20068
20069
20078
20052
20055
20055
20057
20064
20062
20062
20065
20076
20083
20043
20052
20047
20062
20060
20069
20075
20047
20050
20052
20062
20058
20067
20069
20070
20100
20047
20045
20046
20054
20064
20065
20068
20079
20082
20049
20049
20051
20057
20052
20064
20061
20063
20068
20063
20064
20073
20096
20050
20046
20048
20042
20050
20061
20065
20066
20062
20075
20076
20072
20098
20052
20050
20056
20057
20071
20082
20039
20043
20052
20076
20065
20071
20087
20053
20050
20045
20055
20068
20061
20070
20046
20049
20057
20063
20052
20067
20068
20072
20098
20037
20041
20050
20066
20059
20058
20056
20065
20070
20077
20081
20042
20047
20052
20069
20059
20063
20069
20070
20073
20076
20084
20084
20087
20081
20081
20090
20093
20087
20111
20048
20046
20047
20044
20049
20052
20068
20058
20068
20085
20046
20046
20048
20049
20052
20065
20062
20071
20081
20084
20052
20044
20046
20057
20064
20070
20081
20047
20051
20055
20076
20091
20049
20046
20068
20061
20085
20044
20050
20051
20062
20074
20070
20079
20052
20046
20047
20071
20064
20079
20093
20041
20047
20065
20076
20063
20071
20078
20072
20086
20076
20094
20049
20053
20070
20076
20063
20070
20082
20114
20046
20044
20055
20058
20077
20073
20063
20068
20071
20072
20082
20080
20052
20048
20052
20071
20063
20065
20074
20118
20048
20047
20062
20068
20063
20076
20105
20049
20052
20048
20065
20069
20087
20044
20061
20058
20064
20076
20042
20044
20055
20055
20069
20078
20055
20053
20052
20062
20062
20075
20074
20050
20053
20056
20063
20063
20070
20112
20048
20040
20042
20049
20054
20071
20058
20066
20065
20076
20074
20095
20047
20040
20052
20053
20068
20058
20066
20046
20049
20042
20050
20043
20054
20060
20056
20049
20055
20061
20055
20053
20059
20060
20061
20064
20052
20058
20049
20063
20064
20071
20071
20079
20070
20045
20052
20050
20061
20069
20075
20049
20045
20055
20063
20058
20068
20071
20075
20095
20108
20095
20095
20043
20043
20042
20047
20043
20046
20051
20051
20052
20058
20055
20066
20066
20057
20057
20060
20057
20070
20065
20062
20064
20068
20078
20045
20045
20049
20064
20054
20056
20068
20071
20042
20046
20051
20060
20050
20063
20081
20042
20041
20046
20068
20059
20061
20076
20040
20044
20061
20058
20065
20060
20071
20047
20044
20040
20059
20055
20065
20071
20106
20042
20046
20056
20053
20058
20068
20074
20042
20043
20056
20063
20095
20042
20050
20054
20058
20066
20068
20038
20039
20056
20052
20054
20072
20040
20047
20064
20056
20071
20095
20037
20048
20052
20055
20060
20039
20043
20046
20068
20053
20070
20075
20105
20034
20044
20071
20057
20068
20096
20043
20041
20050
20052
20050
20057
20066
20036
20036
20040
20070
20055
20068
20087
20037
20038
20052
20060
20052
20053
20065
20069
20038
20037
20038
20052
20052
20051
20063
20079
20032
20035
20030
20035
20055
20046
20051
20054
20072
20038
20036
20049
20047
20051
20061
20063
20082
20026
20032
20037
20042
20061
20036
20054
20060
20066
20079
20033
20034
20037
20041
20040
20038
20046
20040
20051
20063
20092
20031
20030
20041
20054
20041
20044
20070
20083
20034
20032
20034
20033
20053
20047
20048
20056
20046
20060
20036
20052
20030
20046
20034
20056
20027
20060
20034
20062
20038
20064
20038
20036
20039
20052
20047
20047
20055
20070
20034
20030
20034
20041
20052
20063
20023
20032
20040
20043
20052
20060
20063
20069
20036
20034
20037
20046
20042
20054
20060
20089
20029
20018
20037
20044
20046
20054
20063
20040
20037
20029
20044
20044
20045
20046
20051
20058
20055
20055
20055
20066
20030
20023
20030
20034
20054
20035
20044
20063
20067
20031
20028
20033
20037
20032
20038
20042
20036
20043
20055
20031
20030
20047
20046
20045
20060
20065
20104
20026
20028
20030
20035
20046
20037
20044
20049
20050
20052
20052
20059
20065
20062
20088
20023
20027
20027
20028
20039
20035
20040
20041
20044
20047
20050
20063
20036
20029
20019
20030
20030
20031
20030
20030
20046
20052
20043
20042
20040
20049
20046
20050
20053
20056
20054
20057
20056
20055
20057
20030
20027
20028
20033
20050
20039
20044
20046
20055
20057
20057
20068
20085
20084
20094
20031
20076
20071
20070
20032
20028
20096
20019
20093
20025
20020
20023
20023
20036
20048
20046
20051
20063
20030
20031
20041
20055
20027
20034
20047
20050
20040
20044
20046
20058
20100
20021
20023
20023
20027
20034
20040
20044
20047
20054
20028
20035
20028
20028
20028
20030
20050
20039
20042
20056
20071
20023
20030
20046
20038
20043
20055
20070
20034
20025
20025
20035
20037
20043
20048
20055
20020
20020
20024
20042
20034
20047
20062
20060
20027
20012
20028
20036
20042
20038
20044
20054
20057
20033
20025
20028
20034
20039
20034
20040
20045
20050
20058
20056
20055
20056
20056
20057
20028
20031
20035
20036
20037
20037
20038
20037
20049
20060
20073
20088
20029
20037
20054
20065
20087
20164
20045
20049
20084
20067
20070
20078
20084
20084
20091
20135
20044
20044
20047
20039
20060
20052
20049
20066
20065
20055
20063
20066
20070
20093
20040
20040
20036
20033
20033
20030
20033
20050
20042
20046
20047
20054
20061
20063
20082
20034
20028
20040
20051
20047
20051
20042
20051
20050
20033
20033
20030
20024
20053
20043
20051
20060
20073
20023
20023
20032
20039
20054
20042
20059
20036
20045
20057
20027
20044
20047
20045
20049
20070
20024
20023
20027
20027
20030
20044
20037
20038
20044
20052
20046
20047
20055
20024
20029
20030
20032
20033
20036
20044
20049
20054
20014
20024
20025
20020
20028
20044
20033
20038
20036
20046
20052
20016
20024
20023
20022
20024
20038
20041
20037
20036
20037
20043
20053
20055
20026
20022
20020
20037
20047
20035
20030
20035
20038
20044
20045
20078
20016
20021
20043
20039
20039
20047
20053
20058
20071
20022
20023
20020
20021
20023
20028
20035
20034
20037
20044
20053
20069
20016
20020
20028
20038
20039
20041
20044
20059
20022
20030
20037
20047
20058
20023
20019
20028
20042
20049
20022
20018
20015
20028
20028
20040
20037
20036
20037
20038
20041
20038
20047
20047
20050
20047
20047
20043
20053
20078
20020
20023
20026
20036
20034
20046
20066
20010
20020
20028
20044
20033
20033
20044
20047
20068
20023
20022
20033
20034
20039
20059
20020
20026
20038
20033
20039
20060
20062
20015
20024
20032
20044
20036
20038
20046
20067
20017
20021
20042
20038
20063
20103
20020
20026
20034
20042
20057
20025
20021
20037
20039
20047
20068
20019
20023
20039
20036
20036
20053
20041
20023
20020
20017
20016
20027
20034
20053
20038
20046
20045
20054
20056
20023
20028
20031
20035
20044
20036
20034
20044
20056
20022
20025
20022
20029
20036
20044
20039
20054
20060
20024
20024
20032
20044
20035
20039
20038
20036
20046
20049
20050
20061
20094
20020
20016
20016
20027
20037
20043
20039
20047
20029
20028
20032
20029
20025
20034
20034
20036
20044
20059
20020
20014
20020
20044
20038
20047
20022
20026
20026
20038
20030
20036
20047
20023
20026
20024
20035
20039
20040
20068
20019
20026
20034
20039
20052
20066
20021
20022
20028
20041
20040
20048
20019
20020
20025
20039
20035
20035
20039
20038
20049
20044
20055
20016
20018
20017
20031
20031
20036
20039
20046
20020
20023
20036
20032
20038
20053
20016
20014
20035
20039
20048
20013
20018
20040
20030
20039
20040
20054
20025
20020
20023
20036
20035
20034
20040
20015
20016
20028
20031
20044
20061
20012
20023
20020
20038
20028
20039
20039
20038
20037
20019
20024
20032
20026
20037
20055
20016
20014
20031
20027
20030
20045
20008
20016
20023
20033
20033
20039
20048
20018
20019
20020
20016
20034
20028
20035
20036
20068
20010
20015
20041
20031
20040
20094
20021
20030
20031
20048
20025
20023
20038
20013
20031
20019
20011
20045
20029
20020
20063
20025
20015
20037
20015
20045
20034
20017
20025
20011
20039
20014
20020
20035
20031
20044
20011
20014
20012
20027
20036
20048
20011
20009
20022
20027
20036
20054
20015
20014
20021
20028
20038
20060
20012
20032
20025
20038
20078
20015
20011
20034
20030
20042
20011
20004
20014
20027
20028
20047
20009
20012
20010
20036
20028
20041
20052
20014
20005
20007
20017
20036
20025
20052
20071
20010
20007
20015
20010
20020
20025
20033
20025
20028
20032
20037
20051
20064
20008
20006
20011
20023
20037
20021
20027
20030
20047
20054
20076
20007
20010
20022
20028
20029
20033
20034
20070
20013
20006
20020
20031
20023
20030
20042
20041
20052
20079
20008
20012
20009
20014
20026
20039
20062
20012
20011
20028
20020
20026
20070
20007
20007
20004
20013
20023
20030
20033
20044
20007
20005
20012
20009
20012
20020
20027
20022
20024
20035
20065
20006
20005
20008
20015
20008
20023
20036
20047
19999
20007
20013
20025
20023
20021
20036
20044
20004
20002
20012
20020
20021
20024
20020
20017
20026
20040
20023
20002
20010
20016
20017
20023
20031
20049
20006
20004
20029
20031
20006
20020
20004
20017
20015
20031
20002
20023
20031
20000
20003
20018
20028
20019
20036
20006
20006
20002
20017
20023
20019
20021
20036
20068
20007
19999
20006
20021
20027
20020
20027
20028
20032
20055
20007
20011
20008
20006
20002
20005
20005
20007
20004
20008
20008
20012
20016
20014
20018
20022
20024
20015
20027
20036
20067
20004
20008
20015
20023
20040
20004
20009
20017
20026
20037
20001
20004
20014
20019
20038
20004
20001
20021
20031
20008
20006
20018
20017
20021
20032
20000
19999
20009
20012
20023
20031
20001
20000
20017
20015
20012
20028
20037
20034
20061
20003
20005
20001
20011
20017
20017
20023
20035
20037
20049
19999
20004
19999
20003
19998
20005
20020
20021
20020
20023
20031
20029
20035
20057
20000
20001
20008
20010
20008
20014
20021
20030
20047
19997
20000
20007
20018
20029
20018
20012
20014
20012
20020
20022
20032
20003
20005
20006
20007
20018
20018
20022
20039
20033
20034
20009
20002
20001
20006
20020
20023
20027
20046
20004
20006
20023
20012
20015
20028
20037
20007
19998
20006
20014
20009
20012
20012
20015
20020
20025
20036
20007
20003
19999
19997
20001
20009
20020
20007
20011
20018
20024
20065
19990
19997
20004
20020
20012
20020
20023
20032
20047
19998
19996
19996
20014
20012
20017
20015
20015
20028
20039
19996
20005
20002
20007
20021
20008
20011
20012
20020
20031
20001
19995
20004
20001
20002
20018
20011
20022
20037
20002
20012
20026
20023
20028
20042
20087
20012
20013
20037
20028
20039
20047
20050
20060
20126
20015
20020
20052
20038
20039
20060
20053
20040
20035
20032
20022
20019
20031
20033
20020
20020
20021
20018
20016
20015
20014
20019
20016
20008
20082
20051
20040
20036
20031
20028
20036
20030
20028
20028
20024
20020
20023
20029
20046
20006
20054
20040
20038
20047
20050
20063
20000
20007
20005
20004
19998
20010
20003
20008
20012
20008
20008
20005
20010
20008
20006
20004
19998
20003
20004
20008
20006
19999
19999
20006
20007
20003
20000
19999
20004
20007
20006
20005
20005
20007
20005
20002
19998
20003
19998
19996
19994
19996
20000
19999
20000
20037
20030
20019
20014
20014
20012
20015
20006
20002
19999
20003
19999
19996
20001
19998
19997
19996
19999
20063
19994
19993
20033
20020
20015
20012
20002
20001
19994
19994
19994
20002
19999
19997
19994
20063
20032
20030
20022
20023
20018
20015
20015
20008
20007
20016
20001
19997
19994
19991
19997
19996
19991
20040
20026
20023
20019
20009
20009
20014
20007
19999
19996
19999
20002
20004
20004
19999
19999
20042
20033
20062
19992
19990
19985
19997
19999
20017
20009
20013
20015
20013
20023
20018
20020
20018
20038
20041
19997
19991
19988
19985
19984
19993
19991
19994
19999
19999
20009
20023
20011
19999
19995
20002
20008
20017
20020
20004
20007
20005
20018
20015
20007
20012
20016
20029
20025
20028
20033
20047
20062
19998
19996
19998
19999
20006
20010
20008
20020
20008
20006
20015
20011
20022
20033
20030
20036
20040
20069
20056
19999
19995
19999
20010
20001
20002
20009
20015
20014
20015
20015
20018
20023
20037
20016
19995
19994
19997
19997
20000
19995
19999
19995
20002
20009
20020
20017
20021
20021
20022
20021
20020
20023
20023
20034
20082
20006
20004
19997
20004
20010
20028
20002
20004
20005
20012
20007
19997
20001
20002
19995
19992
19994
19996
19997
19997
19996
20001
20001
20020
20012
20014
20022
20031
19998
19999
20006
20006
20007
20008
20012
20015
20014
20028
20031
20046
19994
20002
20003
20002
20012
20012
20009
20012
20015
20014
20018
20023
19997
20004
19998
20002
19990
19989
19992
19999
20010
20009
20011
20013
20010
20012
20016
20015
20022
20031
20001
19999
20012
20037
19996
20031
20011
20004
20004
20018
20004
19988
20008
20002
19998
20018
20000
19996
20013
19995
20015
20023
20041
19994
20000
19997
20006
20004
20002
20011
20023
20024
19993
19995
19998
20005
20010
20007
20007
20018
20023
20041
19995
19996
19991
19998
20004
20010
20004
20010
20020
20040
19991
19995
19998
20006
20002
20005
20015
20009
20019
20039
19996
19999
19999
20008
20010
19999
20008
20019
20037
19995
19990
19992
19999
20010
20013
20004
20008
20016
20015
20014
20015
20046
19990
19996
20007
20012
20018
20030
19999
19996
20013
20004
20019
20022
20028
19997
20002
19999
19994
19997
20010
20007
20006
20016
20036
19991
19995
20012
20006
20013
20022
20024
20019
20025
20024
20037
19999
19988
19991
19997
20007
20005
20002
20008
20007
20012
20025
20060
19990
19989
19997
19998
20018
20007
20011
20020
20024
20041
19990
19990
19996
20010
20002
20013
20009
20017
20015
20022
20021
20024
20018
20015
20023
19993
19993
19988
19993
20004
20005
20003
20005
20007
20014
20019
20019
20014
19984
19988
20017
20002
20015
20036
19983
19984
20001
20008
20007
20004
20004
20012
20012
20022
20023
20026
20025
20058
19989
19985
19985
20009
19996
20004
20020
19988
19987
20011
20005
20005
20005
20013
20024
19985
19985
19989
19989
19999
20006
19999
20020
20002
19983
19983
19997
20007
20004
20012
19986
19987
19989
19994
20004
20010
20030
19975
19983
19985
20014
19998
20012
20020
19974
19991
19985
19987
20001
19999
20010
20012
20015
19980
19983
19988
19995
19995
19996
20015
20061
19986
19990
20004
19992
20004
20002
20013
20017
20020
19990
19990
19988
19999
19999
20004
20009
20010
20017
19983
19982
19991
19999
20006
20016
20053
19982
19982
19998
19999
20007
20041
19989
20001
20002
20005
20040
19981
19987
20001
19994
19999
20014
20044
19975
19983
19996
20007
20002
20013
20036
19989
19984
20004
19993
19989
19997
20005
20000
20005
20005
20018
20063
19982
19988
19979
19988
19997
19994
19995
19998
20002
20001
20002
20011
19980
19985
19982
19987
19999
19999
20002
20008
20016
19982
19975
19983
19982
19985
19990
20007
20004
19998
19993
19993
19995
19995
19994
20010
20012
20033
20032
19975
19974
19978
19985
19986
20003
20001
20005
20011
19982
19976
19985
19999
19985
19994
19993
20008
20012
20025
19975
19975
19980
20005
19996
20001
20006
20006
20010
19986
19988
19982
19983
19999
19990
19992
19999
19999
20007
20004
20016
19980
19981
19975
19982
19988
19995
20003
20004
19997
19996
19993
19996
19993
20000
20007
20009
20014
20013
20015
20010
20004
20009
20005
20010
20013
20019
20034
19980
19975
19975
19974
19981
19979
19980
19975
19975
19973
19980
19999
19990
19992
19997
20016
19978
19980
19978
19986
20014
19988
20001
20002
20006
20042
19975
19979
19996
19988
19988
20003
20013
20064
19973
19978
19982
19984
20004
19990
19994
19996
19993
19991
19995
19996
19993
20000
20005
20010
20046
19971
19975
19983
20009
19997
20001
19975
19986
19989
19991
19998
19986
19988
20007
20039
19973
19975
19991
19989
19994
19996
20007
19975
19975
19980
19985
19997
20019
19975
19979
19975
19988
19984
19997
20003
20035
19972
19972
19998
19992
20010
19975
19967
19965
19973
19993
19988
19994
20001
20014
19975
19988
19995
19987
19992
19999
20003
19975
19972
19974
19982
19992
20007
19992
19996
20001
20012
20017
20036
19989
19991
19998
20009
20007
20023
20037
19986
19983
19999
20027
20028
20021
20034
20057
19995
19997
20004
20026
20012
20020
20032
19997
19999
19997
20011
20023
20036
19991
19982
19984
20000
20007
19996
20000
20014
20020
20057
19983
19983
19988
19984
19999
19999
19990
19994
19999
20008
20007
20010
20020
19974
19984
19981
19983
19993
19992
19999
20007
20002
20005
19984
19986
19982
19978
19982
19991
19990
20009
20028
19970
19979
19991
20001
19991
19989
19985
19982
19982
19981
19983
19985
19987
19985
19982
19975
19981
19975
19975
19973
20036
20029
20014
20012
20002
20004
20007
19998
20003
19997
19993
19997
19983
19981
19981
20013
20002
19991
19994
19985
19991
19993
19991
19990
19996
19996
19990
19986
19988
19983
19980
19975
19982
19980
19980
19975
19979
19982
19984
19996
19982
19974
19970
19972
19972
19978
19975
19975
19975
19972
19991
19988
19993
19989
19991
20018
19975
19972
19975
19989
19995
20006
19974
19973
19983
19988
20017
19973
19973
19982
19997
19988
19999
20001
19972
19991
19984
19992
20001
19971
20030
19991
20032
19983
19976
19990
19974
19993
19970
19992
19990
19974
19984
20019
19996
20001
20004
19971
19978
19975
19981
19980
19998
20007
20038
19972
19983
19997
19984
19991
19988
19991
19996
19996
19999
20004
20028
19971
19969
19965
19974
19997
19983
19989
20001
19999
20006
20012
20044
19966
19976
19976
19985
19997
19988
19992
19993
19995
19999
19995
20003
20007
20018
19974
19973
19974
19984
19987
19990
20005
20035
19975
19984
19983
19998
19983
19992
20008
20015
20046
19972
19973
19975
19982
19993
19994
19991
19993
19992
19994
20004
20007
20008
20013
19978
19978
19979
19991
19999
20003
20006
20020
20042
19975
19975
19982
19979
20001
19989
19999
20013
20027
19980
19982
19996
19990
19990
19994
20004
20006
20004
20021
19979
19977
19983
19994
19989
19996
19997
20002
20008
20010
19982
19982
19980
19983
19980
19980
19982
19988
20006
19994
19999
20000
20011
19981
19982
19978
19996
19992
19994
19993
20003
20006
20019
19979
19972
19979
19983
19998
19986
20007
19974
19981
19993
19998
19999
20007
19983
19975
19981
19986
19981
20000
19974
19991
19986
20026
19988
19972
19985
20034
19987
19969
19984
19967
19988
19975
19975
19983
19983
19991
19997
19997
20012
19973
19997
19994
19972
19977
19991
19975
19975
20001
19999
20006
19972
19972
19993
19980
19984
19998
20010
19974
19980
19996
19990
20008
19972
19974
19983
20001
19970
19969
19987
19996
20012
19972
19972
19975
19988
19990
19993
20001
19972
19969
19983
19981
19999
19998
20005
20025
20044
19982
19969
19967
19971
19982
20001
19988
19988
19996
20005
19975
19973
19971
19993
19983
19995
19989
20003
19973
19970
19969
19983
19985
19989
19991
19998
20010
19975
19972
19975
19973
19983
19989
19989
19988
19997
20005
19967
19971
19980
19999
19982
19974
19988
19987
19995
20004
20005
20026
19973
19967
19972
19975
19982
19989
19982
19988
19990
19993
19999
20014
19969
19975
19973
19982
19981
19996
19973
19983
19985
19991
20014
20028
19970
19973
19985
19979
19982
19999
20036
19965
19972
19992
19983
19995
20001
20010
19967
19971
19970
19974
19980
19985
19994
20004
19966
19967
19967
19969
19974
19980
19991
19996
20028
19970
19965
19973
19960
19970
19972
19969
19968
19969
19975
19994
19985
19987
19974
19981
19989
19998
19994
19996
20001
20004
20036
19975
19967
19965
19965
19975
19989
19983
19984
19987
19991
20001
20014
19967
19961
19959
19966
19972
19974
19986
19980
19980
19991
19983
19981
19989
19983
20010
19964
19963
19966
19965
19983
19973
19978
20004
20006
20036
19963
19962
19972
19985
19983
19986
20019
19965
19979
19973
19982
19999
19946
19964
19961
19981
19975
19977
19989
20002
19961
19970
19976
19975
19998
19969
19971
19962
19978
19980
19981
19989
19994
19966
19961
19968
19991
19983
19983
19995
20002
20008
20030
19968
19969
19968
19971
19975
19985
19983
19996
19962
19965
19965
19984
19991
19975
19984
19987
19993
19994
19999
20008
19965
19971
19975
19975
19977
19990
19997
19964
19959
19970
19976
19998
20024
19961
19964
19986
19975
19992
19967
19961
19975
19987
19986
19993
19964
19965
19972
19975
19983
19986
19997
19965
19957
19964
19985
19972
19985
19986
19993
20002
19967
19965
19975
19973
19984
19996
20015
19957
19961
19967
19975
19975
19985
19994
20016
19964
19966
19981
19983
19997
19967
19967
19971
19975
19976
19981
19993
19967
19962
19973
19984
19979
19988
19991
20012
19959
19967
19975
19980
19975
19983
19988
19990
20005
19959
19962
19965
19967
19975
19982
19975
19993
19993
19960
19965
19960
19959
19957
19961
19974
19982
19980
19974
19986
19994
19991
19991
20029
20023
19962
19964
19991
19977
19983
20002
19962
19958
19961
19965
19962
19964
19972
19975
19975
19981
19972
19984
19984
19991
19995
20013
20032
20044
19961
19959
19964
19963
19960
19966
19964
19970
19975
19982
19991
19996
20001
19963
19959
19967
19965
19971
19986
19970
19976
19995
20005
19967
19964
19971
19984
19983
19985
20016
19965
19975
19981
19970
19984
19989
19996
19964
19964
19964
19989
19978
19982
19990
19999
20026
19967
19962
19963
19972
19983
19975
19979
19986
19994
19967
19959
19958
19962
19961
19969
19990
19972
19981
19991
20010
19956
19968
19980
19975
19980
19980
20002
19966
19967
19964
19985
19978
19988
19983
19977
19970
19976
19980
19982
19979
19983
19999
20012
19966
19967
19981
19982
19985
19973
19987
19975
19980
19985
19991
20026
19961
19964
19963
19973
19974
19982
19983
19984
19988
19958
19966
19980
19975
19988
19990
20024
19966
19972
19992
19991
20000
20011
19974
19981
19978
20015
19999
20006
20015
20026
20066
19982
19982
19989
20012
20020
20002
20004
20010
20012
20030
20028
20046
20066
19980
19983
19980
19982
19982
19975
19975
19971
19974
19972
19973
19975
19981
19992
19985
19991
19997
20001
19999
20003
19991
19989
19986
19991
19980
19995
19991
20002
19966
19971
19975
19969
19973
19972
19991
19981
19984
19988
19990
19986
19991
19997
20018
19975
19970
19969
19975
19975
19978
19989
19983
19991
19990
19988
19996
19997
19982
19983
19974
19974
19973
19975
19978
19975
19980
19975
19974
19980
19983
19986
19992
19986
19990
19998
19994
20002
20007
20031
20028
19951
19960
19962
19964
19975
19973
19975
19983
19981
19988
19985
19994
20004
20017
19965
19964
19961
19960
19970
19972
19983
19974
19984
20002
19979
19987
19964
19960
19967
19965
19975
19982
20007
19949
19959
19982
19979
19981
19991
20034
19966
19961
19963
19980
19981
19983
19989
19967
19967
19983
19979
19992
19982
19995
19983
20020
19981
20011
19985
20016
19975
19952
19985
19988
19975
19983
19983
19985
19991
20013
19971
19956
19956
19956
19959
19969
19978
19987
19982
19981
19974
19978
19970
19980
19975
19972
19972
19972
19980
19985
19990
19984
19980
19975
19982
20001
19962
19962
19966
19965
19957
20028
20023
20015
20006
20007
19994
19994
19995
20001
20030
19961
19960
19960
19962
19961
19988
19991
20018
19967
19979
19994
20041
19967
19990
19981
19983
19994
19988
19996
20001
19993
20005
20012
19959
19964
19974
19987
19978
19982
19988
19985
19997
19995
20000
19999
20001
20018
19973
19971
19972
19976
19983
19985
19993
20000
20009
19967
19969
19974
19994
19983
19988
19984
19983
19998
19972
19962
19971
19972
19980
19987
19983
20004
19996
19967
19959
19973
19997
19981
19997
20004
20012
19966
19987
19998
20011
19973
19981
19986
19986
19999
19998
19969
19975
19995
19989
19990
19998
20028
19972
19969
19970
19988
19989
19992
19998
19999
19980
19972
19972
19979
19991
19995
20003
19972
19971
19974
19991
19981
19985
19999
20005
19972
19970
19975
19984
19989
19991
19986
19984
19983
19991
19996
20000
19967
19969
19969
19967
19975
19981
19975
19982
19977
19987
19981
19985
19991
19991
20007
19969
19966
19957
19971
19966
19967
19962
19964
19966
19966
19970
19991
19981
19986
19983
19985
19994
19974
19968
19974
19975
19980
19987
19998
20001
20036
19970
19972
19974
19975
19985
19982
19988
19988
19986
19988
19990
19994
19987
20002
19997
19962
19956
19969
19988
19982
19985
19997
19969
19967
19972
19991
19986
19985
19994
20008
19967
19972
19975
19993
19978
19977
19993
20004
19971
19967
19967
19960
19969
19969
19975
19974
19975
19985
19984
19986
19979
19980
19983
19978
19990
19996
19991
19999
20005
20036
19967
19961
19970
19982
19989
19983
19998
20003
20017
19986
19965
19965
19970
19975
19985
19988
19979
19989
19992
20002
20009
19967
19966
19964
19983
19980
19982
19990
20002
19983
19972
19969
19975
19980
19986
19989
19994
19996
20006
19967
19958
19967
19987
19975
19981
19985
19993
19998
20023
19971
19972
19972
19982
19980
19989
20004
20037
19959
19962
19974
19979
19975
19989
19973
19980
19982
19988
19990
19992
20003
19998
20007
19960
19966
19972
19975
19983
20006
19966
19967
19969
19985
20000
20001
20003
19971
19967
19972
19974
19972
19986
19975
19991
19997
19989
19961
19963
19988
19975
19974
19983
19981
19990
19999
19966
19964
19969
19975
19993
19984
19988
19997
20006
19959
19966
19970
19983
19974
19985
19991
20006
20005
20010
20038
19967
19967
19968
19968
19974
19979
19979
19983
19991
19991
19999
19958
19957
19959
19966
19964
19978
19975
19987
20003
19964
19967
19988
19989
19994
19999
19968
19973
19964
19963
19963
19972
19973
19985
19996
20030
19967
19967
19988
19981
19991
19997
19967
19967
19969
19986
19986
19986
19995
19967
19966
19975
19975
19983
19990
19998
19967
19970
19967
19975
19987
19983
19997
19967
19972
19974
19984
19981
19978
19992
19999
20012
20020
19963
19964
19965
19969
19974
19989
19981
19995
19980
19969
19981
19993
20024
19964
19966
19967
19967
19970
19967
19969
19973
19970
19979
19985
19989
19974
19978
19983
19986
19997
19975
19994
19972
19997
19966
20008
19981
19965
19984
19961
19998
19982
19964
19987
19967
20004
19975
20021
19984
19967
19984
19969
19997
19984
19966
19979
19967
19986
19967
19980
19962
19983
19986
19985
19991
19992
19999
20020
19969
19968
19972
19991
19980
19985
19989
19999
19967
19971
19981
19975
19986
20001
20038
19964
19968
19975
19975
19989
20001
20007
19965
19968
19974
19991
19982
19981
19991
20009
19967
19964
19986
19980
19982
19995
20000
19966
19967
19966
19983
19993
19999
19974
19971
19967
19980
19975
19986
20000
19966
19964
19972
19983
19991
19982
19994
19989
19994
19994
20000
19996
20019
19972
19980
19968
19972
19967
19982
19983
19983
19982
19989
20001
19964
19962
19964
19980
19990
19981
19990
19996
19998
20014
19969
19972
19975
19981
19969
20039
19970
19962
19960
19970
19983
19993
19984
19985
19992
20000
20007
20029
20036
20026
19975
19972
19972
19964
19974
19978
19986
19981
19989
19991
20000
20039
19966
19967
19991
19986
19984
20002
19968
19970
19970
19991
19983
19998
20018
19966
19965
19975
19981
19969
19975
19983
19987
19992
19982
19984
19981
19983
19996
19992
20001
20001
19965
19967
19964
19969
19988
19980
19983
19994
19999
19970
19966
19956
19964
19975
19993
19983
19974
19982
19982
19991
19979
19965
19964
19967
19966
19972
19977
19994
19981
19990
19996
20010
19974
19964
19979
19994
19997
20001
19999
20005
20015
20023
20028
19984
19981
19999
20000
20013
20022
20042
20050
19995
19988
19991
20020
20015
20020
20030
20030
20055
19989
19988
19983
19981
19983
20003
19998
19993
20006
20014
19979
19981
19981
19991
19996
20011
19975
19978
19982
19997
19993
19990
20004
19972
19981
19975
19983
19997
20009
19970
19975
19996
19992
19995
19973
19976
19988
19982
19994
19989
19993
19999
19964
19973
19994
19982
19998
19994
20039
19979
19966
19975
19984
19980
19986
19995
19985
19988
19989
19993
19995
19995
20012
19973
19966
19968
19985
19980
19991
20017
19972
19972
19975
19988
19985
19996
19974
19969
19970
19980
19981
19989
19999
19975
19969
19969
19990
19981
19982
19994
20001
20037
19969
19969
19991
19991
19996
19971
19983
19982
19987
19995
19998
19968
19966
19964
19973
19990
19979
19987
20003
20006
19975
19965
19967
19973
19974
19984
19983
19981
19980
19993
19992
19998
20016
19975
19967
19966
19968
19987
19981
19990
19990
19993
20003
20028
19975
19967
19968
19971
19985
19985
19984
19994
19997
20021
19966
19967
19969
19990
19980
19985
19983
19988
19991
19989
19994
19989
19999
20023
19968
19975
19975
19981
19983
19991
19998
20021
19965
19965
19959
19974
19994
19982
19991
20004
19967
19968
19974
19967
19966
19988
19988
19994
20026
19967
19969
19991
19982
19992
20003
20007
19967
19965
19970
19975
19994
19983
19986
19993
19994
20004
20033
19970
19964
19967
19971
19991
19990
19987
19989
19999
20009
20023
19964
19975
19993
19988
19996
20007
19982
19975
19994
19994
20002
19967
19975
19985
20004
19968
19970
19980
20003
19993
20005
20004
20021
19974
19975
19975
19982
19993
19994
19989
19993
20007
19972
19969
19983
20003
19992
19999
20000
20009
20029
20042
19975
19970
19975
19983
19980
19995
19990
20001
20008
19980
19967
19974
19984
19992
20007
20031
19972
19975
19972
19973
19983
19995
19986
19989
19997
20009
20015
20031
19972
19975
20033
19969
19966
19974
19974
19980
19975
19975
19981
19999
19994
19991
19998
19999
19975
19975
19975
19988
19991
19988
19979
19986
19985
19995
20023
19969
19982
19991
19986
19999
19999
20004
19972
19972
19989
19988
19988
19996
20012
19970
19970
19979
19989
19982
19994
20005
20036
19971
19972
19973
19974
19999
19980
19975
19986
19994
19989
19993
19989
19987
20000
20035
19964
19967
19966
19967
19972
19974
19975
19987
19993
19989
19982
19981
19997
20004
19972
19967
19966
19983
19977
19988
19991
19940
19967
19973
19993
19982
19987
19998
20009
20026
19971
19973
19988
19980
19990
19995
20015
19967
19966
19983
19975
19983
20005
19965
19961
19975
19990
19983
19986
19991
19998
19972
19968
19972
19977
19984
19976
19981
19994
19996
20034
19965
19966
19978
19991
19988
19992
20001
19967
19968
19975
19983
19983
19990
19993
20007
19965
19967
19966
19970
19991
19991
19998
20008
19962
19971
19969
19992
19987
19986
19997
19966
19967
19974
19982
19974
19983
19996
20025
19966
19963
19985
19981
19988
19990
19995
19995
20025
19967
19971
19974
19981
19992
20003
19969
19971
19986
19985
19994
20043
19961
19970
19990
19989
19967
19980
19996
19994
19987
19967
19995
19980
19972
19983
19971
19984
19967
19991
19973
19997
19989
20031
19982
19994
20001
19971
19967
19978
19983
19985
19986
19995
19993
19992
19993
20002
20009
20006
20008
19966
19961
19965
19960
19971
19965
19974
19982
19989
20001
20014
19972
19965
19975
19983
19982
19982
19988
19996
19995
20003
20014
19965
19965
19969
19971
19975
19985
19985
20002
19964
19971
19972
19975
19985
19985
20002
19967
19961
19984
19985
20001
19964
19967
19988
19983
19980
19972
19976
19963
19989
19967
19996
19983
19964
19979
19962
19983
19958
19993
19967
19992
19975
20045
19975
19962
19988
19973
19982
19984
19966
19998
19986
19963
19981
19967
19981
19971
20000
19990
19951
19980
19965
19982
19961
19985
19965
19981
19983
19979
19966
19980
19968
19982
19973
19984
19970
19999
19968
19983
19964
19983
19959
19983
19958
19982
19967
19980
20009
19965
19960
19975
19991
19975
19981
19986
19997
19959
19961
19971
19975
19988
19987
19985
19993
20036
19970
19966
19967
19987
19980
19975
19986
19999
20006
19967
19964
19960
19966
19983
19975
19980
19983
19983
19994
20004
19959
19960
19958
19965
19971
19973
19988
19982
19975
19980
19996
19959
19961
19972
19983
19978
19982
19991
19991
19996
20010
19965
19963
19973
19968
19973
19981
19973
19982
19988
19996
19962
19957
19965
19969
19983
19996
19961
19975
19983
19985
19990
20001
20034
19969
19963
19986
19982
19996
20015
19962
19964
19975
19979
19974
19987
19996
19962
19961
19962
19970
19973
19988
19983
19990
19992
19968
19957
19977
19979
19985
19994
20007
19962
19964
19968
19975
19986
20003
19957
19964
19993
19977
19988
19994
20029
19970
19973
19959
19965
19964
19979
19970
19980
19972
19987
19975
19990
19990
20005
19967
19962
19967
19983
19980
19978
19994
20015
19964
19967
19974
19969
19981
19996
20011
19959
19967
19986
19977
19985
19980
19991
19997
19996
20001
19960
19969
19975
19979
19973
19975
19993
19995
19983
19958
19964
19987
19971
19993
20035
19960
19955
19970
19982
19981
19988
19988
20012
19960
19957
19965
19964
19966
19980
19972
19978
19994
20013
19963
19960
19975
19975
19975
19975
19987
19995
19962
19965
19969
19975
19975
19987
19996
20011
19958
19964
19975
19977
19985
20005
19972
19973
19982
19998
19997
20007
20068
19975
19988
19995
20013
20053
19975
19980
19988
20015
20003
20023
20062
19981
20006
19998
20015
20023
19973
19983
20007
19997
20012
19972
19979
19981
19985
19988
19989
20003
20027
19971
19967
19985
19992
19981
19983
19991
19995
19990
19994
20000
19972
19970
19982
19964
19968
19972
19975
19986
19980
19986
19988
19979
19984
19996
20011
19970
19971
19973
19985
19975
19978
19978
19990
20001
19966
19958
19961
19963
19975
19983
19980
19988
19990
19999
19996
20009
19956
19966
19967
19966
19969
19975
19967
19968
19975
19983
19992
20012
19963
19965
19965
19975
19970
19978
19988
19993
19962
19964
19965
19966
19972
19967
19983
19984
19996
19957
19962
19966
19980
19963
19987
19999
20000
19957
19961
19968
19975
19972
19974
19982
19988
19962
19960
19961
19974
19968
19975
19975
19983
19993
19995
20035
19956
19959
19967
19980
19974
19975
19980
19980
20007
19957
19957
19953
19965
19972
19983
19964
19965
19983
19968
19979
19983
19987
19959
19961
19965
19979
19972
19975
19975
19985
19989
19992
19997
19956
19957
19962
19961
19959
19957
19966
19983
19975
19986
19989
20002
19962
19967
19964
19968
19980
19975
19975
19983
19997
20019
19956
19965
19979
19969
19975
19983
19991
19999
19959
19964
19970
19974
19976
19988
19959
19959
19983
19983
19994
19963
19958
19967
19971
19983
19959
19975
19965
19998
19972
19998
19995
19982
19985
19957
19983
19960
19980
19958
19985
19958
20002
19962
19957
19975
19991
19975
19991
20001
19966
19966
19969
19975
19981
19986
19974
19987
19998
20039
19970
19964
19959
19977
19983
20001
20027
19963
19968
19975
19978
19989
19999
20027
19967
19972
19972
19981
19975
19986
19999
20042
19962
19966
19962
19973
19989
19986
19996
20001
19999
20028
19975
19970
19966
19962
19971
19965
19969
19965
19972
19959
19966
19967
19985
19974
19986
20001
19967
19969
19968
19986
19984
19989
19993
19966
19959
19972
19978
19978
19975
19990
20018
19960
19959
19967
19982
19980
19986
19992
19967
19975
19983
19975
19989
20018
19970
19967
19974
19985
19998
19966
19965
19967
19983
19973
19991
19989
20002
19962
19962
19967
19974
19967
19975
19980
19988
19956
19963
19966
19970
19975
20003
19965
19967
19975
19982
19970
19975
19982
19986
19963
19969
19980
19975
19975
19985
20010
19960
19963
19958
19967
19970
19983
19988
20033
19959
19957
19956
19974
19970
19979
19988
19986
19959
19959
19971
19957
19956
19964
19967
19973
19986
20002
19951
19957
19962
19972
19974
19975
19983
19984
19961
19953
19961
19981
19973
19988
19957
19967
19980
19986
19999
19953
19954
19975
19967
19985
19999
19957
19957
19968
19973
19986
19958
19972
19975
19985
19957
19958
19978
19967
19975
19981
20002
19958
19957
19961
19980
19980
19988
20012
19959
19962
19965
19967
19975
19981
19988
19964
19954
19986
19967
19974
19995
19954
19956
19983
19964
19974
19980
19988
19990
20006
19956
19956
19965
19967
19975
19980
20015
19958
19948
19983
19969
19988
19951
19959
19975
19980
19988
19956
19960
19966
19972
19982
19958
19956
19960
19965
19972
19990
19953
19953
19959
19980
19975
19984
19961
19962
19963
19972
19991
19957
19954
19964
19970
19977
19994
19950
19958
19954
19983
19973
19975
19991
19949
19959
19973
19964
19975
19988
19952
19963
19975
19970
19980
19954
19962
19964
19981
20014
19954
19965
19962
19972
19986
20023
19953
19951
19967
19969
19974
19981
19957
19954
19966
19981
19961
19974
19951
19966
19967
19985
19951
19956
19972
19968
19983
19997
19950
19954
19983
19967
19971
19986
20015
19957
19947
19948
19954
19959
19972
19989
19950
19951
19985
19954
19988
19962
19990
19974
19986
19966
19980
19960
19983
19966
19986
19962
19982
19962
19967
19964
19971
19984
19956
19953
19950
19973
19968
19975
19982
20004
19954
19964
19966
19967
19969
19975
19963
19967
19967
19974
19970
19975
19974
19975
19977
19977
19975
19985
19953
19951
19951
19967
19962
19958
19967
19971
19981
19989
19946
19950
19956
19967
19967
19975
19986
19955
19953
19974
19972
19965
19966
19960
19960
19966
19970
19975
19982
20007
19947
19943
19948
19958
19967
19967
19970
19977
20002
19950
19959
19969
19964
19968
19983
20009
19942
19951
19949
19957
19967
19966
19972
19987
20009
19946
19946
19975
19966
19974
19989
19951
19955
19951
20013
19945
19945
19965
19965
19962
19970
19980
19978
19996
19982
19991
19948
19955
19964
19961
19972
19975
19996
19946
19954
19960
19970
19981
20007
19948
19949
19947
19966
19967
19959
19969
19975
19983
19981
19997
19958
19951
19947
19958
19972
19966
19982
19949
19965
19971
19964
19943
19972
19965
19951
19972
19986
19950
19975
19966
19948
19967
19948
19968
19954
19967
19957
19967
19946
19964
19951
19962
19958
19964
19955
19971
19955
19981
19967
19987
19953
19950
19950
19959
20010
19966
19978
19951
19977
19941
19972
19942
19965
20022
19960
20013
19972
19964
19969
19972
19988
19951
19952
19952
19968
19960
19964
19970
19948
19956
19959
20021
19945
19968
19975
19982
19936
19945
19956
19954
19953
19968
19970
19979
19938
19944
19954
19967
19969
19956
19962
19970
19976
19985
20007
19943
19949
19946
19969
19956
19969
19972
19994
19950
19964
19945
19968
19948
19978
19956
19990
19949
19972
19945
19978
19937
19968
19940
19967
19956
19971
19957
19968
19962
19981
19952
19951
19956
19972
19970
19989
19957
19956
19964
19980
19983
20002
19956
19969
19997
19993
20005
19974
19964
20002
19998
20025
19968
19975
20003
19992
20009
20041
19967
19964
19988
19987
19985
19989
19998
20008
19965
19967
19969
19987
19961
19952
19975
19973
19981
19988
19951
19968
19964
19982
19991
19959
19952
19957
19974
19975
19972
19954
19971
19972
19980
19959
19965
19962
19975
19987
19948
19947
19956
19980
19967
19972
19978
19957
19948
19954
19964
19964
19966
19973
19971
19982
19951
19948
19946
19951
19964
19965
19960
19965
19975
19950
19959
19969
19946
19961
19959
19969
19947
19953
19951
19951
19953
19950
19959
19961
19980
19980
19986
20025
19949
19946
19950
19951
19964
19958
19966
19969
19981
19950
19948
19967
19964
19980
19945
19950
19950
19966
19966
19974
19949
19946
19953
19965
19970
19973
19975
19944
19948
19959
19961
19961
19974
19998
19944
19953
19960
19964
19970
19975
19989
19947
19951
19944
19943
19947
19950
19951
19947
19948
19942
19946
19944
19951
19954
19964
19959
19963
19959
19968
19969
19973
19982
20005
19951
19947
19952
19959
19965
19970
19928
19944
19948
19951
19962
19988
19942
19943
19956
19957
19972
19984
19948
19953
19952
19957
19950
19964
19964
19975
19975
19975
19973
19985
20011
19946
19945
19942
19957
19970
19957
19965
19966
19969
19974
19978
19983
19975
19943
19947
19950
19953
19971
19956
19959
19970
19975
19983
19940
19938
19944
19948
19951
19955
19958
19965
19960
19967
19970
19975
19980
19977
19988
19995
19988
19987
19992
20007
19948
19946
19946
19950
19943
19948
19956
19958
19970
19962
19964
19966
19969
19975
19984
19948
19943
19954
19972
19969
19989
20023
19951
19957
19962
19969
19971
19996
19950
19958
19971
19969
19975
19972
19988
20024
19949
19948
19965
19961
19972
19981
19988
19953
19948
19971
19967
19975
19987
19949
19947
19963
19975
19965
19973
19983
19948
19954
19954
19953
19968
19966
19975
19978
19985
19951
19957
19956
19973
19966
19977
19951
19945
19967
19959
19965
19968
19980
20007
19958
19951
19951
19974
19962
19972
19974
19995
19950
19951
19955
19959
19958
19964
19972
19981
19948
19947
19951
19954
19946
19948
19950
19966
19962
19967
19970
19975
19956
19950
19948
19964
19956
19967
19974
19988
19943
19941
19944
19948
19966
19957
19960
19966
19963
19973
19983
19948
19946
19954
19964
19958
19967
19970
19939
19945
19950
19963
19953
19953
19972
19975
19941
19943
19940
19945
19953
19963
19965
19961
19970
19948
19949
19956
19950
19962
19973
19991
19942
19941
19953
19964
19959
19971
19987
19947
19945
19946
19974
19961
19972
19944
19948
19948
19964
20017
19943
19959
19958
19973
19996
19946
19956
19956
19967
20007
19947
19956
19957
19967
19993
19944
19953
19956
19964
19980
19942
19943
19955
19960
19968
19973
19945
19959
19959
19964
19974
19945
19949
19965
19961
19972
19997
19941
19951
19969
19958
19961
19985
19945
19948
19957
19961
19966
19975
19975
19990
19945
19954
19950
19948
19954
19958
19963
19955
19959
19963
19963
19964
19971
19976
19996
19940
19945
19967
19960
19975
19966
19964
19956
19960
19960
19971
19970
19980
20004
19936
19938
19940
19951
19972
19962
19959
19969
19980
19945
19945
19943
19959
19953
19968
20006
19942
19938
19961
19954
19963
19972
19975
19940
19940
19946
19964
19951
19959
19961
19965
19972
19943
19945
19947
19957
19958
19971
19972
19939
19940
19942
19965
19986
19937
19940
19943
19944
19946
19956
19961
19959
19961
19969
19942
19943
19938
19958
19951
19964
19975
19936
19940
19946
19960
19963
19981
19933
19941
19953
19956
19958
19969
19972
19999
19940
19938
19938
19930
19937
19942
19949
19967
19951
19965
19966
19966
19996
19937
19942
19959
19953
19959
19961
19975
19944
19940
19935
19949
19980
19982
19957
19933
19959
19937
19961
19937
19959
19943
19958
19940
19957
19940
19952
19938
19949
19958
19959
19965
19970
20004
19939
19934
19932
19943
19956
19952
19957
19971
19937
19945
19949
19946
19961
19969
20000
19932
19935
19961
19951
19960
19966
19999
19938
19943
19946
19956
19966
19967
19969
19933
19934
19943
19948
19950
19951
19959
19973
19937
19923
19940
19949
19950
19961
19975
19933
19942
19946
19951
19967
19998
19936
19942
19953
19950
19952
19964
19995
19941
19932
19929
19932
19938
19956
19946
19953
19950
19962
19969
20007
19940
19936
19940
19942
19963
19947
19948
19948
19959
19959
19972
19934
19927
19940
19965
19952
19948
19956
19957
19962
19956
19969
19967
19931
19932
19943
19941
19962
19939
19932
19947
19973
19932
19932
19934
19955
19956
19958
19967
19985
19940
19949
19953
19963
19967
19938
19934
19935
19953
19953
19964
19924
19930
19939
19954
19950
19955
19964
19975
19935
19935
19950
19951
19962
20000
19936
19941
19970
19952
19938
19956
19939
19967
19941
19966
19938
19962
19936
19959
19941
19959
19935
19940
19941
19943
19945
19942
19952
19958
20004
19935
19938
19943
19950
19971
19932
19937
19939
19955
19948
19963
19972
19996
19938
19937
19941
19943
19950
19940
19946
19951
19963
19962
19971
19935
19936
19935
19940
19934
19955
19950
19951
19951
19961
19966
19928
19925
19929
19933
19948
19942
19959
19974
19934
19932
19943
19952
19966
19935
19933
19943
19942
19951
19967
19938
19949
19935
19970
19942
19933
19959
19953
19992
19948
19935
19954
19943
19963
19943
19959
19947
19961
19945
19966
19947
19983
19974
19943
19973
19945
19978
19959
20007
19969
19952
19980
19954
19998
19967
20036
19981
19957
20001
19978
19970
19952
19994
19964
19949
19975
19964
19948
19962
19942
19974
19973
19949
19973
19959
19948
19963
19946
19965
19949
19963
19948
19966
19948
19969
19944
19994
19954
19939
19962
19933
19967
19933
19959
19942
19953
19939
19954
19946
19955
19943
19951
19981
19956
19969
19956
19973
19954
19969
19953
19926
19950
19948
19951
19943
19949
19942
19952
19956
19959
19969
19934
19929
19939
19951
19952
19952
19961
19941
19938
19941
19942
19956
19953
19955
19958
19965
19978
19943
19941
19933
19938
19950
19945
19948
19953
19958
19942
19932
19934
19947
19949
19957
19959
19986
19938
19940
19953
19950
19955
19962
19940
19937
19933
19937
19953
19951
19955
19959
19982
19925
19937
19935
19949
19956
19951
19957
19961
19939
19936
19937
19944
19955
19950
19958
19933
19929
19942
19959
19949
19957
19972
19943
19941
19954
19949
19953
19960
19941
19941
19943
19951
19948
19946
19954
19968
19935
19938
19975
19980
19932
19934
19935
19956
19950
19958
19966
19981
19935
19940
19954
19948
19961
19972
19931
19932
19955
19959
19962
19935
19937
19954
19950
19956
19973
19937
19941
19939
19945
19958
19966
19937
19943
19946
19954
19969
19942
19934
19933
19927
19937
19939
19963
19949
19958
19974
19985
19943
19937
19940
19959
19950
19956
19962
19962
19937
19941
19934
19937
19938
19958
19954
19959
19965
19975
19940
19946
19955
19957
19974
19941
19942
19942
19947
19961
19953
19956
19964
19975
19982
19946
19940
19937
19941
19950
19959
19965
19970
19980
19946
19942
19935
19956
19959
19955
19966
19973
19981
19940
19943
19955
19956
19967
19973
19974
19942
19950
19963
19957
19964
19983
19942
19939
19962
19959
19967
19972
19942
19943
19946
19965
19959
19972
19941
19937
19962
19961
19967
19945
19951
19948
19959
19965
19941
19933
19951
19953
19965
19942
19939
19959
19956
19972
19944
19951
19964
19942
19952
19953
19962
19968
19941
19943
19946
19959
19994
19938
19943
19952
19961
19967
19936
19938
19945
19963
19953
19970
19941
19935
19957
19956
19967
19941
19942
19959
19949
19959
19974
19937
19934
19961
19954
19966
20002
19942
19959
19951
19966
19938
19952
19954
19973
19935
19955
19948
19966
19938
19934
19944
19948
19956
19966
19979
19935
19941
19942
19947
19962
19940
19935
19934
19951
19947
19950
19988
19937
19942
19955
19949
19952
19973
19940
19936
19950
19947
19951
19962
19935
19935
19940
19957
19948
19952
19964
19932
19930
19931
19953
19946
19954
19969
19929
19940
19950
19956
19995
19941
19956
19948
19943
19943
19950
19950
19967
19933
19934
19954
19951
19958
19983
19933
19935
19951
19951
19934
19958
19945
19935
19962
19957
19928
19951
19938
19966
19949
19924
19965
19956
19932
19970
19947
19927
19973
19942
19929
19960
19945
19986
19946
19940
19970
19945
19932
19972
19948
19931
19982
19950
19932
19958
19943
19932
19957
19942
20003
19950
19932
19970
19957
19935
19944
19930
19949
19932
19962
19942
19968
19937
19986
19945
19931
19945
19938
19960
19956
19935
19953
19942
19970
19946
19939
19940
19930
19951
19935
19956
19937
19966
19947
19965
19951
19927
19933
19937
19941
19949
19962
19932
19957
19949
19956
19933
19935
19950
19947
19959
19968
19930
19932
19936
19953
19948
19949
19954
19964
19934
19930
19933
19945
19942
19953
19967
19940
19938
19943
19956
20005
19929
19935
19948
19951
19965
19930
19937
19936
19953
19951
19957
19975
19929
19938
19948
19953
19953
19973
19927
19930
19953
19951
19956
19967
19928
19943
19943
19953
19974
19930
19933
19954
19949
19940
19950
19959
19963
19924
19931
19930
19943
19942
19948
19959
19975
19930
19927
19932
19940
19953
19941
19943
19942
19957
19954
19958
19978
19926
19932
19938
19935
19951
19965
19924
19914
19945
19956
19935
19939
19942
19962
19974
19929
19929
19937
19940
19944
19957
19990
19934
19927
19938
19942
19942
19944
19957
19974
19925
19930
19950
19945
19945
19959
19965
19929
19925
19916
19932
19924
19930
19932
19944
19934
19941
19952
19962
19959
19975
19994
19929
19929
19927
19931
19928
19926
19930
19951
19936
19946
19948
19959
19922
19924
19916
19924
19935
19957
19941
19940
19941
19948
19955
19969
19926
19923
19926
19944
19941
19941
19983
19930
19926
19936
19946
19937
19947
19951
19957
19979
19924
19931
19930
19924
19934
19942
19941
19953
19995
19919
19926
19938
19950
19937
19941
19953
19969
19922
19925
19927
19935
19942
19943
19950
19924
19923
19926
19939
19948
19932
19943
19955
19925
19919
19922
19926
19936
19936
19942
19946
19966
19926
19926
19929
19945
19942
19936
19945
19954
19964
19922
19926
19934
19938
19946
19952
19968
19946
19927
19928
19933
19946
19943
19943
19949
19930
19919
19933
19945
19937
19949
19958
19919
19919
19941
19942
19946
19950
19964
19988
19927
19927
19930
19933
19943
19938
19943
19955
19981
19919
19917
19922
19921
19941
19942
19942
19942
19948
19965
19930
19929
19920
19922
19930
19929
19940
19940
19944
19954
19981
19922
19923
19934
19949
19940
19940
19951
19962
19923
19922
19926
19923
19931
19943
19936
19935
19941
19936
19943
19940
19948
19954
19953
19954
19964
19985
19927
19926
19925
19929
19924
19929
19939
19944
19938
19936
19942
19947
19956
19963
19961
19965
19962
19965
19969
19981
20004
19934
19933
19940
19941
19942
19943
19938
19941
19955
19957
19962
19964
19982
19975
19980
19983
19982
19975
19964
19968
19975
19983
19983
19988
20018
19942
19940
19943
19949
19954
19947
19948
19951
19958
19964
19996
19930
19928
19924
19930
19942
19946
19945
19946
19948
19952
19952
19956
19948
19964
19932
19925
19928
19945
19942
19951
19959
19998
19919
19924
19932
19957
19941
19945
19964
19926
19936
19941
19940
19951
19950
19920
19924
19943
19937
19950
19951
19952
19983
19922
19926
19925
19935
19941
19935
19935
19944
19945
19947
19948
19946
19975
19919
19916
19928
19923
19931
19942
19940
19933
19938
19939
19937
19940
19939
19936
19938
19941
19940
19941
19948
19955
19979
19921
19914
19939
19932
19938
19935
19939
19944
19966
19922
19921
19924
19931
19933
19932
19937
19936
19943
19956
19918
19917
19912
19917
19919
19927
19921
19922
19925
19927
19941
19937
19942
19938
19943
19950
19922
19925
19920
19925
19935
19943
19930
19931
19937
19946
19989
19917
19918
19932
19940
19943
19942
19941
19951
19924
19922
19927
19928
19941
19932
19938
19941
19946
19971
19918
19918
19927
19946
19926
19940
19948
19962
19914
19930
19937
19939
19943
19953
19983
19921
19922
19920
19946
19937
19956
19920
19916
19925
19929
19940
19940
19947
19956
19924
19923
19923
19931
19937
19932
19937
19949
19951
19957
19999
19918
19918
19929
19947
19942
19948
19989
19924
19924
19943
19939
19947
19986
19920
19927
19943
19938
19952
19921
19924
19943
19938
19944
19962
19926
19926
19933
19948
19942
19947
19956
19973
19927
19921
19918
19948
19938
19946
20011
19929
19931
19953
19936
19948
19967
19920
19934
19948
19940
19947
19957
19924
19926
19922
19924
19947
19940
19942
19968
19924
19932
19940
19954
19955
19964
19927
19946
19935
19951
19932
19943
19922
19940
19926
19943
19926
19933
19927
19937
19924
19944
19927
19959
19948
19926
19939
19929
19942
19933
19947
19930
19944
19928
19950
19935
19975
19940
19924
19938
19926
19959
19941
19917
19951
19935
19924
19940
19927
19945
19950
19923
19940
19927
19940
19919
19941
19929
19918
19942
19918
19953
19939
19925
19958
19935
19923
19941
19923
19946
19933
19917
19940
19924
19945
19936
19963
19932
19917
19930
19919
19943
19924
19947
19934
19965
19937
19920
19943
19923
19975
19935
19929
19918
19946
19934
19921
19938
19922
19949
19943
19924
19948
19927
19949
19936
19954
19935
19920
19934
19926
19940
19937
19963
19935
19909
19975
19915
19923
19935
19943
19955
19918
19925
19937
19938
19943
19971
19921
19934
19941
19943
19926
19920
19942
19929
19943
19961
19919
19915
19914
19939
19939
19944
19952
19987
19919
19924
19927
19935
19934
19941
19948
19895
19918
19932
19939
19947
19985
19919
19921
19940
19935
19941
19955
19923
19924
19930
19942
19952
19924
19926
19933
19938
19945
19983
19914
19911
19928
19943
19940
19941
19947
19958
19941
19913
19919
19931
19933
19937
19953
19985
19923
19921
19936
19929
19938
19938
19944
19916
19919
19947
19935
19956
19954
19910
19925
19940
19939
19943
19921
19923
19934
19945
19919
19914
19921
19929
19933
19949
19918
19924
19945
19934
19948
19922
19918
19918
19938
19936
19972
19921
19941
19930
19943
19951
19962
19916
19916
19929
19932
19935
19927
19916
19938
19918
19950
19927
19960
19933
19921
19931
19916
19939
19915
19941
19919
19944
19927
19959
19950
19987
19928
19919
19929
19924
19942
19924
19941
19924
19941
19919
19962
19916
19924
19935
19927
19931
19953
19917
19911
19932
19933
19951
19912
19915
19926
19930
19931
19944
19975
19918
19929
19932
19948
19917
19910
19919
19936
19926
19938
19949
19988
19909
19917
19924
19940
19932
19935
19948
19954
19919
19919
19909
19914
19920
19922
19930
19949
19919
19914
19919
19927
19934
19944
19947
19956
19982
19919
19920
19927
19924
19928
19937
19940
19953
19915
19911
19924
19934
19938
19950
19992
19955
19914
19924
19920
19936
19933
19942
19972
19919
19927
19930
19938
19950
19910
19911
19915
19937
19932
19946
19913
19912
19919
19921
19933
19937
19933
19942
19967
19919
19920
19939
19927
19938
19943
19969
19913
19915
19925
19945
19935
19945
19976
19912
19930
19921
19941
19949
19911
19916
19924
19924
19928
19938
19945
19910
19913
19921
19927
19937
19940
19939
19943
19964
19918
19911
19909
19932
19938
19951
19911
19922
19932
19939
19915
19910
19921
19944
19911
19915
19935
19929
19945
19912
19913
19942
19932
19939
19915
19914
19927
19925
19933
19967
19909
19930
19917
19939
19924
19909
19930
19927
19941
19911
19914
19938
19924
19940
19969
19915
19913
19924
19926
19937
19943
19908
19911
19913
19931
19929
19926
19923
19930
19947
19911
19913
19918
19922
19923
19927
19935
19952
19914
19916
19908
19908
19931
19927
19940
19943
19956
19905
19912
19919
19931
19924
19927
19935
19940
19910
19914
19909
19933
19919
19935
19942
19985
19908
19902
19906
19914
19929
19932
19919
19920
19931
19942
19934
19910
19903
19918
19927
19924
19935
19945
19906
19911
19928
19913
19926
19943
19907
19902
19914
19919
19924
19926
19929
19939
19959
19961
19905
19906
19908
19907
19911
19916
19914
19926
19924
19929
19941
19908
19909
19914
19925
19914
19923
19921
19924
19926
19931
19926
19936
19942
19921
19905
19903
19908
19910
19911
19932
19927
19911
19921
19927
19933
19924
19915
19924
19911
19929
19916
19946
19921
19911
19934
19915
19936
19909
19936
19921
19943
19949
19934
19941
19941
19953
19973
20050
19924
19930
19944
19970
20055
19926
19957
19942
19963
20005
19927
19938
19943
19951
19963
19923
19924
19931
19949
19934
19951
19957
19918
19917
19932
19924
19934
19937
19953
19994
19911
19911
19936
19927
19934
19938
19940
19965
19920
19919
19914
19924
19919
19931
19944
19935
19942
19907
19913
19906
19917
19918
19927
19918
19924
19935
19946
19906
19916
19921
