EDA
27757
27767
27761
27766
27780
27764
27768
27774
27765
27764
27767
27757
27752
27750
27754
27749
27753
27758
27761
27763
27767
27773
27774
27777
27781
27779
27771
27770
27764
27766
27754
27751
27748
27738
27740
27739
27742
27740
27751
27753
27764
27768
27767
27767
27766
27766
27761
27753
27751
27758
27748
27736
27733
27722
27732
27731
27735
27733
27741
27743
27749
27748
27755
27767
27754
27760
27751
27750
27749
27740
27728
27732
27727
27720
27726
27719
27725
27724
27737
27735
27747
27748
27746
27753
27742
27753
27751
27727
27726
27723
27719
27715
27714
27708
27716
27714
27712
27720
27720
27732
27730
27739
27743
27740
27743
27734
27728
27732
27725
27725
27706
27715
27695
27710
27703
27682
27705
27709
27717
27722
27724
27730
27740
27730
27735
27733
27739
27730
27727
27725
27713
27710
27697
27707
27695
27701
27701
27709
27706
27718
27717
27725
27716
27722
27724
27719
27714
27718
27712
27704
27702
27700
27696
27686
27690
27694
27692
27694
27700
27707
27711
27709
27702
27722
27714
27714
27708
27689
27701
27706
27688
27691
27691
27685
27689
27692
27693
27694
27703
27702
27703
27706
27710
27714
27710
27709
27706
27697
27710
27702
27692
27688
27686
27683
27679
27678
27687
27663
27686
27692
27694
27692
27703
27706
27706
27708
27697
27697
27692
27689
27679
27683
27685
27668
27678
27677
27677
27679
27681
27687
27688
27692
27694
27695
27695
27690
27695
27694
27690
27684
27676
27671
27668
27663
27669
27663
27665
27669
27676
27677
27680
27677
27692
27692
27684
27681
27685
27684
27677
27670
27668
27665
27652
27657
27655
27655
27663
27665
27670
27664
27671
27670
27680
27678
27673
27675
27674
27671
27664
27665
27652
27653
27650
27655
27647
27655
27660
27655
27655
27661
27660
27677
27667
27675
27671
27660
27668
27655
27655
27653
27655
27644
27648
27655
27648
27647
27643
27647
27652
27655
27655
27664
27663
27669
27665
27655
27665
27655
27650
27648
27650
27647
27646
27637
27642
27636
27647
27646
27654
27655
27655
27638
27645
27655
27655
27655
27644
27648
27652
27644
27639
27634
27631
27633
27633
27636
27642
27648
27641
27641
27645
27655
27652
27651
27655
27654
27653
27650
27639
27643
27636
27636
27626
27633
27623
27626
27628
27629
27640
27642
27636
27641
27627
27644
27646
27644
27639
27634
27636
27629
27631
27622
27620
27618
27620
27620
27623
27625
27626
27637
27631
27645
27634
27640
27638
27639
27636
27639
27628
27623
27623
27622
27613
27609
27612
27612
27620
27620
27618
27636
27625
27635
27636
27631
27639
27631
27632
27630
27622
27626
27612
27617
27617
27610
27615
27613
27612
27614
27619
27623
27622
27631
27627
27629
27623
27623
27628
27624
27620
27616
27608
27607
27603
27619
27606
27601
27609
27605
27605
27620
27620
27625
27626
27628
27623
27620
27621
27616
27614
27614
27609
27608
27597
27599
27596
27597
27604
27605
27610
27619
27620
27622
27620
27618
27623
27616
27620
27607
27613
27604
27599
27594
27592
27602
27596
27595
27596
27594
27604
27606
27612
27612
27613
27620
27611
27615
27611
27611
27606
27604
27594
27595
27591
27594
27590
27592
27597
27596
27597
27596
27605
27609
27607
27608
27613
27607
27603
27600
27598
27598
27593
27584
27584
27586
27591
27573
27580
27585
27596
27594
27597
27592
27604
27602
27610
27602
27599
27597
27591
27589
27582
27573
27575
27575
27575
27587
27590
27591
27586
27594
27592
27589
27599
27598
27599
27598
27594
27595
27588
27588
27580
27580
27568
27567
27567
27576
27575
27588
27583
27586
27588
27594
27603
27597
27591
27591
27591
27589
27585
27579
27574
27575
27576
27573
27567
27573
27579
27575
27578
27576
27585
27589
27587
27588
27591
27591
27583
27583
27573
27571
27571
27566
27560
27558
27562
27564
27569
27569
27577
27576
27581
27581
27584
27586
27587
27577
27578
27577
27574
27572
27560
27559
27559
27559
27550
27559
27558
27562
27573
27572
27575
27576
27574
27564
27586
27569
27573
27572
27569
27562
27559
27556
27553
27558
27557
27559
27557
27564
27564
27570
27570
27574
27573
27576
27576
27572
27569
27561
27562
27556
27559
27543
27547
27541
27548
27540
27553
27556
27565
27565
27560
27570
27561
27569
27575
27563
27565
27560
27556
27551
27549
27540
27542
27534
27538
27541
27549
27557
27560
27550
27558
27560
27563
27573
27569
27561
27563
27559
27544
27550
27549
27544
27545
27542
27552
27536
27542
27553
27558
27566
27557
27561
27564
27557
27565
27567
27558
27557
27559
27549
27551
27543
27540
27533
27540
27540
27544
27543
27554
27556
27556
27556
27558
27556
27558
27550
27559
27551
27552
27545
27545
27536
27540
27530
27527
27526
27534
27540
27547
27557
27553
27556
27556
27552
27557
27553
27551
27552
27542
27542
27533
27527
27527
27524
27527
27527
27533
27534
27541
27546
27543
27544
27542
27541
27540
27548
27540
27541
27537
27527
27524
27527
27525
27524
27519
27519
27516
27524
27530
27528
27522
27541
27537
27545
27540
27539
27527
27534
27527
27524
27516
27510
27514
27510
27512
27517
27519
27521
27523
27530
27535
27529
27532
27535
27539
27535
27516
27514
27526
27512
27518
27510
27502
27505
27502
27506
27514
27519
27515
27527
27524
27527
27527
27527
27527
27524
27527
27524
27521
27510
27504
27503
27498
27495
27495
27497
27500
27511
27509
27514
27518
27517
27524
27505
27529
27524
27520
27508
27500
27496
27495
27494
27486
27492
27511
27522
27513
27502
27513
27516
27534
27516
27527
27535
27531
27511
27509
27508
27497
27509
27502
27503
27503
27503
27503
27512
27506
27508
27514
27521
27517
27524
27516
27521
27519
27527
27517
27516
27519
27508
27498
27500
27503
27496
27496
27499
27498
27501
27510
27518
27505
27510
27516
27527
27530
27518
27532
27516
27517
27503
27504
27495
27495
27495
27495
27493
27497
27506
27502
27508
27511
27493
27527
27519
27527
27521
27519
27515
27503
27498
27493
27487
27479
27490
27487
27490
27487
27495
27492
27496
27502
27509
27511
27514
27508
27508
27511
27499
27503
27492
27484
27485
27470
27487
27479
27484
27477
27487
27482
27493
27492
27498
27498
27500
27506
27493
27499
27495
27494
27484
27486
27479
27471
27476
27478
27481
27477
27485
27463
27494
27489
27493
27499
27508
27499
27496
27494
27492
27489
27468
27477
27475
27463
27468
27473
27471
27473
27477
27479
27481
27478
27484
27486
27492
27488
27490
27489
27481
27476
27474
27466
27458
27469
27459
27458
27464
27462
27471
27473
27477
27476
27475
27476
27485
27482
27482
27468
27470
27460
27466
27463
27458
27463
27450
27453
27458
27462
27463
27461
27476
27483
27480
27487
27487
27492
27478
27485
27482
27468
27463
27452
27453
27448
27453
27449
27452
27455
27465
27468
27465
27472
27468
27479
27476
27479
27479
27479
27463
27463
27456
27454
27450
27444
27443
27440
27449
27452
27458
27454
27460
27463
27463
27471
27470
27463
27471
27455
27467
27454
27454
27436
27446
27436
27442
27432
27448
27445
27452
27455
27460
27462
27463
27463
27463
27475
27463
27447
27454
27452
27450
27436
27438
27438
27440
27443
27447
27448
27439
27451
27452
27457
27455
27452
27455
27456
27452
27447
27451
27434
27439
27434
27431
27431
27430
27428
27436
27435
27442
27447
27444
27442
27447
27445
27444
27454
27449
27444
27445
27428
27431
27426
27428
27420
27431
27420
27426
27429
27430
27442
27444
27436
27451
27442
27447
27444
27444
27442
27436
27432
27422
27431
27423
27431
27419
27423
27431
27426
27433
27428
27438
27435
27434
27446
27442
27434
27437
27434
27430
27436
27426
27417
27415
27413
27415
27425
27420
27428
27418
27428
27428
27436
27433
27439
27430
27425
27434
27429
27423
27420
27420
27420
27410
27415
27414
27410
27410
27404
27420
27420
27418
27425
27407
27425
27418
27423
27426
27428
27422
27407
27408
27404
27400
27399
27404
27407
27406
27412
27414
27413
27423
27423
27425
27422
27425
27426
27419
27411
27417
27413
27413
27396
27396
27399
27398
27399
27398
27396
27404
27407
27412
27412
27420
27418
27413
27416
27406
27408
27407
27407
27399
27388
27386
27383
27380
27381
27391
27397
27396
27404
27405
27410
27417
27408
27416
27412
27415
27404
27406
27399
27393
27389
27386
27393
27380
27383
27388
27398
27391
27399
27394
27402
27396
27405
27400
27399
27403
27396
27398
27382
27388
27383
27382
27375
27376
27374
27383
27380
27385
27393
27392
27397
27412
27401
27399
27399
27398
27399
27388
27388
27380
27380
27380
27375
27381
27375
27380
27382
27383
27386
27391
27394
27395
27396
27395
27389
27394
27395
27380
27380
27374
27370
27374
27368
27365
27365
27371
27365
27372
27380
27389
27388
27399
27381
27390
27390
27387
27389
27383
27378
27374
27372
27366
27366
27364
27359
27358
27371
27372
27377
27377
27390
27386
27383
27391
27395
27383
27383
27375
27368
27364
27364
27352
27349
27351
27364
27361
27362
27370
27375
27373
27380
27374
27380
27380
27381
27375
27367
27372
27358
27359
27358
27357
27353
27351
27357
27356
27364
27366
27369
27366
27375
27375
27381
27380
27373
27375
27366
27362
27358
27361
27356
27357
27351
27351
27356
27342
27351
27353
27352
27359
27374
27361
27367
27373
27357
27364
27365
27352
27353
27348
27348
27346
27344
27335
27340
27343
27341
27351
27355
27354
27358
27364
27364
27358
27352
27349
27357
27354
27343
27345
27338
27335
27343
27335
27345
27338
27337
27344
27349
27356
27357
27356
27355
27366
27359
27358
27354
27348
27340
27342
27338
27333
27328
27332
27327
27334
27342
27341
27340
27349
27349
27332
27359
27354
27351
27341
27341
27343
27341
27332
27325
27326
27329
27325
27327
27326
27330
27334
27336
27336
27348
27348
27352
27349
27340
27350
27340
27340
27335
27330
27316
27325
27310
27319
27319
27318
27324
27329
27332
27338
27339
27348
27345
27350
27338
27338
27340
27337
27328
27329
27325
27316
27308
27311
27311
27316
27328
27330
27335
27329
27335
27332
27336
27335
27334
27335
27332
27327
27327
27323
27311
27314
27311
27309
27305
27311
27325
27322
27320
27327
27334
27325
27332
27335
27335
27329
27329
27320
27327
27316
27311
27308
27316
27319
27308
27303
27312
27318
27326
27322
27324
27332
27325
27327
27326
27325
27317
27319
27319
27316
27311
27301
27303
27303
27310
27306
27323
27323
27310
27318
27323
27324
27325
27322
27322
27321
27313
27306
27305
27303
27294
27293
27297
27295
27293
27299
27301
27307
27305
27311
27310
27311
27311
27318
27310
27317
27308
27301
27293
27288
27292
27290
27295
27292
27287
27292
27294
27296
27305
27298
27305
27305
27309
27306
27308
27300
27300
27303
27300
27284
27284
27279
27284
27277
27282
27289
27292
27299
27300
27303
27299
27299
27301
27305
27298
27301
27295
27292
27287
27278
27278
27274
27279
27272
27272
27278
27277
27283
27290
27285
27296
27300
27294
27295
27303
27300
27296
27287
27272
27275
27274
27264
27264
27277
27300
27316
27303
27306
27304
27302
27293
27287
27287
27284
27313
27275
27269
27268
27260
27260
27254
27259
27255
27259
27263
27268
27266
27272
27278
27285
27288
27291
27299
27295
27297
27299
27297
27287
27289
27274
27280
27276
27270
27271
27276
27279
27284
27283
27292
27292
27294
27300
27300
27300
27298
27295
27273
27264
27274
27279
27275
27269
27269
27271
27261
27270
27274
27277
27268
27287
27293
27300
27298
27295
27296
27293
27292
27279
27277
27269
27265
27260
27255
27260
27261
27262
27267
27268
27279
27280
27284
27276
27286
27287
27279
27278
27274
27271
27265
27257
27252
27246
27247
27249
27254
27255
27263
27266
27268
27279
27271
27271
27279
27278
27271
27270
27263
27261
27249
27259
27248
27245
27243
27247
27251
27246
27247
27260
27253
27261
27270
27274
27270
27265
27271
27267
27255
27249
27238
27242
27242
27239
27239
27236
27236
27237
27244
27242
27244
27254
27257
27261
27255
27253
27253
27255
27246
27249
27246
27238
27236
27230
27234
27234
27237
27232
27237
27237
27244
27242
27249
27253
27253
27253
27252
27244
27244
27237
27226
27229
27228
27228
27220
27218
27223
27230
27231
27239
27235
27239
27245
27252
27239
27258
27250
27244
27245
27238
27237
27230
27215
27227
27220
27218
27227
27230
27230
27228
27238
27232
27237
27244
27243
27234
27240
27233
27236
27233
27220
27218
27215
27213
27209
27215
27215
27214
27217
27228
27232
27236
27236
27238
27233
27225
27214
27220
27228
27226
27223
27214
27206
27212
27205
27209
27210
27206
27212
27213
27215
27216
27232
27231
27231
27229
27231
27230
27218
27223
27215
27205
27196
27192
27197
27195
27203
27198
27208
27211
27210
27212
27221
27207
27204
27215
27221
27214
27215
27205
27204
27202
27192
27189
27184
27193
27189
27194
27197
27204
27204
27200
27200
27207
27210
27215
27204
27197
27199
27195
27191
27188
27186
27175
27177
27174
27196
27189
27193
27196
27196
27200
27201
27205
27203
27199
27196
27195
27191
27188
27188
27183
27183
27180
27183
27165
27179
27178
27175
27190
27198
27189
27196
27199
27196
27197
27189
27192
27185
27185
27179
27175
27167
27170
27165
27161
27168
27171
27171
27183
27188
27191
27191
27194
27189
27191
27183
27185
27181
27176
27173
27174
27168
27162
27166
27171
27162
27167
27166
27174
27171
27180
27183
27185
27187
27178
27183
27177
27175
27175
27167
27167
27162
27157
27158
27156
27159
27160
27166
27175
27169
27180
27178
27172
27175
27175
27165
27175
27171
27172
27162
27151
27158
27154
27158
27149
27159
27155
27156
27166
27172
27169
27173
27173
27172
27173
27167
27167
27160
27158
27153
27148
27148
27141
27142
27143
27142
27143
27154
27159
27160
27157
27172
27166
27172
27167
27161
27159
27157
27156
27151
27143
27143
27141
27143
27143
27143
27148
27143
27159
27156
27163
27161
27157
27164
27158
27157
27158
27148
27143
27142
27137
27135
27130
27130
27135
27140
27139
27140
27143
27152
27143
27151
27154
27151
27143
27143
27143
27141
27132
27135
27124
27119
27123
27119
27119
27127
27131
27124
27140
27143
27137
27142
27143
27151
27143
27138
27141
27134
27133
27132
27127
27127
27119
27124
27119
27127
27134
27130
27132
27133
27138
27134
27134
27141
27125
27135
27132
27127
27130
27124
27113
27114
27113
27108
27116
27117
27122
27124
27125
27129
27129
27129
27124
27131
27135
27127
27122
27119
27116
27118
27109
27104
27096
27098
27119
27119
27119
27115
27123
27116
27118
27124
27127
27127
27132
27123
27119
27117
27116
27105
27102
27098
27108
27101
27098
27102
27103
27111
27110
27108
27115
27119
27123
27117
27119
27113
27114
27109
27107
27098
27106
27092
27104
27111
27111
27111
27102
27097
27111
27110
27114
27110
27114
27116
27113
27118
27113
27106
27102
27105
27092
27092
27097
27087
27096
27098
27095
27095
27103
27110
27108
27110
27108
27116
27109
27103
27108
27100
27101
27092
27086
27087
27086
27090
27087
27095
27092
27097
27099
27100
27103
27105
27110
27106
27103
27105
27087
27099
27097
27092
27085
27084
27082
27084
27078
27087
27089
27090
27089
27095
27094
27105
27102
27103
27094
27097
27092
27097
27086
27092
27076
27078
27070
27071
27074
27083
27086
27092
27086
27095
27093
27102
27090
27096
27094
27094
27092
27090
27087
27081
27080
27079
27071
27076
27075
27079
27077
27093
27087
27089
27089
27086
27092
27090
27094
27087
27093
27085
27078
27079
27072
27068
27066
27064
27059
27066
27075
27079
27078
27084
27086
27092
27086
27095
27087
27092
27086
27079
27081
27071
27070
27060
27072
27063
27060
27073
27069
27077
27078
27081
27079
27087
27091
27095
27080
27087
27084
27081
27078
27070
27069
27053
27055
27056
27060
27063
27060
27073
27076
27076
27079
27086
27078
27081
27079
27078
27079
27076
27075
27063
27070
27062
27066
27065
27061
27055
27055
27062
27071
27073
27074
27076
27078
27078
27071
27071
27074
27068
27063
27057
27055
27052
27046
27044
27049
27052
27053
27068
27071
27069
27068
27071
27070
27071
27070
27066
27067
27064
27063
27057
27055
27050
27039
27063
27037
27050
27045
27052
27058
27061
27066
27064
27073
27073
27075
27068
27061
27052
27053
27042
27044
27045
27049
27049
27035
27047
27046
27055
27055
27057
27060
27066
27063
27067
27060
27058
27055
27060
27047
27047
27036
27033
27048
27047
27046
27040
27051
27050
27052
27060
27062
27063
27057
27064
27062
27042
27054
27046
27055
27040
27046
27036
27038
27043
27039
27045
27044
27046
27053
27052
27049
27055
27063
27054
27061
27046
27065
27062
27031
27012
27008
27047
27036
27012
27031
27099
27033
27055
27028
27050
27074
27032
27055
27078
27039
27037
27058
27075
27075
27071
27079
27074
27047
27046
27045
27045
27049
27057
27057
27068
27070
27068
27070
27071
27077
27076
27068
27071
27071
27055
27047
27054
27055
27055
27055
27056
27060
27060
27061
27070
27073
27076
27074
27079
27075
27070
27073
27065
27060
27051
27052
27052
27039
27044
27055
27051
27047
27061
27063
27065
27070
27075
27076
27072
27076
27064
27063
27060
27060
27050
27047
27047
27044
27047
27047
27045
27045
27053
27062
27073
27076
27077
27066
27067
27071
27065
27069
27055
27056
27054
27048
27047
27035
27046
27042
27047
27052
27051
27065
27063
27068
27069
27076
27070
27071
27055
27063
27055
27049
27044
27046
27044
27038
27036
27039
27047
27044
27054
27063
27054
27061
27063
27063
27066
27055
27061
27067
27055
27047
27050
27045
27042
27036
27029
27037
27047
27045
27053
27045
27065
27061
27075
27071
27076
27063
27063
27066
27062
27052
27047
27047
27043
27034
27047
27047
27045
27049
27058
27060
27052
27052
27060
27071
27076
27071
27071
27071
27063
27067
27055
27052
27045
27042
27044
27045
27050
27051
27062
27061
27071
27068
27074
27078
27065
27060
27048
27061
27063
27055
27058
27052
27047
27052
27042
27053
27055
27052
27060
27069
27061
27071
27071
27077
27076
27074
27074
27079
27069
27071
27063
27060
27048
27046
27049
27052
27057
27065
27066
27077
27073
27090
27078
27087
27088
27084
27084
27070
27070
27071
27064
27059
27056
27052
27052
27052
27066
27064
27068
27076
27077
27076
27081
27074
27085
27087
27081
27083
27061
27064
27066
27054
27055
27058
27060
27063
27070
27066
27069
27077
27075
27082
27084
27093
27087
27086
27082
27076
27078
27073
27069
27068
27060
27058
27066
27060
27065
27058
27077
27089
27085
27084
27092
27090
27091
27084
27085
27085
27082
27076
27068
27070
27061
27063
27060
27061
27074
27067
27080
27084
27092
27092
27100
27101
27099
27094
27090
27093
27092
27085
27074
27083
27079
27079
27081
27078
27086
27088
27097
27100
27097
27098
27105
27103
27109
27103
27110
27101
27095
27094
27090
27090
27100
27100
27097
27098
27102
27103
27100
27104
27106
27110
27106
27113
27116
27118
27114
27108
27111
27106
27092
27089
27099
27111
27103
27098
27101
27106
27105
27116
27119
27116
27124
27124
27127
27125
27127
27124
27121
27117
27114
27119
27111
27112
27103
27103
27111
27119
27119
27132
27130
27136
27133
27135
27136
27138
27138
27132
27127
27124
27122
27119
27119
27110
27116
27111
27114
27127
27134
27135
27134
27141
27143
27142
27143
27142
27143
27143
27143
27140
27142
27141
27135
27130
27132
27138
27126
27137
27140
27153
27153
27151
27160
27159
27164
27165
27163
27159
27159
27156
27151
27137
27143
27156
27143
27143
27153
27154
27156
27162
27168
27172
27177
27173
27173
27175
27172
27173
27166
27164
27164
27164
27159
27154
27158
27171
27174
27167
27169
27175
27180
27183
27187
27181
27188
27191
27178
27187
27175
27181
27176
27178
27175
27175
27172
27176
27180
27179
27195
27190
27199
27203
27202
27202
27203
27204
27200
27199
27196
27196
27193
27189
27188
27185
27187
27199
27191
27198
27206
27208
27206
27208
27220
27215
27228
27215
27213
27210
27207
27206
27211
27206
27203
27202
27202
27206
27205
27218
27220
27220
27230
27231
27234
27234
27239
27227
27228
27235
27231
27222
27225
27219
27220
27215
27216
27223
27221
27228
27239
27238
27251
27249
27254
27250
27252
27255
27244
27246
27241
27238
27237
27231
27236
27251
27239
27244
27242
27247
27259
27259
27261
27263
27263
27259
27257
27261
27268
27265
27261
27260
27248
27258
27257
27252
27259
27254
27267
27263
27268
27275
27278
27278
27289
27286
27287
27292
27280
27284
27279
27278
27268
27268
27279
27279
27275
27277
27293
27277
27287
27297
27289
27301
27302
27302
27302
27303
27303
27304
27295
27297
27292
27289
27289
27284
27294
27298
27303
27303
27304
27310
27310
27317
27321
27329
27320
27321
27324
27321
27317
27316
27310
27311
27300
27300
27311
27319
27316
27313
27325
27327
27337
27336
27335
27343
27340
27340
27337
27334
27336
27333
27335
27322
27327
27322
27327
27333
27335
27338
27341
27353
27351
27354
27361
27367
27364
27364
27359
27357
27359
27358
27354
27353
27349
27358
27351
27351
27349
27358
27364
27372
27368
27381
27388
27385
27387
27382
27380
27374
27375
27375
27371
27367
27367
27373
27366
27371
27389
27383
27393
27390
27399
27399
27399
27405
27408
27399
27405
27403
27399
27396
27397
27390
27392
27393
27399
27396
27403
27409
27404
27418
27421
27428
27430
27426
27431
27429
27426
27425
27423
27420
27424
27417
27413
27426
27419
27427
27423
27428
27431
27438
27437
27446
27441
27452
27450
27452
27451
27452
27442
27444
27434
27433
27432
27438
27436
27447
27445
27452
27454
27468
27468
27468
27474
27480
27476
27473
27474
27472
27476
27468
27471
27460
27454
27462
27458
27462
27473
27479
27486
27486
27488
27492
27492
27499
27497
27497
27492
27497
27497
27493
27489
27487
27484
27487
27489
27494
27504
27507
27510
27516
27520
27518
27527
27524
27527
27525
27527
27524
27521
27513
27522
27516
27521
27524
27524
27521
27516
27526
27511
27540
27537
27548
27551
27545
27544
27551
27549
27545
27545
27539
27539
27535
27543
27532
27541
27543
27548
27543
27554
27556
27551
27565
27565
27570
27575
27571
27573
27560
27566
27563
27562
27556
27564
27550
27551
27556
27562
27570
27573
27578
27586
27590
27592
27599
27601
27599
27594
27590
27586
27585
27584
27589
27584
27590
27579
27591
27591
27591
27610
27610
27611
27612
27617
27625
27618
27623
27620
27610
27620
27610
27611
27629
27608
27615
27615
27626
27626
27630
27637
27642
27642
27641
27647
27647
27638
27631
27633
27632
27628
27623
27623
27616
27616
27618
27620
27684
27663
27663
27663
27660
27663
27687
27676
27670
27663
27664
27673
27676
27663
27684
27668
27657
27663
27681
27678
27679
27673
27690
27692
27697
27697
27709
27700
27711
27706
27707
27709
27711
27708
27701
27701
27698
27697
27694
27707
27702
27711
27716
27721
27718
27735
27733
27740
27716
27739
27740
27740
27740
27735
27733
27724
27725
27719
27718
27727
27725
27726
27734
27742
27747
27758
27760
27764
27771
27767
27752
27757
27759
27761
27750
27750
27748
27745
27742
27748
27748
27750
27761
27764
27760
27775
27783
27791
27781
27789
27780
27783
27783
27779
27775
27772
27764
27770
27762
27766
27774
27761
27779
27792
27794
27796
27807
27809
27815
27805
27801
27811
27803
27796
27799
27794
27786
27783
27787
27788
27792
27793
27807
27814
27814
27814
27822
27823
27825
27831
27835
27831
27831
27810
27819
27812
27812
27812
27819
27812
27820
27826
27831
27838
27839
27838
27846
27853
27850
27849
27835
27844
27848
27847
27841
27839
27831
27843
27838
27839
27842
27849
27848
27862
27864
27864
27874
27871
27874
27862
27873
27878
27879
27879
27866
27867
27856
27863
27865
27871
27870
27867
27882
27891
27893
27895
27894
27902
27894
27885
27897
27882
27892
27894
27899
27892
27890
27886
27887
27893
27895
27900
27906
27908
27916
27914
27926
27937
27921
27934
27921
27925
27926
27925
27918
27919
27911
27911
27911
27911
27916
27930
27928
27935
27943
27932
27942
27959
27958
27937
27948
27944
27948
27950
27940
27940
27936
27935
27941
27943
27946
27945
27945
27958
27967
27971
27975
27962
27981
27975
27975
27980
27974
27974
27961
27960
27965
27958
27967
27965
27966
27968
27975
27983
27980
27989
27990
27999
28000
28007
27996
27988
27996
27988
27985
27987
27988
27985
27982
27980
27995
27989
27995
28002
28008
28015
28015
28021
28021
28023
28020
28023
28017
28012
28019
28007
28010
28015
28012
28007
28017
28017
28020
28026
28027
28039
28038
28046
28043
28048
28044
28042
28039
28039
28039
28037
28037
28034
28036
28036
28043
28044
28050
28048
28063
28059
28068
28068
28068
28071
28068
28068
28068
28060
28055
28062
28055
28057
28058
28058
28065
28069
28076
28076
28079
28084
28093
28090
28100
28097
28092
28091
28097
28081
28081
28079
28084
28076
28086
28079
28085
28093
28095
28097
28106
28114
28112
28115
28120
28123
28123
28104
28115
28112
28105
28111
28100
28100
28103
28103
28116
28111
28117
28132
28130
28138
28140
28145
28144
28145
28138
28133
28141
28132
28135
28126
28132
28127
28128
28132
28136
28140
28147
28146
28158
28159
28167
28167
28167
28166
28165
28161
28157
28161
28158
28153
28150
28150
28153
28145
28157
28161
28163
28170
28175
28185
28190
28195
28187
28191
28183
28191
28182
28186
28177
28176
28167
28165
28165
28166
28167
28180
28188
28189
28193
28200
28207
28210
28213
28213
28210
28206
28210
28198
28202
28191
28199
28199
28195
28188
28208
28203
28214
28210
28222
28226
28236
28231
28231
28233
28228
28231
28225
28223
28217
28209
28215
28215
28210
28219
28225
28220
28231
28236
28239
28243
28255
28244
28244
28248
28240
28254
28246
28240
28241
28223
28231
28236
28236
28241
28245
28245
28248
28260
28257
28260
28268
28271
28269
28273
28277
28253
28261
28261
28261
28252
28253
28255
28252
28263
28261
28263
28273
28268
28277
28290
28287
28287
28287
28284
28272
28276
28287
28278
28273
28275
28265
28271
28275
28284
28270
28277
28284
28289
28300
28297
28311
28309
28308
28309
28307
28303
28308
28295
28296
28295
28295
28289
28285
28297
28293
28309
28307
28311
28319
28315
28321
28327
28329
28320
28324
28319
28320
28313
28316
28309
28311
28308
28311
28316
28314
28319
28326
28330
28332
28334
28339
28341
28340
28340
28335
28339
28338
28327
28327
28326
28332
28322
28319
28326
28335
28339
28336
28340
28347
28354
28358
28351
28354
28356
28357
28359
28348
28347
28349
28340
28340
28341
28337
28341
28351
28355
28359
28354
28367
28375
28375
28380
28372
28375
28380
28375
28372
28362
28359
28356
28361
28356
28363
28359
28365
28367
28372
28375
28389
28383
28391
28394
28393
28388
28388
28380
28391
28380
28378
28376
28373
28377
28373
28377
28373
28391
28393
28393
28404
28399
28406
28413
28399
28407
28410
28409
28404
28398
28394
28399
28391
28396
28395
28397
28396
28401
28407
28412
28423
28419
28420
28428
28427
28423
28431
28423
28421
28422
28411
28408
28409
28415
28409
28419
28420
28422
28423
28434
28435
28441
28445
28447
28447
28449
28455
28443
28443
28433
28431
28426
28423
28426
28432
28438
28442
28441
28441
28450
28451
28458
28461
28460
28458
28463
28462
28460
28454
28449
28453
28441
28447
28443
28436
28434
28448
28447
28449
28458
28458
28466
28466
28479
28480
28479
28473
28475
28475
28465
28461
28455
28452
28453
28452
28455
28463
28470
28466
28474
28481
28480
28488
28486
28490
28487
28481
28486
28477
28474
28468
28468
28474
28462
28463
28471
28468
28475
28483
28487
28490
28486
28490
28501
28501
28495
28493
28487
28484
28483
28487
28480
28483
28468
28477
28492
28487
28486
28487
28497
28501
28510
28512
28517
28511
28508
28511
28503
28506
28502
28495
28495
28492
28486
28484
28491
28495
28501
28500
28510
28519
28519
28524
28523
28525
28527
28519
28523
28518
28517
28507
28509
28506
28503
28501
28513
28511
28510
28519
28530
28525
28528
28535
28534
28537
28546
28531
28535
28521
28532
28512
28508
28500
28496
28496
28500
28545
28530
28540
28538
28543
28543
28543
28536
28542
28541
28546
28540
28539
28532
28532
28532
28532
28533
28544
28542
28544
28544
28548
28545
28556
28557
28559
28561
28566
28572
28571
28567
28561
28559
28552
28559
28551
28559
28556
28561
28559
28567
28566
28561
28560
28588
28582
28588
28591
28586
28591
28585
28580
28580
28575
28564
28561
28559
28561
28566
28564
28575
28579
28586
28590
28593
28591
28577
28596
28602
28599
28603
28594
28583
28580
28572
28565
28560
28571
28573
28574
28577
28580
28587
28583
28599
28596
28602
28598
28615
28610
28605
28594
28591
28574
28576
28574
28578
28574
28582
28582
28590
28590
28591
28597
28605
28613
28612
28615
28613
28615
28606
28604
28599
28590
28581
28583
28586
28580
28587
28582
28596
28590
28604
28615
28616
28601
28620
28628
28616
28623
28612
28613
28612
28599
28590
28589
28588
28585
28595
28591
28600
28606
28612
28621
28624
28623
28631
28627
28623
28623
28617
28615
28613
28602
28601
28598
28592
28596
28597
28604
28606
28612
28615
28628
28628
28635
28637
28628
28637
28621
28618
28613
28617
28608
28611
28608
28600
28600
28604
28609
28615
28610
28620
28628
28623
28636
28634
28638
28634
28628
28630
28619
28620
28602
28615
28607
28608
28611
28615
28612
28615
28631
28631
28636
28642
28655
28646
28629
28645
28619
28628
28633
28625
28620
28612
28618
28612
28612
28623
28617
28625
28631
28639
28642
28644
28649
28647
28651
28647
28647
28647
28635
28629
28627
28617
28621
28621
28626
28630
28626
28630
28631
28636
28647
28646
28653
28652
28654
28648
28627
28645
28639
28630
28629
28627
28627
28624
28626
28618
28628
28631
28633
28631
28637
28652
28652
28656
28652
28650
28642
28641
28634
28638
28626
28625
28626
28618
28629
28625
28630
28631
28640
28647
28647
28649
28652
28649
28647
28647
28639
28647
28641
28639
28633
28620
28628
28620
28625
28625
28634
28636
28643
28646
28654
28646
28654
28655
28657
28652
28646
28641
28642
28632
28644
28629
28633
28631
28625
28636
28647
28644
28644
28648
28652
28653
28655
28650
28657
28647
28648
28646
28647
28644
28641
28633
28633
28636
28638
28641
28642
28647
28650
28660
28655
28654
28662
28660
28663
28658
28654
28650
28653
28650
28638
28644
28644
28638
28644
28639
28645
28646
28654
28652
28662
28652
28663
28668
28665
28661
28662
28656
28645
28646
28639
28639
28644
28637
28642
28647
28647
28652
28654
28655
28662
28667
28671
28658
28665
28660
28659
28652
28648
28652
28642
28639
28640
28646
28638
28638
28646
28647
28653
28659
28662
28665
28665
28671
28667
28666
28668
28668
28653
28653
28646
28638
28639
28639
28634
28642
28644
28650
28652
28664
28660
28659
28655
28663
28668
28663
28663
28663
28658
28652
28646
28637
28644
28649
28652
28641
28654
28647
28653
28660
28663
28660
28666
28666
28660
28660
28663
28652
28655
28648
28647
28640
28644
28640
28641
28644
28646
28652
28649
28652
28655
28653
28670
28660
28671
28656
28663
28659
28647
28647
28640
28639
28637
28640
28642
28642
28653
28642
28654
28663
28652
28652
28667
28663
28665
28661
28670
28659
28650
28644
28638
28637
28631
28636
28637
28643
28633
28644
28656
28655
28658
28664
28663
28665
28665
28647
28656
28660
28647
28645
28647
28635
28641
28636
28638
28645
28646
28648
28652
28652
28663
28661
28668
28662
28660
28662
28663
28654
28655
28646
28643
28636
28634
28639
28644
28647
28646
28649
28649
28657
28652
28663
28663
28667
28660
28655
28654
28651
28646
28645
28644
28634
28635
28630
28639
28635
28637
28646
28644
28645
28663
28663
28658
28661
28662
28654
28657
28651
28648
28638
28640
28633
28635
28636
28639
28641
28642
28640
28646
28652
28662
28663
28665
28662
28668
28652
28659
28652
28652
28644
28643
28639
28637
28628
28631
28632
28636
28642
28644
28655
28657
28661
28662
28666
28664
28657
28652
28645
28647
28644
28636
28638
28636
28631
28641
28644
28643
28646
28646
28651
28660
28664
28669
28671
28663
28661
28655
28657
28653
28644
28638
28637
28636
28635
28634
28637
28636
28650
28645
28658
28652
28668
28660
28671
28661
28659
28660
28646
28646
28643
28641
28639
28644
28640
28644
28639
28649
28649
28655
28659
28661
28670
28667
28668
28671
28670
28661
28662
28652
28645
28644
28637
28632
28640
28636
28641
28645
28646
28650
28658
28661
28668
28664
28662
28668
28657
28658
28652
28661
28647
28647
28644
28634
28640
28635
28643
28650
28655
28652
28654
28646
28652
28661
28668
28668
28660
28671
28661
28645
28647
28647
28639
28634
28638
28639
28646
28640
28655
28654
28668
28662
28670
28668
28668
28667
28652
28657
28660
28650
28644
28644
28640
28644
28647
28647
28644
28647
28650
28656
28652
28660
28670
28676
28671
28652
28669
28664
28663
28652
28654
28646
28645
28638
28641
28637
28646
28647
28653
28653
28656
28662
28665
28668
28673
28672
28662
28661
28660
28657
28647
28649
28641
28636
28643
28646
28646
28647
28658
28656
28663
28665
28671
28669
28655
28668
28665
28667
28661
28647
28645
28651
28637
28637
28639
28636
28640
28642
28653
28654
28652
28663
28669
28666
28652
28663
28660
28663
28660
28647
28646
28644
28634
28633
28638
28638
28638
28645
28647
28659
28660
28662
28665
28660
28671
28670
28663
28655
28646
28648
28645
28640
28642
28638
28640
28643
28646
28647
28652
28651
28658
28662
28669
28669
28657
28660
28655
28657
28650
28647
28644
28639
28637
28630
28643
28636
28641
28644
28649
28650
28646
28661
28646
28665
28655
28659
28652
28646
28647
28650
28636
28636
28636
28636
28634
28638
28646
28647
28647
28650
28644
28630
28644
28639
28652
28660
28644
28648
28650
28647
28657
28614
28617
28610
28616
28629
28645
28652
28663
28660
28671
28663
28653
28671
28679
28666
28671
28669
28668
28656
28647
28651
28647
28656
28654
28644
28647
28658
28660
28668
28668
28679
28679
28686
28687
28679
28679
28674
28663
28665
28663
28655
28654
28647
28651
28649
28646
28649
28660
28662
28670
28666
28674
28679
28671
28678
28659
28671
28666
28661
28654
28650
28650
28647
28644
28638
28642
28639
28655
28656
28663
28655
28670
28661
28671
28645
28660
28657
28663
28655
28644
28640
28632
28634
28631
28639
28637
28629
28641
28652
28654
28668
28655
28661
28658
28657
28657
28652
28644
28642
28630
28633
28632
28622
28625
28634
28623
28641
28636
28642
28646
28636
28647
28660
28655
28661
28654
28646
28639
28637
28635
28626
28625
28620
28619
28620
28631
28631
28629
28636
28642
28645
28651
28654
28647
28645
28645
28646
28640
28631
28630
28625
28623
28613
28608
28614
28623
28620
28620
28628
28639
28636
28639
28639
28638
28641
28636
28645
28629
28620
28619
28615
28612
28615
28596
28615
28617
28621
28623
28631
28631
28633
28636
28616
28618
28631
28639
28631
28628
28623
28609
28602
28602
28606
28606
28611
28609
28614
28612
28625
28627
28620
28633
28634
28639
28628
28625
28628
28616
28620
28614
28606
28600
28606
28602
28597
28605
28607
28612
28617
28629
28628
28628
28635
28626
28630
28626
28625
28616
28606
28605
28598
28600
28600
28599
28599
28602
28604
28615
28613
28617
28615
28625
28619
28622
28615
28615
28598
28597
28610
28596
28596
28596
28588
28589
28597
28592
28600
28599
28609
28615
28615
28619
28626
28607
28612
28615
28613
28604
28604
28590
28593
28585
28583
28580
28582
28589
28585
28593
28596
28602
28597
28604
28604
28605
28602
28592
28599
28596
28589
28582
28581
28583
28582
28573
28585
28583
28586
28583
28590
28591
28591
28596
28597
28596
28590
28594
28594
28589
28583
28582
28574
28580
28570
28572
28569
28574
28580
28586
28589
28584
28584
28597
28591
28590
28589
28583
28583
28576
28580
28573
28574
28568
28556
28565
28569
28567
28582
28576
28578
28586
28588
28590
28590
28596
28589
28590
28575
28580
28569
28568
28564
28563
28558
28562
28562
28572
28568
28570
28581
28580
28581
28586
28591
28587
28584
28580
28577
28574
28566
28565
28552
28555
28552
28564
28554
28559
28560
28570
28572
28569
28577
28585
28578
28583
28564
28573
28572
28573
28564
28554
28558
28559
28553
28551
28556
28564
28564
28567
28568
28580
28570
28579
28580
28561
28558
28564
28566
28567
28561
28553
28551
28551
28543
28551
28555
28556
28551
28557
28566
28562
28576
28576
28577
28564
28559
28564
28564
28553
28559
28551
28548
28547
28542
28551
28548
28551
28547
28552
28560
28567
28571
28568
28570
28575
28562
28569
28563
28554
28557
28544
28535
28543
28537
28542
28542
28550
28544
28551
28551
28558
28556
28558
28565
28563
28549
28554
28551
28548
28541
28536
28535
28533
28535
28540
28548
28532
28543
28546
28550
28548
28559
28559
28563
28557
28556
28556
28550
28545
28537
28529
28533
28525
28522
28527
28524
28529
28534
28540
28542
28542
28550
28548
28551
28550
28550
28549
28535
28538
28532
28532
28529
28524
28516
28523
28522
28532
28526
28529
28540
28538
28540
28548
28542
28548
28540
28537
28534
28532
28527
28519
28516
28522
28518
28526
28519
28526
28521
28531
28540
28540
28534
28543
28541
28545
28531
28532
28535
28527
28515
28523
28513
28519
28510
28519
28517
28517
28516
28524
28519
28533
28532
28534
28539
28543
28535
28532
28530
28524
28519
28514
28511
28500
28505
28503
28513
28512
28516
28522
28527
28532
28536
28533
28535
28534
28526
28523
28521
28523
28512
28505
28509
28510
28510
28507
28510
28517
28516
28519
28519
28533
28525
28529
28528
28530
28522
28526
28517
28519
28511
28510
28496
28498
28504
28509
28500
28502
28505
28514
28514
28519
28523
28526
28521
28527
28519
28522
28518
28513
28488
28500
28503
28491
28493
28495
28500
28505
28503
28508
28517
28523
28520
28518
28524
28517
28518
28517
28517
28504
28503
28500
28490
28488
28497
28492
28503
28495
28498
28511
28510
28513
28511
28516
28513
28519
28513
28506
28509
28499
28497
28486
28485
28487
28479
28485
28485
28482
28492
28501
28508
28508
28508
28510
28519
28514
28511
28500
28501
28497
28495
28489
28480
28474
28479
28481
28482
28486
28487
28494
28503
28505
28507
28503
28504
28511
28504
28500
28500
28488
28487
28479
28482
28474
28492
28484
28491
28487
28489
28487
28491
28498
28491
28489
28484
28506
28487
28496
28493
28490
28484
28478
28476
28476
28474
28470
28477
28475
28489
28489
28486
28494
28493
28493
28487
28500
28503
28494
28487
28489
28480
28478
28473
28469
28468
28468
28475
28476
28476
28487
28492
28492
28490
28486
28492
28495
28481
28487
28479
28477
28474
28470
28468
28462
28461
28462
28472
28468
28477
28477
28486
28485
28487
28486
28474
28491
28476
28485
28485
28478
28465
28462
28460
28463
28453
28459
28462
28462
28469
28472
28481
28474
28482
28476
28479
28470
28479
28477
28473
28469
28458
28461
28456
28458
28447
28444
28453
28454
28456
28468
28466
28473
28477
28479
28470
28475
28471
28471
28460
28463
28457
28452
28444
28444
28443
28444
28449
28449
28458
28462
28462
28465
28463
28473
28468
28468
28467
28465
28455
28457
28449
28454
28440
28441
28439
28441
28446
28447
28452
28455
28458
28459
28460
28462
28457
28451
28465
28461
28453
28448
28445
28440
28436
28442
28434
28439
28439
28438
28450
28444
28453
28454
28456
28454
28454
28454
28452
28452
28439
28447
28436
28437
28428
28428
28423
28423
28423
28430
28438
28451
28448
28463
28455
28462
28454
28454
28453
28447
28440
28444
28429
28424
28422
28421
28423
28423
28423
28439
28436
28447
28460
28453
28447
28443
28440
28444
28444
28438
28439
28432
28434
28431
28430
28422
28428
28436
28444
28444
28436
28451
28450
28454
28444
28450
28449
28445
28449
28458
28447
28444
28439
28436
28439
28432
28429
28438
28432
28436
28439
28452
28447
28462
28462
28460
28463
28434
28426
28455
28449
28439
28439
28431
28428
28422
28426
28426
28428
28429
28436
28438
28442
28446
28458
28459
28454
28458
28455
28450
28444
28441
28432
28432
28416
28421
28422
28415
28423
28422
28418
28417
28439
28436
28452
28448
28450
28451
28447
28444
28439
28431
28426
28412
28402
28415
28419
28407
28423
28420
28423
28427
28429
28420
28444
28446
28442
28423
28439
28434
28423
28423
28419
28410
28404
28406
28407
28407
28410
28415
28409
28423
28426
28433
28440
28434
28439
28439
28433
28432
28420
28416
28410
28412
28401
28404
28398
28401
28411
28406
28412
28410
28422
28423
28424
28422
28436
28431
28430
28423
28418
28400
28396
28404
28398
28395
28394
28396
28396
28399
28398
28410
28411
28420
28419
28429
28423
28423
28423
28417
28410
28419
28404
28393
28389
28391
28390
28391
28398
28392
28406
28402
28413
28415
28412
28418
28412
28416
28411
28415
28407
28397
28393
28385
28385
28390
28388
28384
28391
28390
28399
28404
28390
28415
28408
28422
28405
28410
28413
28412
28407
28399
28395
28384
28380
28381
28383
28381
28387
28382
28396
28398
28407
28412
28411
28405
28413
28413
28411
28407
28399
28390
28386
28383
28376
28385
28380
28382
28381
28387
28390
28391
28394
28397
28407
28399
28396
28396
28398
28393
28382
28381
28376
28373
28373
28370
28375
28375
28378
28381
28383
28383
28389
28388
28382
28393
28389
28390
28377
28386
28380
28375
28367
28368
28366
28380
28371
28368
28367
28370
28378
28375
28391
28381
28389
28391
28389
28390
28390
28383
28383
28375
28372
28361
28365
28364
28359
28368
28367
28362
28375
28376
28380
28380
28384
28388
28393
28377
28384
28375
28356
28357
28363
28360
28358
28360
28362
28357
28359
28365
28365
28377
28373
28377
28383
28385
28364
28379
28377
28379
28367
28357
28359
28356
28348
28342
28344
28340
28362
28364
28364
28360
28371
28380
28379
28379
28364
28374
28369
28374
28365
28362
28349
28353
28346
28348
28351
28352
28345
28353
28364
28365
28362
28362
28367
28368
28373
28369
28355
28362
28356
28353
28352
28348
28344
28340
28341
28340
28343
28346
28355
28362
28358
28362
28358
28372
28373
28365
28362
28357
28359
28351
28350
28342
28340
28334
28335
28347
28350
28351
28351
28362
28358
28365
28362
28364
28367
28369
28356
28359
28356
28351
28342
28340
28336
28340
28335
28327
28346
28344
28349
28356
28359
28360
28355
28364
28359
28358
28359
28356
28349
28342
28343
28341
28335
28331
28335
28345
28333
28341
28348
28346
28347
28352
28359
28358
28335
28354
28353
28351
28341
28341
28334
28329
28327
28326
28324
28338
28331
28340
28343
28343
28348
28352
28354
28355
28351
28335
28348
28343
28348
28336
28327
28325
28319
28325
28325
28329
28327
28329
28337
28335
28340
28341
28332
28354
28349
28343
28347
28319
28332
28329
28324
28327
28313
28313
28316
28312
28316
28328
28335
28343
28336
28334
28333
28351
28351
28346
28340
28335
28332
28327
28317
28319
28314
28311
28313
28317
28321
28326
28328
28333
28341
28331
28335
28334
28339
28333
28335
28327
28326
28322
28319
28312
28309
28303
28308
28308
28319
28323
28321
28324
28330
28327
28327
28335
28335
28330
28326
28325
28327
28313
28319
28311
28306
28302
28303
28317
28308
28311
28317
28327
28325
28319
28329
28327
28319
28325
28327
28319
28308
28316
28311
28303
28298
28300
28297
28305
28301
28309
28308
28311
28318
28319
28324
28327
28312
28320
28317
28316
28313
28302
28300
28295
28284
28292
28303
28298
28301
28303
28311
28308
28319
28316
28314
28316
28318
28319
28319
28309
28303
28304
28294
28292
28289
28295
28296
28295
28295
28292
28302
28298
28302
28309
28306
28316
28313
28306
28300
28302
28306
28290
28292
28284
28280
28277
28279
28295
28292
28294
28293
28300
28303
28303
28309
28306
28311
28298
28300
28298
28295
28292
28279
28276
28270
28279
28269
28276
28278
28284
28290
28289
28294
28301
28303
28295
28293
28282
28293
28295
28286
28281
28274
28278
28274
28271
28280
28270
28276
28272
28288
28287
28286
28295
28289
28293
28292
28292
28295
28285
28284
28276
28272
28265
28261
28260
28271
28270
28268
28281
28277
28289
28286
28286
28291
28292
28292
28284
28285
28284
28284
28272
28271
28267
28261
28261
28255
28260
28265
28276
28273
28281
28279
28286
28285
28293
28271
28280
28283
28276
28277
28265
28263
28261
28257
28262
28262
28265
28268
28266
28271
28271
28284
28279
28278
28281
28279
28279
28276
28261
28274
28263
28263
28255
28248
28251
28242
28262
28266
28260
28264
28270
28272
28269
28273
28277
28278
28258
28263
28266
28260
28252
28260
28244
28252
28246
28241
28247
28254
28252
28259
28267
28257
28258
28265
28271
28267
28260
28262
28263
28255
28251
28244
28232
28237
28237
28239
28242
28241
28248
28248
28258
28256
28256
28259
28255
28257
28260
28258
28249
28239
28241
28239
28234
28230
28223
28227
28228
28232
28232
28243
28244
28245
28255
28253
28252
28254
28251
28238
28230
28238
28231
28229
28230
28219
28219
28227
28234
28231
28234
28237
28239
28242
28250
28246
28245
28247
28247
28239
28238
28234
28232
28223
28231
28228
28222
28212
28215
28210
28220
28216
28222
28223
28246
28260
28260
28226
28224
28215
28216
28214
28209
28198
28200
28199
28191
28201
28199
28214
28209
28217
28212
28220
28222
28223
28248
28229
28250
28231
28239
28230
28230
28214
28218
28209
28215
28213
28217
28231
28235
28231
28231
28228
28241
28244
28244
28241
28237
28247
28229
28231
28221
28213
28215
28200
28212
28210
28205
28214
28216
28224
28231
28231
28232
28233
28239
28238
28207
28224
28234
28223
28205
28198
28206
28205
28194
28206
28205
28209
28209
28223
28218
28228
28236
28235
28232
28209
28223
28219
28212
28205
28209
28199
28196
28196
28193
28198
28199
28198
28205
28212
28206
28217
28204
28217
28220
28222
28223
28196
28206
28204
28196
28199
28190
28191
28186
28187
28190
28188
28199
28206
28204
28220
28206
28204
28208
28209
28204
28200
28204
28196
28192
28184
28183
28181
28179
28184
28179
28188
28184
28195
28196
28207
28207
28212
28209
28207
28202
28203
28195
28198
28180
28176
28167
28175
28166
28167
28167
28177
28176
28192
28196
28191
28204
28191
28195
28199
28188
28188
28189
28182
28179
28167
28167
28167
28167
28167
28167
28167
28174
28177
28180
28181
28199
28187
28196
28197
28189
28188
28182
28181
28167
28160
28164
28160
28156
28159
28159
28167
28167
28178
28182
28180
28188
28188
28173
28175
28155
28164
28166
28162
28166
28162
28145
28158
28146
28151
28157
28159
28156
28164
28178
28175
28181
28175
28161
28176
28176
28167
28167
28167
28158
28150
28150
28140
28135
28151
28150
28146
28150
28158
28164
28167
28166
28167
28167
28166
28167
28157
28151
28156
28143
28135
28135
28132
28132
28127
28138
28140
28139
28155
28154
28155
28156
28157
28152
28159
28156
28148
28148
28138
28133
28134
28129
28130
28122
28117
28120
28128
28134
28135
28143
28143
28153
28151
28149
28148
28142
28143
28137
28134
28124
28120
28118
28120
28119
28119
28122
28127
28126
28134
28128
28135
28136
28130
28137
28134
28137
28132
28126
28122
28119
28110
28108
28110
28112
28112
28110
28114
28112
28118
28123
28125
28127
28134
28131
28135
28130
28121
28118
28120
28106
28101
28102
28096
28096
28095
28103
28102
28110
28112
28113
28116
28127
28116
28118
28123
28117
28114
28110
28106
28098
28097
28092
28092
28097
28094
28105
28096
28110
28108
28105
28110
28106
28110
28113
28112
28110
28110
28099
28094
28095
28089
28087
28087
28084
28087
28089
28091
28095
28099
28101
28103
28102
28106
28103
28103
28096
28095
28089
28090
28087
28079
28070
28076
28070
28077
28073
28080
28086
28087
28092
28087
28095
28094
28097
28095
28093
28093
28086
28081
28077
28071
28069
28060
28063
28071
28071
28077
28072
28081
28088
28088
28089
28085
28090
28085
28087
28081
28079
28071
28068
28068
28066
28068
28058
28066
28074
28068
28074
28076
28074
28079
28090
28084
28084
28084
28083
28079
28076
28069
28065
28054
28053
28055
28053
28060
28051
28064
28068
28071
28068
28069
28072
28076
28074
28079
28067
28070
28065
28055
28063
28052
28050
28042
28046
28053
28058
28063
28055
28052
28066
28071
28070
28070
28064
28061
28060
28055
28048
28051
28042
28038
28038
28038
28038
28053
28044
28042
28044
28050
28055
28060
28057
28062
28057
28059
28053
28055
28047
28037
28038
28033
28030
28021
28022
28027
28029
28030
28039
28044
28053
28049
28055
28054
28058
28048
28049
28044
28038
28033
28030
28020
28015
28015
28014
28018
28022
28024
28032
28035
28036
28047
28042
28041
28039
28039
28036
28030
28030
28029
28023
28018
28016
28017
28017
28012
28018
28016
28026
28023
28038
28031
28036
28032
28038
28020
28033
28026
28021
28017
28010
28006
28007
28004
28006
28005
28011
28015
28020
28016
28018
28026
28028
28026
28025
28022
28021
28012
28013
28012
28006
28006
28004
28006
27997
27996
28004
27998
28010
28010
28015
28020
28017
28023
28020
28021
28021
28014
28012
27998
27998
27994
27985
28001
27990
27997
27999
27992
28005
28003
28000
28012
28016
28014
28014
28006
28012
28003
28002
27988
27991
27980
27988
27978
27983
27988
27984
27994
27988
27994
27998
27996
28002
28007
28006
28007
27996
27994
27986
27984
27988
27976
27982
27973
27978
27983
27975
27981
27995
27983
27993
27985
27999
27992
27994
27988
27989
27993
27989
27969
27974
27969
27960
27970
27959
27967
27971
27972
27978
27975
27985
27976
27991
27988
27996
27984
27982
27978
27972
27973
27969
27956
27953
27964
27963
27964
27960
27964
27966
27975
27980
27980
27980
27980
27967
27972
27966
27975
27962
27961
27959
27948
27940
27960
27958
27950
27957
27962
27958
27965
27966
27974
27979
27972
27975
27967
27972
27963
27960
27953
27952
27953
27940
27944
27948
27951
27951
27958
27956
27960
27959
27962
27967
27972
27967
27951
27962
27952
27956
27951
27946
27951
27939
27942
27942
27941
27943
27947
27950
27958
27955
27958
27967
27956
27948
27959
27956
27952
27948
27940
27937
27935
27932
27932
27940
27941
27928
27945
27948
27946
27954
27954
27957
27960
27952
27951
27949
27951
27934
27928
27930
27922
27920
27920
27925
27924
27917
27929
27941
27943
27940
27948
27940
27947
27935
27933
27940
27937
27924
27927
27917
27926
27918
27919
27919
27909
27918
27921
27927
27928
27933
27938
27935
27937
27940
27931
27930
27930
27925
27915
27919
27909
27907
27900
27910
27911
27911
27911
27914
27924
27928
27927
27930
27920
27915
27919
27908
27922
27917
27911
27908
27900
27909
27900
27903
27902
27910
27911
27910
27911
27919
27921
27927
27921
27910
27919
27911
27903
27887
27902
27902
27898
27884
27890
27886
27889
27887
27916
27911
27903
27908
27908
27903
27898
27902
27905
27894
27905
27892
27920
27895
27876
27874
27869
27871
27873
27879
27877
27881
27892
27918
27902
27916
27916
27914
27918
27896
27897
27898
27898
27886
27889
27882
27891
27893
27889
27908
27900
27904
27908
27911
27914
27917
27924
27925
27922
27911
27911
27895
27897
27897
27890
27893
27891
27887
27887
27887
27898
27900
27908
27911
27918
27910
27910
27908
27911
27902
27901
27899
27898
27889
27886
27876
27872
27881
27877
27887
27889
27887
27899
27898
27905
27903
27908
27902
27911
27906
27898
27895
27887
27884
27876
27876
27861
27868
27869
27877
27877
27878
27876
27887
27892
27899
27893
27895
27891
27887
27885
27875
27868
27868
27867
27860
27867
27857
27863
27863
27868
27871
27878
27878
27876
27884
27888
27895
27887
27881
27863
27872
27860
27836
27852
27848
27855
27850
27852
27857
27866
27863
27874
27876
27873
27874
27877
27863
27879
27877
27852
27863
27852
27852
27846
27849
27847
27844
27846
27851
27856
27858
27860
27860
27871
27862
27867
27873
27864
27863
27860
27854
27844
27844
27846
27841
27844
27830
27840
27842
27844
27848
27852
27865
27865
27866
27868
27862
27863
27848
27850
27849
27841
27834
27836
27828
27834
27828
27832
27838
27847
27837
27846
27845
27849
27850
27855
27855
27838
27851
27852
27846
27834
27823
27820
27828
27831
27828
27830
27829
27837
27832
27845
27848
27853
27852
27856
27855
27848
27844
27839
27830
27830
27818
27821
27817
27817
27814
27820
27828
27828
27831
27837
27823
27836
27841
27844
27841
27820
27836
27828
27818
27822
27820
27816
27813
27813
27815
27820
27820
27821
27828
27825
27835
27831
27832
27837
27828
27829
27826
27824
27816
27810
27811
27804
27803
27799
27795
27804
27805
27810
27812
27812
27826
27823
27824
27823
27825
27822
27819
27815
27812
27805
27804
27791
27785
27792
27783
27796
27807
27804
27807
27808
27812
27814
27820
27816
27815
27813
27799
27804
27806
27788
27799
27781
27783
27802
27798
27803
27786
27791
27797
27800
27808
27801
27807
27806
27808
27803
27804
27785
27795
27791
27789
27783
27789
27782
27777
27781
27780
27789
27789
27796
27793
27799
27802
27802
27803
27803
27799
27791
27789
27782
27768
27772
27767
27790
27783
27775
27769
27783
27783
27788
27791
27792
27798
27805
27797
27798
27795
27789
27780
27775
27774
27783
27775
27780
27764
27769
27770
27775
27783
27785
27789
27793
27796
27794
27792
27785
27773
27779
27778
27770
27769
27770
27762
27764
27762
27780
27772
27783
27778
27780
27782
27785
27783
27782
27791
27775
27781
27776
27769
27768
27758
27762
27769
27755
27758
27767
27770
27773
27777
27779
27783
27778
27783
27788
27779
27783
27775
27772
27773
27764
27753
27762
27761
27762
27767
27759
27759
27773
27773
27771
27770
27779
27778
27774
27774
27769
27769
27770
27767
27756
27759
27756
27755
27757
27757
27756
27758
27762
27767
27771
27767
27768
27774
27769
27772
27772
27772
27761
27761
27756
27750
27740
27745
27742
27750
27748
27750
27764
27762
27770
27766
27766
27775
27767
27771
27771
27759
27771
27763
27731
27750
27757
27758
27748
27759
27758
27759
27762
27759
27760
27767
27772
27767
27767
27769
27766
27767
27756
27751
27754
27750
27743
27738
27740
27743
27753
27744
27752
27756
27764
27764
27769
27765
27769
27766
27764
27752
27759
27753
27746
27743
27740
27743
27732
27736
27749
27746
27749
27755
27753
27759
27759
27765
27766
27759
27759
27758
27752
27749
27745
27740
27742
27732
27742
27735
27740
27744
27748
27753
27750
27756
27759
27759
27764
27757
27762
27754
27759
27746
27746
27740
27735
27729
27730
27730
27743
27732
27753
27746
27756
27756
27758
27754
27754
27759
27749
27749
27751
27748
27740
27738
27727
27727
27726
27740
27740
27743
27748
27748
27756
27756
27756
27759
27756
27754
27753
27746
27740
27745
27742
27731
27738
27740
27745
27732
27729
27738
27748
27761
27748
27753
27748
27758
27759
27751
27756
27750
27750
27740
27734
27735
27737
27726
27732
27728
27735
27738
27746
27748
27748
27750
27753
27765
27759
27756
27740
27740
27751
27737
27746
27733
27735
27722
27729
27726
27733
27743
27740
27747
27748
27754
27759
27753
27764
27750
27756
27744
27746
27749
27739
27736
27733
27734
27732
27733
27728
27742
27745
27745
27743
27750
27751
27748
27754
27748
27749
27757
27748
27743
27739
27733
27732
27729
27738
27737
27741
27743
27740
27750
27750
27757
27762
27757
27769
27756
27757
27756
27747
27745
27727
27738
27742
27728
27721
27735
27735
27745
27750
27748
27748
27761
27756
27758
27759
27754
27759
27758
27740
27740
27734
27737
27732
27738
27737
27733
27741
27748
27750
27759
27754
27767
27763
27757
27761
27762
27758
27748
27751
27742
27742
27736
27735
27735
27741
27740
27742
27750
27751
27756
27749
27751
27762
27755
27758
27761
27751
27755
27758
27745
27756
27742
27743
27737
27741
27743
27749
27746
27759
27756
27756
27757
27764
27762
27761
27759
27761
27756
27757
27750
27743
27743
27732
27740
27741
27737
27743
27743
27748
27754
27753
27757
27767
27756
27767
27759
27762
27760
27753
27753
27751
27743
27739
27740
27740
27742
27751
27748
27757
27764
27759
27772
27761
27777
27773
27776
27765
27748
27758
27750
27754
27746
27743
27738
27738
27740
27746
27748
27756
27764
27766
27770
27769
27772
27770
27764
27761
27761
27762
27753
27748
27750
27758
27749
27759
27742
27751
27758
27765
27767
27774
27768
27782
27767
27773
27765
27762
27758
27748
27761
27756
27737
27728
27727
27862
27781
27799
27783
27774
27787
27780
27799
27850
27764
27758
27762
27759
27756
27777
27794
27769
27764
27761
27765
27767
27766
27775
27773
27780
27790
27788
27792
27791
27796
27783
27782
27792
27790
27793
27784
27785
27775
27773
27767
27780
27778
27777
27783
27793
27799
27805
27810
27812
27814
27817
27816
27806
27789
27791
27791
27780
27781
27783
27777
27776
27779
27785
27782
27805
27807
27812
27814
27814
27823
27814
27815
27811
27800
27800
27790
27787
27775
27780
27775
27779
27783
27783
27785
27794
27795
27799
27808
27804
27799
27804
27813
27799
27807
27799
27795
27787
27783
27783
27775
27783
27789
27790
27790
27792
27802
27782
27791
27795
27810
27807
27808
27812
27802
27807
27794
27792
27790
27791
27780
27783
27791
27783
27797
27799
27799
27812
27815
27812
27826
27820
27812
27796
27805
27804
27799
27794
27793
27790
27785
27791
27794
27796
27790
27802
27807
27815
27812
27816
27821
27818
27806
27815
27814
27814
27799
27801
27786
27791
27793
27788
27792
27796
27802
27803
27812
27807
27817
27816
27821
27817
27815
27823
27815
27812
27810
27804
27792
27793
27797
27796
27797
27803
27798
27810
27811
27821
27828
27821
27830
27833
27830
27806
27804
27812
27812
27804
27804
27796
27804
27802
27807
27807
27815
27810
27820
27818
27823
27828
27831
27840
27814
27828
27821
27814
27814
27804
27800
27804
27804
27809
27813
27806
27815
27806
27831
27832
27841
27842
27839
27813
27834
27833
27827
27810
27820
27813
27810
27813
27812
27807
27814
27817
27826
27824
27828
27823
27839
27842
27842
27847
27846
27837
27836
27828
27827
27812
27812
27820
27812
27817
27807
27823
27819
27828
27832
27842
27832
27836
27840
27833
27831
27830
27831
27828
27821
27825
27820
27810
27812
27815
27826
27820
27821
27830
27836
27836
27842
27842
27843
27847
27845
27840
27836
27831
27831
27826
27823
27816
27828
27832
27820
27822
27831
27840
27835
27838
27840
27850
27852
27847
27847
27839
27836
27842
27825
27830
27820
27816
27821
27828
27837
27832
27842
27847
27850
27846
27850
27855
27857
27847
27844
27844
27847
27838
27845
27837
27831
27830
27828
27842
27846
27836
27842
27844
27844
27855
27854
27860
27857
27853
27850
27849
27852
27846
27847
27844
27844
27837
27848
27839
27849
27846
27847
27855
27861
27857
27865
27865
27866
27869
27857
27863
27858
27856
27844
27845
27839
27836
27847
27846
27852
27840
27855
27855
27860
27866
27866
27878
27870
27875
27868
27871
27869
27860
27849
27858
27843
27844
27862
27853
27866
27862
27862
27867
27868
27870
27876
27870
27876
27877
27876
27877
27870
27860
27856
27855
27849
27846
27852
27852
27856
27869
27872
27877
27878
27878
27870
27869
27879
27870
27871
27874
27873
27874
27865
27871
27860
27853
27859
27860
27857
27869
27870
27876
27874
27874
27877
27884
27881
27887
27879
27887
27878
27877
27871
27869
27863
27853
27859
27860
27866
27871
27877
27883
27880
27884
27883
27892
27887
27887
27895
27874
27882
27878
27878
27877
27874
27873
27875
27879
27875
27879
27884
27887
27892
27895
27886
27890
27901
27900
27890
27895
27886
27887
27884
27879
27873
27890
27880
27880
27877
27881
27892
27892
27895
27900
27897
27905
27902
27911
27902
27901
27902
27889
27889
27878
27864
27886
27887
27885
27887
27884
27887
27899
27901
27906
27907
27910
27909
27905
27908
27900
27901
27903
27893
27895
27894
27892
27895
27898
27887
27896
27895
27900
27905
27908
27910
27908
27908
27911
27907
27901
27909
27906
27892
27887
27888
27887
27884
27894
27886
27893
27910
27907
27909
27906
27917
27914
27908
27911
27919
27918
27911
27907
27904
27897
27896
27892
27895
27899
27899
27901
27907
27911
27914
27927
27925
27923
27924
27926
27911
27911
27911
27918
27908
27903
27902
27892
27899
27900
27898
27911
27911
27916
27927
27922
27931
27928
27920
27928
27925
27932
27917
27912
27911
27916
27909
27911
27909
27904
27921
27917
27923
27924
27926
27934
27931
27936
27935
27942
27932
27933
27932
27927
27919
27923
27924
27908
27918
27905
27911
27913
27932
27920
27940
27928
27936
27936
27943
27940
27934
27933
27929
27921
27924
27919
27911
27909
27911
27905
27916
27918
27922
27932
27938
27941
27940
27948
27943
27942
27943
27938
27940
27932
27924
27921
27918
27912
27922
27911
27924
27933
27934
27939
27934
27950
27947
27956
27951
27948
27943
27948
27942
27937
27928
27924
27935
27929
27926
27922
27941
27943
27932
27940
27942
27951
27954
27956
27962
27954
27951
27945
27947
27942
27936
27925
27924
27927
27924
27925
27932
27938
27937
27948
27946
27954
27949
27958
27952
27951
27955
27951
27951
27947
27940
27937
27937
27931
27927
27932
27933
27940
27948
27949
27958
27963
27965
27962
27964
27967
27967
27957
27948
27948
27940
27940
27943
27940
27949
27940
27943
27942
27953
27961
27960
27966
27962
27966
27972
27964
27964
27959
27967
27956
27948
27949
27947
27942
27942
27945
27945
27956
27960
27963
27966
27964
27973
27967
27967
27969
27965
27960
27958
27957
27955
27948
27940
27942
27935
27955
27949
27951
27948
27963
27971
27974
27975
27977
27974
27982
27965
27966
27965
27954
27954
27953
27950
27946
27949
27954
27954
27951
27965
27964
27965
27969
27980
27972
27980
27975
27974
27972
27966
27967
27957
27958
27948
27949
27951
27952
27950
27958
27957
27962
27968
27975
27979
27983
27976
27975
27983
27971
27966
27967
27961
27951
27959
27953
27951
27947
27967
27966
27966
27972
27974
27975
27983
27967
27981
27979
27972
27965
27969
27965
27962
27965
27959
27964
27963
27959
27967
27966
27972
27972
27976
27972
27977
27990
27978
27991
27975
27976
27980
27972
27968
27950
27951
27968
27964
27967
27968
27969
27978
27980
27978
27980
27982
27983
27988
27984
27978
27977
27975
27986
27965
27956
27951
27951
27952
27957
27950
27964
27971
28000
27999
27996
27994
27991
27996
27998
27997
27995
27991
27992
27994
27984
27995
27986
27988
27986
27991
27996
28004
28004
28006
28009
28012
28016
28020
28020
28013
28007
28004
27999
27997
27988
27980
27980
27984
27989
27989
27999
28007
28005
27996
27991
27985
27994
28016
27980
27986
27985
27983
28001
27994
27984
27984
27977
27980
27978
27982
27996
27996
27996
27993
27990
27994
28021
28014
28021
28013
28008
28004
28007
27989
27994
27983
27983
27982
27990
27987
27991
27992
28004
28010
28007
28008
28013
28013
28012
28010
27999
27991
28005
27994
27990
27983
27977
27974
27988
27989
27993
27996
28003
28001
28015
28014
28017
28019
28015
28005
28004
28001
27995
27985
27984
27986
27980
27988
27984
27994
27988
28007
28007
28015
28015
28018
28019
28026
28017
28018
27996
27995
27997
27992
27989
27981
27990
27983
27983
27989
27994
27998
27999
28009
28009
28010
28012
28014
28014
28014
28015
28007
27983
27984
27991
27988
27989
27983
27987
27996
27988
28003
28009
28009
28012
28005
28018
28010
28009
28007
28004
28000
27987
27989
27985
27985
27988
27995
27995
27992
27994
28001
28009
28007
28014
28015
28013
28012
28015
28009
28006
28002
28005
27996
27988
27988
27980
27991
27996
27991
28004
28002
28012
28015
28018
28020
28031
28023
28023
28013
28015
28006
27998
27993
27992
27988
27999
27989
27991
27996
28001
28006
28010
28006
28015
28015
28007
28026
28019
28017
28014
28009
28009
27988
27986
27990
27988
27989
27991
27992
28001
27998
28005
28015
28009
28015
28014
28020
28004
28012
28009
28012
28002
27997
27978
27986
27982
27985
27988
27988
27994
28001
28006
28011
27996
28012
28010
28012
28007
28005
28003
27996
27997
27998
27995
27991
27988
27990
27991
27998
27999
28004
28001
28010
28005
28004
27991
27997
28007
28007
28004
27996
27999
27994
27982
27980
27998
28005
27991
27986
27994
27998
28004
28000
28008
28008
28012
28006
28007
27999
27997
27996
27998
27996
27993
27988
27988
27992
27996
27994
27996
28000
28007
28006
28013
28010
28007
28012
28008
28007
28001
28001
27998
27992
27991
27988
27984
27992
27999
27996
28007
28004
28004
28007
28005
28010
28012
28007
28007
28004
27998
27999
27996
27995
27991
27988
27984
27983
27985
27992
27998
28004
28006
28015
28005
28009
28008
28013
28008
28009
28005
28012
27990
27997
27983
27985
27978
27988
27993
27995
27997
28010
28014
28004
28015
28010
28013
28012
28006
28015
28001
28002
27992
27991
27993
27996
27996
27986
27991
27994
27997
28002
28004
28007
28008
28013
28015
28010
28015
28007
28006
28004
27999
27997
27990
27988
27999
27992
27983
27993
27997
28004
28007
28006
28010
28012
28008
28010
28004
28004
28000
28001
27995
27996
27990
27991
27982
27990
27983
27999
28001
28001
28000
28000
28006
28016
28016
28006
28007
28007
28003
27999
27995
27996
27991
27991
27985
27978
27995
27994
27997
28001
28002
28006
28007
28007
28012
28011
27997
28008
28006
27999
27997
27981
27981
27982
27985
27988
27991
27991
27994
27998
27999
28012
28007
28007
28012
28015
28012
28007
28001
27998
27995
27986
27981
27986
27992
27985
27988
27990
27997
27998
28006
28002
28009
28004
28015
28011
28012
28006
28002
27999
27993
27988
27984
27990
27982
27981
27986
27988
27992
27999
28000
28002
28011
27996
27999
28007
28006
28004
28000
27993
27990
27990
27980
27981
27991
27979
27985
27994
27991
28002
28005
28004
28002
28005
28004
28007
28004
28005
27995
27999
27991
27991
27981
27983
27981
27983
27988
27991
27994
27997
28001
28005
28004
28004
28005
28006
27998
27998
27995
27991
27989
27984
27976
27979
27981
27982
27989
27980
27984
27991
28003
27998
28003
28007
28007
28012
28006
28000
27997
27985
27989
27981
27977
27973
27960
27972
27983
27975
27994
27988
27996
27996
27999
28007
28000
28006
27999
27995
27992
27982
27988
27980
27975
27980
27978
27983
27988
27984
27991
27991
27998
27994
28003
27998
28000
27994
27991
27997
27988
27990
27983
27975
27983
27970
27974
27964
27975
27977
27986
27996
27995
27995
27994
27998
27993
28001
27999
27999
27984
27995
27976
27978
27972
27972
27973
27972
27976
27975
27982
27989
27996
27999
27994
27995
28001
27992
27996
27995
27994
27982
27981
27975
27972
27972
27973
27970
27975
27983
27991
27985
27984
27994
27994
28000
27996
27998
27993
27987
27989
27983
27977
27973
27980
27975
27971
27968
27968
27968
27986
27980
27992
27992
27988
27994
27988
27991
27986
27989
27990
27986
27983
27975
27975
27970
27962
27967
27970
27972
27972
27990
27988
27998
27996
27998
27996
27999
27993
27987
27987
27981
27978
27972
27965
27967
27967
27962
27975
27969
27977
27988
27988
27988
27986
27988
27991
27988
27991
27985
27983
27981
27976
27966
27974
27970
27970
27967
27968
27973
27981
27987
27989
27987
27988
27996
27999
27988
27988
27988
27988
27973
27977
27968
27972
27968
27961
27968
27975
27976
27977
27978
27980
27988
27993
27999
27991
27991
27983
27987
27979
27973
27968
27964
27967
27958
27959
27957
27962
27960
27977
27974
27980
27983
27984
27991
27985
27986
27985
27982
27978
27979
27966
27966
27966
27964
27956
27962
27969
27970
27965
27974
27975
27980
27982
27991
27982
27994
27983
27982
27950
27956
27965
27958
27956
27950
27959
27957
27957
27962
27967
27974
27979
27977
27976
27974
27983
27975
27980
27975
27975
27967
27964
27964
27958
27956
27962
27956
27956
27957
27964
27972
27979
27978
27975
27972
27977
27974
27973
27975
27981
27972
27969
27969
27966
27961
27949
27942
27947
27953
27959
27956
27965
27964
27967
28005
27987
27972
27982
27975
27973
27966
27956
27956
27956
27976
27956
27951
27959
27951
27956
27958
28004
27998
27980
27977
27980
27983
27978
27982
27975
27970
27972
27970
27961
27962
27947
27974
27965
27967
27975
27973
27982
27980
27966
27999
27991
27993
27991
27975
27983
27975
27969
27967
27959
27956
27965
27966
27961
27971
27974
27972
27980
27978
27985
27991
27981
27964
27975
27985
27981
27972
27949
27958
27963
27947
27958
27952
27961
27956
27962
27966
27975
27976
27985
27983
27986
27987
27965
27973
27969
27967
27944
27953
27944
27949
27943
27949
27956
27956
27959
27957
27969
27968
27968
27969
27975
27974
27975
27969
27958
27964
27948
27946
27941
27944
27941
27948
27946
27956
27957
27964
27966
27974
27975
27969
27972
27966
27962
27962
27958
27959
27948
27944
27947
27940
27940
27941
27945
27951
27951
27957
27959
27965
27974
27964
27966
27962
27965
27962
27961
27953
27952
27940
27943
27941
27933
27941
27940
27945
27947
27942
27951
27951
27951
27948
27940
27951
27950
27950
27952
27947
27943
27932
27941
27932
27935
27930
27935
27942
27946
27950
27956
27958
27956
27953
27964
27953
27949
27949
27949
27940
27936
27939
27935
27940
27935
27942
27933
27941
27940
27948
27951
27959
27954
27954
27962
27962
27959
27956
27945
27943
27939
27932
27924
27935
27927
27925
27940
27937
27938
27941
27945
27938
27960
27963
27966
27950
27952
27951
27943
27936
27932
27928
27924
27924
27933
27932
27933
27931
27936
27941
27946
27946
27935
27951
27940
27944
27941
27934
27940
27925
27933
27930
27911
27911
27911
27919
27927
27927
27929
27934
27941
27938
27943
27940
27940
27918
27938
27942
27933
27928
27921
27917
27919
27911
27906
27932
27918
27927
27926
27939
27934
27936
27936
27949
27940
27942
27930
27935
27927
27917
27919
27910
27908
27909
27924
27909
27919
27920
27927
27926
27940
27934
27932
27942
27938
27934
27932
27934
27926
27920
27916
27911
27911
27903
27911
27909
27916
27921
27921
27926
27930
27928
27926
27935
27935
27936
27933
27928
27918
27918
27912
27908
27900
27903
27903
27903
27905
27915
27916
27926
27925
27927
27925
27938
27930
27927
27932
27924
27920
27909
27907
27904
27905
27910
27907
27908
27910
27910
27916
27925
27919
27929
27927
27927
27925
27916
27922
27916
27911
27906
27911
27902
27896
27902
27892
27907
27907
27906
27911
27911
27923
27920
27924
27923
27924
27925
27918
27908
27911
27903
27895
27895
27893
27892
27900
27903
27903
27904
27910
27914
27919
27917
27919
27907
27924
27908
27911
27907
27903
27911
27898
27894
27898
27898
27894
27895
27895
27903
27905
27910
27911
27919
27919
27918
27908
27911
27913
27911
27901
27897
27890
27895
27879
27882
27885
27886
27886
27900
27903
27908
27907
27905
27909
27906
27908
27891
27907
27911
27896
27892
27886
27878
27889
27890
27884
27887
27883
27893
27897
27903
27900
27905
27909
27911
27911
27903
27902
27895
27900
27892
27886
27879
27882
27890
27881
27886
27887
27887
27894
27892
27901
27905
27902
27910
27905
27908
27892
27900
27895
27887
27886
27880
27876
27879
27891
27883
27884
27876
27895
27892
27896
27903
27904
27900
27905
27901
27898
27891
27889
27879
27873
27878
27871
27871
27870
27870
27879
27894
27891
27888
27889
27895
27893
27886
27894
27899
27893
27887
27882
27879
27874
27871
27875
27875
27878
27872
27868
27879
27886
27885
27884
27888
27890
27887
27887
27887
27886
27879
27881
27876
27870
27868
27863
27860
27866
27874
27872
27877
27883
27884
27890
27877
27892
27886
27889
27887
27879
27880
27876
27872
27878
27863
27864
27863
27856
27871
27866
27876
27876
27876
27880
27882
27876
27876
27879
27883
27878
27882
27874
27865
27861
27855
27856
27857
27852
27871
27857
27860
27866
27873
27886
27879
27879
27876
27882
27876
27872
27874
27868
27862
27859
27855
27854
27858
27855
27863
27833
27850
27865
27860
27872
27873
27881
27879
27875
27871
27876
27863
27863
27860
27853
27852
27852
27844
27857
27853
27855
27852
27869
27867
27868
27876
27879
27873
27879
27873
27866
27861
27857
27850
27853
27849
27840
27841
27844
27844
27847
27852
27864
27868
27865
27866
27869
27877
27868
27866
27862
27861
27853
27846
27855
27839
27838
27839
27842
27842
27843
27848
27854
27856
27864
27863
27866
27872
27862
27864
27861
27849
27851
27850
27846
27847
27837
27836
27838
27852
27847
27841
27855
27860
27863
27860
27857
27863
27859
27861
27860
27850
27847
27846
27838
27838
27835
27829
27836
27839
27852
27844
27851
27851
27858
27855
27858
27847
27852
27855
27854
27844
27844
27841
27836
27839
27839
27833
27826
27833
27833
27842
27850
27844
27852
27852
27862
27857
27863
27854
27850
27846
27844
27839
27834
27829
27831
27839
27829
27837
27831
27837
27844
27840
27844
27852
27852
27854
27854
27844
27851
27836
27836
27831
27824
27825
27827
27825
27825
27825
27831
27833
27836
27843
27841
27845
27846
27851
27847
27844
27844
27844
27830
27827
27823
27816
27815
27830
27821
27823
27826
27830
27829
27834
27837
27837
27843
27839
27830
27836
27835
27833
27829
27818
27816
27806
27811
27811
27810
27831
27820
27823
27822
27835
27826
27838
27837
27839
27828
27832
27832
27826
27821
27822
27813
27819
27811
27813
27823
27813
27820
27818
27821
27820
27836
27835
27833
27847
27837
27829
27832
27823
27820
27813
27813
27804
27810
27809
27813
27814
27809
27815
27822
27831
27829
27827
27827
27828
27818
27820
27812
27816
27832
27797
27788
27786
27788
27782
27784
27791
27826
27834
27828
27828
27836
27832
27829
27832
27828
27825
27822
27821
27814
27807
27825
27804
27797
27798
27798
27799
27800
27814
27828
27823
27837
27825
27833
27825
27828
27828
27820
27828
27823
27816
27812
27809
27807
27806
27807
27807
27812
27819
27812
27823
27828
27820
27831
27830
27827
27824
27823
27820
27812
27809
27807
27803
27800
27799
27801
27805
27810
27808
27808
27807
27800
27813
27823
27830
27836
27823
27827
27816
27814
27808
27795
27790
27788
27799
27790
27805
27799
27811
27812
27809
27814
27815
27823
27822
27814
27791
27793
27809
27803
27802
27791
27794
27782
27783
27787
27787
27790
27792
27794
27798
27807
27812
27812
27818
27810
27811
27807
27807
27790
27796
27783
27782
27766
27776
27772
27780
27783
27794
27796
27798
27808
27809
27805
27809
27811
27799
27796
27790
27788
27782
27783
27775
27775
27775
27779
27775
27782
27785
27786
27793
27783
27809
27805
27807
27807
27804
27790
27796
27786
27772
27774
27764
27761
27764
27771
27775
27775
27780
27775
27782
27795
27795
27794
27798
27799
27792
27790
27785
27767
27772
27770
27767
27765
27759
27773
27772
27772
27778
27783
27790
27788
27793
27794
27796
27788
27790
27780
27769
27772
27770
27767
27755
27761
27759
27756
27768
27765
27769
27778
27786
27790
27794
27790
27803
27789
27789
27783
27780
27779
27765
27764
27756
27748
27756
27760
27759
27764
27772
27776
27780
27780
27780
27783
27769
27775
27783
27770
27757
27753
27756
27755
27756
27751
27751
27756
27754
27761
27760
27768
27781
27768
27787
27772
27773
27773
27769
27767
27770
27765
27758
27749
27753
27743
27743
27748
27749
27751
27751
27764
27764
27775
27772
27775
27775
27774
27764
27767
27753
27754
27743
27743
27735
27743
27735
27741
27742
27742
27748
27750
27758
27753
27763
27759
27757
27754
27759
27756
27754
27751
27745
27738
27735
27731
27732
27732
27740
27738
27741
27754
27748
27759
27757
27751
27763
27758
27756
27750
27748
27741
27738
27732
27731
27728
27735
27743
27745
27738
27736
27743
27748
27754
27755
27759
27756
27751
27749
27751
27743
27734
27730
27724
27726
27730
27727
27727
27726
27732
27743
27743
27743
27733
27740
27751
27749
27748
27750
27747
27734
27734
27730
27728
27716
27723
27727
27733
27735
27726
27734
27738
27743
27740
27740
27740
27748
27743
27738
27735
27742
27730
27729
27721
27726
27732
27726
27731
27721
27721
27732
27736
27741
27740
27740
27742
27741
27738
27739
27736
27732
27718
27719
27711
27727
27711
27711
27717
27713
27716
27724
27727
27732
27732
27735
27734
27742
27732
27733
27729
27722
27729
27717
27721
27720
27709
27700
27710
27712
27716
27722
27719
27725
27736
27732
27739
27735
27735
27727
27722
27729
27712
27714
27711
27708
27719
27709
27710
27708
27709
27711
27721
27724
27726
27722
27725
27722
27724
27727
27719
27718
27711
27716
27705
27706
27706
27702
27707
27700
27713
27711
27720
27720
27716
27718
27726
27716
27718
27719
27719
27711
27713
27708
27707
27702
27705
27692
27713
27708
27706
27702
27726
27717
27716
27719
27716
27724
27719
27710
27705
27710
27700
27697
27700
27690
27690
27691
27690
27701
27698
27703
27706
27712
27711
27718
27717
27709
27712
27705
27709
27700
27698
27697
27694
27691
27687
27697
27695
27695
27700
27697
27704
27705
27710
27709
27710
27703
27706
27700
27696
27700
27690
27684
27685
27684
27677
27675
27685
27687
27687
27696
27690
27701
27710
27701
27703
27701
27703
27703
27694
27696
27687
27686
27677
27674
27675
27676
27673
27684
27681
27690
27697
27689
27699
27694
27703
27700
27700
27693
27690
27684
27682
27678
27675
27668
27670
27668
27670
27668
27685
27684
27689
27685
27687
27692
27691
27693
27685
27688
27685
27675
27678
27678
27662
27669
27663
27661
27668
27662
27670
27677
27687
27679
27676
27677
27686
27692
27686
27686
27678
27672
27671
27664
27659
27668
27662
27672
27661
27666
27669
27669
27677
27687
27687
27681
27685
27679
27678
27679
27671
27668
27667
27655
27656
27655
27655
27655
27655
27662
27665
27669
27672
27668
27676
27670
27674
27676
27672
27664
27671
27663
27652
27651
27664
27649
27648
27650
27652
27655
27655
27663
27662
27665
27668
27667
27663
27671
27671
27665
27658
27655
27652
27647
27646
27646
27645
27654
27644
27655
27649
27655
27660
27652
27669
27668
27668
27668
27668
27662
27661
27655
27650
27644
27652
27642
27642
27638
27641
27647
27648
27655
27655
27655
27661
27655
27655
27671
27663
27663
27653
27655
27643
27646
27634
27632
27636
27633
27631
27637
27636
27644
27654
27655
27655
27661
27665
27655
27655
27655
27648
27647
27649
27633
27639
27628
27631
27630
27634
27633
27639
27651
27650
27649
27652
27647
27655
27655
27654
27649
27642
27646
27644
27636
27636
27630
27627
27639
27645
27635
27630
27642
27648
27647
27646
27644
27654
27651
27647
27639
27639
27644
27631
27623
27624
27627
27620
27618
27625
27623
27632
27626
27638
27642
27631
27639
27644
27642
27636
27641
27638
27624
27625
27623
27622
27612
27617
27616
27618
27620
27621
27624
27636
27634
27637
27636
27636
27631
27625
27631
27625
27622
27623
27616
27612
27608
27613
27606
27617
27612
27620
27621
27621
27629
27626
27634
27636
27639
27629
27631
27621
27622
27609
27615
27598
27601
27606
27602
27606
27609
27608
27618
27616
27623
27624
27620
27625
27625
27631
27623
27617
27614
27615
27612
27611
27604
27603
27602
27605
27609
27615
27615
27617
27615
27623
27626
27625
27623
27615
27613
27607
27614
27610
27588
27580
27572
27570
27576
27663
27620
27625
27618
27613
27607
27614
27608
27614
27616
27615
27612
27607
27608
27610
27600
27613
27601
27604
27607
27607
27606
27610
27621
27621
27620
27621
27623
27623
27627
27623
27625
27620
27619
27612
27607
27604
27604
27606
27611
27604
27603
27615
27614
27623
27623
27626
27631
27635
27620
27623
27620
27614
27612
27611
27603
27598
27593
27594
27603
27591
27604
27604
27612
27618
27621
27607
27626
27621
27622
27616
27605
27612
27596
27591
27596
27590
27586
27592
27591
27595
27594
27598
27601
27604
27600
27614
27620
27618
27614
27613
27608
27588
27605
27580
27592
27583
27581
27577
27583
27580
27580
27583
27591
27600
27604
27604
27602
27611
27604
27589
27597
27594
27590
27587
27582
27578
27573
27577
27575
27574
27576
27585
27586
27589
27593
27590
27592
27601
27597
27588
27589
27589
27581
27582
27574
27568
27567
27567
27567
27575
27567
27580
27583
27583
27582
27589
27588
27591
27588
27588
27588
27586
27587
27572
27569
27569
27562
27566
27565
27560
27569
27574
27578
27580
27580
27580
27588
27585
27581
27586
27583
27585
27574
27569
27572
27559
27557
27562
27564
27564
27566
27567
27575
27578
27580
27585
27585
27589
27587
27567
27589
27575
27570
27567
27560
27555
27563
27552
27556
27557
27558
27565
27572
27575
27583
27580
27584
27582
27589
27579
27585
27579
27573
27542
27559
27551
27548
27558
27550
27556
27557
27556
27565
27564
27560
27567
27573
27580
27576
27572
27575
27564
27560
27556
27557
27549
27550
27550
27542
27543
27552
27556
27558
27561
27568
27571
27567
27577
27571
27567
27548
27559
27557
27548
27554
27542
27546
27543
27543
27554
27549
27553
27546
27559
27552
27553
27556
27556
27553
27554
27554
27559
27544
27548
27535
27534
27527
27549
27545
27541
27542
27548
27549
27548
27548
27548
27558
27553
27556
27556
27551
27543
27536
27524
27529
27522
27525
27527
27524
27530
27527
27531
27541
27538
27549
27548
27552
27543
27543
27546
27543
27535
27540
27535
27529
27527
27527
27527
27525
27526
27526
27532
27546
27543
27545
27547
27541
27543
27537
27535
27537
27535
27535
27527
27525
27522
27518
27527
27512
27524
27525
27530
27535
27532
27539
27537
27535
27538
27534
27534
27535
27527
27524
27527
27516
27515
27510
27511
27511
27511
27514
27520
27522
27525
27526
27533
27532
27535
27539
27530
27535
27524
27523
27523
27519
27514
27513
27515
27514
27519
27516
27524
27525
27524
27527
27527
27521
27524
27534
27528
27527
27519
27522
27512
27509
27508
27508
27503
27502
27508
27508
27527
27519
27519
27527
27531
27527
27526
27527
27514
27526
27515
27521
27509
27511
27511
27506
27506
27503
27515
27519
27518
27521
27526
27519
27521
27520
27527
27524
27522
27514
27511
27511
27506
27505
27506
27496
27503
27504
27501
27511
27514
27511
27516
27519
27518
27525
27518
27511
27514
27516
27506
27511
27503
27495
27495
27489
27487
27505
27496
27511
27508
27504
27513
27510
27516
27516
27516
27514
27503
27506
27502
27501
27497
27494
27492
27495
27490
27490
27492
27494
27494
27501
27496
27504
27508
27512
27509
27508
27507
27496
27496
27501
27495
27480
27486
27479
27497
27481
27490
27492
27494
27502
27506
27497
27513
27500
27499
27507
27503
27496
27500
27495
27494
27490
27486
27487
27487
27487
27480
27486
27489
27500
27493
27507
27500
27509
27496
27501
27500
27500
27488
27492
27492
27479
27482
27487
27489
27480
27491
27482
27495
27485
27491
27493
27497
27492
27495
27492
27481
27491
27493
27483
27487
27483
27476
27471
27471
27467
27473
27481
27490
27480
27493
27488
27494
27488
27492
27483
27491
27484
27480
27482
27476
27470
27471
27473
27478
27477
27476
27480
27475
27485
27481
27491
27492
27495
27491
27492
27479
27482
27484
27483
27473
27477
27475
27477
27457
27464
27456
27471
27471
27483
27473
27484
27486
27484
27476
27493
27479
27478
27471
27477
27470
27471
27463
27454
27457
27456
27469
27464
27471
27471
27479
27476
27476
27479
27482
27483
27475
27474
27471
27468
27462
27455
27460
27455
27456
27458
27457
27466
27461
27468
27470
27474
27467
27478
27478
27477
27471
27474
27466
27462
27448
27456
27457
27454
27462
27466
27452
27454
27464
27474
27468
27470
27471
27476
27474
27479
27471
27476
27465
27458
27457
27458
27450
27448
27444
27452
27455
27462
27460
27460
27460
27469
27471
27470
27468
27467
27467
27467
27460
27459
27453
27449
27450
27449
27443
27455
27446
27455
27461
27459
27468
27463
27471
27467
27476
27471
27463
27457
27455
27457
27445
27444
27450
27441
27439
27452
27444
27444
27452
27452
27460
27469
27457
27460
27463
27458
27458
27457
27446
27448
27442
27446
27431
27429
27431
27437
27433
27434
27444
27456
27453
27456
27458
27456
27454
27454
27456
27446
27448
27442
27438
27434
27436
27430
27438
27439
27439
27441
27444
27451
27453
27453
27454
27458
27464
27455
27457
27434
27444
27436
27433
27436
27426
27426
27426
27429
27428
27439
27442
27445
27446
27447
27444
27459
27444
27446
27445
27435
27430
27436
27431
27421
27417
27415
27412
27421
27418
27432
27429
27436
27439
27439
27443
27438
27431
27439
27436
27434
27431
27422
27417
27413
27410
27401
27431
27422
27430
27430
27426
27432
27439
27438
27444
27440
27439
27437
27436
27428
27430
27418
27423
27415
27404
27406
27415
27406
27415
27412
27429
27430
27429
27438
27436
27431
27436
27431
27431
27430
27431
27423
27415
27412
27399
27407
27410
27405
27415
27410
27420
27426
27431
27437
27434
27431
27428
27423
27421
27423
27420
27421
27412
27421
27420
27444
27428
27434
27435
27440
27431
27444
27408
27414
27413
27419
27415
27408
27407
27412
27405
27402
27404
27395
27395
27454
27436
27431
27447
27407
27413
27421
27431
27429
27440
27445
27444
27414
27413
27431
27413
27420
27418
27401
27415
27411
27416
27415
27415
27422
27428
27431
27431
27436
27431
27432
27438
27436
27435
27431
27426
27413
27415
27411
27405
27407
27407
27402
27415
27419
27420
27430
27414
27425
27437
27434
27436
27435
27431
27434
27420
27418
27413
27399
27397
27399
27398
27399
27406
27410
27413
27418
27423
27424
27428
27424
27427
27425
27426
27418
27415
27410
27409
27396
27391
27397
27392
27399
27397
27405
27413
27412
27409
27417
27422
27419
27418
27421
27414
27414
27412
27404
27399
27393
27389
27396
27387
27396
27395
27396
27407
27415
27413
27397
27415
27415
27416
27407
27415
27404
27400
27398
27383
27383
27376
27382
27382
27386
27389
27395
27396
27401
27407
27406
27409
27413
27412
27403
27407
27399
27393
27388
27386
27386
27386
27378
27375
27383
27389
27388
27399
27403
27403
27408
27402
27410
27407
27398
27388
27397
27396
27395
27380
27380
27381
27372
27373
27375
27382
27387
27396
27396
27404
27407
27412
27410
27412
27407
27404
27398
27391
27384
27385
27375
27374
27367
27375
27374
27377
27385
27391
27399
27399
27381
27407
27402
27399
27398
27393
27391
27393
27381
27376
27373
27368
27374
27369
27364
27375
27382
27382
27389
27394
27398
27398
27399
27392
27391
27388
27386
27382
27383
27372
27371
27367
27364
27364
27365
27368
27377
27377
27386
27388
27393
27398
27399
27395
27381
27388
27381
27379
27373
27366
27359
27360
27369
27367
27367
27367
27367
27375
27378
27380
27372
27375
27382
27383
27382
27375
27370
27370
27367
27362
27353
27354
27357
27356
27367
27364
27360
27364
27366
27371
27372
27377
27377
27383
27374
27373
27366
27359
27362
27356
27336
27365
27359
27356
27364
27359
27364
27363
27370
27372
27373
27372
27375
27374
27370
27367
27362
27345
27365
27359
27352
27355
27346
27354
27356
27356
27359
27363
27372
27369
27364
27360
27374
27367
27365
27364
27364
27356
27354
27350
27341
27347
27347
27357
27359
27356
27352
27361
27357
27367
27366
27364
27374
27355
27351
27360
27358
27351
27351
27349
27344
27345
27343
27343
27343
27337
27356
27361
27349
27356
27359
27346
27361
27364
27361
27361
27356
27349
27348
27338
27343
27335
27338
27337
27343
27345
27351
27359
27351
27356
27356
27361
27359
27347
27357
27351
27345
27354
27341
27338
27332
27335
27339
27341
27333
27333
27337
27345
27346
27354
27357
27358
27350
27359
27348
27350
27349
27344
27347
27340
27334
27332
27341
27340
27333
27329
27337
27347
27348
27348
27350
27363
27359
27351
27351
27332
27343
27341
27334
27334
27332
27320
27319
27319
27330
27335
27341
27343
27348
27341
27353
27357
27351
27348
27353
27340
27344
27337
27332
27329
27334
27335
27328
27321
27326
27326
27332
27343
27348
27339
27351
27348
27348
27348
27343
27342
27342
27330
27330
27319
27324
27317
27325
27319
27327
27335
27335
27336
27336
27337
27342
27350
27339
27347
27337
27343
27332
27335
27327
27301
27327
27324
27333
27328
27324
27325
27332
27335
27337
27342
27343
27340
27343
27341
27340
27343
27334
27325
27318
27318
27313
27322
27316
27313
27319
27324
27329
27329
27329
27332
27343
27343
27341
27338
27339
27338
27328
27331
27324
27319
27311
27316
27308
27315
27311
27333
27327
27328
27326
27334
27333
27335
27336
27334
27335
27333
27332
27321
27318
27317
27309
27313
27301
27313
27309
27313
27324
27328
27334
27332
27327
27338
27333
27336
27330
27333
27319
27327
27313
27306
27307
27313
27304
27312
27319
27313
27320
27325
27332
27338
27332
27335
27332
27331
27330
27324
27318
27318
27316
27319
27314
27309
27307
27315
27311
27316
27307
27321
27319
27326
27325
27328
27333
27326
27329
27322
27324
27316
27308
27306
27319
27302
27306
27306
27313
27308
27320
27316
27326
27325
27327
27331
27333
27332
27329
27325
27316
27312
27310
27305
27292
27302
27301
27300
27306
27309
27312
27320
27322
27322
27322
27317
27319
27326
27324
27319
27314
27311
27303
27300
27294
27306
27301
27303
27306
27303
27317
27315
27322
27319
27323
27322
27327
27321
27318
27311
27317
27306
27303
27306
27291
27310
27290
27293
27298
27302
27308
27308
27319
27321
27318
27319
27326
27316
27318
27315
27308
27311
27303
27296
27300
27299
27301
27295
27306
27303
27311
27310
27312
27318
27325
27321
27316
27311
27313
27311
27309
27302
27300
27296
27297
27310
27295
27293
27293
27300
27304
27311
27310
27316
27315
27321
27311
27319
27308
27311
27313
27299
27300
27293
27288
27295
27295
27294
27298
27300
27302
27308
27310
27313
27305
27316
27309
27316
27299
27311
27304
27300
27303
27296
27287
27300
27295
27295
27287
27297
27300
27302
27305
27311
27315
27319
27316
27306
27307
27304
27301
27300
27288
27285
27278
27278
27283
27284
27294
27291
27297
27306
27303
27303
27315
27309
27311
27308
27306
27295
27295
27299
27285
27288
27279
27279
27279
27281
27289
27293
27292
27297
27300
27297
27308
27311
27305
27304
27300
27298
27297
27288
27287
27274
27276
27268
27274
27272
27277
27278
27288
27295
27299
27298
27303
27296
27303
27303
27293
27299
27294
27288
27286
27287
27271
27285
27274
27279
27283
27282
27289
27292
27293
27295
27292
27307
27303
27304
27300
27295
27280
27287
27280
27272
27276
27272
27274
27279
27277
27292
27287
27293
27299
27301
27297
27297
27300
27293
27288
27278
27280
27268
27272
27252
27252
27251
27253
27254
27314
27313
27305
27308
27316
27305
27302
27306
27304
27295
27301
27292
27290
27289
27287
27284
27287
27280
27279
27279
27282
27280
27304
27295
27308
27304
27301
27312
27300
27311
27302
27303
27294
27300
27287
27290
27290
27284
27282
27287
27292
27284
27303
27303
27314
27316
27317
27315
27307
27311
27305
27302
27287
27297
27291
27282
27279
27279
27277
27284
27284
27285
27292
27290
27302
27305
27305
27307
27295
27306
27303
27304
27295
27281
27280
27279
27271
27272
27276
27283
27279
27290
27290
27291
27300
27297
27301
27280
27271
27295
27297
27294
27292
27287
27283
27273
27274
27271
27271
27270
27275
27271
27283
27282
27287
27300
27300
27297
27290
27291
27292
27286
27284
27278
27270
27271
27267
27263
27271
27269
27276
27270
27279
27287
27284
27287
27292
27287
27283
27287
27284
27282
27274
27271
27263
27270
27263
27263
27265
27263
27266
27263
27271
27279
27285
27287
27282
27289
27288
27293
27292
27284
27273
27269
27261
27259
27261
27263
27265
27269
27268
27268
27276
27285
27293
27275
27276
27282
27287
27285
27286
27285
27273
27274
27271
27261
27266
27258
27269
27267
27269
27271
27272
27284
27278
27284
27287
27292
27285
27287
27276
27284
27276
27268
27261
27256
27255
27255
27261
27260
27263
27267
27274
27276
27287
27292
27287
27299
27290
27287
27276
27281
27273
27265
27261
27260
27260
27253
27258
27263
27260
27263
27271
27277
27278
27276
27278
27278
27279
27274
27274
27270
27275
27264
27258
27260
27255
27250
27250
27260
27255
27261
27263
27269
27273
27275
27277
27279
27264
27259
27271
27268
27270
27260
27254
27247
27248
27248
27252
27252
27254
27265
27262
27271
27271
27269
27271
27274
27271
27261
27267
27268
27268
27255
27247
27236
27242
27260
27252
27246
27250
27255
27260
27264
27260
27257
27266
27267
27271
27263
27258
27258
27260
27253
27255
27245
27242
27244
27244
27255
27249
27252
27247
27251
27249
27260
27263
27261
27255
27260
27250
27248
27252
27247
27247
27244
27238
27242
27246
27246
27241
27242
27245
27253
27247
27253
27257
27255
27262
27252
27253
27247
27247
27244
27238
27243
27241
27237
27236
27233
27234
27237
27236
27247
27251
27252
27255
27247
27255
27257
27249
27247
27241
27241
27239
27238
27231
27231
27236
27236
27244
27244
27249
27247
27251
27250
27261
27255
27250
27251
27250
27240
27250
27234
27236
27236
27231
27231
27230
27237
27242
27236
27238
27244
27246
27244
27252
27242
27252
27247
27246
27236
27241
27238
27228
27220
27223
27223
27226
27228
27225
27228
27234
27237
27244
27246
27242
27252
27247
27245
27241
27239
27237
27236
27238
27234
27231
27229
27229
27236
27233
27233
27239
27241
27239
27244
27244
27250
27245
27244
27244
27239
27237
27235
27226
27231
27226
27228
27223
27233
27229
27234
27230
27237
27238
27244
27245
27242
27243
27246
27238
27237
27238
27231
27228
27222
27226
27225
27226
27230
27231
27230
27231
27236
27241
27236
27236
27236
27244
27238
27239
27234
27229
27226
27230
27218
27221
27225
27219
27221
27220
27222
27239
27234
27232
27239
27236
27239
27238
27236
27236
27234
27228
27224
27223
27215
27215
27211
27213
27221
27222
27228
27234
27231
27238
27238
27234
27234
27239
27228
27236
27231
27227
27229
27226
27223
27220
27221
27223
27225
27223
27225
27231
27229
27236
27229
27233
27233
27237
27236
27231
27233
27230
27223
27216
27215
27210
27223
27222
27217
27213
27220
27228
27231
27230
27233
27228
27238
27231
27227
27235
27221
27228
27227
27221
27206
27206
27207
27212
27225
27220
27221
27231
27231
27231
27225
27231
27230
27237
27230
27231
27223
27222
27218
27216
27209
27215
27212
27219
27216
27214
27222
27228
27220
27233
27225
27231
27224
27231
27229
27231
27221
27215
27215
27209
27207
27204
27204
27180
27230
27226
27217
27220
27224
27222
27225
27224
27231
27227
27225
27223
27228
27217
27217
27219
27207
27204
27204
27209
27215
27218
27219
27216
27226
27221
27223
27226
27226
27234
27228
27231
27221
27214
27211
27207
27205
27205
27209
27203
27206
27208
27211
27215
27218
27219
27220
27229
27225
27215
27221
27217
27226
27213
27206
27210
27203
27210
27207
27214
27209
27218
27207
27218
27217
27217
27213
27223
27228
27225
27221
27214
27217
27209
27215
27200
27205
27202
27204
27199
27204
27212
27218
27213
27220
27219
27223
27223
27224
27226
27218
27214
27219
27212
27206
27201
27194
27192
27205
27196
27207
27206
27207
27213
27220
27220
27218
27223
27225
27225
27217
27221
27212
27210
27211
27202
27199
27191
27199
27199
27208
27211
27213
27212
27220
27213
27217
27219
27220
27225
27214
27220
27214
27206
27205
27207
27198
27200
27199
27194
27195
27217
27209
27213
27212
27213
27223
27214
27221
27222
27221
27218
27208
27206
27207
27207
27196
27192
27214
27206
27209
27210
27204
27215
27211
27215
27213
27218
27221
27222
27215
27212
27204
27207
27204
27211
27179
27203
27206
27202
27206
27208
27201
27203
27211
27208
27212
27213
27209
27214
27208
27206
27207
27206
27202
27194
27191
27185
27187
27208
27205
27205
27207
27206
27202
27212
27212
27214
27215
27214
27210
27212
27203
27204
27199
27189
27185
27187
27184
27191
27188
27191
27196
27204
27208
27207
27207
27207
27215
27206
27207
27200
27204
27191
27191
27195
27190
27191
27197
27201
27204
27197
27204
27204
27208
27209
27214
27209
27209
27200
27204
27210
27207
27201
27199
27198
27189
27195
27190
27190
27200
27199
27204
27206
27207
27206
27212
27212
27210
27217
27210
27207
27212
27194
27198
27186
27204
27176
27171
27176
27242
27214
27212
27206
27207
27200
27213
27221
27200
27195
27202
27205
27199
27183
27183
27177
27177
27175
27177
27182
27229
27206
27206
27209
27210
27219
27211
27217
27210
27215
27222
27212
27209
27215
27205
27204
27199
27201
27199
27202
27196
27210
27212
27208
27210
27223
27227
27227
27223
27223
27220
27216
27215
27207
27205
27205
27191
27196
27193
27195
27201
27204
27212
27215
27208
27219
27215
27215
27220
27214
27210
27206
27203
27210
27197
27194
27189
27188
27193
27194
27192
27194
27201
27210
27208
27212
27220
27216
27223
27220
27208
27203
27200
27211
27199
27189
27180
27182
27188
27186
27188
27191
27196
27203
27207
27192
27201
27215
27215
27212
27208
27208
27199
27192
27194
27185
27188
27185
27186
27192
27185
27189
27194
27200
27193
27202
27210
27215
27212
27205
27203
27203
27194
27194
27188
27190
27176
27180
27178
27191
27189
27190
27186
27196
27198
27192
27207
27201
27189
27200
27195
27191
27193
27188
27189
27176
27183
27179
27180
27183
27190
27184
27191
27193
27198
27203
27203
27202
27205
27205
27199
27195
27188
27184
27188
27180
27180
27182
27183
27180
27186
27184
27186
27194
27198
27190
27200
27196
27196
27199
27193
27194
27188
27191
27182
27174
27183
27170
27175
27180
27176
27183
27197
27188
27191
27203
27199
27198
27199
27192
27190
27185
27184
27190
27175
27170
27175
27174
27174
27173
27176
27178
27184
27187
27195
27190
27190
27197
27203
27201
27199
27199
27187
27183
27176
27176
27166
27172
27169
27178
27172
27181
27182
27185
27192
27191
27191
27190
27188
27189
27183
27189
27183
27179
27173
27173
27168
27175
27167
27175
27174
27174
27178
27182
27188
27183
27189
27187
27185
27188
27186
27180
27168
27164
27172
27167
27169
27159
27163
27162
27170
27164
27175
27172
27180
27178
27186
27188
27190
27183
27180
27177
27172
27165
27169
27163
27158
27163
27161
27161
27160
27172
27177
27176
27180
27176
27179
27182
27182
27183
27174
27169
27169
27175
27169
27163
27162
27165
27159
27167
27165
27167
27174
27172
27180
27174
27180
27181
27178
27181
27169
27171
27175
27166
27173
27165
27172
27170
27162
27162
27166
27175
27169
27169
27171
27181
27180
27174
27174
27172
27170
27172
27160
27161
27152
27156
27148
27146
27165
27167
27164
27160
27169
27172
27175
27173
27174
27180
27182
27179
27175
27157
27164
27167
27159
27157
27157
27156
27156
27160
27156
27167
27164
27169
27172
27175
27169
27178
27172
27175
27170
27164
27160
27153
27151
27151
27150
27143
27140
27151
27143
27157
27156
27162
27161
27170
27166
27173
27167
27169
27167
27163
27156
27158
27150
27143
27159
27153
27137
27143
27150
27151
27162
27156
27161
27165
27173
27166
27171
27159
27160
27161
27162
27153
27151
27143
27139
27143
27142
27141
27143
27143
27157
27157
27162
27162
27164
27170
27168
27166
27162
27157
27153
27143
27143
27144
27143
27143
27141
27143
27156
27150
27149
27154
27159
27164
27163
27156
27161
27158
27153
27143
27150
27146
27143
27143
27140
27135
27139
27140
27143
27143
27150
27156
27157
27153
27150
27162
27164
27143
27151
27143
27151
27143
27143
27143
27135
27131
27135
27137
27132
27141
27143
27150
27159
27151
27143
27161
27153
27153
27157
27149
27139
27136
27135
27128
27120
27128
27130
27129
27139
27141
27143
27143
27150
27152
27154
27149
27152
27157
27146
27143
27142
27141
27135
27135
27132
27129
27126
27143
27140
27142
27139
27143
27143
27146
27143
27151
27150
27143
27143
27140
27143
27140
27131
27120
27131
27129
27137
27131
27141
27137
27139
27142
27143
27151
27143
27143
27140
27148
27142
27139
27132
27127
27127
27124
27121
27141
27132
27132
27125
27135
27136
27142
27140
27139
27143
27143
27135
27143
27137
27138
27138
27129
27128
27120
27128
27127
27128
27135
27120
27128
27137
27139
27135
27142
27141
27140
27140
27143
27140
27141
27129
27133
27129
27122
27122
27109
27124
27118
27120
27127
27128
27140
27138
27140
27139
27143
27143
27141
27141
27130
27127
27122
27124
27116
27122
27114
27111
27119
27119
27117
27141
27132
27139
27139
27134
27143
27143
27134
27133
27130
27129
27127
27118
27127
27126
27117
27110
27124
27125
27125
27129
27134
27139
27135
27143
27140
27143
27128
27135
27129
27129
27126
27119
27117
27127
27109
27116
27121
27119
27121
27126
27125
27137
27130
27143
27141
27135
27141
27132
27129
27132
27129
27124
27117
27119
27118
27123
27118
27124
27132
27132
27135
27140
27135
27138
27138
27143
27133
27126
27130
27127
27127
27124
27116
27119
27123
27124
27126
27124
27131
27132
27135
27140
27137
27140
27138
27138
27138
27131
27132
27133
27127
27119
27121
27115
27116
27119
27125
27135
27126
27124
27133
27137
27138
27138
27143
27139
27134
27134
27128
27124
27124
27119
27112
27111
27109
27108
27115
27111
27124
27125
27129
27135
27132
27128
27130
27132
27130
27132
27125
27130
27121
27115
27113
27111
27116
27116
27122
27110
27119
27122
27124
27129
27127
27132
27134
27128
27117
27127
27129
27124
27116
27115
27111
27111
27111
27113
27116
27110
27115
27122
27119
27125
27124
27125
27125
27126
27125
27124
27129
27118
27119
27114
27111
27110
27103
27111
27121
27114
27116
27117
27124
27124
27124
27137
27132
27131
27127
27128
27124
27114
27111
27106
27108
27102
27099
27100
27108
27113
27121
27130
27121
27127
27124
27127
27127
27124
27127
27125
27121
27104
27100
27100
27092
27097
27098
27093
27137
27130
27132
27139
27137
27143
27143
27148
27151
27140
27128
27123
27119
27143
27117
27113
27108
27104
27098
27124
27123
27120
27124
27127
27142
27140
27137
27140
27139
27143
27143
27140
27129
27129
27124
27119
27120
27119
27118
27122
27124
27122
27127
27128
27132
27140
27140
27143
27132
27133
27143
27135
27139
27127
27132
27121
27114
27111
27121
27117
27122
27123
27127
27127
27128
27138
27133
27140
27143
27137
27119
27127
27123
27131
27119
27111
27109
27111
27109
27116
27104
27116
27121
27127
27127
27130
27135
27133
27135
27135
27128
27133
27132
27125
27110
27111
27110
27101
27108
27108
27109
27111
27124
27124
27127
27130
27140
27138
27125
27130
27123
27119
27125
27125
27111
27111
27108
27109
27111
27109
27111
27111
27112
27113
27116
27124
27125
27123
27111
27123
27127
27123
27124
27121
27106
27110
27104
27106
27111
27102
27105
27107
27116
27123
27126
27122
27129
27134
27133
27126
27133
27127
27125
27124
27110
27105
27108
27098
27103
27111
27111
27110
27114
27118
27124
27127
27124
27132
27130
27122
27117
27113
27113
27109
27108
27103
27108
27104
27105
27102
27109
27111
27111
27112
27117
27119
27120
27134
27127
27127
27124
27127
27123
27116
27108
27102
27098
27099
27102
27111
27108
27110
27117
27116
27119
27122
27128
27124
27125
27122
27123
27116
27111
27109
27108
27101
27099
27100
27102
27110
27102
27110
27111
27119
27119
27121
27120
27120
27124
27119
27118
27116
27117
27110
27104
27105
27097
27098
27100
27103
27102
27111
27113
27111
27119
27111
27118
27124
27119
27119
27114
27115
27108
27103
27103
27103
27096
27097
27111
27100
27100
27100
27105
27109
27112
27116
27114
27108
27111
27111
27106
27111
27111
27102
27098
27105
27095
27091
27100
27103
27110
27108
27100
27110
27114
27113
27108
27111
27116
27113
27111
27111
27109
27097
27087
27086
27094
27095
27089
27095
27108
27100
27108
27108
27114
27111
27111
27110
27111
27110
27109
27106
27105
27098
27086
27087
27090
27098
27085
27083
27093
27089
27100
27110
27103
27101
27109
27108
27108
27106
27108
27108
27111
27100
27096
27093
27090
27089
27086
27092
27095
27092
27103
27106
27100
27111
27106
27105
27111
27109
27106
27108
27098
27090
27092
27087
27087
27081
27081
27091
27090
27086
27090
27095
27104
27106
27108
27110
27110
27108
27104
27103
27082
27092
27095
27083
27084
27082
27078
27082
27087
27092
27097
27107
27105
27106
27111
27100
27111
27095
27103
27100
27100
27095
27089
27082
27079
27092
27098
27106
27095
27084
27098
27092
27100
27109
27107
27106
27103
27103
27097
27098
27097
27092
27087
27087
27083
27080
27085
27087
27086
27093
27090
27104
27099
27104
27100
27106
27101
27101
27092
27096
27090
27099
27092
27085
27083
27083
27079
27082
27091
27089
27092
27098
27092
27095
27098
27107
27098
27101
27094
27102
27087
27082
27078
27086
27084
27082
27079
27083
27084
27092
27095
27087
27103
27095
27092
27098
27096
27090
27098
27095
27090
27086
27086
27083
27082
27076
27076
27085
27092
27088
27091
27094
27094
27098
27090
27100
27095
27092
27092
27089
27090
27080
27084
27084
27078
27087
27081
27082
27087
27087
27092
27093
27099
27098
27096
27102
27104
27095
27098
27084
27090
27087
27087
27084
27071
27075
27072
27079
27079
27079
27076
27086
27095
27097
27103
27093
27095
27092
27095
27085
27087
27086
27079
27071
27073
27070
27070
27075
27078
27082
27081
27092
27092
27092
27098
27092
27088
27087
27091
27086
27087
27081
27078
27069
27067
27069
27078
27076
27082
27078
27085
27087
27093
27092
27084
27099
27096
27090
27087
27087
27085
27087
27078
27070
27074
27072
27061
27075
27071
27081
27083
27077
27097
27081
27091
27097
27095
27087
27082
27090
27087
27084
27073
27072
27071
27068
27065
27071
27068
27079
27080
27082
27093
27095
27089
27090
27090
27088
27086
27082
27077
27076
27078
27069
27079
27062
27068
27084
27078
27079
27092
27077
27092
27093
27089
27095
27085
27093
27088
27084
27081
27074
27078
27069
27071
27075
27072
27071
27074
27084
27080
27082
27087
27088
27095
27090
27087
27095
27086
27082
27084
27078
27071
27071
27065
27067
27060
27066
27079
27071
27080
27086
27084
27085
27092
27084
27081
27087
27087
27084
27076
27079
27076
27073
27064
27060
27068
27081
27075
27071
27076
27079
27085
27088
27094
27090
27090
27081
27079
27082
27079
27073
27070
27071
27060
27065
27063
27070
27069
27079
27079
27082
27084
27084
27084
27092
27095
27084
27087
27079
27076
27078
27070
27068
27061
27064
27067
27075
27073
27080
27077
27079
27085
27080
27090
27087
27090
27086
27083
27079
27082
27074
27068
27063
27068
27069
27066
27071
27071
27076
27076
27084
27077
27084
27086
27089
27084
27081
27079
27083
27079
27076
27067
27076
27071
27071
27068
27073
27068
27076
27079
27077
27081
27087
27087
27089
27079
27082
27079
27083
27072
27071
27066
27067
27062
27061
27063
27061
27077
27074
27070
27078
27079
27074
27078
27076
27085
27079
27087
27073
27071
27047
27068
27060
27064
27060
27063
27062
27066
27076
27075
27079
27081
27081
27085
27082
27081
27084
27068
27071
27072
27068
27061
27055
27063
27055
27060
27069
27066
27065
27076
27071
27079
27079
27081
27085
27078
27080
27076
27079
27067
27066
27060
27061
27056
27053
27061
27062
27058
27068
27073
27076
27079
27078
27077
27078
27082
27073
27070
27072
27070
27071
27063
27063
27058
27048
27063
27068
27062
27076
27078
27079
27076
27079
27073
27070
27056
27060
27053
27052
27044
27098
27078
27074
27078
27036
27044
27083
27055
27086
27129
27060
27061
27057
27149
27128
27095
27086
27081
27075
27076
27068
27065
27061
27063
27076
27088
27067
27073
27070
27085
27086
27091
27093
27102
27097
27092
27091
27084
27077
27082
27079
27073
27071
27069
27069
27066
27074
27072
27078
27084
27093
27080
27088
27089
27087
27080
27090
27092
27087
27073
27078
27068
27069
27062
27060
27069
27066
27070
27079
27077
27082
27078
27090
27090
27086
27085
27079
27082
27079
27078
27067
27063
27062
27060
27067
27071
27066
27069
27076
27073
27082
27079
27082
27086
27082
27081
27079
27074
27076
27065
27060
27060
27050
27060
27049
27059
27052
27057
27068
27071
27071
27077
27087
27076
27087
27076
27076
27072
27070
27066
27058
27060
27053
27057
27051
27048
27055
27055
27062
27065
27076
27079
27077
27065
27071
27077
27066
27070
27062
27068
27062
27055
27049
27052
27055
27052
27052
27054
27058
27060
27068
27066
27074
27074
27076
27076
27066
27069
27059
27060
27047
27049
27047
27045
27046
27045
27049
27049
27060
27062
27069
27069
27073
27071
27071
27069
27073
27053
27042
27041
27048
27052
27047
27043
27049
27036
27044
27052
27053
27059
27060
27063
27070
27067
27071
27066
27064
27063
27047
27062
27054
27047
27044
27040
27047
27047
27044
27047
27054
27061
27070
27071
27070
27070
27069
27076
27071
27060
27061
27060
27049
27044
27029
27042
27046
27044
27045
27047
27054
27057
27062
27063
27064
27073
27063
27071
27063
27060
27056
27055
27047
27029
27043
27039
27041
27039
27039
27043
27044
27046
27049
27061
27063
27063
27061
27061
27057
27053
27048
27045
27043
27037
27036
27034
27034
27036
27039
27044
27046
27046
27049
27052
27060
27057
27055
27027
27047
27050
27047
27046
27046
27034
27030
27039
27042
27037
27034
27045
27041
27047
27047
27047
27049
27047
27047
27045
27038
27042
27039
27036
27030
27028
27023
27016
27018
27017
27037
27028
27036
27041
27041
27047
27042
27046
27045
27049
27038
27041
27037
27034
27029
27021
27016
27022
27009
27023
27031
27039
27037
27037
27036
27042
27050
27041
27045
27036
27038
27036
27036
27032
27023
27018
27015
27015
27015
27014
27023
27021
27024
27025
27039
27038
27046
27038
27043
27037
27044
27039
27029
27031
27030
27026
27020
27028
27020
27028
27024
27031
27037
27038
27021
27042
27034
27046
27044
27044
27039
27035
27016
27028
27021
27015
27015
27015
27015
27012
27018
27036
27038
27033
27030
27036
27036
27047
27035
27030
27031
27031
27024
27029
27018
27016
27014
27012
27016
27031
27029
27026
27027
27029
27039
27038
27036
27038
27042
27037
27034
27036
27022
27023
27028
27012
27013
27012
27012
27013
27023
27022
27023
27034
27034
27036
27034
27033
27039
27037
27034
27031
27026
27020
27021
27027
27013
27013
27004
27016
27015
27020
27028
27030
27036
27043
27039
27038
27039
27029
27034
27035
27030
27020
27014
27015
27017
27021
27016
27020
27012
27020
27022
27028
27028
27031
27031
27039
27035
27031
27029
27031
27028
27021
27021
27015
27019
27012
27014
27018
27023
27028
27028
27029
27035
27026
27029
27031
27039
27031
27028
27034
27021
27018
27014
27012
27013
27015
27015
27019
27019
27012
27023
27025
27031
27032
27030
27027
27031
27031
27028
27027
27020
27015
27015
27017
27014
27010
27023
27014
27014
27018
27017
27020
27023
27031
27030
27030
27031
27025
27019
27024
27026
27015
27015
27012
27012
27007
27006
27007
27007
27021
27013
27024
27019
27039
27028
27033
27025
27028
27025
27027
27015
27018
27014
27009
27007
27007
27011
27015
27013
27015
27018
27020
27023
27023
27028
27021
27023
27023
27024
27019
27015
27011
27015
27009
27004
27023
26998
27010
27014
27014
27014
27020
27027
27023
27023
27025
27021
27015
27018
27020
27017
27020
27006
27009
27011
27012
26999
27005
27011
27007
27015
27025
27028
27022
27028
27022
27028
27023
27020
27020
27018
27021
27004
27006
27001
26998
26996
27015
27011
27015
27022
27022
27023
27021
27018
27020
27021
27011
27015
27015
27012
27004
27007
26992
27002
26993
26999
26996
26996
27011
27012
27017
27021
27023
27021
27018
27015
27018
27020
27015
27009
27005
27009
27007
27002
27002
27000
27008
27005
27009
27015
27018
27020
27021
27015
27021
27021
27028
27009
27012
27011
27004
26999
26992
26997
26996
26991
27002
26996
27004
27004
27013
27018
27020
27015
27020
27019
27020
27015
27011
27013
27004
27002
26999
27009
27005
26999
27008
26999
27012
27012
27015
27015
27015
27015
27017
27019
27019
27015
27014
27014
27005
27002
26999
26996
26995
26993
26999
27000
27006
27011
27013
27016
27001
27016
27016
27020
27021
27015
27013
27013
27004
27004
27002
27004
26991
26991
27006
27007
27005
27012
27015
27013
27015
27019
27026
27022
27014
27015
27012
27007
27007
27004
27003
27001
27004
27004
27011
27015
27004
27015
27012
27015
27019
27019
27015
27019
27014
27015
27013
27010
27004
26997
26993
26998
26998
26998
27012
26996
27004
27007
27014
27013
27023
27023
27018
27021
26994
27015
27009
27006
27001
27007
26997
27001
26996
26997
27003
27003
27007
27013
27012
27015
27017
27020
27015
27012
27009
27009
27008
27003
26998
26991
26993
26997
26997
26996
26998
27002
27007
27005
27007
27014
27006
27015
27014
27013
27015
27009
27011
26999
26999
26999
26997
26997
26996
26983
26996
26996
27004
27006
27002
27013
27014
27009
27018
27015
27010
27014
27005
27006
26996
26999
26983
27007
26993
26992
26996
26998
27004
27002
27007
27015
27002
27006
27013
27012
27005
27011
26999
27007
27002
26993
26991
26995
26984
26988
27004
26994
26999
26996
27010
27009
27015
27007
27012
27023
27013
27025
27014
27024
27012
27012
27007
27022
27036
27013
27019
27015
27021
27020
27029
27030
27031
27033
27034
27029
27025
27028
27024
27034
27038
26988
27034
27015
27011
27004
27012
27004
27000
27014
27014
27022
27018
27020
27029
27028
27025
27028
27020
27015
27012
27006
27005
26999
27004
27002
27002
27012
27012
27013
27023
27026
27007
27027
27031
27020
27025
27025
27021
27018
27014
27006
27007
27001
26999
27004
27010
27009
27015
27019
27016
27026
27007
27014
27014
27013
27001
27027
27021
27015
27014
27010
27002
26996
26990
26997
26997
27001
27004
27007
26999
27017
27018
27023
27016
27020
27015
27015
27012
27014
27012
27007
26994
26993
26990
26992
26997
26999
27001
27008
27012
27015
27014
26998
27009
27015
27007
27009
27004
27008
27003
26999
26998
26994
26993
26989
26991
26999
26997
27006
27006
27012
27020
27013
27015
27005
27007
27004
27002
27012
27001
26999
26988
26987
26993
26997
26995
26991
26994
26999
27000
27007
27008
27013
27015
27010
27012
27012
27005
27007
26996
26997
26981
26991
26991
26992
26991
26996
26993
26997
27002
27011
27006
27003
26996
26995
27001
27004
27004
27000
26996
26996
26991
26991
26987
26984
26999
26988
27003
26996
26992
27002
27006
27014
27015
27016
27015
27013
27003
27005
26989
26993
26988
26985
26991
26991
26990
26989
26995
27002
27004
27012
27004
27008
27015
27019
26996
26999
26997
27001
26997
26993
26987
26986
26985
26985
26988
26990
26998
26997
27003
27007
26999
27004
27006
27004
27009
27002
27000
26988
26993
26986
26984
26986
26989
26984
26988
26991
26997
26994
27001
26993
26999
27006
26999
27006
27007
27002
26997
27000
26984
26987
26991
26987
26982
26982
26983
26988
26991
26993
26992
26996
26997
26999
27002
26991
26991
26998
26992
26991
26987
26980
26986
26981
26980
26979
26993
26983
26982
26989
26988
26994
26990
26998
27001
26996
26990
26997
26989
26996
26985
26985
26996
26982
26983
26979
26984
26987
26984
26991
26991
26988
26991
26999
26988
26995
26996
26988
26984
26981
26985
26981
26982
26968
26974
26974
26970
26980
26977
26983
26986
26990
26996
26991
26991
26994
26985
26990
26986
26983
26983
26974
26969
26967
26949
26981
26983
26983
26976
26989
26981
26992
27005
26990
26998
27003
26990
26994
26984
26989
26987
26979
26981
26972
26980
26990
26972
26982
26981
26988
26994
26995
27001
26991
26994
26997
26996
26995
26989
26990
26980
26979
26983
26973
26987
26975
26976
26991
26988
26989
26991
26996
26996
26994
26999
26997
26999
26993
26986
26982
26980
26988
26980
26972
26983
26971
26972
26985
26988
26988
26993
26997
26991
26999
26996
27001
26993
26994
26991
26985
26983
26978
26966
26981
26980
26975
26989
26991
26983
26988
26992
26996
26993
26993
26997
26990
26993
26989
26986
26983
26982
26978
26986
26977
26980
26975
26980
26981
26991
26983
26996
26995
26996
26991
26990
26994
26994
26991
26986
26986
26975
26979
26969
26973
26983
26985
26991
26980
26983
26988
26989
26986
26991
26999
26995
26996
26991
26988
26986
26980
26985
26976
26976
26977
26973
26970
26978
26975
26991
26986
26990
26996
26995
26993
26990
26986
26998
26993
26985
26982
26978
26981
26979
26975
26978
26975
26983
26989
26982
26989
26986
26988
26992
26992
26989
26995
26990
26987
26990
26991
26985
26980
26976
26974
26983
26973
26977
26975
26986
26980
26990
26983
26986
26991
26991
26997
26991
26988
26988
26981
26983
26980
26975
26975
26975
26971
26973
26972
26981
26985
26996
26985
26996
26991
26998
26995
26990
26985
26990
26975
26980
26981
26982
26978
26988
26980
26972
26981
26981
26982
26988
26992
26966
26991
26993
26995
26989
26991
26982
26991
26983
26975
26970
26977
26985
26979
26983
26991
26983
26991
26986
26991
26991
26999
26992
26985
26995
26988
26994
26982
26983
26977
26970
26986
26982
26978
26978
26983
26976
26988
26988
26991
26991
27003
26996
26992
26996
26993
26984
26988
26983
26980
26983
26978
26974
26975
26975
26986
26986
26989
27000
26993
26996
27002
26993
26994
26989
26999
26991
26988
26986
26982
26982
26972
26975
26971
26980
26975
26983
26987
26995
26999
26999
27004
26999
26997
26996
26996
26990
26988
26984
26983
26982
26980
26975
26980
26989
26985
26984
26994
26991
26996
26996
26994
27000
26991
26994
26994
26994
26991
26981
26983
26983
26973
26982
26977
26979
26980
26983
26997
26988
26998
26996
26997
27005
26999
27000
26993
26990
26988
26995
26988
26981
26980
26980
26986
26986
26996
26993
26988
26989
26997
26998
27001
26996
27004
26991
26994
26988
26992
26982
26986
26977
26983
26975
26985
26993
26991
26989
26996
26994
26998
27002
26990
26999
26991
26999
26990
26991
26983
26988
26983
26988
26982
26982
26982
26984
26989
26991
26994
27002
27010
27002
27003
27004
26999
26993
26998
26988
26989
26983
26988
26989
26984
26988
26986
26988
26997
26993
27001
27004
27006
27001
27004
27005
27008
27002
27004
27001
26991
26996
26995
26993
26991
26981
26996
26991
26988
26993
27000
26993
27007
27007
27007
27003
27001
27006
27005
27005
26992
26995
26991
26980
27003
26991
26997
26993
26996
27004
26999
27007
27007
27013
27007
27011
27007
27014
27007
27012
26996
26994
26997
26980
26988
26993
26999
26993
26993
27005
27007
27007
27006
27008
27011
27004
27013
27006
27004
27003
26999
26991
26996
26991
26985
26982
26987
26993
26998
26999
26992
27005
27010
27012
27012
27012
27012
27008
27009
27007
27003
27004
26993
26991
26985
26989
27010
27004
26996
27002
27012
27013
27015
27015
27015
27015
27012
27007
27007
27002
27001
26996
26991
26993
26999
26997
27004
26999
26997
27004
27001
27013
27009
27010
27019
27023
27009
27012
27012
26999
27004
26999
27004
26994
26989
26991
26991
27005
27010
27007
27010
27013
27015
27020
27015
27009
27022
27008
27007
27002
27004
26999
26999
26996
26993
26992
27015
27012
27015
27012
27013
27015
27014
27023
27004
27005
27036
27018
27012
27003
26988
26986
27015
27014
26998
26996
26999
26990
26996
27023
27024
27020
27038
27012
27004
27054
27031
27029
27018
27012
27019
27007
27005
26999
27007
26999
27018
27023
27020
27022
27033
27031
27033
27039
27038
27040
27036
27027
27029
27036
27024
27012
27023
27015
27015
27023
27022
27018
27025
27021
27033
27034
27021
27047
27039
27045
27031
27039
27036
27035
27030
27031
27020
27015
27016
27015
27020
27020
27016
27023
27029
27038
27040
27041
27044
27038
27023
27022
27038
27034
27029
27015
27018
27015
27014
27021
27020
27021
27015
27031
27031
27036
27035
27031
27043
27044
27036
27018
27027
27028
27028
27022
27019
27016
27014
27015
27023
27023
27022
27026
27029
27028
27036
27036
27029
27037
27045
27036
27036
27030
27031
27027
27015
27017
27015
27014
27023
27015
27025
27028
27035
27021
27034
27039
27043
27043
27040
27036
27033
27036
27025
27021
27018
27016
27013
27009
27020
27023
27026
27022
27032
27030
27036
27036
27037
27042
27044
27033
27028
27024
27025
27023
27020
27015
27015
27023
27029
27023
27027
27028
27031
27038
27036
27044
27040
27046
27031
27030
27028
27036
27023
27028
27019
27022
27018
27017
27029
27020
27031
27021
27029
27037
27039
27042
27047
27045
27041
27031
27037
27031
27029
27031
27020
27023
27017
27017
27021
27021
27025
27031
27038
27040
27046
27033
27045
27044
27044
27037
27040
27028
27036
27028
27020
27021
27015
27017
27021
27025
27031
27033
27033
27039
27041
27025
27042
27044
27042
27044
27046
27027
27027
27025
27022
27025
27015
27017
27023
27020
27031
27031
27034
27040
27045
27053
27043
27046
27039
27042
27036
27034
27029
27029
27022
27019
27019
27020
27019
27027
27034
27033
27036
27039
27037
27036
27040
27039
27034
27044
27036
27028
27028
27031
27023
27015
27014
27013
27029
27024
27035
27036
27038
27038
27033
27044
27040
27039
27041
27045
27036
27039
27027
27021
27020
27036
27028
27027
27031
27028
27029
27030
27039
27036
27039
27036
27044
27047
27044
27036
27037
27034
27032
27028
27023
27017
27020
27022
27019
27021
27023
27036
27016
27037
27039
27044
27041
27044
27042
27041
27036
27037
27034
27027
27028
27028
27033
27036
27035
27029
27030
27033
27033
27039
27044
27047
27047
27045
27030
27047
27038
27034
27025
27029
27025
27023
27021
27028
27031
27025
27039
27039
27038
27041
27042
27044
27050
27047
27042
27041
27032
27039
27034
27029
27025
27031
27027
27026
27033
27030
27038
27042
27043
27044
27045
27046
27044
27047
27041
27039
27042
27031
27028
27036
27020
27025
27022
27030
27034
27038
27037
27042
27055
27047
27045
27052
27044
27041
27043
27044
27047
27039
27031
27028
27031
27035
27031
27034
27036
27039
27033
27041
27041
27045
27046
27047
27044
27045
27042
27044
27041
27043
27044
27029
27026
27023
27021
27032
27029
27034
27036
27042
27046
27046
27047
27046
27045
27045
27042
27047
27043
27038
27038
27023
27031
27022
27027
27028
27039
27036
27041
27043
27044
27053
27053
27052
27047
27048
27045
27047
27044
27039
27037
27041
27032
27031
27038
27037
27047
27029
27029
27041
27042
27046
27042
27044
27046
27051
27047
27044
27047
27041
27031
27035
27038
27031
27028
27036
27028
27041
27050
27044
27046
27048
27049
27048
27049
27044
27055
27047
27051
27038
27038
27039
27033
27026
27028
27038
27042
27039
27044
27044
27049
27053
27050
27055
27050
27047
27046
27047
27044
27047
27041
27043
27033
27028
27029
27028
27028
27035
27047
27047
27047
27054
27053
27055
27055
27053
27053
27052
27047
27044
27039
27034
27031
27030
27028
27029
27033
27047
27047
27051
27055
27054
27053
27058
27047
27050
27049
27052
27047
27050
27033
27042
27035
27037
27036
27042
27047
27046
27048
27045
27053
27055
27057
27058
27058
27055
27054
27053
27047
27050
27047
27039
27040
27031
27028
27028
27047
27047
27047
27049
27057
27054
27054
27050
27055
27063
27057
27047
27045
27042
27047
27047
27039
27034
27037
27034
27039
27050
27042
27052
27050
27056
27060
27063
27066
27063
27058
27063
27052
27047
27043
27037
27044
27048
27028
27031
27036
27044
27051
27057
27052
27060
27062
27067
27056
27062
27055
27053
27053
27049
27046
27047
27044
27036
27041
27039
27053
27049
27049
27052
27050
27060
27060
27062
27053
27060
27063
27060
27057
27055
27046
27042
27046
27044
27042
27042
27044
27046
27054
27052
27052
27062
27062
27066
27066
27060
27061
27059
27056
27055
27045
27049
27043
27044
27039
27053
27057
27048
27058
27057
27059
27068
27065
27067
27070
27066
27060
27060
27054
27052
27055
27047
27047
27044
27047
27047
27046
27047
27054
27058
27062
27061
27068
27068
27071
27060
27060
27060
27063
27058
27057
27046
27053
27036
27044
27051
27054
27063
27055
27060
27061
27073
27071
27072
27069
27071
27063
27070
27060
27058
27058
27056
27048
27045
27047
27047
27052
27060
27058
27062
27063
27066
27071
27071
27064
27071
27068
27063
27057
27060
27053
27042
27050
27044
27044
27046
27060
27062
27055
27063
27064
27063
27064
27070
27074
27071
27069
27055
27060
27060
27059
27047
27047
27046
27045
27047
27055
27044
27050
27060
27062
27071
27074
27062
27071
27072
27069
27060
27062
27057
27052
27050
27053
27050
27047
27055
27053
27057
27058
27062
27063
27065
27075
27066
27073
27073
27068
27068
27060
27054
27057
27052
27046
27047
27049
27050
27054
27059
27060
27058
27065
27068
27065
27076
27079
27078
27069
27071
27063
27056
27053
27060
27051
27052
27053
27054
27060
27055
27060
27063
27062
27067
27068
27075
27071
27062
27069
27060
27055
27062
27063
27058
27060
27059
27069
27060
27063
27060
27069
27070
27093
27071
27071
27063
27058
27061
27057
27059
27047
27109
27087
27076
27076
27063
27065
27060
27060
27063
27082
27077
27068
27076
27082
27082
27079
27084
27077
27082
27076
27076
27071
27071
27066
27063
27056
27063
27068
27072
27077
27073
27078
27082
27085
27092
27068
27081
27087
27079
27087
27084
27068
27068
27058
27065
27068
27066
27069
27061
27072
27082
27077
27067
27092
27092
27090
27085
27079
27077
27076
27074
27073
27068
27067
27058
27060
27068
27065
27065
27069
27085
27079
27083
27082
27061
27069
27066
27069
27074
27071
27082
27071
27068
27060
27067
27060
27067
27062
27063
27071
27078
27079
27074
27079
27086
27084
27068
27077
27079
27074
27079
27065
27066
27055
27055
27060
27061
27063
27063
27068
27070
27078
27076
27080
27077
27084
27082
27079
27070
27076
27069
27060
27060
27060
27057
27055
27063
27065
27060
27063
27075
27076
27069
27082
27082
27082
27079
27076
27068
27070
27071
27065
27055
27057
27057
27061
27063
27066
27060
27070
27070
27079
27076
27076
27087
27090
27081
27077
27071
27077
27063
27064
27058
27058
27054
27055
27052
27055
27068
27067
27070
27074
27078
27080
27061
27076
27079
27068
27079
27070
27068
27054
27062
27053
27054
27052
27055
27060
27063
27068
27069
27070
27076
27079
27078
27080
27077
27071
27068
27069
27068
27063
27058
27060
27055
27055
27057
27068
27063
27068
27072
27076
27073
27076
27077
27086
27079
27081
27074
27074
27068
27061
27057
27055
27058
27058
27052
27053
27062
27060
27069
27069
27060
27071
27070
27077
27077
27079
27071
27074
27065
27060
27060
27052
27063
27047
27057
27053
27060
27062
27071
27073
27079
27078
27079
27076
27068
27071
27065
27066
27062
27053
27051
27049
27047
27040
27047
27055
27059
27062
27066
27061
27069
27071
27069
27070
27073
27069
27063
27063
27057
27060
27055
27049
27050
27057
27053
27053
27060
27066
27066
27067
27069
27066
27068
27073
27060
27062
27061
27063
27048
27054
27046
27040
27039
27047
27045
27056
27049
27051
27059
27062
27059
27071
27063
27070
27068
27066
27063
27067
27061
27055
27047
27041
27054
27054
27053
27049
27063
27052
27058
27065
27065
27063
27063
27070
27057
27063
27059
27062
27055
27045
27048
27046
27060
27042
27046
27044
27041
27055
27062
27063
27064
27069
27068
27063
27064
27060
27063
27055
27051
27052
27053
27046
27040
27047
27053
27050
27051
27052
27057
27035
27068
27063
27068
27072
27063
27057
27059
27057
27052
27046
27044
27044
27037
27050
27053
27050
27055
27061
27064
27065
27059
27073
27061
27062
27060
27063
27060
27060
27051
27047
27043
27051
27045
27052
27048
27058
27052
27050
27060
27069
27064
27060
27056
27060
27063
27061
27061
27055
27050
27052
27047
27042
27043
27047
27041
27045
27050
27055
27055
27061
27066
27063
27064
27065
27063
27057
27054
27051
27049
27047
27047
27039
27045
27038
27047
27060
27054
27054
27060
27060
27060
27059
27063
27065
27070
27063
27039
27049
27047
27048
27044
27038
27042
27048
27042
27044
27047
27055
27057
27058
27063
27062
27069
27070
27063
27063
27058
27050
27052
27047
27048
27039
27049
27039
27047
27047
27049
27058
27060
27060
27064
27062
27068
27054
27054
27060
27062
27051
27046
27047
27044
27041
27044
27045
27051
27048
27046
27053
27047
27061
27060
27061
27055
27060
27055
27061
27049
27052
27051
27047
27045
27046
27040
27037
27058
27039
27051
27055
27055
27060
27055
27060
27060
27065
27063
27055
27055
27047
27045
27047
27044
27031
27037
27036
27038
