RESPIRATION
28804
28808
28813
28812
28820
28824
28820
28836
28830
28836
28832
28828
28832
28836
28844
28838
28836
28846
28852
28844
28849
28847
28849
28849
28850
28844
28854
28846
28846
28840
28840
28842
28840
28836
28838
28836
28828
28832
28836
28829
28813
28817
28812
28813
28814
28806
28804
28797
28801
28807
28812
28804
28808
28804
28804
28810
28816
28812
28814
28812
28820
28820
28817
28826
28828
28844
28834
28840
28845
28853
28854
28860
28858
28860
28873
28870
28878
28874
28880
28892
28896
28898
28904
28898
28904
28906
28913
28914
28916
28916
28922
28929
28920
28918
28920
28928
28920
28925
28930
28922
28924
28921
28929
28928
28929
28929
28926
28925
28927
28926
28936
28924
28933
28924
28930
28926
28917
28924
28924
28927
28931
28924
28924
28920
28922
28924
28921
28920
28920
28918
28914
28924
28914
28914
28913
28920
28913
28917
28900
28904
28904
28910
28906
28893
28900
28901
28900
28900
28888
28892
28888
28890
28886
28881
28880
28878
28884
28868
28872
28872
28870
28866
28866
28860
28868
28861
28856
28854
28857
28848
28853
28848
28844
28838
28846
28836
28844
28834
28838
28840
28836
28840
28830
28834
28836
28837
28828
28826
28834
28823
28822
28826
28823
28816
28828
28820
28824
28816
28818
28820
28816
28821
28816
28821
28820
28815
28820
28826
28816
28828
28832
28834
28830
28828
28828
28836
28832
28838
28836
28840
28836
28840
28840
28848
28844
28848
28852
28856
28860
28858
28860
28868
28864
28864
28864
28872
28872
28874
28870
28884
28884
28882
28882
28886
28892
28890
28892
28897
28900
28900
28898
28908
28906
28912
28906
28910
28916
28924
28920
28926
28922
28924
28934
28942
28938
28932
28940
28946
28941
28940
28940
28948
28956
28956
28949
28964
28960
28962
28965
28965
28977
28972
28971
28972
28970
28976
28980
28980
28984
28986
28999
28996
28991
29004
29004
29004
29006
29012
29009
29014
29015
29018
29012
29029
29026
29024
29025
29032
29029
29036
29036
29041
29041
29046
29046
29052
29051
29060
29060
29060
29063
29068
29074
29076
29082
29084
29086
29084
29092
29092
29100
29096
29104
29102
29122
29112
29112
29114
29118
29120
29124
29132
29129
29132
29134
29136
29136
29136
29135
29140
29142
29146
29149
29148
29148
29152
29156
29158
29158
29166
29164
29160
29166
29160
29168
29178
29180
29180
29180
29181
29186
29190
29205
29200
29200
29213
29212
29212
29224
29222
29228
29224
29236
29240
29237
29247
29247
29252
29252
29255
29260
29268
29264
29278
29276
29281
29280
29290
29288
29292
29298
29303
29312
29308
29311
29312
29320
29327
29334
29320
29324
29336
29343
29343
29349
29345
29348
29355
29359
29358
29362
29361
29372
29372
29380
29376
29382
29377
29385
29388
29393
29396
29398
29400
29408
29410
29417
29417
29416
29423
29425
29424
29436
29436
29429
29433
29436
29444
29438
29448
29460
29464
29462
29464
29468
29477
29476
29480
29479
29489
29484
29488
29498
29496
29504
29498
29510
29509
29508
29524
29516
29528
29524
29530
29532
29542
29542
29538
29541
29548
29543
29560
29556
29562
29564
29565
29561
29574
29578
29569
29572
29586
29584
29584
29588
29589
29593
29596
29600
29604
29606
29608
29607
29609
29614
29616
29620
29630
29624
29634
29636
29633
29636
29636
29640
29648
29644
29652
29648
29655
29661
29660
29663
29668
29676
29668
29676
29678
29676
29680
29692
29690
29692
29692
29696
29692
29703
29702
29708
29716
29716
29716
29712
29718
29732
29722
29721
29727
29719
29736
29732
29730
29740
29740
29740
29742
29738
29736
29740
29746
29748
29754
29740
29752
29756
29761
29751
29760
29760
29756
29764
29760
29760
29764
29761
29764
29764
29766
29764
29768
29772
29764
29770
29772
29774
29774
29774
29779
29774
29781
29771
29775
29776
29776
29776
29774
29775
29772
29782
29770
29776
29768
29776
29770
29765
29776
29770
29774
29772
29773
29764
29773
29773
29777
29774
29772
29768
29772
29774
29772
29772
29772
29768
29768
29766
29762
29770
29772
29766
29768
29768
29776
29765
29768
29764
29764
29764
29762
29764
29758
29761
29763
29764
29753
29759
29752
29750
29759
29749
29752
29752
29754
29750
29748
29753
29744
29749
29752
29745
29740
29740
29752
29748
29748
29748
29750
29751
29752
29749
29756
29758
29759
29760
29761
29762
29758
29760
29764
29764
29762
29759
29764
29768
29768
29772
29776
29778
29765
29780
29775
29782
29780
29780
29781
29790
29785
29804
29790
29804
29801
29798
29804
29800
29812
29818
29816
29820
29817
29825
29832
29833
29826
29840
29832
29841
29838
29847
29848
29854
29860
29860
29862
29865
29878
29868
29878
29870
29880
29888
29894
29886
29889
29898
29896
29900
29904
29912
29912
29924
29910
29924
29924
29933
29934
29940
29944
29948
29944
29954
29960
29966
29964
29969
29976
29972
29977
29982
29994
29992
30004
30002
30004
30016
30014
30016
30030
30034
30038
30046
30046
30052
30054
30062
30058
30061
30072
30068
30084
30084
30094
30086
30097
30104
30105
30111
30126
30124
30130
30134
30136
30146
30148
30149
30156
30160
30165
30172
30172
30176
30180
30191
30188
30204
30208
30208
30220
30228
30226
30230
30234
30236
30252
30242
30250
30264
30252
30264
30268
30277
30287
30287
30293
30301
30300
30312
30306
30312
30317
30332
30336
30336
30348
30348
30352
30356
30357
30360
30368
30372
30376
30384
30388
30400
30393
30402
30405
30416
30422
30416
30424
30436
30432
30434
30438
30446
30456
30452
30464
30465
30468
30472
30479
30477
30484
30492
30492
30500
30500
30512
30516
30512
30521
30525
30530
30541
30540
30544
30552
30548
30558
30567
30565
30572
30570
30584
30588
30584
30592
30592
30598
30600
30605
30608
30612
30616
30628
30628
30628
30642
30632
30636
30638
30644
30648
30648
30650
30661
30658
30655
30660
30662
30666
30665
30664
30668
30660
30668
30662
30672
30670
30672
30673
30673
30670
30669
30674
30665
30673
30670
30672
30672
30673
30678
30661
30670
30681
30677
30673
30677
30680
30685
30692
30685
30689
30698
30692
30700
30700
30708
30710
30713
30724
30728
30729
30732
30748
30741
30750
30754
30758
30756
30768
30780
30768
30780
30776
30781
30786
30792
30792
30794
30801
30800
30804
30813
30814
30813
30814
30814
30818
30817
30820
30816
30824
30823
30823
30824
30820
30824
30822
30824
30828
30824
30828
30828
30828
30840
30836
30832
30830
30825
30828
30828
30832
30831
30836
30836
30844
30836
30832
30836
30830
30844
30838
30844
30840
30837
30839
30841
30839
30836
30842
30836
30838
30833
30844
30840
30828
30840
30844
30840
30837
30840
30828
30826
30831
30824
30829
30824
30824
30824
30824
30820
30820
30820
30820
30814
30824
30820
30814
30808
30809
30820
30812
30814
30812
30812
30813
30807
30809
30806
30814
30806
30810
30805
30802
30808
30808
30796
30800
30806
30796
30804
30805
30801
30800
30805
30812
30796
30800
30798
30804
30798
30793
30806
30796
30793
30799
30796
30798
30795
30800
30802
30804
30800
30798
30800
30798
30796
30796
30794
30804
30806
30801
30800
30798
30804
30796
30808
30799
30805
30805
30808
30809
30801
30808
30812
30812
30812
30812
30815
30816
30816
30813
30820
30820
30824
30825
30828
30824
30824
30828
30832
30828
30829
30832
30832
30838
30837
30844
30839
30844
30844
30844
30848
30852
30844
30858
30853
30853
30860
30861
30856
30862
30864
30861
30865
30868
30861
30868
30874
30868
30873
30877
30868
30876
30884
30874
30882
30880
30888
30884
30888
30886
30888
30892
30900
30893
30896
30894
30900
30908
30902
30904
30916
30905
30911
30909
30906
30921
30912
30908
30916
30916
30920
30919
30917
30920
30928
30924
30924
30924
30930
30932
30928
30932
30935
30940
30932
30940
30948
30941
30944
30946
30950
30949
30948
30956
30960
30950
30956
30956
30958
30961
30960
30952
30960
30964
30960
30960
30964
30960
30952
30944
30954
30952
30958
30952
30956
30960
30956
30959
30964
30961
30958
30956
30956
30968
30958
30962
30965
30966
30976
30974
30973
30986
30980
30980
30988
30990
30988
30996
30997
31004
31002
31012
31008
31009
31024
31028
31024
31040
31034
31042
31042
31048
31050
31052
31060
31060
31073
31077
31080
31082
31092
31096
31093
31093
31106
31110
31121
31122
31134
31140
31146
31146
31152
31166
31174
31180
31176
31190
31196
31198
31208
31212
31226
31224
31247
31244
31246
31257
31266
31274
31276
31288
31299
31296
31308
31318
31320
31328
31340
31345
31356
31366
31377
31377
31391
31392
31404
31416
31421
31423
31438
31442
31452
31458
31472
31480
31494
31505
31514
31508
31528
31532
31545
31548
31561
31576
31580
31588
31608
31609
31620
31626
31633
31652
31654
31672
31679
31682
31697
31708
31712
31717
31726
31736
31740
31756
31764
31772
31783
31788
31800
31812
31818
31824
31832
31856
31849
31856
31869
31878
31892
31893
31904
31924
31920
31928
31949
31956
31968
31975
31985
31989
32000
32008
32020
32028
32052
32056
32068
32086
32092
32100
32108
32124
32136
32136
32154
32160
32172
32188
32204
32214
32218
32229
32244
32262
32268
32286
32293
32308
32316
32320
32332
32348
32360
32376
32376
32394
32408
32428
32425
32436
32460
32468
32474
32489
32504
32505
32522
32528
32540
32552
32570
32576
32596
32594
32614
32624
32634
32649
32660
32664
32680
32693
32705
32712
32726
32738
32742
32764
32773
32785
32792
32804
32815
32836
32844
32850
32866
32870
32884
32899
32908
32920
32932
32944
32954
32964
32974
32988
33000
33012
33027
33036
33045
33056
33064
33084
33092
33103
33108
33125
33140
33148
33150
33172
33189
33192
33201
33218
33232
33242
33245
33261
33268
33281
33299
33316
33328
33332
33346
33354
33366
33377
33388
33402
33412
33416
33448
33444
33462
33472
33484
33493
33504
33523
33532
33540
33555
33557
33574
33576
33596
33606
33612
33624
33644
33652
33666
33671
33684
33695
33712
33724
33728
33740
33752
33766
33768
33788
33796
33801
33822
33824
33842
33848
33864
33866
33889
33888
33911
33916
33925
33928
33948
33953
33962
33976
33982
34000
33992
34010
34018
34028
34046
34050
34056
34082
34080
34092
34104
34116
34124
34142
34144
34148
34168
34168
34180
34189
34201
34209
34216
34226
34240
34246
34248
34265
34274
34292
34300
34306
34312
34324
34332
34344
34360
34356
34372
34388
34390
34396
34410
34420
34436
34444
34445
34468
34468
34478
34488
34492
34500
34520
34528
34536
34548
34564
34572
34588
34596
34596
34624
34624
34636
34649
34652
34656
34677
34690
34702
34708
34704
34728
34740
34750
34756
34761
34772
34788
34801
34800
34812
34823
34832
34844
34852
34862
34869
34880
34892
34896
34908
34920
34916
34932
34944
34947
34964
34968
34980
34983
34996
35008
35015
35026
35028
35041
35049
35052
35060
35072
35076
35084
35098
35110
35116
35116
35132
35137
35148
35153
35167
35176
35184
35198
35200
35212
35224
35221
35238
35247
35256
35264
35288
35278
35292
35296
35312
35323
35335
35344
35352
35354
35361
35372
35384
35391
35408
35413
35424
35420
35452
35456
35452
35470
35484
35489
35512
35511
35524
35532
35540
35548
35556
35572
35577
35588
35596
35608
35622
35632
35648
35646
35656
35663
35672
35678
35686
35700
35710
35716
35728
35728
35748
35752
35749
35766
35768
35776
35784
35784
35796
35796
35808
35809
35813
35828
35836
35847
35841
35844
35856
35864
35864
35868
35884
35882
35884
35898
35896
35908
35908
35920
35920
35932
35932
35942
35950
35956
35952
35964
35972
35975
35984
35988
36001
36005
36008
36024
36036
36028
36036
36052
36060
36066
36072
36088
36096
36100
36110
36124
36124
36132
36142
36145
36156
36165
36175
36184
36192
36204
36208
36208
36220
36232
36240
36237
36252
36256
36266
36270
36272
36276
36292
36296
36296
36310
36304
36318
36314
36320
36332
36336
36341
36341
36356
36359
36359
36372
36369
36376
36388
36390
36388
36400
36400
36402
36408
36418
36420
36421
36432
36436
36440
36444
36445
36452
36463
36465
36472
36480
36488
36488
36488
36492
36500
36500
36516
36516
36521
36529
36526
36532
36530
36536
36540
36544
36541
36548
36552
36556
36564
36572
36576
36570
36568
36574
36573
36572
36586
36584
36594
36596
36596
36594
36600
36608
36616
36604
36608
36612
36612
36616
36632
36620
36626
36626
36632
36639
36640
36642
36644
36648
36649
36664
36660
36668
36661
36672
36678
36681
36676
36677
36684
36684
36689
36704
36710
36696
36708
36708
36711
36720
36718
36730
36737
36740
36744
36748
36745
36760
36756
36758
36764
36761
36768
36774
36775
36785
36797
36796
36793
36796
36800
36806
36820
36824
36828
36837
36836
36849
36842
36849
36846
36855
36860
36860
36861
36877
36884
36885
36892
36906
36900
36912
36916
36916
36917
36928
36929
36928
36936
36948
36956
36952
36964
36964
36967
36975
36976
36974
36984
36992
36993
37006
37009
37008
37012
37021
37020
37030
37033
37038
37044
37044
37044
37048
37056
37064
37073
37080
37084
37078
37090
37081
37088
37102
37092
37104
37112
37113
37116
37120
37124
37120
37129
37140
37144
37148
37156
37160
37156
37166
37168
37176
37183
37176
37188
37189
37190
37200
37204
37205
37212
37216
37222
37225
37220
37232
37249
37254
37246
37255
37263
37265
37274
37268
37285
37284
37288
37292
37292
37300
37300
37302
37316
37314
37316
37319
37319
37320
37320
37328
37328
37332
37336
37351
37350
37352
37349
37354
37356
37364
37368
37374
37376
37372
37376
37388
37385
37388
37392
37396
37400
37400
37409
37408
37412
37412
37415
37418
37421
37427
37426
37432
37440
37440
37445
37436
37449
37445
37452
37455
37460
37454
37460
37462
37468
37468
37470
37476
37473
37477
37482
37482
37478
37484
37500
37484
37496
37498
37496
37500
37502
37498
37508
37500
37508
37516
37511
37516
37513
37512
37510
37518
37524
37521
37520
37524
37520
37525
37532
37537
37540
37532
37533
37544
37534
37540
37540
37548
37540
37550
37545
37549
37544
37548
37548
37553
37560
37556
37560
37560
37561
37553
37557
37564
37554
37563
37572
37568
37560
37568
37568
37572
37569
37576
37576
37572
37576
37575
37572
37576
37576
37576
37580
37588
37583
37578
37583
37584
37582
37588
37590
37584
37588
37590
37591
37588
37590
37596
37604
37598
37588
37601
37600
37598
37592
37599
37600
37596
37604
37600
37602
37598
37596
37612
37604
37604
37600
37600
37604
37600
37606
37612
37600
37614
37601
37601
37604
37608
37604
37609
37614
37604
37604
37612
37604
37604
37612
37602
37606
37612
37608
37605
37600
37600
37606
37604
37598
37606
37608
37601
37602
37600
37600
37596
37602
37596
37592
37592
37596
37592
37590
37596
37582
37592
37588
37583
37592
37589
37592
37582
37591
37581
37582
37584
37572
37580
37581
37582
37581
37580
37572
37584
37569
37572
37566
37574
37569
37570
37570
37572
37560
37564
37574
37564
37562
37553
37564
37552
37564
37564
37562
37558
37548
37552
37556
37556
37544
37546
37544
37540
37545
37540
37540
37540
37538
37536
37544
37535
37541
37540
37532
37532
37538
37524
37537
37524
37524
37534
37532
37520
37532
37525
37532
37520
37516
37520
37516
37516
37516
37510
37516
37506
37516
37509
37508
37510
37512
37489
37500
37509
37500
37500
37498
37485
37495
37476
37484
37488
37484
37484
37479
37476
37476
37469
37476
37461
37464
37452
37454
37456
37450
37450
37442
37440
37430
37434
37430
37432
37420
37426
37416
37413
37412
37400
37406
37408
37404
37396
37391
37380
37376
37376
37368
37368
37366
37362
37364
37352
37348
37352
37348
37342
37329
37336
37332
37324
37320
37328
37310
37314
37304
37308
37298
37296
37285
37290
37288
37288
37281
37276
37268
37270
37264
37254
37248
37252
37252
37248
37249
37247
37238
37244
37229
37229
37231
37224
37222
37228
37209
37212
37224
37208
37202
37208
37196
37191
37192
37180
37188
37178
37176
37176
37165
37157
37154
37156
37152
37154
37146
37128
37142
37132
37127
37128
37125
37117
37112
37124
37110
37108
37104
37100
37100
37094
37085
37090
37080
37084
37076
37078
37078
37058
37068
37060
37060
37056
37052
37058
37050
37048
37036
37045
37029
37029
37024
37028
37020
37004
37008
37006
37013
37004
37000
36999
36996
36989
36984
36988
36980
36972
36976
36961
36967
36967
36956
36950
36949
36944
36944
36938
36929
36928
36924
36912
36911
36912
36910
36900
36898
36892
36894
36896
36894
36880
36879
36872
36879
36864
36852
36852
36848
36860
36839
36844
36840
36830
36830
36825
36820
36824
36806
36804
36801
36804
36804
36785
36780
36774
36780
36767
36756
36764
36748
36748
36748
36728
36724
36721
36712
36709
36708
36704
36686
36684
36688
36670
36668
36660
36660
36655
36644
36638
36638
36626
36612
36624
36612
36608
36599
36600
36586
36592
36582
36578
36580
36572
36564
36564
36554
36551
36549
36540
36546
36536
36534
36534
36524
36524
36520
36516
36508
36500
36508
36500
36492
36501
36484
36484
36485
36476
36470
36470
36466
36457
36452
36450
36452
36448
36459
36444
36438
36440
36425
36416
36416
36410
36396
36404
36393
36389
36380
36376
36364
36358
36350
36350
36341
36332
36321
36316
36306
36304
36288
36292
36280
36263
36254
36252
36248
36225
36223
36212
36207
36193
36190
36177
36166
36156
36144
36141
36124
36116
36110
36108
36086
36079
36070
36060
36044
36048
36028
36024
36004
36002
35988
35976
35972
35966
35956
35940
35934
35932
35912
35908
35884
35877
35864
35856
35840
35832
35812
35798
35802
35785
35776
35768
35752
35743
35726
35716
35712
35708
35690
35684
35670
35662
35648
35645
35639
35624
35612
35604
35598
35585
35572
35573
35556
35552
35540
35524
35521
35518
35500
35508
35488
35476
35465
35460
35460
35440
35439
35432
35416
35407
35400
35397
35396
35386
35370
35368
35361
35353
35348
35340
35329
35320
35320
35300
35296
35286
35281
35284
35270
35266
35254
35258
35236
35233
35224
35212
35212
35215
35188
35188
35188
35178
35168
35164
35146
35141
35148
35136
35124
35128
35116
35104
35093
35094
35084
35080
35068
35060
35060
35046
35044
35028
35028
35016
35013
35014
35004
34990
34992
34976
34976
34968
34962
34954
34944
34942
34932
34928
34924
34910
34904
34896
34896
34895
34884
34880
34868
34864
34855
34858
34844
34832
34844
34832
34815
34812
34804
34812
34794
34784
34776
34768
34766
34772
34754
34746
34744
34740
34732
34724
34710
34700
34704
34692
34692
34688
34673
34676
34668
34669
34664
34658
34659
34656
34642
34639
34636
34628
34628
34620
34622
34616
34608
34612
34609
34600
34596
34594
34578
34580
34580
34576
34572
34560
34552
34549
34535
34536
34529
34524
34510
34512
34504
34500
34498
34486
34482
34476
34476
34468
34458
34456
34452
34444
34446
34436
34428
34420
34426
34416
34407
34404
34404
34400
34393
34389
34393
34380
34374
34377
34369
34358
34364
34357
34348
34348
34348
34336
34337
34332
34333
34326
34311
34314
34318
34312
34301
34308
34304
34301
34302
34290
34288
34284
34278
34276
34272
34274
34276
34268
34257
34262
34260
34254
34254
34256
34248
34248
34241
34244
34236
34232
34225
34232
34228
34228
34222
34216
34216
34209
34206
34215
34206
34204
34202
34200
34204
34196
34193
34196
34188
34185
34189
34188
34173
34180
34191
34180
34174
34164
34168
34180
34168
34163
34167
34158
34156
34152
34152
34152
34156
34144
34144
34144
34137
34134
34134
34136
34128
34124
34120
34117
34124
34116
34110
34116
34101
34096
34101
34100
34088
34092
34084
34080
34084
34069
34072
34061
34060
34066
34059
34056
34036
34056
34036
34036
34036
34032
34026
34020
34028
34022
34020
34012
33996
34008
33992
33998
33994
33988
33988
33984
33990
33976
33976
33976
33967
33972
33956
33956
33960
33956
33948
33946
33936
33941
33940
33932
33930
33929
33924
33924
33916
33923
33913
33908
33901
33897
33896
33889
33888
33890
33880
33884
33881
33876
33869
33868
33872
33856
33858
33863
33857
33856
33845
33840
33841
33840
33832
33828
33832
33821
33818
33820
33804
33812
33809
33794
33791
33795
33797
33788
33788
33784
33781
33772
33776
33766
33772
33760
33759
33757
33761
33756
33745
33748
33740
33740
33734
33724
33732
33732
33726
33720
33724
33710
33709
33710
33706
33696
33706
33690
33686
33700
33688
33676
33672
33676
33671
33670
33665
33660
33664
33652
33647
33636
33636
33639
33632
33620
33632
33618
33609
33609
33607
33600
33596
33588
33582
33580
33573
33581
33572
33568
33556
33556
33556
33541
33540
33534
33525
33520
33526
33506
33508
33506
33492
33500
33496
33482
33482
33478
33468
33468
33456
33444
33444
33445
33436
33430
33422
33422
33420
33408
33412
33396
33396
33392
33383
33381
33380
33368
33372
33360
33352
33344
33348
33336
33335
33326
33324
33316
33316
33303
33300
33292
33288
33282
33277
33272
33262
33264
33257
33253
33240
33232
33223
33232
33220
33216
33204
33204
33196
33188
33184
33172
33166
33168
33160
33155
33152
33144
33132
33136
33124
33118
33121
33104
33108
33088
33092
33085
33075
33070
33060
33057
33049
33050
33040
33036
33028
33024
33014
33010
33004
32989
32982
32976
32973
32968
32961
32953
32952
32940
32934
32924
32918
32916
32904
32896
32888
32886
32880
32873
32869
32852
32852
32841
32832
32824
32820
32821
32808
32799
32788
32790
32785
32772
32760
32758
32746
32740
32724
32724
32724
32709
32694
32694
32688
32680
32672
32660
32662
32649
32638
32631
32628
32612
32620
32612
32588
32588
32588
32574
32568
32564
32551
32544
32536
32538
32524
32529
32516
32504
32502
32492
32484
32495
32480
32473
32464
32468
32450
32452
32449
32441
32428
32423
32420
32409
32409
32392
32388
32380
32372
32372
32356
32356
32340
32340
32328
32313
32314
32302
32292
32288
32274
32265
32248
32248
32244
32232
32217
32212
32204
32180
32177
32169
32156
32152
32132
32128
32117
32105
32100
32094
32078
32072
32062
32054
32048
32040
32032
32020
32022
32016
32000
31984
31988
31972
31972
31962
31956
31952
31940
31940
31936
31932
31924
31910
31914
31910
31908
31893
31894
31892
31888
31881
31876
31876
31869
31860
31860
31860
31848
31846
31836
31833
31829
31824
31816
31808
31808
31801
31793
31792
31784
31768
31769
31769
31756
31744
31740
31734
31725
31720
31712
31702
31700
31684
31687
31670
31664
31658
31654
31648
31644
31639
31630
31618
31620
31599
31599
31592
31584
31582
31572
31564
31565
31552
31550
31552
31532
31528
31525
31517
31503
31504
31492
31492
31482
31476
31472
31456
31448
31445
31438
31424
31420
31408
31401
31398
31396
31373
31372
31372
31360
31348
31344
31330
31328
31324
31311
31308
31292
31280
31272
31264
31254
31252
31249
31228
31232
31213
31210
31205
31192
31194
31180
31170
31156
31156
31140
31140
31124
31128
31112
31106
31100
31088
31090
31076
31072
31057
31058
31048
31044
31028
31022
31020
31009
31004
31000
30989
30972
30970
30967
30958
30948
30941
30928
30932
30916
30912
30908
30906
30892
30888
30876
30868
30862
30852
30852
30851
30829
30839
30834
30815
30812
30812
30804
30788
30788
30782
30775
30768
30768
30760
30756
30746
30740
30732
30726
30716
30709
30709
30709
30700
30686
30688
30684
30678
30666
30662
30652
30655
30647
30628
30630
30628
30622
30612
30616
30602
30604
30594
30591
30585
30580
30572
30564
30552
30551
30548
30542
30544
30543
30532
30512
30511
30520
30504
30494
30488
30496
30484
30472
30469
30469
30457
30452
30444
30444
30436
30430
30428
30416
30416
30410
30404
30400
30388
30390
30378
30377
30378
30369
30364
30352
30356
30348
30343
30342
30330
30326
30324
30316
30316
30314
30306
30304
30294
30300
30286
30284
30279
30272
30272
30272
30264
30268
30260
30256
30253
30240
30240
30242
30231
30236
30230
30228
30212
30216
30208
30197
30190
30181
30180
30172
30164
30169
30152
30140
30137
30138
30134
30124
30117
30110
30109
30104
30098
30086
30080
30076
30072
30072
30061
30060
30059
30054
30048
30044
30042
30038
30036
30028
30025
30025
30029
30020
30021
30012
30008
30006
29998
30008
30000
29996
29996
29990
29988
29994
29992
29978
29980
29968
29966
29970
29956
29964
29942
29953
29936
29940
29932
29936
29932
29932
29928
29922
29920
29904
29912
29904
29903
29900
29892
29892
29892
29888
29884
29877
29876
29870
29865
29863
29868
29856
29855
29856
29852
29840
29844
29832
29837
29826
29825
29824
29822
29812
29815
29810
29804
29796
29796
29793
29785
29798
29784
29782
29774
29772
29768
29760
29760
29752
29752
29744
29744
29737
29736
29721
29729
29728
29710
29708
29711
29702
29694
29690
29692
29680
29677
29672
29670
29672
29652
29650
29647
29648
29650
29638
29624
29636
29620
29616
29606
29604
29605
29596
29585
29589
29580
29580
29572
29572
29562
29564
29550
29544
29537
29532
29532
29522
29516
29510
29511
29496
29493
29481
29484
29476
29477
29472
29464
29458
29457
29456
29444
29444
29434
29428
29424
29416
29414
29408
29404
29396
29392
29398
29382
29380
29380
29375
29372
29356
29362
29348
29346
29344
29329
29332
29325
29324
29324
29309
29308
29302
29300
29292
29284
29281
29281
29276
29272
29268
29263
29260
29252
29251
29244
29248
29230
29222
29221
29220
29218
29210
29213
29209
29200
29190
29196
29183
29178
29176
29164
29160
29161
29164
29156
29148
29144
29144
29136
29129
29126
29124
29119
29111
29110
29100
29101
29092
29089
29092
29080
29076
29065
29065
29068
29068
29056
29059
29048
29034
29036
29032
29028
29030
29020
29020
29016
29020
29004
28996
29004
28996
28997
28982
28980
28976
28975
28976
28956
28957
28960
28956
28950
28944
28944
28940
28938
28937
28924
28924
28914
28922
28920
28916
28908
28901
28901
28900
28894
28887
28892
28878
28876
28875
28870
28860
28866
28860
28860
28856
28847
28846
28840
28837
28837
28836
28828
28826
28820
28820
28812
28820
28813
28808
28800
28806
28798
28785
28785
28783
28780
28780
28777
28772
28769
28761
28761
28762
28759
28753
28752
28745
28741
28740
28740
28736
28730
28724
28732
28719
28713
28712
28702
28706
28705
28703
28696
28696
28689
28686
28688
28677
28673
28672
28676
28660
28662
28656
28660
28648
28636
28645
28639
28632
28633
28636
28636
28624
28620
28619
28612
28608
28612
28612
28593
28592
28592
28596
28581
28583
28580
28572
28572
28572
28568
28566
28560
28549
28551
28556
28542
28533
28533
28534
28534
28530
28521
28516
28510
28512
28509
28496
28508
28492
28488
28486
28484
28482
28474
28476
28472
28472
28461
28456
28456
28450
28446
28444
28436
28429
28436
28426
28428
28424
28416
28412
28412
28402
28408
28406
28401
28394
28388
28388
28388
28384
28374
28373
28364
28368
28363
28360
28365
28362
28356
28352
28353
28344
28353
28348
28348
28340
28325
28334
28337
28324
28327
28324
28328
28321
28321
28322
28318
28316
28318
28309
28316
28305
28304
28310
28301
28308
28304
28296
28301
28288
28293
28289
28288
28286
28285
28276
28280
28276
28272
28272
28264
28260
28260
28258
28253
28254
28240
28238
28236
28228
28234
28224
28218
28208
28208
28204
28204
28198
28190
28185
28170
28169
28174
28162
28152
28140
28141
28138
28134
28132
28128
28118
28112
28112
28106
28098
28096
28100
28096
28092
28089
28084
28089
28084
28088
28086
28089
28088
28081
28092
28085
28092
28088
28096
28095
28094
28094
28095
28104
28100
28108
28104
28113
28114
28104
28112
28129
28118
28124
28124
28128
28118
28130
28138
28126
28130
28135
28125
28129
28124
28130
28136
28130
28128
28130
28128
28126
28132
28128
28122
28121
28124
28120
28108
28116
28126
28112
28118
28112
28106
28112
28110
28110
28107
28112
28106
28108
28106
28111
28105
28108
28111
28110
28110
28104
28109
28105
28104
28098
28104
28102
28105
28104
28102
28106
28104
28100
28102
28101
28094
28098
28096
28096
28097
28090
28095
28096
28090
28084
28086
28088
28085
28080
28080
28072
28082
28078
28078
28082
28072
28079
28074
28070
28072
28070
28072
28070
28065
28064
28065
28065
28065
28064
28056
28058
28061
28058
28060
28052
28056
28052
28058
28054
28056
28058
28057
28056
28052
28054
28052
28060
28056
28056
28052
28060
28060
28066
28061
28061
28064
28062
28061
28065
28064
28064
28057
28069
28067
28063
28066
28072
28068
28068
28067
28068
28072
28074
28078
28080
28076
28076
28084
28085
28084
28090
28096
28096
28094
28096
28092
28100
28100
28110
28108
28106
28108
28112
28112
28121
28116
28120
28128
28134
28132
28130
28134
28136
28142
28144
28148
28152
28150
28153
28160
28167
28172
28170
28173
28184
28177
28177
28173
28184
28196
28186
28193
28198
28196
28213
28204
28212
28208
28214
28220
28223
28228
28228
28232
28233
28240
28241
28247
28244
28260
28252
28260
28264
28264
28264
28276
28276
28272
28282
28296
28285
28292
28301
28296
28302
28308
28305
28316
28312
28320
28324
28332
28332
28340
28335
28342
28344
28346
28354
28356
28352
28360
28364
28373
28370
28384
28384
28388
28393
28396
28409
28408
28414
28422
28414
28420
28426
28432
28438
28432
28440
28436
28441
28444
28452
28452
28449
28453
28460
28458
28462
28464
28464
28466
28468
28476
28478
28478
28484
28490
28494
28492
28487
28494
28500
28502
28508
28506
28516
28521
28520
28530
28528
28532
28532
28548
28542
28548
28555
28561
28565
28566
28574
28580
28577
28588
28589
28588
28601
28596
28606
28608
28609
28616
28626
28628
28628
28628
28641
28644
28640
28647
28654
28660
28662
28664
28668
28672
28676
28680
28679
28688
28700
28698
28701
28702
28706
28705
28713
28724
28732
28728
28733
28740
28740
28748
28748
28756
28758
28761
28768
28770
28780
28792
28782
28796
28801
28808
28804
28807
28812
28821
28828
28826
28834
28840
28844
28845
28844
28856
28860
28864
28872
28876
28888
28892
28894
28900
28902
28905
28912
28916
28920
28920
28924
28924
28933
28932
28936
28952
28951
28952
28956
28951
28970
28968
28972
28980
28972
28978
28984
28980
28988
28994
28993
29000
28993
29002
29004
29012
29016
29008
29017
29024
29024
29026
29028
29024
29028
29030
29031
29030
29038
29040
29038
29043
29039
29045
29046
29048
29049
29052
29056
29055
29057
29062
29060
29066
29064
29068
29076
29072
29076
29068
29069
29074
29080
29076
29084
29088
29092
29085
29092
29093
29088
29106
29104
29097
29104
29104
29110
29108
29108
29114
29120
29121
29118
29120
29121
29129
29124
29132
29138
29144
29134
29136
29144
29144
29152
29156
29153
29157
29156
29160
29168
29168
29162
29168
29169
29174
29170
29180
29176
29187
29188
29188
29192
29197
29196
29199
29198
29200
29208
29209
29208
29218
29220
29214
29213
29221
29220
29224
29224
29226
29224
29231
29232
29240
29238
29248
29240
29246
29248
29252
29252
29252
29254
29266
29261
29260
29276
29276
29272
29270
29272
29284
29276
29284
29280
29286
29290
29284
29284
29294
29284
29296
29294
29293
29300
29298
29300
29294
29310
29310
29308
29308
29316
29309
29316
29314
29316
29324
29319
29320
29326
29326
29329
29334
29326
29330
29338
29340
29340
29346
29349
29348
29344
29346
29360
29350
29356
29358
29364
29368
29364
29368
29364
29378
29372
29376
29381
29382
29382
29386
29392
29396
29393
29404
29398
29402
29404
29412
29420
29416
29416
29424
29414
29420
29424
29424
29432
29434
29436
29440
29442
29432
29454
29448
29452
29456
29456
29457
29461
29464
29468
29468
29476
29473
29468
29488
29480
29484
29497
29485
29492
29488
29494
29504
29504
29509
29516
29514
29519
29518
29524
29524
29532
29532
29536
29534
29538
29544
29548
29556
29561
29553
29552
29556
29569
29568
29574
29574
29580
29582
29582
29580
29588
29588
29600
29596
29598
29612
29608
29612
29608
29608
29613
29614
29623
29628
29620
29624
29632
29636
29632
29641
29640
29650
29652
29652
29656
29657
29660
29660
29661
29668
29671
29664
29669
29679
29684
29682
29684
29676
29685
29688
29688
29696
29694
29700
29697
29702
29702
29708
29714
29716
29710
29716
29716
29714
29719
29714
29722
29724
29732
29732
29732
29732
29739
29732
29740
29738
29744
29741
29751
29754
29750
29757
29764
29756
29772
29769
29772
29777
29777
29778
29784
29782
29780
29792
29793
29792
29793
29796
29797
29801
29808
29812
29802
29816
29804
29808
29806
29816
29812
29820
29814
29822
29816
29823
29820
29822
29826
29820
29828
29820
29832
29826
29828
29833
29828
29824
29824
29822
29816
29820
29824
29825
29829
29822
29812
29818
29816
29814
29816
29812
29812
29808
29814
29808
29809
29808
29814
29813
29815
29820
29820
29820
29820
29828
29836
29828
29828
29836
29846
29850
29848
29856
29862
29862
29868
29880
29885
29894
29900
29896
29908
29904
29916
29920
29924
29932
29936
29940
29948
29960
29962
29964
29973
29976
29972
29976
29984
29992
30000
30000
30000
30012
30016
30010
30014
30018
30020
30026
30028
30029
30031
30028
30038
30036
30040
30052
30048
30049
30056
30060
30058
30060
30065
30068
30073
30072
30072
30080
30084
30080
30092
30092
30089
30097
30096
30098
30102
30101
30108
30108
30104
30112
30106
30108
30116
30120
30116
30114
30116
30114
30124
30116
30116
30120
30124
30124
30120
30117
30124
30119
30112
30116
30117
30120
30116
30116
30116
30112
30116
30112
30100
30104
30116
30100
30106
30096
30092
30097
30096
30094
30096
30090
30098
30090
30092
30100
30088
30088
30082
30092
30086
30085
30090
30088
30088
30081
30082
30086
30086
30088
30080
30081
30084
30084
30084
30072
30076
30073
30084
30076
30082
30078
30076
30072
30076
30077
30066
30073
30077
30070
30072
30068
30077
30079
30064
30074
30080
30078
30074
30081
30077
30076
30070
30080
30076
30068
30082
30082
30081
30084
30080
30078
30086
30079
30084
30088
30082
30084
30092
30092
30092
30092
30090
30094
30096
30104
30108
30104
30100
30108
30117
30112
30117
30118
30111
30122
30128
30128
30116
30128
30129
30136
30128
30137
30136
30136
30140
30139
30145
30148
30146
30152
30157
30152
30156
30158
30160
30164
30176
30172
30172
30180
30182
30180
30180
30186
30190
30188
30200
30196
30210
30199
30197
30208
30214
30216
30212
30218
30223
30232
30236
30232
30240
30236
30242
30242
30253
30244
30252
30262
30266
30268
30278
30276
30276
30286
30292
30288
30292
30296
30296
30308
30316
30309
30324
30332
30336
30336
30340
30344
30341
30353
30345
30348
30364
30360
30368
30369
30372
30380
30372
30376
30382
30389
30386
30392
30394
30392
30404
30399
30406
30404
30408
30408
30417
30416
30420
30425
30436
30430
30438
30436
30440
30452
30450
30468
30468
30468
30476
30479
30488
30489
30488
30498
30505
30502
30514
30515
30522
30528
30530
30535
30536
30543
30544
30550
30556
30554
30565
30562
30572
30573
30580
30581
30584
30590
30588
30597
30604
30612
30615
30616
30621
30620
30616
30628
30625
30633
30633
30636
30648
30634
30649
30656
30656
30660
30670
30672
30678
30682
30684
30681
30689
30692
30694
30696
30702
30696
30706
30713
30710
30720
30716
30732
30732
30728
30730
30732
30738
30748
30749
30746
30749
30760
30756
30764
30758
30762
30761
30772
30772
30780
30780
30772
30782
30784
30786
30784
30797
30790
30798
30789
30807
30798
30800
30806
30801
30812
30815
30812
30808
30812
30816
30812
30816
30812
30816
30820
30815
30825
30820
30823
30820
30817
30822
30820
30820
30831
30824
30831
30826
30825
30831
30826
30831
30836
30830
30833
30832
30836
30836
30834
30834
30836
30845
30844
30848
30840
30844
30847
30852
30856
30844
30848
30853
30852
30862
30856
30860
30858
30856
30860
30861
30864
30868
30874
30871
30876
30878
30882
30879
30884
30882
30888
30888
30885
30894
30897
30888
30900
30901
30912
30902
30908
30912
30910
30908
30906
30920
30920
30924
30920
30924
30922
30928
30922
30927
30928
30926
30936
30937
30932
30932
30937
30944
30946
30946
30944
30948
30948
30950
30948
30948
30950
30954
30956
30958
30958
30968
30958
30964
30968
30964
30969
30974
30966
30974
30972
30972
30973
30984
30974
30985
30972
30976
30976
30987
30980
30988
30988
30992
30981
30993
30984
30988
30984
30998
30993
30991
31003
31009
31001
31008
31006
31005
31004
31008
31016
31016
31016
31016
31012
31012
31012
31021
31022
31017
31025
31029
31025
31024
31021
31024
31026
31030
31028
31032
31034
31033
31036
31040
31038
31036
31044
31038
31052
31049
31044
31049
31052
31040
31052
31049
31056
31056
31061
31055
31054
31060
31056
31062
31060
31064
31062
31060
31064
31068
31068
31060
31072
31076
31075
31072
31074
31077
31076
31076
31072
31082
31076
31072
31084
31082
31076
31076
31086
31088
31092
31088
31086
31084
31092
31089
31095
31089
31095
31096
31093
31095
31100
31102
31104
31097
31108
31102
31116
31100
31108
31108
31112
31108
31112
31108
31108
31112
31118
31112
31124
31120
31121
31124
31125
31136
31128
31140
31136
31127
31132
31133
31138
31132
31141
31140
31148
31148
31148
31157
31148
31148
31157
31156
31152
31160
31159
31160
31156
31160
31172
31168
31172
31172
31172
31176
31176
31184
31177
31185
31192
31188
31190
31194
31194
31197
31204
31204
31198
31201
31204
31205
31207
31206
31206
31215
31210
31220
31214
31221
31222
31225
31221
31226
31233
31237
31237
31236
31230
31240
31244
31240
31244
31260
31252
31253
31255
31264
31262
31262
31273
31268
31272
31277
31276
31284
31290
31292
31304
31296
31296
31300
31316
31316
31314
31328
31330
31335
31332
31350
31354
31350
31365
31368
31368
31380
31385
31400
31396
31412
31412
31423
31424
31429
31433
31446
31441
31452
31472
31470
31472
31472
31492
31489
31500
31506
31509
31517
31528
31528
31532
31532
31548
31550
31553
31556
31562
31562
31572
31574
31580
31590
31598
31601
31606
31604
31601
31610
31614
31636
31627
31636
31636
31638
31653
31650
31656
31656
31657
31668
31668
31680
31684
31684
31692
31700
31700
31718
31718
31721
31729
31745
31740
31764
31766
31772
31789
31796
31811
31808
31824
31836
31848
31852
31868
31880
31890
31902
31917
31932
31942
31951
31964
31972
31984
31993
32012
32024
32034
32044
32064
32078
32088
32104
32108
32128
32140
32148
32158
32168
32176
32191
32208
32216
32227
32241
32260
32253
32272
32284
32296
32308
32316
32336
32341
32348
32373
32369
32390
32398
32412
32423
32437
32447
32452
32464
32479
32487
32505
32512
32527
32540
32548
32565
32576
32584
32597
32612
32624
32636
32649
32660
32676
32684
32693
32704
32720
32724
32742
32744
32761
32768
32780
32784
32806
32809
32833
32833
32852
32854
32864
32878
32884
32892
32904
32924
32922
32930
32938
32958
32964
32972
32992
32992
33004
33007
33021
33030
33045
33056
33060
33066
33076
33096
33100
33112
33124
33129
33140
33152
33160
33174
33182
33185
33196
33208
33224
33231
33240
33252
33260
33270
33278
33292
33300
33320
33321
33348
33342
33358
33365
33373
33392
33407
33408
33422
33428
33440
33456
33474
33476
33492
33496
33520
33524
33534
33548
33560
33560
33576
33593
33602
33612
33632
33636
33658
33656
33670
33677
33692
33702
33721
33720
33740
33748
33764
33772
33784
33804
33812
33814
33835
33847
33859
33870
33884
33897
33906
33916
33932
33940
33948
33966
33974
33984
33990
34006
34014
34030
34031
34053
34057
34068
34084
34100
34118
34116
34132
34145
34152
34164
34180
34188
34192
34204
34220
34236
34236
34252
34266
34274
34284
34294
34310
34314
34330
34337
34348
34356
34368
34381
34384
34394
34414
34418
34428
34440
34445
34456
34472
34480
34496
34497
34512
34524
34528
34551
34548
34572
34572
34584
34596
34604
34614
34624
34644
34660
34661
34677
34680
34700
34704
34716
34724
34736
34744
34754
34768
34772
34784
34794
34806
34805
34816
34836
34840
34852
34856
34872
34868
34892
34892
34902
34909
34912
34926
34940
34944
34952
34964
34974
34980
34980
34992
35012
35020
35025
35028
35044
35056
35060
35072
35080
35092
35117
35118
35132
35140
35149
35160
35176
35185
35196
35204
35222
35220
35228
35241
35254
35261
35269
35284
35293
35302
35314
35324
35340
35336
35361
35360
35380
35377
35384
35400
35408
35426
35424
35440
35442
35445
35452
35472
35472
35488
35495
35504
35524
35524
35532
35540
35551
35548
35557
35574
35576
35581
35584
35604
35612
35614
35628
35628
35644
35644
35654
35670
35672
35678
35694
35700
35702
35716
35722
35724
35734
35740
35745
35758
35766
35772
35794
35792
35796
35813
35812
35820
35830
35846
35852
35868
35870
35870
35872
35887
35896
35893
35912
35924
35926
35924
35934
35948
35956
35964
35972
35976
35984
35998
36000
36004
36016
36012
36032
36034
36040
36048
36052
36064
36078
36076
36095
36105
36110
36116
36114
36124
36130
36137
36144
36156
36162
36162
36172
36180
36184
36194
36196
36208
36214
36232
36224
36224
36236
36244
36260
36254
36278
36276
36284
36284
36290
36300
36304
36308
36320
36332
36332
36344
36348
36348
36356
36366
36372
36368
36388
36392
36398
36396
36412
36416
36420
36436
36432
36444
36444
36460
36457
36456
36464
36464
36481
36486
36492
36496
36504
36508
36520
36521
36524
36538
36528
36544
36544
36554
36552
36566
36570
36576
36580
36584
36599
36600
36604
36604
36624
36616
36628
36636
36638
36640
36642
36660
36666
36673
36674
36680
36680
36686
36692
36704
36704
36704
36711
36726
36719
36724
36736
36753
36748
36758
36752
36764
36776
36784
36783
36785
36796
36792
36802
36805
36810
36816
36822
36826
36838
36831
36852
36852
36856
36872
36868
36878
36888
36884
36896
36900
36908
36908
36917
36909
36932
36934
36940
36952
36952
36956
36960
36980
36982
36984
36992
36998
37006
37012
37004
37028
37024
37034
37040
37049
37044
37061
37060
37064
37072
37076
37082
37089
37104
37108
37118
37120
37124
37126
37136
37140
37140
37148
37156
37164
37172
37173
37181
37192
37184
37207
37205
37204
37210
37225
37220
37232
37232
37240
37248
37252
37260
37264
37257
37268
37269
37284
37289
37289
37297
37304
37314
37313
37312
37328
37322
37326
37336
37340
37342
37344
37360
37360
37364
37376
37384
37392
37396
37396
37408
37410
37406
37412
37423
37420
37432
37432
37442
37444
37440
37456
37464
37464
37470
37476
37484
37482
37484
37495
37496
37510
37504
37512
37512
37530
37524
37536
37540
37541
37542
37556
37553
37556
37560
37568
37568
37572
37578
37584
37588
37592
37592
37588
37597
37609
37608
37622
37628
37624
37622
37628
37620
37632
37640
37640
37656
37654
37666
37660
37668
37660
37664
37669
37680
37684
37678
37680
37692
37696
37704
37705
37712
37702
37712
37717
37704
37724
37731
37729
37735
37732
37732
37732
37744
37744
37745
37750
37760
37758
37764
37766
37765
37765
37774
37788
37772
37783
37792
37796
37797
37796
37796
37805
37809
37808
37821
37816
37816
37836
37829
37832
37830
37848
37852
37852
37856
37862
37860
37860
37868
37873
37872
37870
37888
37876
37884
37900
37888
37896
37904
37900
37916
37912
37918
37921
37922
37925
37925
37928
37931
37937
37941
37938
37944
37954
37948
37952
37952
37950
37948
37956
37957
37956
37952
37952
37964
37956
37961
37966
37960
37960
37960
37964
37964
37964
37974
37967
37964
37972
37972
37972
37968
37980
37968
37978
37986
37980
37988
37991
37996
37984
37996
38002
38008
38008
38004
38004
38008
38009
38008
38020
38020
38020
38028
38032
38036
38032
38036
38030
38048
38044
38052
38046
38052
38056
38056
38056
38060
38064
38068
38068
38065
38076
38077
38072
38076
38077
38080
38089
38086
38084
38088
38080
38090
38088
38085
38094
38088
38093
38084
38092
38089
38094
38088
38082
38092
38092
38088
38088
38088
38088
38097
38090
38088
38092
38094
38088
38084
38086
38092
38085
38085
38092
38084
38078
38088
38088
38084
38080
38082
38082
38084
38080
38072
38072
38072
38072
38072
38066
38064
38068
38068
38060
38063
38056
38052
38047
38056
38052
38046
38047
38046
38048
38044
38043
38039
38036
38032
38046
38032
38020
38024
38028
38023
38016
38020
38024
38008
38017
38026
38016
38013
38016
38016
38012
38008
38013
38008
38013
38000
38005
38007
38004
38003
38004
38004
37998
38008
37996
38007
37994
38000
38000
38004
38004
37998
37992
38004
37994
37998
37996
37996
38000
37992
37992
37997
37992
37988
37994
37999
37997
37992
37993
38004
37996
37996
37999
37996
37997
38000
37990
37996
37996
37990
37999
37992
37993
38000
37999
38000
37990
38000
37999
37992
37996
38000
38000
37992
37998
37997
37996
38004
37990
38004
37999
37990
38004
37988
37996
37996
37989
37991
37997
37996
37996
37993
37996
37992
37989
37998
37992
37992
37989
37990
37992
37986
37990
37990
37992
37988
37976
37988
37980
37992
37986
37990
37986
37989
37978
37980
37980
37980
37976
37980
37981
37972
37978
37972
37972
37972
37972
37964
37972
37970
37964
37967
37966
37960
37970
37953
37966
37952
37964
37956
37966
37952
37948
37952
37960
37956
37948
37956
37946
37952
37943
37944
37952
37952
37948
37948
37944
37940
37940
37948
37936
37933
37922
37921
37918
37924
37919
37909
37908
37908
37908
37892
37894
37884
37886
37874
37882
37871
37876
37868
37860
37864
37860
37857
37849
37848
37840
37841
37840
37832
37820
37832
37834
37821
37824
37823
37805
37809
37817
37802
37798
37792
37801
37790
37788
37782
37781
37784
37774
37772
37768
37770
37758
37753
37772
37756
37756
37740
37732
37744
37732
37732
37730
37724
37719
37720
37724
37705
37704
37700
37697
37690
37684
37688
37684
37678
37668
37680
37668
37660
37652
37653
37648
37644
37632
37634
37631
37622
37628
37620
37620
37617
37604
37604
37605
37599
37591
37584
37588
37580
37572
37576
37565
37564
37548
37550
37544
37553
37536
37536
37532
37530
37522
37520
37508
37508
37496
37492
37494
37495
37486
37470
37477
37461
37460
37444
37452
37444
37436
37426
37422
37408
37408
37404
37396
37390
37376
37380
37372
37360
37360
37348
37342
37340
37328
37324
37324
37310
37304
37308
37292
37281
37281
37256
37252
37252
37246
37240
37231
37228
37218
37206
37204
37196
37192
37184
37168
37172
37164
37151
37153
37140
37126
37118
37117
37112
37096
37089
37084
37072
37068
37058
37056
37041
37046
37022
37016
37002
37004
36996
36988
36976
36964
36956
36960
36945
36948
36912
36923
36908
36900
36901
36878
36871
36868
36853
36848
36832
36820
36816
36812
36797
36783
36780
36771
36756
36744
36736
36728
36720
36708
36702
36684
36676
36672
36656
36637
36641
36630
36615
36608
36594
36580
36574
36565
36552
36546
36532
36519
36504
36496
36492
36477
36476
36465
36449
36436
36420
36416
36406
36404
36380
36380
36368
36356
36342
36335
36329
36312
36302
36300
36284
36280
36263
36256
36256
36231
36225
36222
36206
36192
36188
36174
36164
36153
36148
36142
36132
36114
36108
36094
36082
36072
36064
36048
36044
36024
36020
36012
36008
35993
35982
35966
35966
35957
35948
35929
35924
35909
35904
35893
35888
35876
35862
35844
35846
35840
35828
35816
35804
35796
35780
35772
35770
35757
35744
35734
35732
35716
35699
35696
35688
35681
35673
35654
35652
35644
35620
35622
35613
35612
35598
35580
35560
35564
35550
35535
35534
35532
35520
35505
35492
35484
35484
35472
35460
35452
35436
35430
35424
35412
35404
35396
35384
35385
35372
35360
35352
35346
35332
35334
35316
35300
35302
35292
35284
35264
35264
35256
35252
35244
35236
35230
35212
35207
35204
35195
35185
35172
35172
35153
35144
35136
35138
35119
35114
35103
35100
35084
35084
35076
35061
35056
35045
35040
35028
35021
35016
35012
34999
34992
34984
34980
34973
34956
34964
34942
34929
34928
34924
34916
34908
34900
34884
34888
34880
34874
34860
34857
34852
34836
34832
34832
34817
34813
34789
34796
34784
34786
34768
34761
34750
34741
34740
34732
34728
34724
34714
34704
34692
34693
34682
34672
34663
34656
34649
34652
34642
34625
34620
34622
34605
34600
34594
34590
34580
34564
34552
34552
34540
34538
34542
34533
34520
34506
34498
34499
34489
34484
34473
34472
34464
34446
34438
34432
34432
34422
34416
34402
34393
34384
34378
34373
34360
34360
34341
34340
34329
34318
34304
34296
34284
34278
34268
34268
34256
34244
34231
34228
34216
34201
34196
34190
34173
34172
34158
34153
34148
34132
34124
34112
34108
34102
34084
34081
34080
34076
34062
34052
34046
34039
34022
34024
34016
34006
33999
34004
33992
33986
33984
33975
33962
33964
33957
33936
33946
33932
33932
33918
33904
33902
33904
33892
33896
33889
33878
33876
33864
33860
33856
33852
33848
33844
33839
33840
33828
33822
33820
33817
33805
33798
33798
33796
33780
33780
33780
33772
33764
33751
33750
33740
33740
33728
33724
33712
33716
33708
33697
33693
33678
33688
33676
33668
33660
33660
33640
33649
33634
33636
33618
33616
33612
33608
33596
33588
33580
33584
33570
33568
33560
33552
33544
33544
33534
33526
33520
33513
33502
33500
33488
33484
33474
33468
33460
33457
33445
33432
33428
33426
33416
33404
33404
33394
33380
33372
33368
33370
33352
33344
33341
33328
33316
33314
33304
33292
33281
33276
33272
33272
33254
33252
33242
33230
33229
33216
33209
33196
33198
33184
33184
33180
33170
33161
33154
33146
33141
33128
33124
33128
33114
33108
33106
33100
33096
33082
33082
33081
33060
33060
33060
33054
33056
33036
33041
33022
33032
33022
33014
33009
33008
33000
32988
32998
32990
32980
32976
32969
32968
32966
32958
32953
32940
32948
32940
32934
32940
32924
32922
32918
32908
32913
32910
32913
32903
32901
32888
32892
32885
32878
32879
32878
32868
32861
32862
32862
32857
32856
32853
32848
32836
32844
32836
32836
32833
32824
32825
32816
32812
32812
32813
32802
32808
32801
32800
32798
32789
32792
32788
32780
32782
32780
32776
32774
32768
32766
32762
32756
32761
32757
32756
32746
32748
32747
32742
32740
32736
32734
32728
32726
32722
32720
32710
32710
32704
32692
32701
32692
32688
32688
32686
32685
32679
32680
32676
32672
32665
32669
32661
32654
32652
32647
32644
32650
32648
32644
32636
32645
32642
32640
32632
32628
32629
32625
32634
32626
32616
32620
32617
32614
32612
32614
32605
32612
32607
32608
32603
32600
32596
32594
32596
32588
32581
32580
32580
32564
32564
32564
32558
32558
32548
32550
32548
32542
32534
32529
32536
32520
32516
32511
32511
32518
32516
32500
32500
32500
32500
32500
32485
32485
32481
32484
32490
32488
32478
32473
32472
32464
32462
32462
32456
32460
32456
32460
32463
32448
32448
32452
32452
32452
32444
32444
32441
32444
32438
32437
32429
32428
32428
32436
32428
32426
32416
32420
32416
32412
32409
32418
32404
32412
32409
32397
32399
32402
32394
32392
32386
32385
32382
32381
32382
32372
32372
32373
32368
32368
32368
32364
32360
32366
32356
32354
32348
32352
32350
32348
32344
32334
32330
32332
32326
32326
32325
32320
32314
32314
32312
32308
32312
32310
32292
32300
32298
32289
32288
32284
32284
32277
32278
32270
32268
32268
32268
32268
32260
32253
32246
32246
32244
32240
32240
32241
32238
32236
32231
32224
32220
32216
32224
32216
32212
32206
32202
32210
32196
32196
32189
32192
32184
32184
32180
32173
32177
32168
32161
32158
32156
32156
32152
32148
32150
32144
32140
32137
32134
32136
32120
32122
32126
32124
32116
32109
32101
32108
32100
32097
32100
32085
32086
32087
32080
32068
32072
32068
32063
32060
32060
32053
32056
32053
32040
32036
32039
32036
32024
32020
32022
32014
32008
32006
31998
31996
31994
31994
31980
31980
31978
31976
31970
31960
31960
31958
31956
31944
31946
31938
31937
31936
31928
31923
31914
31916
31916
31906
31904
31904
31893
31892
31880
31876
31872
31868
31868
31868
31857
31852
31852
31848
31839
31832
31836
31830
31832
31816
31818
31808
31808
31804
31800
31802
31786
31794
31785
31780
31776
31776
31765
31764
31752
31757
31750
31748
31744
31742
31736
31732
31736
31733
31723
31724
31716
31711
31712
31698
31702
31688
31693
31692
31686
31678
31678
31674
31684
31662
31668
31662
31664
31660
31652
31644
31640
31644
31634
31634
31628
31628
31622
31630
31620
31604
31616
31607
31604
31597
31598
31585
31594
31592
31590
31586
31590
31580
31576
31575
31565
31567
31564
31560
31560
31556
31554
31552
31546
31548
31554
31542
31532
31536
31532
31542
31532
31528
31528
31528
31526
31517
31516
31507
31512
31509
31514
31508
31502
31498
31500
31488
31486
31492
31484
31484
31480
31474
31477
31473
31468
31466
31472
31464
31460
31453
31452
31458
31454
31454
31444
31444
31440
31436
31439
31433
31432
31427
31430
31424
31425
31416
31420
31410
31410
31404
31400
31400
31402
31397
31400
31390
31388
31392
31388
31384
31376
31380
31376
31369
31374
31358
31368
31364
31356
31353
31346
31346
31343
31348
31340
31334
31338
31330
31322
31318
31324
31317
31322
31314
31308
31304
31298
31292
31295
31292
31288
31284
31284
31276
31272
31264
31264
31260
31252
31245
31246
31244
31248
31240
31228
31221
31224
31220
31215
31212
31212
31213
31192
31190
31192
31184
31184
31176
31176
31172
31170
31164
31159
31156
31156
31149
31149
31145
31144
31136
31132
31132
31133
31114
31124
31112
31113
31104
31108
31108
31100
31095
31105
31097
31092
31082
31080
31079
31080
31068
31076
31070
31064
31065
31052
31052
31044
31044
31033
31030
31032
31020
31018
31008
31004
31000
31004
30990
30988
30975
30974
30968
30966
30956
30945
30945
30942
30938
30932
30912
30916
30905
30909
30888
30888
30879
30876
30868
30858
30852
30850
30845
30832
30825
30823
30814
30810
30808
30804
30799
30792
30792
30784
30781
30784
30772
30773
30770
30780
30768
30764
30758
30756
30761
30762
30756
30760
30744
30752
30756
30749
30748
30748
30745
30741
30744
30744
30740
30736
30740
30724
30732
30720
30726
30726
30718
30720
30716
30708
30704
30701
30698
30695
30694
30696
30692
30686
30677
30680
30668
30668
30672
30658
30658
30656
30658
30652
30641
30647
30641
30637
30630
30637
30628
30630
30616
30620
30612
30608
30608
30598
30609
30601
30596
30596
30592
30596
30588
30586
30586
30577
30573
30568
30572
30569
30557
30556
30552
30550
30544
30543
30528
30529
30528
30510
30513
30516
30508
30500
30487
30488
30484
30484
30481
30465
30466
30464
30456
30454
30452
30440
30433
30433
30430
30424
30416
30404
30404
30399
30400
30388
30393
30388
30382
30382
30370
30364
30360
30362
30352
30352
30357
30350
30340
30342
30336
30340
30339
30336
30332
30320
30316
30324
30308
30320
30309
30313
30304
30300
30297
30292
30296
30292
30294
30285
30288
30284
30280
30284
30272
30276
30272
30256
30272
30261
30271
30264
30260
30260
30256
30253
30256
30253
30252
30248
30244
30248
30244
30244
30238
30232
30244
30236
30239
30236
30236
30236
30232
30228
30232
30220
30224
30225
30221
30217
30214
30212
30214
30206
30208
30208
30204
30204
30200
30202
30190
30194
30196
30192
30192
30188
30192
30184
30182
30184
30184
30174
30172
30174
30170
30172
30165
30170
30172
30161
30158
30168
30165
30154
30164
30150
30153
30156
30153
30148
30149
30149
30146
30148
30148
30142
30138
30140
30140
30142
30140
30128
30132
30129
30128
30126
30128
30124
30128
30124
30124
30124
30124
30112
30116
30120
30113
30108
30116
30109
30112
30112
30110
30116
30118
30115
30102
30102
30108
30112
30110
30116
30116
30116
30119
30120
30114
30116
30112
30117
30112
30116
30116
30108
30104
30105
30110
30108
30113
30105
30100
30108
30105
30104
30102
30092
30098
30100
30094
30096
30095
30100
30096
30090
30096
30100
30092
30092
30100
30090
30105
30094
30094
30100
30101
30088
30102
30106
30104
30100
30105
30108
30104
30116
30106
30109
30112
30113
30120
30117
30116
30117
30124
30116
30132
30121
30116
30120
30122
30130
30120
30134
30134
30126
30129
30134
30133
30133
30136
30134
30137
30132
30138
30142
30143
30148
30142
30143
30148
30148
30146
30142
30150
30152
30149
30148
30156
30154
30157
30158
30160
30162
30165
30164
30164
30167
30164
30172
30180
30172
30172
30174
30176
30168
30175
30174
30180
30175
30180
30184
30180
30182
30188
30180
30181
30186
30184
30196
30188
30184
30185
30192
30196
30190
30192
30197
30192
30195
30202
30192
30200
30196
30197
30190
30197
30206
30204
30202
30196
30197
30196
30197
30200
30200
30204
30198
30200
30200
30202
30200
30204
30200
30198
30204
30200
30194
30193
30201
30196
30198
30198
30194
30196
30199
30196
30190
30190
30198
30188
30188
30192
30188
30196
30196
30184
30190
30174
30191
30178
30180
30184
30176
30184
30180
30186
30188
30180
30180
30176
30184
30180
30185
30183
30184
30181
30173
30178
30185
30177
30176
30176
30189
30180
30186
30182
30182
30180
30188
30178
30188
30196
30181
30188
30181
30194
30188
30192
30186
30188
30188
30184
30188
30191
30184
30196
30192
30196
30192
30198
30200
30205
30202
30208
30202
30200
30204
30206
30205
30206
30212
30215
30208
30209
30210
30216
30220
30225
30228
30220
30228
30233
30224
30226
30237
30224
30241
30234
30240
30230
30232
30240
30244
30232
30240
30242
30256
30252
30247
30252
30258
30252
30256
30246
30253
30254
30258
30265
30260
30268
30264
30260
30274
30274
30274
30272
30270
30276
30272
30272
30272
30277
30272
30282
30281
30280
30294
30286
30296
30296
30292
30292
30292
30292
30286
30296
30297
30288
30296
30298
30288
30292
30300
30297
30306
30295
30296
30296
30300
30301
30304
30308
30309
30309
30304
30310
30306
30306
30306
30316
30312
30308
30312
30312
30312
30325
30316
30314
30318
30312
30319
30324
30320
30320
30321
30320
30324
30316
30325
30332
30328
30322
30324
30320
30332
30324
30332
30324
30325
30332
30328
30332
30324
30328
30332
30332
30334
30330
30330
30336
30332
30329
30332
30336
30337
30340
30340
30340
30343
30342
30340
30344
30343
30344
30340
30352
30352
30349
30354
30356
30351
30363
30352
30349
30360
30364
30363
30364
30364
30367
30372
30366
30372
30369
30372
30376
30376
30376
30374
30382
30380
30376
30389
30387
30391
30384
30383
30390
30386
30384
30396
30396
30400
30398
30404
30402
30400
30404
30400
30408
30408
30412
30411
30412
30412
30408
30408
30415
30416
30413
30412
30413
30420
30420
30428
30429
30434
30428
30426
30428
30439
30432
30441
30433
30440
30442
30438
30452
30441
30452
30452
30446
30454
30454
30460
30465
30464
30462
30472
30468
30469
30469
30480
30476
30484
30488
30488
30492
30496
30500
30496
30502
30508
30506
30505
30502
30522
30512
30516
30522
30528
30520
30528
30532
30532
30529
30530
30532
30536
30541
30538
30536
30536
30548
30542
30540
30540
30552
30541
30544
30545
30548
30551
30546
30544
30548
30545
30548
30544
30546
30540
30537
30545
30540
30537
30540
30536
30532
30530
30532
30521
30532
30532
30524
30520
30529
30528
30532
30528
30538
30530
30537
30532
30530
30538
30539
30552
30544
30556
30551
30565
30566
30567
30572
30580
30585
30586
30596
30604
30608
30608
30612
30614
30628
30629
30645
30636
30644
30645
30656
30662
30660
30666
30672
30686
30680
30689
30692
30692
30696
30692
30696
30692
30712
30700
30708
30708
30710
30720
30716
30724
30718
30724
30726
30730
30726
30734
30728
30732
30736
30736
30732
30740
30744
30746
30740
30745
30746
30745
30742
30756
30752
30761
30761
30750
30758
30756
30764
30763
30758
30766
30760
30764
30764
30758
30760
30756
30764
30760
30759
30766
30764
30760
30760
30753
30752
30752
30754
30748
30753
30754
30746
30740
30744
30741
30738
30734
30732
30730
30728
30733
30728
30726
30720
30720
30717
30716
30705
30708
30708
30708
30705
30700
30702
30708
30692
30694
30702
30700
30689
30694
30692
30692
30692
30692
30686
30689
30689
30686
30686
30685
30680
30688
30684
30687
30680
30684
30684
30686
30684
30676
30682
30680
30680
30676
30678
30684
30677
30672
30684
30684
30688
30692
30692
30688
30684
30686
30690
30692
30684
30692
30693
30696
30700
30700
30692
30697
30700
30708
30700
30705
30706
30709
30718
30716
30717
30720
30724
30721
30720
30732
30734
30732
30728
30736
30736
30745
30744
30743
30748
30752
30757
30756
30757
30756
30764
30759
30772
30780
30778
30780
30784
30796
30794
30790
30796
30796
30800
30804
30806
30808
30810
30815
30818
30812
30820
30824
30832
30828
30825
30840
30836
30841
30840
30848
30856
30850
30853
30862
30864
30868
30864
30874
30868
30872
30882
30880
30892
30888
30886
30892
30896
30897
30896
30900
30912
30921
30918
30918
30917
30922
30917
30930
30929
30934
30942
30944
30944
30956
30948
30955
30960
30968
30970
30972
30974
30980
30980
30982
30980
30996
30992
30996
30993
31008
31008
31008
31010
31009
31012
31015
31018
31022
31016
31020
31040
31030
31038
31036
31036
31042
31036
31052
31042
31050
31050
31054
31060
31060
31060
31066
31072
31076
31076
31084
31084
31077
31098
31095
31108
31098
31108
31102
31116
31116
31127
31132
31135
31132
31135
31139
31148
31148
31145
31148
31162
31168
31166
31170
31180
31184
31182
31188
31194
31197
31204
31199
31205
31208
31210
31217
31220
31224
31233
31233
31239
31245
31246
31252
31254
31260
31259
31268
31276
31274
31280
31285
31288
31292
31292
31304
31308
31306
31310
31318
31320
31329
31332
31340
31340
31348
31348
31356
31361
31364
31366
31377
31370
31380
31390
31396
31388
31400
31406
31408
31410
31422
31420
31429
31440
31433
31444
31450
31456
31442
31457
31461
31464
31464
31468
31478
31492
31481
31489
31496
31496
31500
31508
31508
31499
31516
31520
31516
31516
31529
31530
31533
31536
31548
31538
31542
31548
31548
31552
31556
31554
31566
31564
31572
31574
31572
31572
31572
31588
31586
31588
31588
31593
31596
31598
31593
31602
31612
31605
31614
31616
31625
31628
31631
31628
31632
31628
31638
31646
31648
31644
31652
31654
31660
31661
31662
31674
31666
31683
31685
31684
31681
31692
31688
31704
31695
31708
31712
31708
31726
31716
31724
31730
31734
31748
31745
31747
31748
31757
31766
31760
31760
31772
31774
31773
31780
31792
31796
31800
31801
31800
31812
31812
31816
31816
31831
31827
31830
31838
31836
31846
31848
31857
31852
31860
31876
31870
31878
31876
31881
31888
31890
31900
31906
31902
31905
31912
31919
31920
31921
31928
31929
31934
31940
31940
31949
31949
31952
31954
31960
31965
31968
31970
31975
31977
31988
31985
31990
31994
31996
32012
32012
32014
32014
32016
32036
32036
32040
32036
32044
32050
32056
32060
32058
32065
32064
32074
32084
32079
32088
32092
32093
32102
32104
32117
32110
32120
32124
32125
32132
32134
32142
32149
32149
32160
32160
32168
32166
32168
32176
32180
32181
32182
32188
32196
32206
32204
32206
32220
32228
32225
32222
32228
32232
32246
32242
32240
32249
32252
32256
32256
32261
32266
32272
32278
32284
32284
32288
32296
32300
32296
32300
32308
32308
32313
32320
32316
32318
32328
32326
32332
32340
32340
32340
32346
32345
32356
32352
32353
32360
32356
32366
32372
32364
32376
32376
32380
32388
32388
32390
32390
32394
32392
32404
32407
32399
32412
32412
32415
32428
32421
32424
32428
32441
32440
32438
32446
32449
32452
32456
32459
32462
32460
32462
32472
32476
32480
32486
32488
32502
32485
32488
32496
32502
32504
32508
32512
32514
32524
32524
32528
32525
32533
32538
32546
32537
32538
32544
32550
32552
32551
32552
32557
32556
32560
32570
32561
32572
32574
32578
32585
32581
32586
32589
32584
32590
32588
32593
32596
32601
32604
32608
32608
32612
32616
32613
32608
32612
32622
32616
32628
32615
32628
32621
32636
32624
32632
32636
32641
32638
32647
32642
32652
32644
32644
32647
32648
32657
32662
32660
32660
32664
32665
32669
32660
32668
32675
32671
32676
32672
32684
32692
32684
32696
32695
32700
32694
32700
32704
32706
32700
32712
32705
32717
32714
32720
32716
32712
32721
32726
32724
32724
32735
32728
32732
32736
32729
32740
32737
32734
32733
32742
32738
32748
32740
32740
32741
32740
32741
32738
32736
32744
32736
32736
32736
32732
32733
32742
32728
32724
32732
32729
32726
32732
32722
32718
32713
32716
32712
32708
32708
32708
32708
32701
32701
32704
32690
32689
32699
32696
32694
32692
32699
32696
32688
32703
32696
32700
32700
32700
32696
32704
32713
32716
32716
32710
32712
32724
32721
32724
32724
32743
32736
32740
32740
32744
32752
32751
32750
32756
32760
32766
32768
32767
32775
32772
32781
32770
32781
32780
32780
32784
32783
32783
32789
32788
32782
32780
32782
32785
32791
32792
32788
32792
32782
32788
32793
32786
32790
32784
32784
32791
32790
32781
32788
32784
32790
32792
32797
32784
32788
32788
32794
32793
32792
32790
32788
32792
32786
32780
32791
32791
32782
32778
32781
32782
32773
32775
32774
32776
32770
32768
32767
32764
32760
32760
32751
32750
32750
32750
32746
32742
32732
32732
32736
32724
32720
32724
32710
32714
32713
32712
32710
32697
32692
32694
32684
32685
32680
32672
32677
32660
32656
32652
32654
32642
32644
32644
32634
32639
32630
32634
32624
32614
32617
32615
32612
32604
32612
32596
32603
32591
32588
32592
32578
32582
32581
32572
32568
32574
32566
32562
32561
32566
32548
32556
32550
32544
32547
32537
32538
32540
32536
32532
32536
32528
32522
32526
32529
32526
32524
32526
32532
32520
32516
32512
32520
32518
32524
32517
32516
32520
32516
32516
32516
32529
32520
32525
32528
32524
32531
32532
32521
32537
32532
32548
32536
32541
32542
32540
32545
32552
32548
32564
32561
32564
32557
32571
32577
32578
32580
32576
32580
32586
32592
32588
32588
32596
32606
32608
32606
32621
32614
32630
32628
32636
32624
32637
32642
32646
32648
32660
32666
32664
32676
32676
32682
32685
32688
32689
32689
32701
32700
32706
32709
32710
32718
32724
32732
32730
32740
32745
32742
32756
32756
32760
32766
32769
32780
32780
32794
32796
32802
32804
32810
32812
32821
32835
32840
32841
32852
32854
32868
32868
32876
32888
32896
32902
32908
32908
32920
32927
32932
32936
32954
32956
32964
32964
32964
32972
32978
32992
32996
33004
33008
33009
33016
33024
33022
33044
33040
33060
33061
33070
33084
33087
33092
33100
33113
33117
33124
33142
33136
33150
33153
33173
33172
33188
33200
33204
33210
33224
33244
33244
33250
33261
33272
33276
33284
33296
33304
33316
33320
33334
33340
33352
33361
33364
33376
33389
33389
33404
33412
33420
33431
33436
33449
33461
33460
33476
33484
33485
33501
33502
33513
33520
33532
33535
33552
33556
33566
33574
33584
33598
33596
33609
33620
33624
33638
33645
33652
33656
33672
33684
33694
33700
33710
33713
33734
33732
33740
33748
33761
33776
33772
33797
33799
33808
33820
33830
33839
33848
33852
33864
33879
33888
33901
33908
33916
33930
33940
33953
33956
33972
33967
33988
34004
34010
34016
34022
34044
34045
34060
34063
34080
34093
34100
34104
34114
34124
34132
34146
34156
34167
34168
34187
34198
34208
34212
34223
34234
34240
34246
34262
34277
34278
34293
34303
34316
34324
34332
34341
34350
34358
34368
34372
34388
34396
34412
34404
34428
34436
34444
34458
34462
34478
34487
34484
34500
34512
34524
34532
34548
34550
34554
34574
34588
34589
34598
34618
34621
34634
34640
34649
34660
34668
34673
34686
34694
34704
34718
34725
34746
34753
34761
34770
34786
34790
34804
34810
34828
34837
34839
34844
34860
34870
34877
34884
34898
34909
34916
34933
34950
34950
34962
34972
34972
34984
35002
35008
35016
35024
35034
35048
35056
35068
35080
35085
35104
35104
35116
35124
35140
35148
35156
35162
35178
35186
35194
35204
35214
35224
35228
35252
35261
35268
35276
35290
35302
35308
35322
35325
35345
35351
35361
35364
35376
35392
35398
35409
35418
35432
35432
35445
35448
35466
35482
35489
35494
35505
35508
35522
35540
35544
35557
35566
35580
35584
35592
35604
35624
35621
35638
35646
35662
35674
35678
35684
35704
35707
35716
35740
35736
35752
35764
35772
35793
35796
35804
35812
35820
35832
35846
35860
35864
35885
35892
35901
35908
35917
35936
35948
35952
35964
35970
35989
36000
36004
36020
36031
36033
36044
36057
36074
36076
36089
36105
36119
36117
36136
36144
36152
36180
36180
36192
36202
36215
36220
36228
36239
36245
36262
36276
36284
36293
36314
36309
36328
36336
36350
36359
36373
36388
36391
36404
36412
36420
36441
36441
36454
36468
36486
36493
36492
36510
36520
36534
36540
36552
36564
36575
36580
36588
36612
36625
36632
36641
36652
36652
36672
36685
36698
36712
36720
36730
36740
36756
36765
36773
36783
36805
36808
36816
36836
36852
36857
36864
36876
36884
36888
36911
36916
36932
36934
36944
36956
36973
36976
36988
37008
37006
37016
37038
37039
37054
37062
37060
37072
37090
37098
37110
37117
37129
37137
37150
37163
37172
37180
37184
37204
37202
37209
37226
37244
37247
37254
37268
37272
37276
37292
37300
37312
37312
37329
37337
37346
37359
37365
37370
37385
37390
37412
37406
37416
37428
37446
37448
37458
37468
37480
37486
37493
37512
37508
37532
37528
37536
37540
37548
37568
37560
37576
37588
37604
37598
37616
37632
37632
37637
37652
37664
37668
37672
37690
37688
37708
37712
37724
37726
37748
37754
37752
37768
37772
37780
37792
37796
37808
37812
37822
37836
37844
37852
37854
37864
37874
37884
37890
37900
37908
37903
37916
37928
37934
37948
37948
37953
37960
37968
37968
37980
37988
37992
38017
38001
38012
38020
38036
38036
38032
38044
38048
38048
38060
38068
38074
38078
38084
38096
38086
38110
38104
38108
38124
38129
38133
38136
38140
38150
38158
38174
38170
38180
38197
38200
38206
38200
38216
38224
38240
38244
38248
38264
38262
38276
38280
38296
38300
38308
38312
38324
38338
38344
38352
38360
38372
38382
38380
38382
38394
38406
38415
38416
38426
38434
38436
38452
38446
38460
38465
38469
38473
38484
38484
38488
38500
38500
38505
38516
38524
38517
38537
38532
38540
38536
38549
38553
38564
38565
38566
38575
38574
38580
38589
38592
38604
38604
38620
38620
38623
38632
38638
38637
38640
38649
38656
38660
38668
38664
38680
38684
38680
38684
38692
38696
38696
38700
38706
38714
38724
38712
38722
38721
38722
38725
38722
38733
38732
38736
38743
38740
38744
38748
38741
38758
38754
38748
38756
38760
38769
38754
38766
38772
38766
38764
38775
38788
38780
38782
38786
38796
38796
38789
38796
38804
38799
38804
38810
38815
38816
38831
38828
38824
38836
38837
38828
38833
38840
38847
38854
38861
38858
38860
38860
38870
38876
38876
38885
38880
38884
38884
38884
38900
38904
38914
38904
38916
38916
38929
38932
38938
38940
38945
38948
38948
38953
38956
38970
38967
38976
38977
38976
38984
38984
38992
38997
38992
39002
39008
39008
39020
39020
39020
39028
39044
39036
39044
39044
39044
39044
39052
39050
39052
39068
39064
39076
39064
39084
39076
39081
39092
39095
39097
39096
39108
39102
39108
39108
39117
39120
39128
39128
39134
39138
39136
39138
39140
39144
39148
39148
39152
39152
39150
39168
39174
39172
39179
39165
39176
39180
39182
39191
39194
39190
39200
39198
39204
39204
39206
39204
39216
39216
39213
39224
39226
39220
39228
39224
39236
39232
39232
39240
39242
39242
39245
39258
39249
39258
39268
39264
39269
39266
39270
39276
39290
39280
39292
39296
39300
39303
39297
39304
39317
39308
39316
39316
39324
39326
39317
39329
39324
39328
39328
39332
39333
39334
39334
39340
39333
39340
39337
39348
39348
39336
39356
39352
39344
39352
39361
39356
39370
39370
39364
39365
39368
39368
39364
39383
39382
39388
39381
39396
39393
39393
39397
39396
39404
39406
39413
39415
39412
39412
39416
39424
39422
39424
39420
39425
39428
39428
39436
39432
39434
39431
39432
39436
39444
39444
39436
39431
39439
39438
39440
39444
39439
39444
39444
39438
39436
39428
39437
39444
39441
39444
39437
39436
39433
39436
39430
39428
39432
39432
39440
39430
39420
39429
39428
39431
39428
39432
39436
39436
39428
39428
39430
39420
39420
39421
39420
39420
39420
39420
39428
39422
39420
39422
39424
39423
39416
39416
39412
39416
39416
39404
39400
39412
39406
39412
39404
39404
39396
39396
39404
39407
39406
39396
39396
39392
39388
39391
39396
39400
39392
39393
39388
39376
39383
39372
39380
39374
39368
39364
39372
39370
39372
39368
39377
39368
39360
39360
39369
39361
39356
39356
39350
39350
39348
39342
39350
39340
39350
39340
39344
39344
39336
39344
39336
39340
39328
39326
39332
39328
39332
39324
39320
39318
39324
39310
39317
39305
39308
39308
39309
39302
39311
39297
39296
39304
39300
39297
39288
39292
39284
39280
39288
39284
39274
39277
39276
39272
39272
39273
39268
39264
39257
39260
39260
39260
39252
39256
39250
39244
39232
39240
39244
39232
39232
39234
39220
39220
39224
39226
39217
39220
39217
39200
39200
39202
39200
39200
39188
39191
39188
39180
39180
39180
39175
39168
39173
39168
39156
39164
39156
39152
39153
39140
39142
39149
39140
39136
39126
39124
39116
39120
39118
39117
39104
39108
39104
39100
39100
39096
39088
39080
39092
39084
39076
39069
39064
39064
39060
39060
39060
39052
39049
39040
39056
39046
39036
39040
39030
39028
39026
39028
39020
39012
39014
39005
39012
39004
39004
38992
38990
38988
39002
38982
38988
38984
38980
38968
38972
38968
38964
38956
38950
38948
38950
38952
38949
38936
38936
38940
38929
38932
38924
38919
38916
38906
38908
38906
38894
38892
38892
38893
38892
38885
38876
38869
38872
38870
38864
38872
38856
38852
38849
38840
38844
38832
38836
38836
38823
38825
38828
38824
38815
38812
38814
38804
38800
38806
38804
38788
38788
38788
38778
38774
38768
38767
38766
38760
38756
38757
38748
38750
38744
38742
38724
38730
38720
38717
38724
38714
38710
38692
38692
38696
38684
38692
38678
38664
38668
38664
38660
38662
38653
38650
38638
38636
38624
38638
38625
38617
38616
38612
38610
38608
38596
38588
38591
38586
38588
38581
38576
38572
38562
38565
38554
38556
38544
38548
38543
38532
38538
38530
38524
38524
38520
38504
38510
38496
38500
38484
38488
38484
38484
38472
38468
38468
38466
38440
38449
38446
38444
38432
38432
38436
38413
38408
38416
38400
38391
38388
38389
38372
38372
38372
38364
38360
38348
38344
38324
38328
38333
38328
38317
38310
38292
38296
38296
38280
38284
38272
38270
38266
38260
38252
38248
38228
38228
38216
38208
38200
38192
38192
38183
38170
38168
38152
38147
38140
38126
38117
38111
38096
38096
38084
38073
38072
38060
38048
38044
38036
38012
38006
38020
37996
37981
37974
37969
37966
37956
37944
37932
37924
37925
37916
37902
37896
37896
37872
37880
37874
37852
37848
37856
37836
37832
37832
37816
37810
37808
37796
37796
37784
37780
37769
37758
37760
37753
37745
37732
37728
37720
37704
37704
37700
37692
37680
37676
37671
37664
37658
37647
37640
37648
37622
37620
37608
37604
37593
37588
37576
37572
37568
37560
37552
37550
37533
37534
37521
37508
37504
37492
37492
37476
37466
37460
37444
37444
37432
37425
37420
37404
37397
37380
37382
37374
37353
37352
37340
37325
37314
37300
37304
37294
37278
37268
37260
37242
37237
37228
37222
37209
37192
37188
37168
37166
37160
37149
37132
37127
37108
37106
37088
37089
37068
37060
37040
37044
37032
37005
37012
36984
36981
36968
36966
36941
36938
36932
36910
36904
36886
36884
36872
36860
36848
36838
36832
36808
36814
36792
36788
36781
36760
36750
36743
36732
36717
36710
36704
36688
36673
36674
36660
36640
36642
36628
36612
36608
36596
36588
36572
36564
36559
36544
36540
36533
36518
36504
36502
36496
36476
36476
36472
36452
36448
36438
36436
36426
36409
36406
36404
36388
36388
36372
36366
36358
36356
36349
36341
36332
36319
36324
36311
36297
36292
36292
36280
36273
36264
36260
36260
36255
36244
36228
36224
36218
36218
36200
36204
36200
36188
36177
36168
36166
36159
36148
36148
36136
36132
36130
36119
36120
36104
36106
36100
36086
36076
36068
36069
36061
36056
36047
36044
36032
36039
36020
36020
36012
36012
36004
35992
35992
35980
35976
35977
35968
35956
35956
35944
35944
35932
35929
35932
35915
35916
35904
35902
35903
35892
35888
35884
35874
35868
35868
35860
35848
35842
35829
35836
35814
35812
35810
35800
35801
35788
35784
35776
35776
35769
35761
35760
35756
35752
35745
35736
35728
35728
35724
35724
35714
35713
35716
35706
35700
35695
35684
35682
35680
35685
35672
35676
35668
35660
35653
35649
35637
35636
35632
35633
35624
35612
35604
35602
35588
35577
35572
35566
35563
35552
35548
35550
35538
35530
35521
35520
35510
35505
35496
35492
35488
35476
35477
35472
35462
35456
35450
35439
35436
35431
35428
35408
35422
35396
35400
35396
35397
35388
35376
35380
35376
35364
35360
35360
35348
35338
35342
35334
35326
35320
35328
35304
35304
35304
35305
35284
35293
35284
35272
35265
35268
35261
35254
35248
35249
35232
35236
35232
35223
35218
35204
35220
35194
35200
35188
35184
35186
35184
35170
35164
35164
35152
35146
35146
35136
35136
35124
35124
35108
35112
35110
35108
35100
35092
35086
35088
35080
35078
35064
35061
35060
35052
35057
35052
35048
35044
35030
35032
35032
35032
35032
35020
35018
35009
35010
35006
35000
34996
35000
35004
34989
34996
34992
34980
34977
34977
34980
34972
34970
34967
34964
34956
34959
34948
34944
34941
34942
34929
34924
34921
34926
34924
34916
34918
34912
34908
34897
34904
34888
34892
34884
34879
34880
34872
34862
34860
34860
34852
34842
34842
34840
34840
34837
34829
34821
34818
34813
34807
34807
34798
34800
34800
34788
34780
34782
34778
34769
34768
34764
34754
34752
34748
34748
34736
34731
34736
34732
34719
34711
34710
34704
34708
34702
34696
34694
34685
34687
34669
34676
34668
34663
34662
34655
34649
34647
34637
34636
34625
34622
34624
34612
34608
34604
34606
34598
34585
34580
34588
34584
34570
34561
34556
34556
34549
34544
34544
34540
34528
34533
34524
34516
34520
34516
34500
34500
34489
34492
34492
34485
34472
34472
34468
34472
34457
34462
34460
34453
34446
34441
34436
34438
34432
34424
34424
34416
34416
34417
34408
34404
34406
34404
34400
34390
34392
34388
34372
34384
34374
34366
34372
34362
34360
34352
34354
34348
34343
34332
34342
34337
34324
34328
34322
34320
34313
34308
34311
34308
34305
34300
34288
34286
34281
34274
34273
34265
34268
34262
34252
34257
34251
34246
34252
34238
34244
34231
34228
34212
34223
34220
34216
34207
34204
34196
34192
34194
34189
34186
34177
34174
34181
34176
34176
34164
34164
34160
34149
34152
34150
34146
34134
34134
34132
34132
34124
34116
34117
34122
34104
34110
34100
34100
34094
34092
34091
34088
34077
34082
34064
34066
34060
34052
34046
34052
34048
34049
34028
34028
34029
34024
34020
34023
34021
34012
33998
34000
34000
33999
33988
33992
33972
33976
33974
33970
33962
33968
33964
33958
33944
33936
33934
33928
33928
33920
33916
33916
33909
33906
33892
33892
33885
33888
33879
33872
33864
33854
33852
33840
33852
33834
33822
33820
33817
33812
33806
33800
33785
33788
33784
33774
33766
33764
33760
33749
33744
33740
33730
33732
33716
33708
33700
33692
33693
33686
33670
33672
33669
33656
33641
33644
33632
33620
33621
33614
33605
33604
33598
33588
33580
33575
33566
33556
33557
33552
33540
33529
33524
33508
33505
33501
33500
33492
33478
33480
33468
33457
33464
33444
33446
33436
33431
33424
33415
33413
33411
33396
33386
33380
33374
33360
33358
33349
33344
33334
33324
33320
33308
33304
33296
33279
33268
33260
33253
33247
33236
33228
33228
33208
33196
33196
33181
33172
33162
33157
33140
33134
33120
33113
33104
33090
33084
33080
33060
33053
33042
33028
33023
33004
33001
32984
32978
32974
32972
32956
32946
32942
32934
32920
32911
32900
32896
32900
32888
32880
32871
32864
32866
32841
32853
32840
32836
32834
32830
32828
32812
32808
32805
32801
32792
32792
32792
32784
32775
32780
32768
32760
32756
32756
32748
32744
32748
32732
32716
32718
32712
32703
32700
32696
32688
32671
32676
32668
32650
32648
32641
32638
32620
32620
32607
32604
32600
32592
32584
32580
32566
32562
32550
32544
32544
32536
32526
32524
32518
32510
32496
32492
32486
32481
32474
32472
32458
32450
32450
32429
32430
32428
32420
32412
32396
32402
32388
32378
32373
32364
32356
32354
32341
32330
32328
32309
32312
32304
32294
32284
32278
32272
32255
32251
32239
32234
32224
32216
32198
32196
32192
32179
32170
32168
32150
32142
32141
32126
32123
32108
32108
32088
32088
32084
32068
32056
32052
32040
32040
32028
32020
32008
32000
31990
31988
31976
31968
31960
31952
31956
31941
31932
31925
31920
31920
31901
31905
31888
31878
31874
31876
31860
31855
31860
31844
31840
31828
31824
31822
31812
31804
31792
31798
31788
31776
31778
31764
31757
31756
31756
31745
31740
31726
31728
31712
31716
31712
31692
31692
31687
31680
31680
31671
31668
31648
31654
31640
31640
31630
31617
31624
31608
31612
31596
31598
31588
31580
31574
31564
31558
31554
31544
31548
31534
31521
31521
31512
31511
31500
31500
31486
31477
31476
31461
31460
31449
31436
31436
31428
31428
31417
31407
31404
31388
31400
31384
31374
31370
31364
31357
31356
31348
31341
31328
31318
31320
31310
31305
31300
31297
31292
31280
31276
31266
31268
31252
31244
31244
31236
31233
31216
31212
31218
31203
31194
31201
31188
31174
31178
31172
31165
31162
31160
31148
31148
31132
31140
31132
31124
31116
31105
31112
31105
31100
31097
31085
31086
31076
31074
31068
31072
31057
31048
31054
31050
31052
31044
31044
31034
31024
31026
31014
31012
31004
30996
30998
30988
30981
30974
30982
30968
30954
30956
30944
30941
30937
30926
30928
30924
30913
30914
30908
30897
30894
30888
30888
30885
30876
30870
30869
30868
30868
30862
30856
30858
30848
30842
30846
30838
30839
30829
30828
30828
30824
30815
30808
30805
30802
30799
30800
30788
30784
30780
30784
30778
30781
30768
30759
30760
30758
30758
30748
30746
30738
30734
30740
30728
30728
30720
30718
30713
30704
30696
30700
30692
30687
30683
30680
30681
30682
30668
30670
30658
30660
30652
30648
30640
30632
30644
30634
30629
30629
30624
30619
30622
30608
30612
30604
30612
30602
30596
30593
30600
30588
30586
30580
30572
30569
30568
30570
30556
30560
30560
30557
30552
30545
30540
30544
30537
30540
30528
30526
30528
30532
30528
30526
30514
30518
30511
30507
30504
30508
30503
30495
30492
30494
30485
30489
30488
30488
30482
30471
30468
30478
30468
30460
30456
30464
30445
30446
30444
30438
30442
30436
30432
30431
30424
30428
30421
30420
30418
30404
30412
30404
30398
30396
30396
30392
30392
30388
30382
30372
30380
30374
30372
30368
30353
30351
30357
30356
30350
30356
30344
30348
30336
30336
30340
30336
30327
30328
30334
30324
30316
30313
30324
30311
30316
30306
30304
30304
30300
30298
30304
30300
30300
30290
30296
30288
30293
30292
30284
30276
30280
30272
30276
30268
30276
30276
30264
30264
30261
30258
30258
30253
30256
30250
30252
30249
30248
30244
30240
30247
30240
30236
30240
30237
30235
30227
30232
30226
30230
30228
30224
30220
30223
30212
30212
30212
30212
30214
30206
30202
30214
30198
30208
30200
30196
30200
30209
30196
30196
30183
30194
30194
30189
30188
30182
30177
30185
30182
30180
30181
30178
30180
30169
30169
30172
30168
30168
30170
30158
30172
30165
30161
30172
30159
30156
30157
30164
30154
30156
30160
30151
30160
30152
30150
30154
30148
30148
30154
30148
30164
30148
30154
30148
30154
30144
30144
30146
30143
30152
30145
30146
30154
30147
30138
30136
30140
30144
30146
30140
30144
30133
30140
30136
30132
30134
30134
30132
30142
30132
30136
30141
30124
30138
30138
30132
30130
30127
30128
30132
30132
30130
30132
30133
30131
30128
30125
30128
30132
30132
30124
30128
30132
30128
30132
30136
30133
30124
30128
30125
30119
30128
30124
30122
30126
30126
30122
30132
30121
30128
30124
30122
30117
30120
30124
30124
30129
30122
30117
30126
30116
30126
30116
30124
30130
30116
30124
30116
30120
30116
30124
30118
30125
30120
30118
30112
30124
30122
30120
30128
30112
30120
30112
30116
30114
30126
30112
30117
30121
30113
30116
30112
30114
30118
30112
30108
30116
30112
30113
30108
30114
30108
30105
30104
30108
30108
30108
30101
30104
30096
30104
30096
30088
30094
30092
30082
30088
30093
30088
30080
30089
30090
30084
30084
30078
30076
30080
30072
30068
30080
30072
30073
30063
30068
30072
30068
30070
30065
30061
30060
30064
30057
30056
30060
30056
30060
30052
30052
30057
30056
30052
30052
30052
30052
30054
30054
30052
30048
30058
30052
30045
30052
30056
30060
30049
30050
30052
30046
30056
30054
30056
30057
30052
30057
30052
30056
30056
30062
30048
30060
30055
30048
30054
30052
30052
30048
30053
30048
30049
30045
30044
30044
30036
30036
30040
30032
30045
30032
30032
30032
30032
30028
30017
30017
30018
30008
30005
30001
30008
29999
29996
29994
29992
29988
29988
29984
29980
29980
29976
29978
29978
29970
29972
29972
29962
29976
29970
29970
29962
29966
29973
29973
29978
29984
29980
29975
29980
29984
29986
29989
29988
29997
30004
30010
30008
30012
30016
30008
30024
30031
30028
30020
30028
30032
30038
30044
30040
30047
30044
30042
30052
30046
30048
30052
30048
30049
30052
30052
30052
30056
30054
30056
30052
30051
30060
30056
30052
30052
30048
30058
30056
30059
30052
30052
30052
30056
30060
30060
30062
30055
30056
30058
30060
30060
30071
30060
30068
30065
30062
30068
30064
30061
30060
30064
30056
30058
30056
30060
30060
30062
30060
30057
30052
30052
30065
30052
30048
30048
30048
30038
30048
30046
30044
30038
30036
30034
30030
30022
30022
30023
30020
30017
30020
30008
30001
30016
30000
30000
29991
29996
29996
29992
29991
29992
29982
29984
29980
29981
29973
29980
29976
29970
29964
29966
29960
29968
29964
29958
29954
29957
29956
29954
29953
29942
29953
29952
29952
29942
29941
29940
29946
29949
29944
29936
29940
29938
29935
29940
29930
29934
29930
29934
29936
29936
29926
29932
29932
29926
29926
29928
29919
29924
29922
29922
29919
29921
29925
29916
29918
29916
29917
29918
29916
29914
29918
29916
29920
29912
29917
29914
29905
29911
29920
29908
29911
29908
29909
29908
29915
29911
29908
29906
29908
29908
29909
29906
29908
29909
29898
29910
29904
29904
29904
29908
29893
29902
29902
29896
29892
29896
29892
29900
29901
29896
29892
29892
29900
29892
29894
29890
29892
29892
29896
29894
29892
29892
29888
29894
29892
29891
29892
29892
29884
29892
29894
29892
29890
29892
29896
29893
29893
29888
29898
29894
29892
29900
29889
29900
29894
29892
29892
29888
29889
29892
29885
29896
29894
29904
29900
29895
29908
29900
29896
29902
29902
29898
29902
29908
29905
29908
29908
29912
29914
29913
29904
29913
29916
29916
29920
29918
29924
29920
29924
29924
29928
29920
29927
29924
29926
29928
29932
29932
29921
29932
29936
29934
29929
29934
29932
29938
29937
29940
29940
29945
29945
29946
29956
29952
29960
29956
29960
29972
29968
29972
29974
29988
29985
29989
29992
29988
29997
30004
30006
30006
30016
30024
30024
30028
30024
30030
30040
30034
30055
30046
30048
30060
30054
30064
30064
30068
30069
30071
30080
30084
30084
30090
30088
30101
30092
30110
30104
30108
30116
30116
30112
30126
30118
30136
30132
30130
30138
30134
30144
30144
30148
30150
30156
30164
30164
30165
30167
30172
30176
30180
30181
30182
30181
30198
30193
30208
30204
30200
30208
30207
30208
30208
30216
30217
30222
30232
30220
30228
30228
30239
30237
30242
30236
30244
30244
30242
30248
30248
30258
30256
30252
30257
30262
30262
30260
30256
30260
30262
30270
30270
30265
30276
30270
30272
30272
30272
30274
30278
30284
30280
30288
30280
30285
30280
30284
30285
30284
30280
30286
30292
30288
30300
30293
30300
30288
30300
30296
30300
30293
30298
30304
30304
30298
30300
30301
30308
30298
30308
30308
30312
30318
30308
30311
30318
30316
30318
30317
30324
30335
30325
30330
30328
30336
30333
30333
30336
30348
30348
30340
30356
30348
30358
30354
30358
30366
30370
30369
30372
30370
30364
30382
30380
30388
30388
30383
30386
30392
30396
30401
30400
30410
30412
30420
30408
30421
30424
30429
30428
30432
30432
30436
30436
30434
30450
30440
30449
30450
30453
30452
30460
30458
30462
30465
30468
30465
30473
30474
30464
30472
30484
30480
30489
30481
30492
30485
30486
30492
30498
30494
30500
30503
30498
30498
30514
30500
30505
30500
30508
30514
30510
30512
30517
30516
30524
30520
30524
30528
30528
30532
30528
30536
30536
30541
30536
30541
30538
30542
30537
30550
30549
30563
30552
30550
30556
30564
30562
30560
30565
30566
30572
30572
30572
30576
30572
30580
30584
30575
30580
30584
30589
30584
30589
30592
30592
30600
30582
30600
30597
30600
30598
30604
30608
30612
30613
30612
30617
30620
30616
30621
30624
30629
30628
30628
30628
30636
30636
30629
30634
30632
30638
30644
30648
30647
30644
30646
30652
30656
30652
30655
30660
30658
30660
30660
30668
30668
30664
30666
30668
30671
30673
30672
30678
30677
30678
30679
30684
30684
30688
30688
30692
30692
30696
30696
30695
30693
30696
30700
30698
30701
30703
30701
30711
30708
30708
30716
30716
30712
30720
30726
30728
30718
30726
30724
30732
30740
30732
30736
30745
30742
30742
30744
30749
30752
30752
30756
30757
30756
30765
30768
30768
30776
30780
30776
30780
30788
30789
30788
30790
30796
30792
30798
30798
30805
30804
30808
30817
30816
30820
30820
30826
30829
30828
30824
30833
30844
30836
30853
30842
30846
30852
30852
30850
30860
30863
30860
30860
30871
30871
30876
30878
30884
30876
30880
30877
30888
30880
30884
30888
30896
30889
30890
30894
30901
30903
30893
30892
30898
30912
30900
30908
30916
30912
30918
30920
30920
30920
30916
30922
30930
30929
30928
30936
30942
30936
30936
30944
30936
30946
30941
30940
30948
30946
30948
30948
30953
30956
30959
30958
30957
30968
30972
30971
30972
30972
30966
30973
30988
30974
30980
30970
30984
30988
30984
30980
30993
30993
30999
30996
31000
30993
31005
31000
31008
31002
31004
31012
31008
31012
31013
31012
31005
31008
31015
31010
31006
31008
31016
31016
31013
31010
31012
31006
31013
31010
31008
31009
31016
31012
31004
31000
31004
31000
31008
30996
30998
30996
31000
30996
30994
30984
30988
30986
30984
30984
30984
30978
30985
30980
30980
30978
30980
30984
30980
30982
30982
30980
30989
30988
30992
30998
31000
30998
31004
31008
31012
31008
31016
31028
31024
31028
31040
31036
31041
31046
31044
31052
31060
31064
31061
31070
31068
31074
31076
31086
31086
31087
31086
31089
31095
31103
31101
31104
31114
31102
31105
31109
31112
31118
31108
31109
31112
31127
31116
31118
31124
31124
31132
31127
31128
31134
31125
31136
31133
31132
31140
31140
31140
31143
31140
31140
31148
31140
31144
31152
31150
31144
31153
31145
31152
31146
31150
31148
31152
31145
31148
31152
31148
31150
31140
31141
31148
31142
31140
31141
31128
31134
31125
31124
31136
31132
31118
31122
31118
31124
31122
31113
31108
31100
31104
31100
31098
31092
31098
31084
31084
31081
31072
31076
31076
31076
31070
31068
31064
31062
31049
31052
31052
31048
31048
31042
31044
31040
31040
31032
31026
31042
31028
31029
31024
31020
31017
31018
31019
31012
31022
31013
31010
31016
31016
31006
31008
31002
31002
31000
30998
31005
31006
31002
31001
30992
31000
30996
30996
30996
30992
31003
30990
30997
30992
30996
30994
30996
31000
30996
31004
30992
30994
30992
30990
31000
30996
30998
30994
30996
30993
30998
30994
31000
30997
30996
30996
31000
31000
30999
31006
31008
31002
31006
31000
31000
31000
31016
31015
31008
31004
31014
31013
31012
31014
31013
31016
31019
31023
31025
31022
31025
31024
31020
31028
31034
31024
31036
31032
31036
31036
31032
31036
31036
31044
31045
31040
31045
31048
31050
31044
31056
31055
31053
31060
31064
31056
31062
31057
31060
31068
31065
31076
31068
31071
31076
31073
31078
31076
31084
31084
31084
31088
31088
31094
31092
31088
31089
31102
31096
31101
31096
31104
31099
31108
31109
31110
31124
31120
31121
31120
31120
31124
31128
31132
31135
31131
31138
31143
31144
31136
31144
31140
31144
31148
31156
31153
31148
31149
31156
31152
31159
31159
31162
31168
31161
31164
31168
31167
31169
31172
31172
31172
31184
31177
31184
31181
31189
31189
31196
31193
31192
31201
31204
31214
31207
31212
31221
31224
31222
31224
31228
31232
31238
31242
31240
31249
31248
31245
31250
31260
31260
31264
31262
31273
31260
31268
31276
31272
31274
31284
31280
31280
31288
31292
31296
31296
31296
31300
31300
31302
31300
31308
31309
31308
31308
31316
31322
31322
31324
31324
31327
31332
31334
31339
31332
31336
31340
31336
31348
31336
31348
31354
31352
31352
31359
31364
31363
31357
31350
31372
31368
31369
31368
31375
31376
31380
31376
31380
31380
31380
31389
31380
31388
31396
31393
31392
31392
31390
31393
31398
31394
31396
31396
31396
31404
31396
31402
31407
31400
31396
31412
31406
31404
31408
31404
31412
31405
31413
31408
31409
31408
31412
31408
31416
31420
31416
31410
31417
31416
31417
31414
31412
31413
31416
31412
31416
31420
31412
31428
31420
31425
31416
31422
31420
31424
31420
31417
31425
31424
31424
31417
31433
31424
31424
31431
31428
31436
31424
31428
31436
31436
31444
31436
31438
31444
31440
31442
31444
31448
31446
31452
31452
31460
31460
31460
31456
31460
31465
31468
31468
31472
31481
31479
31478
31485
31488
31480
31489
31488
31494
31493
31500
31508
31506
31512
31520
31521
31516
31526
31521
31532
31526
31534
31524
31538
31548
31548
31550
31552
31556
31554
31566
31562
31566
31578
31575
31584
31577
31582
31591
31590
31602
31604
31604
31601
31604
31604
31620
31620
31618
31630
31641
31637
31630
31648
31652
31654
31658
31655
31664
31679
31678
31684
31694
31688
31697
31710
31709
31716
31716
31724
31732
31741
31744
31752
31748
31760
31765
31768
31780
31788
31802
31796
31816
31812
31820
31832
31832
31846
31845
31857
31858
31868
31884
31885
31896
31904
31912
31914
31921
31932
31944
31951
31950
31960
31964
31980
31988
31996
32004
32008
32021
32028
32036
32048
32048
32073
32076
32080
32092
32105
32108
32113
32118
32135
32144
32156
32158
32174
32178
32185
32194
32208
32212
32217
32228
32232
32236
32255
32262
32273
32285
32278
32305
32298
32316
32324
32324
32340
32346
32348
32354
32375
32382
32388
32400
32410
32416
32420
32440
32436
32449
32465
32460
32471
32484
32488
32506
32510
32522
32540
32538
32556
32556
32572
32576
32580
32592
32612
32614
32622
32628
32636
32656
32668
32672
32680
32679
32696
32705
32721
32735
32739
32748
32754
32768
32785
32790
32794
32809
32824
32836
32839
32854
32864
32868
32884
32881
32900
32908
32920
32932
32936
32948
32950
32969
32972
32990
32999
33012
33024
33036
33034
33054
33066
33073
33080
33088
33094
33114
33120
33132
33137
33150
33164
33160
33168
33186
33192
33204
33212
33228
33228
33241
33254
33264
33264
33284
33290
33296
33308
33312
33328
33332
33340
33348
33361
33364
33376
33384
33384
33400
33424
33417
33430
33434
33447
33453
33464
33474
33476
33489
33496
33508
33516
33529
33524
33545
33550
33556
33566
33572
33588
33596
33601
33612
33620
33632
33644
33660
33664
33669
33680
33692
33708
33712
33726
33732
33749
33756
33772
33780
33788
33797
33812
33831
33832
33845
33869
33878
33888
33903
33919
33927
33933
33956
33960
33977
33990
34000
34020
34040
34036
34054
34078
34084
34100
34112
34128
34148
34152
34162
34181
34198
34204
34223
34232
34242
34264
34271
34288
34310
34305
34324
34344
34352
34364
34376
34388
34397
34414
34423
34444
34444
34464
34476
34480
34500
34508
34521
34528
34544
34549
34568
34576
34592
34598
34614
34621
34638
34647
34660
34666
34681
34703
34712
34726
34740
34754
34772
34780
34790
34812
34822
34838
34854
34865
34884
34888
34904
34916
34938
34950
34965
34976
34997
35004
35024
35040
35046
35068
35084
35088
35104
35118
35132
35146
35168
35166
35184
35185
35200
35220
35222
35230
35248
35261
35264
35273
35288
35306
35311
35316
35324
35335
35353
35361
35368
35384
35380
35392
35408
35414
35416
35424
35438
35452
35462
35462
35480
35487
35493
35513
35513
35520
35524
35539
35556
35556
35567
35575
35580
35588
35608
35612
35616
35625
35618
35628
35644
35661
35658
35670
35684
35684
35684
35689
35710
35708
35716
35716
35726
35738
35732
35744
35748
35756
35760
35768
35768
35780
35792
35781
35792
35796
35809
35812
35812
35816
35832
35836
35836
35844
35848
35852
35868
35872
35876
35876
35880
35888
35894
35904
35908
35905
35924
35921
35934
35926
35940
35946
35948
35948
35968
35961
35976
35972
35984
35992
35994
36007
36000
36008
36020
36025
36029
36038
36043
36056
36057
36052
36068
36068
36080
36076
36086
36092
36102
36104
36116
36120
36116
36122
36132
36140
36140
36144
36160
36158
36156
36166
36172
36182
36188
36190
36198
36200
36212
36212
36222
36222
36225
36236
36236
36239
36248
36260
36254
36258
36260
36276
36276
36276
36288
36292
36296
36296
36310
36316
36302
36318
36320
36326
36332
36336
36335
36348
36356
36356
36360
36359
36366
36359
36368
36376
36384
36385
36389
36392
36388
36400
36406
36406
36416
36414
36418
36412
36424
36429
36431
36428
36434
36444
36436
36448
36452
36452
36448
36460
36461
36468
36472
36474
36484
36481
36484
36478
36496
36498
36504
36500
36508
36512
36516
36524
36528
36532
36544
36536
36544
36550
36548
36554
36559
36566
36566
36572
36576
36576
36580
36580
36580
36586
36585
36592
36597
36600
36606
36613
36612
36612
36621
36612
36612
36620
36618
36621
36624
36622
36629
36638
36630
36640
36640
36652
36648
36645
36652
36652
36662
36664
36661
36665
36677
36672
36677
36686
36697
36702
36696
36701
36708
36716
36729
36729
36729
36741
36738
36732
36752
36748
36760
36761
36756
36768
36778
36774
36774
36780
36788
36786
36796
36793
36800
36796
36804
36801
36813
36812
36814
36820
36820
36822
36828
36828
36835
36844
36837
36844
36844
36844
36853
36860
36868
36863
36871
36884
36881
36876
36884
36880
36884
36892
36896
36903
36901
36910
36910
36916
36928
36924
36933
36932
36932
36932
36944
36944
36944
36948
36964
36964
36952
36968
36957
36976
36972
36975
36980
36990
36990
36996
36988
36996
37004
37008
37005
37012
37014
37022
37020
37036
37034
37034
37040
37033
37049
37056
37052
37052
37060
37057
37061
37068
37076
37076
37084
37085
37080
37092
37084
37098
37101
37103
37098
37100
37104
37112
37116
37113
37132
37140
37129
37132
37138
37148
37144
37140
37148
37152
37157
37153
37153
37158
37173
37172
37172
37174
37191
37188
37188
37188
37196
37192
37188
37196
37198
37208
37196
37214
37212
37216
37216
37229
37232
37225
37233
37237
37236
37232
37240
37244
37248
37250
37254
37260
37252
37256
37263
37263
37268
37265
37268
37276
37260
37279
37280
37260
37278
37280
37284
37286
37285
37284
37288
37292
37292
37292
37292
37305
37287
37296
37294
37294
37296
37304
37304
37304
37303
37312
37310
37304
37308
37312
37320
37312
37316
37320
37328
37324
37330
37332
37330
37328
37326
37340
37340
37326
37343
37332
37356
37340
37348
37350
37354
37345
37345
37348
37350
37349
37356
37353
37356
37354
37360
37372
37364
37364
37364
37373
37371
37367
37376
37376
37381
37376
37386
37380
37383
37388
37388
37393
37385
37390
37388
37388
37400
37396
37399
37396
37400
37408
37398
37404
37404
37408
37414
37412
37420
37414
37412
37413
37416
37414
37418
37420
37420
37420
37424
37429
37426
37420
37432
37436
37428
37430
37433
37425
37428
37432
37432
37432
37443
37437
37436
37429
37436
37437
37440
37444
37444
37441
37433
37428
37440
37444
37438
37439
37440
37446
37436
37436
37441
37444
37441
37440
37444
37446
37440
37448
37440
37444
37440
37437
37437
37432
37438
37438
37437
37437
37446
37440
37444
37438
37437
37430
37439
37436
37440
37428
37428
37432
37428
37436
37428
37432
37425
37436
37428
37428
37424
37420
37420
37423
37426
37420
37422
37415
37412
37414
37420
37413
37408
37416
37414
37416
37407
37404
37413
37416
37412
37408
37414
37396
37413
37396
37404
37404
37398
37407
37396
37396
37396
37398
37394
37396
37384
37380
37380
37374
37369
37376
37376
37376
37366
37375
37374
37368
37369
37370
37364
37360
37362
37364
37352
37356
37364
37354
37356
37350
37356
37352
37348
37352
37351
37354
37352
37352
37356
37344
37351
37341
37345
37348
37348
37344
37346
37348
37340
37342
37344
37344
37338
37336
37334
37340
37333
37325
37332
37320
37336
37329
37328
37326
37320
37324
37319
37320
37312
37313
37318
37316
37312
37308
37304
37304
37294
37308
37288
37293
37292
37287
37296
37284
37285
37284
37284
37284
37271
37277
37268
37268
37268
37268
37265
37264
37260
37252
37260
37250
37252
37250
37245
37254
37239
37236
37224
37228
37225
37229
37226
37212
37213
37206
37202
37204
37196
37188
37184
37188
37176
37173
37172
37164
37156
37160
37153
37147
37141
37136
37144
37140
37119
37124
37114
37120
37115
37112
37108
37097
37103
37096
37092
37092
37084
37096
37082
37093
37086
37072
37080
37080
37072
37064
37069
37072
37064
37068
37064
37061
37066
37060
37062
37056
37052
37060
37048
37050
37049
37048
37050
37048
37042
37040
37038
37036
37036
37034
37028
37034
37028
37028
37022
37022
37029
37024
37017
37018
37012
37004
37010
37016
36998
36992
37004
36996
36998
36996
36996
36980
36988
36974
36980
36977
36967
36967
36966
36968
36957
36952
36944
36956
36944
36936
36940
36940
36940
36924
36924
36924
36918
36908
36908
36914
36900
36900
36881
36876
36884
36882
36874
36869
36864
36856
36853
36852
36844
36836
36828
36822
36820
36814
36800
36800
36788
36794
36773
36776
36770
36765
36760
36738
36749
36740
36728
36740
36724
36708
36711
36705
36700
36688
36684
36676
36672
36664
36658
36657
36660
36641
36632
36632
36624
36630
36620
36620
36606
36607
36600
36592
36592
36588
36588
36583
36580
36578
36570
36564
36564
36561
36570
36560
36548
36550
36548
36548
36547
36540
36540
36542
36540
36533
36541
36540
36518
36525
36526
36532
36520
36524
36520
36522
36516
36510
36508
36516
36504
36510
36504
36508
36504
36500
36500
36498
36496
36485
36508
36495
36494
36490
36494
36494
36488
36486
36484
36480
36482
36488
36482
36476
36476
36472
36474
36468
36472
36472
36464
36468
36472
36468
36468
36460
36464
36460
36458
36453
36448
36460
36460
36448
36452
36452
36444
36446
36440
36444
36440
36441
36448
36432
36432
36428
36430
36426
36420
36422
36416
36424
36420
36408
36404
36404
36400
36398
36389
36384
36388
36380
36378
36369
36367
36368
36344
36344
36346
36351
36340
36332
36324
36321
36316
36318
36319
36300
36312
36308
36296
36306
36293
36288
36292
36281
36282
36273
36266
36257
36260
36256
36254
36254
36244
36230
36228
36230
36214
36207
36212
36196
36195
36183
36182
36176
36166
36152
36152
36140
36136
36135
36120
36112
36112
36099
36088
36080
36080
36072
36066
36049
36052
36048
36044
36036
36027
36022
36014
36009
36006
35996
35988
35980
35986
35972
35968
35964
35960
35952
35940
35941
35928
35924
35924
35915
35909
35904
35896
35888
35884
35883
35868
35862
35862
35856
35854
35841
35836
35827
35820
35821
35812
35808
35804
35786
35784
35780
35776
35765
35756
35746
35749
35736
35732
35716
35712
35708
35700
35700
35685
35682
35676
35660
35660
35648
35645
35636
35628
35620
35620
35604
35604
35588
35574
35576
35576
35564
35556
35544
35544
35534
35532
35525
35510
35510
35494
35496
35489
35473
35476
35460
35458
35444
35450
35436
35424
35420
35404
35406
35396
35393
35388
35376
35368
35372
35354
35349
35340
35328
35312
35316
35300
35300
35281
35284
35276
35272
35260
35252
35250
35237
35220
35219
35220
35212
35204
35196
35188
35186
35169
35172
35169
35152
35149
35140
35132
35127
35121
35117
35108
35108
35097
35087
35076
35076
35064
35057
35055
35044
35044
35041
35032
35018
35018
35014
35002
34998
34998
34988
34986
34981
34964
34965
34961
34957
34952
34940
34941
34929
34932
34924
34916
34917
34902
34896
34896
34892
34887
34885
34880
34872
34864
34872
34863
34852
34850
34839
34831
34834
34836
34826
34824
34808
34805
34810
34797
34792
34798
34786
34782
34782
34776
34772
34768
34756
34754
34750
34754
34740
34740
34732
34730
34718
34718
34712
34708
34708
34698
34692
34692
34676
34682
34664
34668
34664
34660
34653
34646
34645
34636
34632
34632
34623
34622
34605
34616
34607
34604
34600
34584
34588
34581
34568
34568
34572
34564
34556
34544
34548
34530
34536
34533
34524
34517
34516
34504
34512
34494
34492
34492
34496
34480
34480
34466
34464
34460
34465
34448
34454
34438
34440
34432
34436
34432
34418
34424
34416
34412
34400
34404
34401
34397
34388
34386
34384
34376
34376
34372
34373
34362
34364
34361
34356
34346
34342
34340
34340
34333
34327
34330
34318
34324
34320
34305
34305
34293
34301
34296
34285
34285
34276
34276
34272
34266
34272
34261
34264
34252
34254
34245
34245
34231
34233
34224
34224
34225
34224
34213
34205
34201
34202
34196
34204
34184
34182
34184
34180
34175
34174
34168
34172
34161
34156
34148
34140
34150
34144
34144
34132
34128
34128
34129
34114
34112
34106
34096
34114
34096
34094
34090
34085
34077
34075
34072
34065
34068
34058
34053
34052
34044
34044
34030
34036
34020
34036
34016
34013
34006
34008
34004
34002
33990
33984
33984
33988
33976
33965
33966
33972
33960
33952
33948
33948
33932
33934
33927
33934
33921
33917
33920
33909
33909
33904
33900
33890
33890
33884
33876
33870
33870
33864
33862
33852
33848
33854
33849
33840
33838
33826
33829
33822
33828
33805
33808
33798
33804
33799
33796
33781
33778
33777
33773
33772
33764
33756
33756
33748
33740
33740
33736
33732
33728
33726
33732
33708
33717
33702
33700
33692
33682
33688
33669
33676
33672
33662
33652
33658
33646
33640
33629
33628
33618
33606
33598
33600
33599
33582
33580
33580
33562
33560
33552
33545
33546
33534
33524
33516
33518
33511
33508
33503
33502
33490
33482
33480
33480
33478
33462
33456
33465
33453
33449
33454
33436
33445
33434
33437
33431
33423
33428
33428
33415
33418
33408
33412
33412
33399
33410
33396
33404
33401
33401
33398
33384
33388
33381
33384
33378
33377
33380
33380
33376
33368
33370
33364
33372
33359
33362
33358
33356
33349
33361
33348
33346
33348
33343
33349
33344
33330
33328
33326
33326
33320
33322
33318
33301
33298
33304
33295
33292
33287
33287
33274
33279
33272
33276
33262
33260
33253
33248
33244
33248
33244
33236
33226
33226
33222
33208
33213
33200
33199
33197
33194
33189
33176
33176
33180
33172
33161
33173
33148
33144
33147
33129
33124
33116
33120
33104
33100
33098
33090
33076
33072
33064
33060
33054
33048
33044
33032
33023
33016
33016
33000
32992
32992
32984
32972
32961
32956
32952
32948
32935
32928
32916
32916
32908
32897
32889
32876
32876
32868
32864
32856
32856
32840
32838
32828
32822
32810
32808
32800
32804
32794
32784
32778
32766
32764
32760
32754
32753
32744
32737
32732
32726
32725
32717
32709
32706
32702
32684
32693
32688
32665
32668
32668
32668
32648
32648
32648
32653
32636
32624
32622
32623
32617
32608
32604
32599
32592
32586
32584
32580
32576
32569
32564
32564
32546
32548
32550
32538
32532
32527
32518
32520
32510
32500
32500
32497
32486
32486
32476
32466
32462
32457
32456
32448
32448
32436
32432
32423
32424
32418
32416
32408
32401
32396
32392
32381
32384
32381
32380
32365
32360
32364
32354
32348
32337
32344
32330
32332
32324
32312
32316
32312
32304
32304
32300
32294
32293
32282
32288
32274
32269
32268
32262
32262
32257
32254
32258
32244
32237
32234
32234
32228
32230
32231
32226
32220
32220
32212
32208
32207
32206
32202
32201
32204
32200
32200
32198
32196
32196
32196
32188
32188
32192
32192
32188
32191
32186
32180
32184
32186
32184
32180
32180
32180
32188
32180
32169
32174
32176
32168
32172
32174
32172
32160
32159
32159
32154
32152
32148
32151
32148
32150
32138
32144
32140
32136
32135
32132
32124
32133
32128
32120
32123
32112
32113
32116
32110
32108
32104
32111
32102
32101
32097
32096
32088
32087
32092
32092
32096
32088
32076
32077
32083
32074
32084
32076
32072
32069
32068
32064
32058
32060
32064
32068
32056
32049
32042
32049
32042
32040
32037
32037
32036
32030
32024
32014
32021
32022
32012
32012
32004
31998
31994
32001
31988
31980
31982
31974
31966
31970
31964
31965
31956
31958
31952
31947
31944
31938
31930
31928
31933
31918
31920
31912
31904
31908
31908
31895
31892
31892
31892
31888
31880
31878
31868
31862
31861
31856
31854
31849
31844
31846
31838
31832
31825
31832
31820
31820
31822
31812
31809
31802
31801
31800
31788
31790
31782
31786
31776
31778
31768
31764
31765
31764
31757
31764
31752
31750
31742
31738
31734
31727
31734
31728
31724
31716
31716
31712
31710
31712
31710
31700
31694
31709
31692
31700
31692
31680
31685
31681
31682
31680
31684
31684
31670
31672
31664
31662
31657
31652
31653
31652
31649
31641
31642
31648
31636
31630
31635
31628
31629
31630
31620
31615
31615
31612
31606
31605
31597
31598
31593
31584
31584
31582
31572
31572
31572
31567
31558
31558
31556
31556
31544
31534
31540
31524
31526
31513
31518
31512
31504
31502
31496
31488
31490
31477
31472
31476
31468
31460
31456
31453
31448
31445
31450
31436
31428
31434
31425
31428
31414
31420
31413
31407
31404
31406
31398
31398
31390
31390
31382
31382
31376
31374
31380
31366
31364
31360
31360
31364
31356
31357
31352
31352
31351
31344
31348
31343
31340
31339
31333
31328
31333
31332
31328
31332
31328
31333
31320
31328
31324
31328
31320
31320
31316
31303
31309
31316
31310
31313
31313
31306
31303
31306
31296
31306
31296
31300
31297
31300
31302
31294
31288
31290
31293
31298
31288
31286
31288
31284
31292
31288
31276
31284
31268
31280
31280
31272
31277
31272
31271
31266
31264
31260
31256
31260
31264
31252
31260
31268
31256
31241
31252
31244
31245
31244
31244
31242
31246
31232
31241
31236
31228
31223
31225
31223
31228
31228
31220
31217
31221
31216
31213
31213
31212
31208
31208
31204
31210
31206
31211
31204
31200
31196
31193
31200
31196
31200
31188
31192
31189
31190
31188
31190
31193
31190
31188
31181
31181
31188
31184
31188
31192
31188
31185
31182
31177
31177
31192
31192
31180
31184
31180
31180
31188
31188
31183
31180
31180
31184
31188
31184
31182
31188
31182
31184
31188
31188
31188
31186
31185
31176
31186
31188
31184
31184
31186
31182
31188
31182
31185
31180
31185
31180
31188
31186
31180
31190
31178
31183
31180
31176
31182
31184
31176
31188
31178
31178
31181
31174
31176
31180
31176
31170
31173
31182
31184
31180
31177
31175
31170
31176
31176
31172
31169
31172
31168
31172
31172
31164
31172
31168
31172
31172
31173
31164
31165
31168
31172
31172
31172
31169
31168
31164
31171
31174
31165
31166
31169
31180
31172
31170
31172
31170
31174
31173
31172
31175
31172
31172
31178
31172
31173
31172
31180
31172
31180
31169
31175
31180
31172
31169
31176
31168
31168
31172
31168
31158
31173
31164
31164
31162
31156
31152
31148
31148
31152
31142
31151
31140
31132
31132
31133
31121
31128
31113
31108
31109
31104
31101
31096
31084
31087
31072
31074
31069
31064
31062
31052
31044
31044
31038
31038
31038
31030
31024
31032
31020
31018
31012
31018
31010
31004
30999
31006
31009
31002
31010
31008
31004
31004
31007
31012
31004
31008
31012
31012
31006
31012
31012
31015
31010
31016
31015
31022
31016
31026
31021
31026
31023
31017
31028
31020
31010
31009
31016
31016
31009
31009
31006
31008
31005
31000
31002
31001
31000
30982
30992
30990
30984
30989
30980
30984
30980
30967
30975
30970
30966
30966
30964
30962
30962
30962
30948
30952
30949
30956
30948
30948
30955
30948
30946
30949
30936
30937
30932
30933
30932
30924
30929
30928
30924
30912
30918
30911
30913
30908
30904
30901
30908
30892
30888
30890
30884
30876
30878
30880
30876
30864
30860
30856
30860
30858
30852
30846
30844
30842
30847
30832
30826
30820
30825
30820
30816
30821
30804
30802
30804
30800
30796
30791
30788
30788
30780
30780
30785
30776
30780
30770
30773
30770
30768
30770
30764
30760
30758
30756
30758
30754
30752
30756
30754
30748
30752
30748
30750
30745
30736
30744
30753
30736
30740
30736
30744
30737
30730
30732
30735
30736
30733
30734
30737
30736
30736
30736
30732
30727
30724
30730
30732
30728
30726
30736
30736
30729
30727
30732
30730
30732
30728
30728
30726
30732
30730
30722
30732
30729
30724
30724
30724
30726
30728
30728
30724
30729
30724
30724
30724
30725
30724
30722
30718
30727
30724
30727
30719
30720
30724
30727
30724
30724
30724
30721
30724
30720
30717
30725
30721
30724
30718
30721
30719
30726
30713
30716
30718
30716
30716
30712
30708
30720
30716
30716
30708
30712
30711
30708
30716
30712
30717
30712
30697
30696
30696
30692
30700
30690
30692
30693
30688
30694
30692
30692
30693
30685
30692
30688
30690
30692
30690
30688
30689
30695
30685
30688
30690
30692
30692
30689
30701
30692
30702
30692
30696
30698
30704
30705
30705
30709
30701
30705
30704
30709
30708
30705
30709
30711
30719
30708
30718
30716
30717
30712
30716
30718
30720
30720
30712
30718
30721
30714
30716
30718
30720
30720
30724
30717
30716
30724
30712
30730
30724
30730
30719
30727
30733
30728
30737
30745
30749
30744
30744
30747
30744
30749
30750
30756
30764
30764
30772
30774
30776
30776
30789
30786
30788
30788
30794
30797
30796
30794
30804
30810
30813
30808
30812
30812
30819
30820
30826
30821
30826
30826
30828
30836
30840
30844
30844
30850
30846
30844
30848
30853
30856
30862
30854
30868
30864
30862
30871
30881
30876
30870
30876
30880
30886
30888
30885
30894
30902
30893
30896
30904
30912
30902
30917
30912
30912
30916
30914
30922
30920
30920
30924
30924
30924
30932
30932
30932
30940
30936
30938
30932
30940
30934
30948
30948
30945
30944
30946
30948
30946
30953
30948
30948
30956
30948
30953
30944
30948
30958
30959
30958
30961
30948
30952
30957
30952
30948
30952
30952
30958
30956
30945
30949
30960
30948
30946
30956
30950
30952
30953
30946
30948
30944
30940
30952
30948
30944
30940
30946
30940
30946
30948
30937
30938
30940
30948
30941
30942
30937
30932
30940
30936
30942
30938
30935
30936
30924
30932
30932
30932
30927
30930
30928
30928
30928
30924
30928
30932
30925
30927
30928
30928
30925
30932
30918
30928
30918
30920
30922
30922
30921
30924
30932
30928
30925
30925
30924
30928
30932
30932
30925
30936
30924
30936
30940
30942
30933
30938
30940
30940
30945
30948
30946
30949
30954
30954
30948
30956
30952
30960
30966
30954
30967
30964
30972
30973
30976
30972
30985
30980
30984
30990
30992
30997
30999
30996
31002
31010
31006
31012
31012
31020
31016
31016
31018
31027
31029
31026
31032
31036
31040
31040
31046
31047
31049
31048
31050
31060
31052
31061
31065
31068
31070
31072
31076
31080
31081
31080
31081
31084
31086
31092
31092
31108
31093
31097
31105
31112
31109
31104
31108
31112
31117
31114
31124
31120
31125
31124
31124
31128
31124
31140
31132
31140
31141
31136
31153
31140
31152
31148
31150
31156
31153
31150
31161
31157
31160
31160
31170
31167
31160
31167
31172
31172
31168
31172
31176
31172
31176
31177
31186
31177
31181
31188
31180
31184
31180
31198
31191
31178
31185
31188
31193
31189
31195
31188
31196
31192
31186
31190
31196
31191
31186
31191
31194
31186
31200
31188
31197
31189
31194
31194
31198
31194
31198
31198
31192
31193
31192
31204
31196
31200
31188
31196
31196
31196
31188
31197
31192
31196
31194
31196
31198
31196
31192
31198
31200
31194
31196
31196
31192
31193
31199
31194
31196
31196
31194
31193
31196
31201
31196
31196
31192
31192
31196
31196
31194
31198
31180
31192
31189
31188
31190
31198
31184
31193
31189
31196
31183
31180
31188
31189
31181
31182
31190
31182
31180
31180
31176
31177
31177
31176
31176
31166
31176
31164
31177
31170
31165
31165
31164
31172
31160
31167
31163
31153
31158
31156
31158
31162
31152
31148
31156
31154
31149
31151
31156
31146
31150
31137
31150
31144
31157
31140
31140
31148
31144
31145
31144
31144
31140
31146
31141
31142
31133
31140
31140
31140
31140
31132
31138
31143
31132
31133
31132
31127
31124
31119
31122
31118
31121
31112
31105
31103
31104
31094
31100
31089
31092
31093
31079
31079
31078
31072
31062
31056
31052
31052
31060
31046
31041
31044
31032
31020
31016
31014
31011
31000
31004
30999
30986
30988
30974
30972
30969
30964
30968
30960
30954
30952
30950
30944
30946
30948
30942
30944
30944
30942
30946
30946
30944
30940
30940
30942
30941
30945
30944
30942
30949
30956
30955
30956
30958
30964
30964
30964
30966
30960
30975
30980
30974
30976
30978
30983
30978
30984
30974
30990
30980
30984
30984
30989
30984
30984
30976
30980
30979
30988
30982
30981
30988
30981
30976
30976
30972
30972
30974
30972
30982
30972
30972
30972
30972
30969
30970
30970
30964
30964
30966
30964
30964
30964
30961
30958
30958
30952
30956
30954
30951
30956
30952
30949
30948
30944
30940
30944
30932
30928
30936
30926
30924
30928
30916
30920
30905
30914
30900
30896
30896
30895
30889
30888
30891
30880
30872
30873
30870
30857
30854
30856
30852
30849
30842
30841
30830
30836
30826
30820
30823
30812
30815
30809
30800
30792
30796
30790
30792
30780
30778
30778
30770
30773
30769
30757
30758
30756
30752
30748
30745
30741
30742
30738
30738
30732
30732
30725
30720
30718
30716
30716
30712
30712
30709
30702
30708
30704
30696
30690
30692
30692
30695
30685
30676
30684
30681
30674
30665
30672
30672
30661
30660
30652
30653
30652
30652
30654
30642
30640
30636
30638
30637
30623
30618
30620
30611
30608
30600
30596
30596
30580
30583
30572
30566
30562
30554
30546
30533
30524
30516
30510
30498
30494
30476
30468
30460
30449
30440
30417
30409
30398
30390
30377
30364
30356
30349
30332
30318
30306
30286
30278
30274
30254
30252
30225
30214
30204
30192
30172
30166
30142
30128
30116
30100
30086
30072
30058
30042
30024
30010
29990
29981
29964
29952
29936
29921
29908
29895
29876
29860
29836
29828
29818
29788
29780
29762
29744
29730
29708
29698
29682
29670
29660
29640
29620
29596
29592
29567
29557
29536
29518
29504
29490
29472
29453
29436
29416
29402
29380
29372
29344
29329
29310
29296
29276
29254
29236
29220
29206
29185
29166
29150
29128
29111
29088
29082
29060
29038
29018
29006
28988
28976
28957
28936
28920
28901
28878
28877
28848
28836
28820
28804
28789
28775
28753
28736
28721
28710
28700
28686
28662
28644
28636
28620
28612
28592
28580
28572
28552
28540
28526
28517
28502
28486
28470
28456
28449
28440
28418
28404
28390
28386
28362
28352
28342
28312
28312
28308
28284
28268
28261
28245
28236
28218
28204
28194
28179
28162
28140
28134
28126
28108
28095
28080
28068
28047
28036
28034
28010
28004
27988
27972
27958
27937
27926
27904
27892
27885
27872
27852
27842
27825
27816
27797
27780
27764
27752
27740
27718
27704
27692
27672
27662
27644
27623
27612
27596
27576
27564
27548
27527
27510
27492
27484
27464
27450
27436
27420
27405
27383
27372
27352
27332
27310
27300
27278
27264
27244
27232
27212
27190
27174
27164
27144
27126
27112
27091
27072
27060
27040
27025
27008
26992
26974
26956
26945
26929
26916
26897
26884
26860
26853
26830
26822
26812
26793
26784
26772
26752
26744
26732
26720
26712
26698
26684
26668
26655
26650
26632
26612
26604
26600
26581
26580
26564
26558
26541
26541
26529
26517
26508
26500
26498
26492
26476
26476
26468
26462
26452
26452
26440
26444
26433
26428
26426
26424
26417
26402
26407
26404
26398
26392
26384
26390
26384
26376
26378
26365
26372
26364
26358
26368
26356
26353
26348
26345
26356
26344
26346
26336
26338
26336
26332
26336
26333
26337
26332
26328
26329
26332
26330
26324
26328
26324
26330
26322
26337
26326
26338
26330
26332
26332
26328
26338
26340
26336
26345
26350
26345
26348
26358
26362
26372
26371
26370
26380
26388
26390
26400
26397
26408
26408
26420
26430
26433
26438
26444
26455
26465
26465
26476
26480
26498
26492
26509
26514
26525
26533
26540
26542
26557
26568
26576
26584
26588
26590
26606
26616
26615
26638
26640
26642
26658
26664
26666
26680
26688
26697
26708
26712
26716
26726
26733
26743
26752
26765
26776
26772
26788
26789
26804
26820
26824
26830
26841
26842
26856
26868
26878
26878
26896
26894
26914
26922
26924
26941
26954
26951
26977
26982
26990
26992
27008
27024
27030
27044
27055
27062
27076
27082
27093
27105
27116
27127
27138
27151
27164
27172
27184
27196
27206
27225
27233
27244
27252
27268
27280
27296
27301
27317
27328
27340
27349
27364
27374
27385
27400
27409
27421
27429
27442
27456
27466
27472
27482
27496
27512
27512
27533
27536
27550
27556
27568
27572
27588
27596
27608
27622
27628
27630
27648
27661
27668
27674
27686
27689
27708
27722
27728
27734
27740
27756
27770
27780
27788
27797
27812
27817
27822
27840
27848
27855
27864
27877
27880
27900
27900
27916
27925
27932
27937
27960
27968
27974
27981
27998
28000
28017
28021
28040
28052
28057
28072
28082
28093
28100
28112
28120
28133
28140
28146
28167
28168
28182
28197
28208
28212
28224
28244
28250
28261
28276
28287
28295
28305
28316
28320
28342
28348
28354
28358
28384
28396
28397
28416
28422
28440
28450
28465
28476
28488
28492
28502
28521
28532
28532
28548
28564
28575
28580
28596
28612
28616
28624
28646
28652
28654
28665
28682
28695
28709
28716
28720
28739
28745
28765
28772
28769
28784
28792
28805
28812
28825
28836
28839
28856
28866
28865
28882
28897
28901
28908
28916
28923
28936
28944
28959
28959
28964
28973
28985
28991
29001
29011
29017
29020
29037
29042
29056
29058
29060
29076
29076
29089
29088
29101
29110
29112
29128
29132
29149
29156
29157
29168
29173
29196
29200
29216
29220
29234
29244
29258
29261
29284
29288
29300
29316
29334
29332
29350
29366
29377
29386
29401
29420
29432
29442
29452
29466
29478
29490
29509
29520
29536
29540
29562
29580
29589
29603
29610
29630
29628
29646
29664
29673
29688
29697
29704
29724
29732
29741
29760
29766
29772
29781
29800
29800
29814
29836
29840
29850
29862
29866
29876
29884
29896
29900
29916
29930
29929
29940
29956
29962
29978
29980
29993
30000
30014
30024
30018
30036
30041
30052
30056
30069
30080
30084
30100
30100
30110
30112
30121
30128
30128
30144
30146
30158
30168
30165
30168
30178
30189
30188
30200
30208
30210
30220
30232
30234
30236
30244
30246
30253
30260
30264
30278
30278
30280
30276
30285
30288
30292
30300
30310
30312
30313
30326
30326
30330
30332
30336
30341
30341
30348
30358
30358
30364
30373
30364
30376
30376
30386
30382
30391
30393
30395
30400
30406
30409
30404
30418
30416
30416
30424
30420
30433
30436
30438
30440
30440
30444
30448
30452
30453
30464
30465
30468
30470
30472
30470
30481
30480
30487
30490
30490
30498
30496
30496
30500
30510
30514
30512
30510
30512
30519
30519
30532
30524
30527
30530
30532
30548
30545
30544
30548
30557
30540
30558
30564
30552
30560
30562
30564
30576
30564
30572
30580
30575
30582
30590
30588
30592
30592
30596
30600
30598
30606
30606
30612
30620
30624
30628
30625
30632
30632
30638
30644
30647
30648
30652
30652
30657
30664
30660
30670
30676
30677
30687
30689
30692
30693
30704
30708
30710
30713
30715
30720
30728
30733
30740
30742
30748
30748
30754
30768
30776
30772
30776
30776
30788
30798
30797
30806
30814
30812
30820
30822
30834
30840
30846
30854
30862
30876
30872
30884
30895
30895
30910
30916
30920
30921
30932
30936
30936
30952
30957
30966
30972
30984
30992
30988
31004
31006
31006
31020
31033
31038
31038
31046
31064
31060
31072
31080
31086
31100
31097
31112
31116
31126
31130
31145
31157
31164
31167
31180
31188
31204
31208
31208
31228
31240
31248
31256
31264
31282
31288
31300
31302
31321
31332
31336
31351
31364
31366
31372
31390
31404
31407
31414
31426
31436
31452
31456
31468
31479
31478
31496
31509
31517
31524
31533
31536
31538
31558
31562
31578
31585
31596
31601
31608
31621
31626
31636
31648
31652
31660
31661
31676
31676
31687
31697
31700
31716
31716
31724
31729
31740
31746
31756
31764
31776
31778
31785
31793
31804
31806
31812
31822
31830
31840
31833
31844
31856
31849
31868
31865
31876
31884
31884
31894
31897
31906
31912
31914
31926
31928
31924
31935
31938
31937
31941
31948
31957
31960
31964
31972
31972
31980
31976
31982
31990
31998
31997
32012
32000
32004
32012
32014
32021
32024
32032
32024
32032
32032
32036
32037
32040
32040
32042
32050
32044
32048
32056
32058
32060
32062
32064
32076
32066
32068
32076
32079
32070
32081
32073
32089
32090
32091
32084
32088
32095
32099
32100
32100
32100
32102
32098
32113
32116
32108
32130
32124
32130
32127
32136
32124
32134
32135
32145
32144
32142
32154
32151
32160
32164
32160
32172
32174
32170
32183
32176
32188
32188
32188
32194
32194
32204
32210
32213
32217
32214
32224
32222
32228
32228
32232
32238
32241
32246
32252
32256
32263
32254
32263
32272
32280
32276
32279
32281
32288
32300
32301
32304
32304
32317
32312
32324
32318
32324
32328
32324
32328
32337
32346
32342
32347
32356
32360
32354
32354
32364
32368
32368
32372
32372
32376
32383
32392
32380
32392
32400
32400
32396
32398
32404
32412
32406
32416
32404
32418
32416
32418
32416
32424
32418
32426
32424
32436
32437
32440
32428
32432
32437
32439
32444
32444
32449
32449
32456
32456
32452
32456
32456
32456
32460
32464
32458
32462
32460
32468
32468
32465
32466
32480
32476
32480
32476
32476
32473
32481
32484
32480
32484
32476
32482
32490
32482
32492
32488
32488
32490
32492
32493
32494
32500
32492
32502
32504
32501
32504
32505
32502
32502
32504
32500
32503
32502
32510
32502
32515
32517
32512
32512
32509
32518
32514
32510
32510
32518
32522
32521
32524
32524
32525
32524
32521
32527
32524
32522
32526
32530
32532
32528
32536
32528
32538
32537
32545
32532
32542
32542
32540
32550
32543
32542
32549
32552
32545
32549
32548
32548
32552
32552
32558
32558
32558
32550
32554
32558
32558
32556
32551
32556
32556
32558
32558
32556
32558
32556
32558
32560
32556
32560
32564
32566
32568
32554
32560
32562
32560
32564
32556
32560
32559
32564
32558
32550
32557
32548
32551
32549
32552
32549
32545
32552
32544
32546
32548
32549
32542
32548
32544
32542
32536
32536
32532
32528
32530
32533
32524
32524
32520
32518
32520
32520
32508
32512
32511
32500
32509
32500
32500
32505
32498
32495
32488
32493
32484
32480
32484
32480
32476
32470
32472
32460
32472
32471
32468
32464
32461
32458
32460
32460
32457
32456
32452
32449
32452
32452
32452
32444
32444
32444
32446
32444
32442
32444
32444
32441
32441
32440
32440
32432
32432
32428
32420
32428
32432
32428
32428
32426
32421
32420
32425
32420
32417
32414
32412
32396
32402
32400
32401
32396
32388
32404
32388
32384
32380
32376
32376
32373
32369
32368
32365
32356
32362
32356
32352
32343
32348
32338
32334
32329
32328
32320
32332
32321
32316
32322
32316
32316
32320
32310
32304
32304
32314
32312
32312
32312
32308
32302
32308
32302
32316
32314
32312
32316
32320
32324
32324
32321
32316
32324
32328
32326
32326
32328
32340
32344
32336
32348
32344
32340
32352
32357
32362
32360
32360
32367
32359
32368
32372
32372
32370
32372
32370
32372
