RESPIRATION
12332
12348
12354
12358
12378
12377
12392
12396
12406
12420
12420
12424
12440
12438
12452
12459
12462
12475
12471
12484
12495
12496
12508
12513
12510
12529
12525
12530
12539
12541
12558
12560
12559
12568
12578
12580
12580
12590
12584
12594
12599
12602
12612
12612
12613
12623
12621
12621
12630
12631
12628
12644
12634
12641
12644
12647
12644
12650
12657
12660
12654
12662
12661
12664
12668
12660
12668
12674
12670
12668
12672
12676
12674
12673
12674
12672
12677
12684
12685
12674
12686
12688
12681
12689
12689
12692
12689
12692
12702
12690
12696
12688
12696
12708
12705
12710
12708
12708
12709
12717
12717
12714
12720
12726
12728
12734
12732
12740
12741
12740
12758
12748
12760
12769
12764
12779
12776
12791
12796
12796
12810
12811
12820
12827
12838
12841
12847
12852
12872
12884
12880
12886
12900
12902
12922
12921
12944
12947
12956
12967
12973
12984
13004
13008
13016
13036
13040
13048
13064
13080
13094
13098
13106
13122
13129
13142
13156
13170
13181
13193
13197
13212
13229
13238
13248
13263
13273
13294
13297
13308
13318
13340
13350
13364
13376
13377
13385
13422
13429
13433
13449
13461
13471
13488
13498
13516
13528
13542
13554
13568
13584
13597
13604
13628
13631
13656
13664
13674
13697
13706
13714
13740
13746
13762
13775
13793
13806
13816
13831
13855
13861
13880
13893
13910
13919
13950
13954
13974
13989
13992
14020
14020
14044
14057
14070
14086
14100
14110
14124
14148
14156
14172
14188
14190
14220
14224
14236
14250
14252
14270
14286
14300
14310
14316
14332
14348
14348
14368
14376
14380
14399
14409
14421
14444
14441
14450
14465
14470
14488
14494
14505
14522
14521
14535
14560
14558
14581
14592
14596
14618
14616
14630
14648
14656
14671
14679
14692
14702
14713
14725
14738
14748
14756
14772
14782
14796
14807
14813
14818
14841
14852
14859
14871
14882
14894
14901
14912
14928
14934
14948
14956
14965
14980
14985
14996
15014
15017
15030
15042
15044
15063
15076
15083
15098
15101
15120
15141
15136
15150
15172
15178
15194
15194
15214
15224
15236
15246
15264
15268
15288
15292
15308
15332
15338
15350
15360
15373
15385
15398
15404
15430
15436
15458
15466
15476
15493
15497
15516
15529
15540
15560
15570
15578
15599
15613
15628
15636
15646
15664
15679
15690
15702
15723
15732
15737
15759
15768
15780
15788
15812
15817
15836
15852
15850
15870
15880
15893
15901
15925
15924
15941
15950
15960
15974
15981
15993
16016
16015
16030
16045
16050
16061
16070
16084
16090
16105
16116
16121
16137
16146
16148
16170
16166
16180
16192
16201
16204
16227
16230
16236
16250
16256
16262
16273
16284
16288
16303
16308
16313
16325
16325
16338
16359
16359
16366
16372
16381
16390
16396
16415
16410
16420
16430
16432
16444
16450
16468
16469
16468
16480
16486
16493
16498
16514
16512
16524
16536
16534
16540
16549
16558
16560
16573
16581
16580
16583
16596
16592
16604
16614
16612
16622
16636
16638
16631
16644
16646
16650
16660
16664
16666
16664
16673
16684
16678
16684
16692
16699
16697
16696
16716
16705
16708
16716
16720
16720
16733
16730
16732
16738
16743
16734
16738
16750
16754
16758
16757
16757
16763
16766
16776
16780
16782
16781
16793
16796
16797
16804
16799
16814
16816
16814
16832
16824
16836
16840
16836
16844
16853
16854
16862
16878
16877
16876
16888
16896
16900
16914
16916
16912
16927
16938
16932
16942
16953
16955
16964
16969
16976
16984
16993
16998
17012
17012
17013
17028
17036
17036
17054
17064
17066
17078
17082
17090
17110
17117
17116
17132
17132
17141
17157
17162
17176
17182
17188
17206
17222
17220
17241
17248
17252
17269
17286
17291
17296
17318
17321
17338
17346
17359
17376
17388
17396
17414
17438
17438
17456
17473
17477
17492
17509
17524
17538
17554
17568
17574
17596
17610
17612
17628
17660
17660
17677
17696
17704
17721
17740
17751
17764
17793
17791
17812
17829
17847
17859
17866
17896
17910
17918
17944
17956
17969
17974
17997
18022
18028
18044
18072
18084
18092
18113
18132
18148
18162
18178
18192
18212
18232
18252
18254
18276
18294
18318
18330
18343
18366
18378
18406
18412
18444
18466
18478
18492
18527
18532
18547
18572
18590
18608
18628
18647
18669
18697
18724
18744
18758
18780
18796
18826
18848
18857
18880
18908
18929
18952
18976
19001
19022
19052
19070
19086
19113
19138
19151
19176
19201
19218
19248
19260
19288
19318
19336
19358
19382
19401
19430
19464
19480
19496
19520
19552
19572
19597
19620
19650
19670
19688
19722
19750
19761
19791
19821
19840
19862
19900
19915
19938
19975
19990
20022
20052
20068
20091
20127
20152
20176
20202
20218
20251
20282
20294
20325
20358
20382
20402
20430
20452
20482
20516
20530
20562
20590
20605
20623
20656
20684
20702
20732
20762
20773
20802
20836
20856
20874
20903
20924
20944
20970
21007
21016
21052
21072
21092
21120
21140
21161
21194
21222
21242
21262
21296
21326
21340
21360
21396
21424
21455
21464
21496
21527
21564
21574
21609
21638
21665
21684
21720
21748
21764
21794
21834
21853
21880
21905
21926
21968
21998
22016
22053
22085
22101
22138
22174
22188
22220
22250
22272
22308
22340
22360
22396
22420
22445
22484
22502
22538
22564
22593
22626
22648
22688
22710
22742
22770
22788
22828
22858
22885
22924
22954
22971
23016
23040
23068
23108
23132
23154
23200
23220
23254
23284
23310
23354
23374
23426
23443
23479
23514
23532
23576
23604
23640
23668
23694
23738
23768
23800
23834
23867
23906
23953
23968
24004
24044
24065
24114
24136
24171
24212
24238
24277
24312
24341
24373
24408
24435
24468
24508
24532
24569
24612
24636
24669
24704
24722
24762
24800
24828
24864
24888
24916
24961
24984
25020
25047
25068
25114
25133
25158
25204
25226
25252
25292
25316
25340
25380
25408
25436
25462
25505
25521
25564
25594
25612
25648
25688
25708
25735
25768
25790
25820
25849
25885
25908
25956
25968
26005
26028
26056
26097
26123
26148
26186
26212
26237
26271
26294
26320
26362
26376
26410
26440
26453
26497
26524
26546
26583
26600
26626
26663
26680
26708
26746
26760
26792
26823
26842
26884
26892
26924
26948
26964
26996
27024
27042
27070
27100
27116
27154
27176
27184
27226
27236
27264
27292
27310
27344
27360
27386
27422
27440
27449
27477
27498
27519
27542
27564
27594
27616
27637
27672
27687
27708
27740
27761
27780
27816
27832
27846
27884
27904
27925
27959
27968
27998
28016
28042
28063
28094
28118
28132
28158
28186
28200
28236
28252
28277
28300
28314
28348
28376
28388
28418
28438
28462
28480
28500
28542
28556
28580
28604
28621
28648
28670
28696
28710
28748
28761
28788
28809
28829
28853
28880
28896
28925
28948
28959
28983
29020
29037
29054
29080
29108
29124
29146
29172
29186
29214
29244
29258
29284
29294
29312
29348
29361
29382
29406
29428
29444
29474
29492
29508
29529
29560
29568
29592
29616
29636
29661
29676
29696
29732
29734
29756
29776
29792
29829
29840
29855
29880
29894
29922
29948
29952
29996
30008
30026
30050
30060
30079
30114
30129
30150
30176
30188
30211
30239
30252
30264
30302
30316
30328
30356
30382
30390
30420
30440
30454
30476
30496
30504
30540
30552
30572
30606
30620
30632
30652
30676
30680
30708
30721
30748
30760
30774
30792
30816
30832
30854
30864
30892
30906
30916
30941
30956
30972
31002
31008
31038
31044
31060
31090
31090
31105
31128
31135
31164
31185
31194
31213
31228
31248
31269
31280
31302
31316
31332
31358
31356
31384
31396
31412
31434
31444
31476
31482
31492
31525
31532
31546
31577
31581
31602
31628
31636
31660
31673
31684
31716
31716
31748
31761
31776
31788
31812
31820
31836
31862
31868
31894
31900
31924
31944
31962
31980
31976
32020
32015
32040
32060
32078
32100
32104
32122
32137
32159
32172
32188
32208
32214
32240
32257
32278
32292
32294
32330
32344
32360
32377
32391
32416
32428
32437
32464
32469
32492
32515
32524
32548
32564
32576
32589
32597
32632
32644
32668
32686
32692
32714
32732
32744
32769
32774
32806
32809
32840
32854
32866
32885
32894
32913
32936
32944
32956
32988
32998
33004
33032
33054
33052
33092
33091
33117
33124
33142
33162
33188
33184
33208
33222
33232
33256
33264
33282
33298
33311
33324
33350
33361
33376
33392
33398
33420
33430
33444
33460
33476
33480
33504
33508
33524
33536
33552
33572
33580
33588
33604
33612
33634
33640
33652
33668
33676
33696
33706
33704
33722
33741
33748
33768
33784
33782
33804
33820
33828
33842
33845
33868
33868
33888
33900
33912
33928
33932
33948
33958
33965
33980
33992
34017
34020
34031
34052
34057
34076
34088
34100
34121
34138
34160
34154
34180
34192
34206
34220
34222
34246
34260
34268
34292
34311
34318
34328
34348
34360
34383
34394
34401
34430
34444
34464
34468
34495
34508
34528
34544
34550
34580
34593
34606
34636
34653
34660
34680
34704
34724
34752
34762
34778
34804
34814
34841
34864
34876
34900
34916
34932
34960
34976
34992
35017
35024
35050
35074
35092
35121
35134
35140
35168
35178
35212
35228
35246
35265
35281
35301
35319
35348
35378
35392
35405
35426
35454
35476
35495
35524
35548
35558
35596
35612
35640
35668
35684
35718
35733
35760
35800
35812
35844
35868
35892
35918
35940
35980
36000
36020
36042
36074
36100
36128
36150
36188
36209
36222
36256
36278
36300
36334
36344
36384
36412
36430
36456
36477
36506
36532
36552
36582
36602
36617
36652
36686
36704
36725
36741
36772
36789
36804
36840
36861
36881
36916
36930
36952
36968
36986
37018
37040
37068
37084
37100
37128
37156
37166
37196
37212
37240
37258
37280
37313
37326
37360
37373
37400
37428
37456
37464
37503
37524
37548
37576
37604
37628
37644
37680
37692
37724
37764
37790
37804
37832
37852
37892
37918
37932
37968
37996
38020
38040
38081
38092
38126
38164
38188
38200
38242
38264
38292
38312
38353
38380
38404
38428
38456
38496
38508
38548
38564
38600
38616
38652
38676
38700
38730
38762
38784
38812
38840
38850
38888
38904
38940
38966
38992
39008
39032
39060
39088
39116
39146
39166
39188
39216
39240
39272
39284
39314
39332
39368
39390
39413
39438
39460
39484
39502
39529
39544
39580
39592
39620
39636
39664
39684
39718
39735
39760
39773
39807
39836
39854
39868
39909
39928
39950
39968
39984
40014
40029
40060
40078
40092
40120
40132
40172
40186
40208
40236
40252
40280
40296
40318
40352
40364
40388
40408
40425
40448
40472
40492
40516
40534
40552
40564
40596
40612
40638
40657
40668
40693
40708
40732
40750
40780
40804
40820
40836
40860
40879
40885
40930
40934
40956
40984
40992
41018
41044
41060
41080
41087
41120
41135
41160
41164
41196
41208
41240
41248
41274
41298
41300
41326
41345
41365
41383
41405
41424
41429
41454
41472
41495
41512
41532
41544
41564
41578
41610
41616
41640
41644
41672
41692
41713
41726
41750
41760
41781
41788
41804
41828
41848
41874
41888
41908
41920
41940
41956
41978
41996
42009
42020
42052
42076
42090
42098
42124
42125
42156
42174
42188
42218
42220
42244
42256
42268
42296
42308
42308
42336
42348
42366
42388
42396
42404
42438
42436
42454
42476
42482
42500
42520
42538
42542
42560
42576
42588
42612
42625
42620
42656
42662
42672
42696
42704
42712
42737
42752
42762
42768
42788
42806
42817
42824
42844
42861
42856
42880
42896
42918
42928
42938
42944
42966
42976
42992
43010
43004
43036
43044
43057
43070
43076
43088
43104
43112
43132
43130
43146
43159
43176
43186
43192
43198
43229
43223
43236
43248
43260
43276
43287
43290
43305
43316
43328
43332
43344
43368
43364
43372
43386
43398
43398
43408
43420
43428
43444
43440
43460
43458
43460
43470
43488
43484
43492
43504
43520
43524
43532
43541
43556
43548
43572
43567
43584
43577
43580
43588
43601
43596
43612
43606
43616
43620
43628
43633
43622
43652
43658
43652
43660
43658
43668
43658
43680
43676
43680
43678
43680
43681
43692
43692
43694
43700
43700
43700
43708
43716
43703
43716
43716
43716
43720
43716
43720
43732
43726
43728
43728
43728
43729
43726
43729
43746
43732
43732
43748
43740
43726
43744
43738
43728
43732
43749
43744
43752
43746
43744
43750
43748
43748
43752
43748
43758
43748
43740
43752
43756
43764
43756
43756
43748
43750
43758
43744
43741
43744
43736
43744
43744
43734
43748
43732
43742
43738
43724
43724
43716
43715
43720
43702
43714
43708
43690
43702
43693
43684
43692
43680
43676
43676
43660
43670
43662
43649
43640
43638
43636
43621
43626
43624
43606
43601
43609
43596
43584
43572
43572
43584
43568
43561
43550
43544
43544
43528
43534
43520
43516
43512
43502
43484
43502
43480
43478
43472
43446
43452
43460
43436
43440
43428
43408
43406
43400
43388
43384
43380
43367
43356
43352
43332
43336
43320
43318
43304
43290
43298
43300
43268
43268
43258
43252
43232
43247
43240
43224
43216
43208
43216
43192
43194
43184
43176
43170
43152
43156
43156
43136
43146
43135
43124
43116
43108
43118
43102
43093
43088
43072
43080
43065
43060
43052
43050
43048
43039
43040
43040
43015
43020
43009
43008
42996
42990
42976
42976
42974
42972
42960
42956
42952
42938
42932
42924
42912
42916
42908
42910
42900
42884
42890
42888
42876
42860
42854
42840
42842
42824
42828
42816
42796
42793
42776
42776
42760
42758
42746
42721
42728
42709
42692
42696
42676
42660
42660
42656
42648
42634
42628
42626
42612
42604
42594
42586
42584
42580
42570
42572
42567
42552
42548
42530
42530
42512
42504
42520
42492
42488
42476
42472
42468
42452
42440
42444
42420
42412
42408
42394
42384
42365
42360
42348
42327
42324
42324
42296
42296
42276
42268
42253
42242
42226
42212
42206
42180
42180
42165
42154
42136
42134
42116
42096
42086
42064
42044
42034
42025
42008
41994
41976
41966
41948
41952
41926
41904
41900
41880
41868
41854
41842
41820
41821
41804
41780
41776
41765
41748
41748
41738
41708
41694
41684
41672
41668
41662
41647
41631
41624
41606
41604
41596
41590
41580
41568
41552
41557
41534
41524
41518
41516
41500
41496
41484
41464
41464
41460
41452
41444
41428
41424
41420
41401
41392
41384
41382
41372
41358
41360
41336
41336
41334
41312
41316
41304
41281
41282
41282
41280
41256
41248
41236
41228
41216
41201
41186
41180
41171
41151
41140
41141
41124
41112
41096
41084
41077
41060
41045
41036
41024
41008
41004
40990
40964
40958
40944
40932
40910
40898
40890
40878
40868
40852
40844
40838
40804
40790
40791
40780
40748
40752
40744
40734
40710
40700
40684
40664
40648
40636
40624
40616
40598
40588
40568
40572
40544
40534
40508
40497
40492
40483
40472
40455
40437
40420
40408
40406
40376
40364
40356
40348
40328
40319
40302
40286
40284
40260
40245
40236
40224
40198
40200
40184
40164
40164
40144
40129
40128
40105
40096
40092
40062
40066
40044
40036
40021
40007
39988
39974
39968
39956
39944
39926
39908
39908
39881
39876
39860
39841
39845
39820
39800
39796
39778
39754
39744
39732
39720
39709
39692
39670
39672
39658
39634
39630
39614
39592
39576
39572
39550
39532
39516
39508
39486
39468
39456
39432
39422
39404
39391
39380
39361
39342
39320
39309
39292
39276
39271
39244
39224
39210
39201
39168
39172
39150
39126
39122
39108
39089
39062
39060
39032
39028
39008
38996
38968
38956
38948
38932
38900
38901
38888
38868
38858
38844
38824
38800
38790
38778
38752
38728
38723
38708
38688
38676
38652
38632
38620
38588
38582
38558
38532
38520
38504
38492
38465
38446
38440
38422
38398
38373
38360
38336
38316
38303
38273
38268
38252
38225
38220
38204
38178
38165
38156
38119
38112
38102
38076
38056
38048
38038
38010
38000
37991
37968
37948
37938
37924
37902
37894
37882
37860
37847
37828
37810
37792
37792
37764
37748
37741
37721
37704
37688
37672
37668
37650
37632
37610
37604
37584
37568
37552
37534
37529
37506
37484
37476
37462
37452
37431
37409
37410
37388
37376
37356
37335
37335
37312
37296
37284
37264
37257
37238
37220
37208
37196
37176
37156
37158
37132
37114
37100
37092
37079
37070
37050
37022
37020
37006
36982
36972
36956
36940
36920
36904
36896
36867
36848
36841
36828
36806
36804
36780
36764
36752
36738
36720
36710
36682
36668
36648
36636
36612
36608
36594
36557
36548
36537
36510
36500
36486
36462
36445
36432
36412
36390
36385
36372
36350
36340
36325
36296
36292
36278
36258
36236
36230
36200
36190
36180
36168
36144
36129
36124
36103
36076
36072
36056
36036
36036
36012
35996
35982
35964
35948
35945
35932
35908
35896
35892
35868
35849
35838
35820
35804
35796
35788
35765
35754
35742
35721
35714
35694
35673
35668
35652
35630
35623
35596
35588
35572
35552
35540
35525
35503
35488
35477
35461
35452
35428
35404
35394
35388
35364
35343
35324
35304
35296
35268
35260
35252
35220
35198
35184
35162
35144
35120
35104
35096
35076
35048
35032
35016
34992
34980
34958
34942
34924
34892
34888
34868
34848
34820
34794
34798
34764
34750
34733
34696
34688
34661
34641
34638
34604
34596
34552
34551
34524
34498
34488
34463
34442
34424
34404
34390
34356
34346
34330
34306
34294
34274
34250
34228
34204
34202
34172
34157
34133
34116
34100
34075
34056
34036
34020
33991
33986
33970
33944
33932
33906
33888
33872
33864
33849
33822
33797
33799
33772
33758
33742
33713
33726
33696
33672
33662
33656
33624
33612
33600
33596
33576
33552
33540
33540
33519
33502
33497
33468
33460
33436
33432
33428
33408
33400
33384
33364
33356
33336
33332
33316
33309
33298
33276
33271
33268
33244
33238
33216
33218
33192
33192
33181
33176
33164
33144
33140
33127
33110
33108
33090
33080
33064
33052
33036
33026
33013
33004
33001
32983
32964
32967
32940
32944
32916
32918
32892
32888
32884
32860
32856
32840
32838
32834
32812
32805
32791
32780
32770
32768
32753
32753
32736
32736
32729
32717
32704
32700
32700
32680
32684
32660
32664
32652
32653
32648
32644
32626
32624
32608
32612
32590
32598
32574
32578
32577
32560
32552
32543
32535
32533
32516
32506
32506
32488
32488
32476
32462
32461
32450
32434
32415
32420
32408
32386
32384
32362
32358
32352
32328
32321
32301
32300
32297
32274
32260
32248
32228
32220
32216
32193
32184
32158
32164
32138
32128
32108
32102
32088
32066
32057
32048
32026
32026
32013
31988
31982
31966
31950
31938
31914
31916
31892
31880
31860
31848
31838
31816
31812
31802
31766
31772
31760
31737
31732
31710
31689
31677
31668
31652
31640
31616
31621
31593
31586
31565
31555
31556
31524
31510
31506
31494
31472
31466
31450
31432
31431
31400
31404
31388
31374
31366
31340
31333
31328
31324
31296
31294
31276
31264
31260
31238
31221
31228
31202
31192
31176
31160
31157
31144
31132
31127
31113
31108
31101
31078
31068
31061
31052
31042
31032
31010
31004
30984
30978
30966
30956
30944
30938
30936
30908
30909
30896
30876
30878
30862
30844
30842
30838
30814
30817
30808
30796
30786
30780
30767
30754
30760
30738
30733
30727
30712
30700
30700
30684
30668
30680
30668
30656
30645
30649
30640
30626
30624
30612
30604
30596
30596
30582
30576
30582
30576
30552
30560
30546
30528
30533
30526
30516
30518
30508
30510
30500
30482
30497
30492
30476
30486
30468
30462
30464
30458
30445
30448
30440
30440
30437
30431
30418
30416
30414
30412
30400
30412
30391
30388
30391
30376
30372
30372
30360
30361
30364
30342
30340
30340
30335
30318
30320
30309
30292
30294
30287
30275
30276
30274
30262
30249
30254
30231
30228
30233
30220
30212
30200
30192
30180
30176
30156
30157
30146
30137
30132
30126
30113
30100
30101
30084
30076
30069
30052
30054
30048
30030
30030
30020
30002
29996
30002
29981
29986
29968
29960
29958
29952
29936
29948
29920
29920
29916
29897
29900
29884
29867
29878
29856
29853
29850
29837
29814
29820
29812
29796
29794
29773
29764
29762
29749
29732
29736
29708
29695
29706
29688
29674
29672
29665
29646
29649
29634
29622
29620
29606
29601
29596
29588
29568
29564
29564
29543
29540
29544
29528
29514
29508
29510
29492
29488
29474
29472
29464
29458
29452
29448
29437
29430
29420
29411
29404
29392
29380
29378
29373
29364
29368
29348
29340
29334
29338
29313
29308
29308
29293
29292
29277
29268
29260
29260
29246
29243
29228
29220
29208
29212
29196
29186
29182
29173
29161
29162
29156
29142
29129
29130
29128
29110
29103
29110
29092
29081
29070
29073
29060
29052
29044
29044
29038
29028
29024
29012
29016
28990
28994
28994
28976
28976
28972
28956
28952
28953
28943
28926
28932
28928
28904
28904
28904
28884
28892
28892
28872
28865
28866
28848
28848
28836
28839
28836
28812
28814
28805
28796
28782
28776
28776
28772
28748
28750
28748
28735
28719
28729
28710
28700
28701
28692
28678
28682
28661
28648
28648
28652
28628
28620
28616
28604
28596
28592
28584
28572
28568
28552
28544
28540
28529
28519
28518
28509
28488
28480
28480
28464
28452
28454
28440
28432
28430
28417
28396
28390
28384
28372
28357
28356
28346
28329
28330
28316
28296
28289
28288
28268
28260
28244
28238
28220
28210
28208
28184
28176
28166
28150
28134
28132
28126
28096
28092
28087
28066
28052
28042
28028
28020
28012
27989
27973
27966
27957
27932
27918
27916
27886
27870
27872
27848
27829
27830
27810
27784
27777
27768
27748
27716
27717
27702
27676
27662
27652
27639
27613
27599
27588
27566
27564
27536
27510
27500
27496
27466
27448
27448
27416
27408
27392
27364
27348
27345
27319
27296
27286
27268
27244
27237
27218
27196
27180
27170
27151
27136
27120
27088
27086
27070
27044
27030
27020
26988
26984
26972
26936
26938
26916
26896
26868
26864
26841
26825
26800
26798
26780
26757
26742
26724
26708
26688
26668
26670
26636
26622
26612
26590
26572
26568
26540
26524
26518
26496
26472
26468
26448
26432
26418
26398
26374
26363
26351
26330
26308
26301
26293
26260
26252
26244
26222
26209
26196
26176
26156
26148
26132
26113
26096
26080
26056
26054
26036
26017
26001
25993
25974
25954
25946
25932
25917
25904
25882
25876
25856
25836
25838
25812
25800
25786
25761
25764
25740
25717
25709
25708
25688
25669
25653
25644
25638
25614
25592
25584
25578
25564
25542
25534
25528
25508
25493
25478
25476
25460
25446
25447
25436
25406
25410
25400
25380
25370
25364
25348
25338
25335
25310
25308
25297
25280
25272
25268
25252
25244
25232
25227
25215
25200
25196
25188
25174
25168
25163
25159
25145
25138
25130
25124
25111
25098
25094
25076
25078
25063
25064
25053
25060
25034
25030
25028
25017
25010
25004
24997
24994
24986
24970
24968
24964
24954
24949
24950
24943
24940
24924
24918
24916
24917
24900
24901
24896
24892
24888
24872
24864
24862
24860
24858
24841
24840
24840
24838
24832
24831
24820
24816
24817
24805
24805
24794
24796
24805
24789
24782
24777
24776
24772
24774
24772
24774
24759
24756
24768
24758
24752
24748
24744
24746
24733
24738
24750
24740
24724
24726
24734
24722
24708
24714
24709
24703
24694
24700
24696
24688
24684
24685
24672
24668
24664
24656
24644
24641
24640
24628
24620
24615
24606
24590
24588
24584
24568
24548
24544
24544
24532
24516
24514
24501
24484
24475
24480
24452
24445
24436
24432
24411
24393
24390
24372
24356
24350
24340
24328
24308
24289
24288
24272
24254
24246
24240
24224
24200
24192
24182
24168
24152
24140
24134
24108
24094
24082
24068
24048
24032
24024
24012
23984
23983
23966
23940
23932
23924
23889
23884
23879
23852
23832
23827
23812
23784
23772
23765
23748
23724
23710
23693
23666
23660
23649
23624
23605
23588
23581
23564
23537
23520
23512
23492
23476
23469
23452
23421
23420
23398
23374
23360
23344
23334
23312
23303
23284
23264
23246
23241
23221
23192
23182
23168
23156
23140
23110
23112
23088
23072
23054
23050
23032
23006
22994
22983
22968
22950
22933
22934
22910
22900
22892
22879
22852
22845
22832
22812
22804
22808
22784
22770
22760
22756
22726
22736
22718
22700
22696
22686
22664
22660
22660
22644
22636
22637
22628
22616
22612
22600
22584
22580
22583
22573
22558
22558
22553
22538
22536
22542
22526
22512
22512
22522
22502
22488
22498
22492
22481
22492
22479
22473
22473
22472
22456
22456
22464
22452
22448
22436
22436
22440
22436
22426
22422
22425
22420
22414
22398
22407
22396
22396
22397
22390
22390
22386
22372
22374
22368
22360
22366
22364
22345
22348
22348
22328
22334
22332
22325
22317
22311
22308
22301
22298
22303
22286
22276
22280
22261
22264
22266
22250
22252
22245
22244
22233
22222
22218
22225
22220
22212
22212
22207
22192
22198
22194
22198
22192
22186
22180
22180
22174
22168
22175
22169
22168
22177
22169
22166
22166
22168
22170
22156
22159
22162
22149
22151
22160
22160
22148
22152
22154
22152
22156
22157
22162
22157
22152
22152
22164
22152
22149
22164
22162
22172
22164
22164
22178
22182
22190
22193
22201
22210
22212
22206
22231
22228
22240
22244
22253
22264
22260
22281
22296
22312
22310
22336
22334
22345
22369
22366
22384
22417
22421
22425
22444
22456
22468
22481
22500
22510
22528
22552
22561
22574
22599
22616
22620
22645
22664
22680
22700
22711
22729
22753
22760
22784
22802
22817
22848
22844
22868
22896
22913
22928
22945
22964
22986
23008
23028
23040
23070
23088
23106
23127
23148
23172
23185
23216
23233
23249
23263
23300
23316
23330
23366
23378
23400
23420
23436
23462
23492
23504
23524
23555
23580
23593
23617
23646
23664
23696
23716
23725
23758
23782
23791
23829
23852
23868
23896
23922
23956
23972
23996
24016
24041
24064
24097
24119
24140
24170
24187
24201
24238
24264
24287
24314
24340
24356
24399
24417
24453
24486
24509
24524
24552
24580
24606
24632
24664
24689
24708
24748
24771
24802
24820
24852
24880
24904
24942
24972
24982
25026
25052
25069
25110
25132
25160
25196
25221
25244
25276
25308
25332
25370
25392
25428
25463
25484
25506
25544
25576
25596
25636
25664
25689
25726
25760
25784
25812
25848
25868
25911
25944
25964
25993
26038
26058
26089
26125
26154
26181
26220
26255
26273
26301
26348
26370
26400
26446
26464
26503
26530
26556
26600
26608
26665
26688
26718
26756
26784
26809
26852
26876
26902
26938
26972
26989
27025
27068
27093
27116
27166
27181
27199
27234
27284
27308
27328
27364
27398
27425
27460
27490
27526
27540
27580
27612
27641
27670
27694
27730
27764
27788
27824
27848
27876
27898
27940
27966
27992
28018
28056
28084
28110
28149
28180
28200
28225
28266
28276
28314
28344
28370
28396
28432
28452
28482
28516
28540
28572
28593
28624
28655
28684
28696
28740
28764
28781
28828
28848
28877
28905
28932
28948
28988
29020
29045
29064
29104
29121
29149
29190
29218
29248
29266
29297
29326
29356
29375
29403
29432
29460
29492
29520
29548
29574
29604
29640
29664
29688
29729
29754
29776
29800
29836
29868
29884
29924
29956
29970
30004
30036
30064
30082
30116
30144
30166
30188
30236
30246
30284
30306
30340
30356
30392
30424
30442
30476
30502
30526
30552
30589
30616
30638
30668
30692
30724
30748
30784
30804
30824
30856
30880
30916
30948
30976
30996
31021
31048
31074
31115
31130
31156
31174
31217
31241
31265
31292
31316
31339
31370
31396
31432
31448
31484
31504
31521
31552
31588
31605
31628
31648
31676
31708
31728
31748
31784
31812
31828
31862
31884
31908
31928
31952
31974
32000
32020
32061
32088
32092
32114
32149
32161
32184
32213
32238
32244
32282
32300
32312
32350
32356
32376
32404
32420
32442
32460
32480
32494
32524
32546
32564
32573
32596
32628
32636
32656
32684
32706
32726
32756
32770
32802
32810
32847
32872
32887
32914
32932
32968
32996
33013
33040
33074
33096
33118
33154
33186
33204
33224
33268
33284
33313
33353
33375
33400
33428
33461
33488
33504
33536
33568
33596
33610
33652
33676
33700
33730
33756
33788
33812
33820
33860
33878
33903
33932
33970
33982
34000
34032
34054
34070
34096
34109
34126
34164
34173
34192
34214
34244
34264
34284
34297
34328
34340
34356
34388
34392
34406
34444
34456
34468
34495
34516
34520
34540
34572
34590
34600
34620
34641
34653
34674
34692
34700
34732
34754
34764
34772
34792
34816
34845
34844
34869
34894
34915
34916
34940
34956
34973
35000
35016
35028
35044
35068
35086
35101
35132
35136
35161
35180
35193
35207
35236
35256
35260
35280
35304
35300
35324
35357
35362
35380
35396
35423
35430
35444
35476
35484
35500
35520
35540
35544
35564
35589
35606
35616
35633
35656
35652
35684
35700
35706
35716
35738
35756
35764
35780
35806
35816
35836
35844
35868
35872
35888
35900
35924
35928
35942
35966
35976
35982
36004
36020
36028
36052
36070
36072
36084
36102
36116
36134
36149
36168
36164
36204
36209
36220
36238
36255
36268
36268
36303
36324
36325
36354
36362
36376
36396
36420
36426
36450
36456
36476
36500
36500
36534
36548
36552
36580
36597
36620
36634
36657
36669
36686
36712
36720
36744
36768
36784
36804
36820
36854
36864
36882
36896
36916
36944
36956
36984
37004
37008
37038
37068
37080
37098
37114
37140
37164
37186
37198
37236
37244
37262
37282
37310
37320
37348
37368
37393
37392
37418
37448
37463
37484
37504
37522
37540
37567
37576
37596
37616
37632
37656
37685
37694
37709
37728
37752
37764
37778
37800
37824
37830
37858
37868
37888
37900
37920
37946
37952
37968
37992
37998
38025
38028
38060
38078
38084
38098
38122
38138
38158
38166
38188
38212
38216
38228
38246
38264
38280
38290
38308
38320
38325
38350
38368
38360
38372
38392
38406
38406
38408
38433
38436
38442
38462
38468
38473
38478
38493
38500
38512
38530
38526
38532
38545
38554
38558
38568
38580
38580
38590
38604
38600
38620
38629
38636
38637
38652
38660
38664
38680
38696
38689
38716
38708
38720
38742
38744
38751
38769
38764
38784
38798
38799
38810
38824
38826
38832
38841
38848
38878
38870
38884
38896
38900
38925
38919
38944
38948
38956
38972
38978
38980
39003
39004
39012
39038
39029
39041
39056
39070
39072
39084
39094
39100
39100
39108
39128
39140
39140
39156
39160
39148
39172
39188
39184
39192
39200
39208
39205
39230
39230
39228
39240
39252
39252
39260
39264
39274
39274
39286
39284
39286
39284
39289
39316
39312
39318
39312
39329
39332
39328
39334
39332
39345
39344
39342
39350
39357
39348
39344
39360
39362
39364
39357
39380
39375
39372
39382
39390
39372
39382
39382
39396
39392
39384
39383
39396
39396
39392
39402
39406
39400
39397
39404
39412
39422
39412
39412
39412
39417
39425
39424
39414
39428
39428
39436
39428
39420
39448
39444
39452
39444
39444
39445
39450
39460
39452
39458
39468
39457
39465
39465
39472
39484
39482
39484
39480
39482
39486
39486
39484
39496
39496
39499
39505
39512
39520
39504
39522
39520
39510
39524
39532
39532
39542
39532
39536
39540
39544
39550
39556
39554
39552
39566
39562
39556
39562
39564
39574
39572
39578
39580
39579
39590
39584
39585
39592
39596
39592
39606
39588
39608
39621
39614
39608
39618
39628
39624
39618
39636
39628
39636
39636
39636
39636
39642
39654
39644
39655
39652
39649
39664
39668
39664
39676
39668
39684
39688
39688
39692
39682
39692
39692
39700
39716
39702
39705
39713
39708
39704
39712
39720
39716
39732
39729
39724
39728
39724
39716
39730
39736
39742
39732
39732
39742
39738
39728
39728
39740
39738
39738
39744
39757
39748
39748
39744
39746
39744
39748
39752
39744
39748
39756
39750
39742
39762
39752
39750
39741
39752
39752
39752
39757
39749
39748
39764
39750
39752
39764
39764
39776
39764
39760
39760
39768
39764
39756
39770
39772
39772
39764
39778
39768
39772
39777
39775
39774
39780
39768
39772
39788
39788
39776
39788
39792
39796
39796
39804
39800
39808
39805
39808
39807
39814
39814
39816
39824
39816
39828
39834
39822
39832
39846
39832
39837
39840
39846
39848
39846
39864
39855
39856
39852
39860
39869
39852
39860
39864
39864
39860
39864
39860
39852
39870
39870
39868
39869
39868
39872
39876
39868
39884
39868
39880
39880
39876
39876
39888
39892
39886
39886
39908
39888
39896
39908
39896
39904
39918
39912
39908
39916
39926
39918
39932
39930
39925
39921
39924
39938
39924
39924
39940
39930
39940
39940
39940
39932
39943
39935
39942
39940
39942
39943
39944
39952
39952
39944
39944
39952
39960
39956
39956
39954
39956
39962
39948
39956
39960
39958
39960
39968
39961
39964
39966
39954
39961
39961
39964
39968
39972
39957
39964
39960
39964
39960
39966
39968
39964
39964
39956
39964
39968
39962
39968
39960
39968
39968
39964
39974
39972
39973
39972
39974
39966
39976
39972
39976
39972
39972
39976
39980
39974
39976
39988
39984
39976
39988
39988
39983
39990
39984
39986
39989
40004
39985
39996
39996
39998
39988
39988
40000
39988
39992
39992
39989
39992
40000
39992
39990
40000
39994
39988
39996
40004
39990
39996
40006
39992
39998
39995
39996
39992
39996
39988
39992
39982
39988
40000
39988
39984
39984
39983
39984
39980
39977
39982
39984
39972
39980
39969
39972
39974
39972
39966
39976
39964
39964
39960
39957
39964
39956
39956
39952
39948
39952
39942
39952
39944
39936
39950
39928
39928
39926
39928
39912
39920
39909
39908
39906
39902
39892
39898
39882
39884
39876
39870
39875
39869
39856
39857
39852
39850
39838
39836
39826
39824
39816
39804
39796
39782
39782
39776
39760
39756
39761
39744
39740
39736
39724
39713
39712
39686
39680
39684
39656
39668
39652
39646
39628
39630
39608
39604
39584
39588
39575
39560
39562
39536
39532
39520
39510
39510
39492
39478
39472
39456
39460
39432
39417
39416
39396
39396
39376
39368
39361
39348
39324
39322
39311
39292
39284
39274
39260
39250
39240
39221
39217
39212
39188
39180
39176
39157
39140
39140
39124
39105
39092
39082
39072
39058
39048
39036
39024
39012
39002
38998
38972
38962
38954
38944
38948
38924
38916
38896
38887
38895
38866
38860
38848
38832
38820
38806
38804
38800
38768
38764
38752
38736
38724
38718
38704
38684
38696
38670
38652
38640
38628
38612
38614
38608
38577
38560
38565
38541
38532
38524
38504
38498
38488
38472
38449
38450
38444
38432
38408
38404
38398
38376
38364
38360
38351
38337
38318
38316
38308
38292
38300
38276
38270
38264
38248
38248
38240
38220
38222
38210
38194
38193
38184
38172
38166
38156
38154
38144
38138
38132
38116
38124
38108
38093
38092
38080
38074
38054
38056
38052
38032
38032
38022
38012
38014
37993
37989
37982
37972
37968
37958
37954
37936
37932
37922
37916
37892
37895
37888
37868
37870
37850
37844
37841
37820
37810
37812
37792
37778
37784
37758
37750
37732
37722
37706
37706
37684
37678
37671
37662
37636
37628
37608
37596
37585
37577
37559
37554
37541
37530
37513
37492
37485
37472
37457
37452
37432
37412
37416
37398
37372
37372
37356
37336
37330
37312
37297
37285
37268
37260
37242
37221
37220
37200
37182
37176
37146
37148
37144
37118
37104
37092
37077
37064
37056
37028
37018
37004
36996
36984
36968
36956
36943
36938
36924
36902
36878
36876
36860
36860
36830
36825
36812
36796
36775
36766
36756
36737
36734
36714
36696
36688
36676
36660
36650
36636
36630
36612
36584
36588
36576
36556
36548
36532
36516
36516
36500
36476
36480
36462
36436
36424
36420
36412
36404
36380
36370
36360
36352
36326
36320
36304
36288
36284
36258
36248
36248
36229
36212
36202
36184
36164
36164
36148
36128
36112
36098
36088
36084
36058
36045
36039
35999
36003
35993
35976
35970
35948
35932
35924
35909
35892
35888
35868
35846
35848
35832
35812
35806
35786
35758
35768
35748
35726
35716
35710
35686
35682
35662
35652
35645
35608
35600
35599
35576
35557
35553
35534
35524
35510
35495
35480
35456
35465
35446
35424
35416
35404
35386
35382
35366
35336
35333
35318
35296
35289
35263
35256
35246
35226
35205
35208
35192
35168
35157
35145
35136
35119
35106
35090
35085
35064
35044
35044
35016
35000
35004
34976
34960
34966
34938
34927
34928
34908
34892
34880
34857
34856
34850
34822
34806
34804
34784
34772
34766
34749
34728
34726
34708
34688
34690
34676
34658
34652
34636
34623
34620
34608
34584
34580
34570
34548
34532
34528
34508
34508
34493
34478
34466
34457
34436
34422
34420
34392
34375
34384
34352
34344
34328
34311
34290
34280
34268
34250
34236
34224
34193
34188
34168
34156
34135
34128
34104
34080
34081
34062
34036
34021
34020
33998
33988
33982
33954
33951
33948
33912
33909
33906
33884
33870
33872
33852
33839
33832
33810
33804
33788
33778
33764
33766
33744
33740
33728
33701
33704
33692
33664
33664
33652
33636
33626
33624
33604
33590
33590
33572
33552
33548
33536
33524
33508
33490
33478
33472
33456
33438
33434
33400
33396
33388
33364
33361
33355
33324
33324
33308
33284
33276
33260
33246
33226
33217
33188
33184
33168
33153
33144
33114
33104
33096
33081
33060
33040
33024
33008
32986
32972
32965
32936
32932
32920
32888
32868
32872
32836
32821
32812
32792
32780
32764
32728
32724
32708
32686
32672
32660
32633
32620
32604
32588
32568
32550
32525
32516
32500
32480
32468
32448
32422
32420
32392
32378
32368
32344
32341
32318
32308
32286
32270
32263
32232
32224
32217
32196
32180
32164
32140
32137
32120
32112
32096
32073
32056
32052
32029
32024
31992
31992
31973
31954
31946
31940
31912
31900
31888
31868
31852
31845
31828
31806
31802
31786
31768
31760
31734
31720
31712
31698
31692
31661
31660
31640
31622
31615
31600
31594
31568
31553
31552
31535
31508
31508
31492
31468
31457
31450
31426
31416
31404
31392
31371
31358
31350
31332
31316
31312
31294
31280
31258
31253
31242
31220
31210
31201
31184
31162
31156
31140
31112
31119
31103
31077
31076
31060
31048
31041
31016
31020
31000
30980
30976
30961
30938
30936
30920
30902
30902
30878
30863
30856
30840
30823
30808
30806
30792
30773
30765
30758
30738
30719
30716
30692
30685
30669
30660
30638
30627
30618
30616
30584
30562
30564
30543
30528
30524
30496
30482
30478
30460
30436
30422
30414
30400
30388
30376
30340
30332
30318
30292
30280
30268
30249
30226
30212
30192
30180
30167
30150
30126
30122
30106
30087
30060
30054
30028
30020
30002
29988
29960
29949
29940
29916
29902
29885
29868
29860
29844
29828
29818
29802
29786
29776
29756
29740
29729
29713
29692
29684
29676
29652
29644
29624
29606
29602
29574
29568
29557
29544
29532
29510
29500
29484
29464
29454
29438
29424
29406
29396
29380
29357
29342
29332
29316
29300
29284
29272
29252
29240
29228
29207
29196
29183
29159
29144
29141
29116
29096
29092
29076
29062
29040
29039
29016
29004
28988
28979
28982
28952
28934
28918
28908
28904
28892
28874
28860
28852
28844
28828
28817
28800
28796
28778
28772
28749
28736
28736
28722
28712
28692
28684
28665
28660
28644
28635
28615
28609
28596
28584
28572
28560
28548
28532
28518
28508
28508
28486
28475
28468
28452
28442
28428
28416
28404
28386
28378
28369
28357
28356
28334
28316
28314
28311
28294
28272
28271
28264
28252
28228
28224
28208
28208
28196
28184
28170
28160
28141
28144
28134
28116
28100
28098
28084
28074
28068
28044
28041
28036
28012
27996
27994
27990
27980
27960
27949
27940
27928
27912
27896
27888
27885
27862
27859
27854
27833
27820
27812
27812
27788
27774
27760
27756
27744
27722
27716
27704
27696
27680
27671
27668
27661
27634
27630
27618
27610
27591
27598
27580
27564
27560
27552
27532
27520
27511
27501
27487
27480
27476
27460
27448
27436
27437
27418
27404
27408
27394
27373
27372
27364
27348
27340
27332
27316
27308
27308
27285
27272
27274
27258
27236
27238
27236
27209
27215
27203
27182
27183
27168
27161
27141
27140
27119
27114
27108
27090
27078
27081
27070
27053
27044
27038
27028
27010
27012
26984
26980
26974
26962
26956
26948
26920
26918
26916
26893
26894
26880
26868
26864
26853
26826
26824
26820
26801
26793
26783
26772
26748
26760
26748
26730
26724
26724
26706
26688
26688
26674
26660
26660
26644
26636
26616
26624
26615
26593
26586
26580
26574
26550
26558
26541
26532
26528
26514
26500
26504
26488
26473
26476
26460
26446
26444
26437
26427
26420
26410
26396
26388
26388
26370
26360
26367
26350
26343
26334
26336
26334
26310
26305
26298
26301
26286
26276
26278
26273
26248
26259
26254
26242
26230
26228
26214
26223
26212
26202
26200
26201
26184
26188
26182
26176
26158
26164
26156
26148
26144
26145
26132
26135
26142
26132
26118
26112
26117
26111
26104
26102
26100
26093
26084
26084
26087
26078
26078
26078
26072
26060
26068
26062
26058
26053
26056
26057
26044
26048
26046
26041
26042
26040
26038
26036
26034
26042
26032
26032
26040
26025
26020
26029
26020
26026
26032
26019
26020
26021
26020
26020
26028
26020
26017
26018
26033
26020
26020
26020
26020
26012
26025
26021
26009
26022
26024
26020
26034
26028
26030
26036
26028
26032
26036
26034
26040
26048
26043
26041
26046
26042
26046
26056
26056
26046
26065
26068
26056
26066
26068
26056
26062
26072
26072
26064
26078
26068
26068
26080
26068
26068
26080
26076
26068
26074
26068
26076
26084
26064
26068
26076
26077
26077
26077
26072
26078
26080
26082
26074
26078
26086
26080
26074
26080
26085
26084
26092
26094
26094
26102
26100
26103
26090
26106
26116
26112
26116
26128
26112
26120
26132
26128
26132
26140
26152
26148
26144
26156
26170
26170
26169
26178
26188
26184
26180
26191
26196
26192
26200
26202
26215
26208
26216
26220
26228
26224
26224
26230
26236
26236
26236
26237
26250
26246
26244
26253
26256
26250
26248
26260
26248
26244
26264
26252
26248
26256
26264
26260
26261
26260
26253
26264
26265
26264
26260
26268
26260
26258
26268
26262
26260
26266
26266
26254
26264
26270
26268
26254
26268
26254
26254
26264
26268
26257
26256
26268
26253
26268
26268
26252
26260
26262
26252
26250
26270
26256
26261
26268
26256
26250
26248
26267
26256
26257
26252
26264
26263
26253
26254
26256
26254
26260
26241
26252
26256
26252
26252
26248
26256
26252
26245
26248
26260
26262
26252
26260
26263
26250
26248
26258
26260
26252
26252
26252
26256
26264
26252
26250
26246
26262
26252
26244
26243
26258
26248
26246
26242
26250
26254
26244
26242
26256
26252
26250
26250
26256
26254
26253
26249
26246
26256
26246
26264
26255
26250
26254
26260
26260
26257
26256
26264
26268
26264
26268
26266
26278
26275
26279
26280
26282
26286
26286
26288
26293
26302
26292
26300
26296
26305
26308
26317
26308
26318
26320
26330
26338
26324
26336
26340
26348
26342
26348
26360
26356
26368
26368
26370
26368
26388
26386
26381
26382
26400
26400
26400
26406
26405
26418
26415
26421
26420
26422
26437
26440
26436
26436
26453
26453
26448
26456
26449
26468
26472
26476
26472
26464
26474
26476
26470
26478
26480
26482
26487
26480
26487
26504
26485
26486
26492
26500
26497
26494
26500
26506
26492
26500
26511
26500
26502
26502
26507
26508
26504
26510
26516
26509
26513
26518
26528
26517
26520
26520
26530
26524
26522
26536
26536
26544
26532
26538
26548
26548
26548
26548
26562
26557
26550
26569
26569
26572
26564
26570
26580
26580
26576
26574
26592
26590
26588
26588
26599
26599
26588
26588
26594
26596
26590
26591
26604
26596
26596
26602
26604
26596
26600
26606
26606
26596
26600
26618
26616
26600
26613
26622
26620
26616
26620
26626
26628
26620
26620
26634
26639
26626
26638
26642
26644
26644
26648
26656
26660
26657
26656
26656
26661
26674
26671
26658
26674
26664
26672
26680
26686
26681
26677
26695
26694
26694
26692
26704
26701
26702
26710
26709
26712
26710
26714
26716
26721
26716
26721
26729
26730
26726
26728
26733
26738
26740
26745
26748
26750
26743
26756
26756
26759
26766
26777
26772
26773
26790
26776
26780
26792
26799
26796
26801
26808
26816
26812
26824
26828
26832
26836
26841
26837
26852
26856
26853
26868
26864
26865
26878
26879
26884
26892
26900
26904
26910
26910
26912
26914
26926
26929
26936
26938
26942
26954
26948
26954
26964
26968
26972
26976
26982
26991
26983
26993
27012
27004
27002
27016
27025
27023
27016
27033
27030
27036
27048
27050
27054
27063
27073
27072
27073
27082
27084
27092
27098
27108
27110
27118
27134
27136
27128
27145
27152
27150
27157
27160
27168
27176
27174
27185
27192
27204
27197
27216
27224
27222
27224
27249
27256
27252
27276
27270
27272
27280
27300
27311
27310
27313
27320
27340
27352
27358
27364
27370
27388
27407
27408
27413
27424
27446
27456
27460
27466
27488
27492
27506
27524
27522
27540
27554
27567
27568
27586
27597
27612
27616
27632
27645
27665
27669
27680
27693
27716
27724
27725
27740
27766
27770
27790
27786
27816
27828
27836
27854
27869
27881
27881
27908
27924
27932
27948
27964
27978
27982
28008
28012
28030
28036
28058
28076
28088
28097
28102
28129
28144
28150
28170
28188
28218
28233
28236
28260
28263
28276
28302
28316
28338
28342
28359
28386
28396
28408
28432
28452
28480
28482
28505
28530
28548
28552
28574
28594
28624
28632
28648
28684
28704
28701
28734
28748
28776
28792
28808
28835
28848
28866
28896
28918
28930
28956
28980
29009
29012
29033
29054
29084
29102
29124
29156
29173
29185
29222
29226
29246
29278
29301
29312
29340
29372
29386
29408
29428
29452
29461
29494
29522
29529
29556
29588
29604
29620
29648
29672
29690
29700
29724
29760
29766
29796
29828
29840
29864
29886
29904
29929
29953
29982
30000
30017
30048
30065
30080
30108
30136
30148
30178
30206
30220
30244
30272
30292
30304
30321
30356
30386
30393
30423
30447
30473
30492
30508
30540
30567
30582
30604
30632
30644
30660
30698
30716
30740
30762
30788
30798
30836
30858
30872
30892
30932
30949
30956
30993
31020
31023
31057
31090
31113
31133
31148
31172
31196
31222
31250
31266
31294
31300
31325
31348
31368
31398
31424
31454
31474
31492
31510
31536
31573
31576
31602
31620
31648
31676
31688
31701
31734
31764
31790
31806
31818
31852
31868
31897
31916
31926
31956
31984
31992
32014
32040
32068
32094
32105
32108
32150
32184
32190
32200
32228
32252
32264
32277
32300
32324
32344
32349
32375
32397
32416
32431
32446
32471
32481
32492
32520
32544
32553
32560
32588
32612
32624
32633
32663
32684
32698
32718
32741
32758
32772
32796
32812
32839
32846
32877
32892
32900
32932
32952
32972
32986
33012
33031
33050
33062
33085
33116
33134
33145
33176
33192
33201
33242
33260
33276
33314
33320
33341
33370
33380
33393
33416
33436
33456
33476
33496
33509
33542
33556
33573
33608
33608
33620
33642
33664
33672
33695
33712
33726
33743
33768
33776
33788
33812
33824
33832
33860
33868
33880
33902
33908
33921
33940
33956
33964
33984
33998
34002
34026
34040
34048
34072
34084
34096
34108
34114
34138
34148
34164
34176
34184
34209
34216
34236
34233
34256
34272
34276
34298
34316
34332
34338
34356
34360
34376
34384
34401
34414
34436
34437
34452
34480
34476
34488
34516
34519
34537
34546
34562
34577
34596
34607
34614
34634
34652
34653
34672
34681
34694
34712
34730
34732
34750
34768
34776
34786
34814
34816
34823
34852
34862
34867
34892
34894
34904
34924
34936
34944
34960
34966
34996
35002
35010
35024
35046
35048
35068
35084
35096
35100
35112
35140
35140
35152
35180
35188
35196
35212
35236
35232
35264
35272
35280
35300
35316
35320
35348
35345
35360
35380
35396
35414
35416
35428
35456
35472
35487
35498
35516
35537
35535
35550
35564
35588
35612
35620
35625
35644
35661
35674
35692
35700
35732
35728
35752
35765
35780
35792
35808
35814
35832
35845
35854
35877
35894
35900
35921
35936
35948
35976
35972
35991
36006
36015
36038
36048
36052
36068
36096
36092
36113
36130
36133
36150
36172
36164
36183
36201
36224
36222
36244
36248
36256
36272
36288
36286
36306
36327
36330
36347
36356
36368
36382
36392
36392
36408
36428
36424
36440
36456
36456
36476
36492
36484
36505
36516
36522
36540
36540
36550
36560
36576
36575
36600
36600
36598
36628
36632
36644
36646
36664
36668
36678
36688
36708
36704
36720
36732
36734
36750
36768
36764
36784
36792
36800
36812
36820
36832
36844
36840
36853
36872
36884
36880
36898
36919
36908
36928
36932
36934
36944
36964
36964
36964
36978
36973
36988
36994
36996
37004
37023
37023
37014
37034
37040
37042
37060
37056
37060
37076
37068
37080
37093
37095
37082
37104
37116
37104
37116
37134
37132
37134
37144
37144
37160
37168
37170
37176
37184
37190
37199
37207
37206
37232
37222
37224
37246
37244
37244
37268
37260
37274
37292
37284
37296
37309
37314
37313
37318
37324
37332
37340
37348
37350
37366
37376
37367
37376
37388
37396
37408
37412
37405
37433
37432
37440
37453
37444
37461
37472
37470
37476
37492
37489
37504
37512
37508
37532
37540
37536
37548
37562
37552
37572
37582
37581
37592
37602
37604
37615
37624
37628
37638
37644
37653
37657
37668
37680
37682
37684
37701
37702
37712
37722
37730
37740
37748
37748
37764
37768
37777
37776
37793
37812
37812
37822
37828
37832
37832
37854
37856
37864
37872
37877
37892
37900
37901
37916
37920
37930
37940
37951
37948
37964
37972
37972
37982
37995
38004
38009
38014
38032
38026
38044
38052
38062
38054
38076
38069
38090
38100
38108
38110
38118
38132
38132
38140
38150
38168
38168
38176
38184
38200
38200
38209
38212
38228
38236
38240
38252
38252
38261
38270
38276
38280
38286
38308
38300
38308
38329
38336
38344
38342
38360
38362
38372
38394
38384
38400
38404
38417
38422
38428
38440
38441
38440
38453
38468
38484
38470
38478
38500
38504
38500
38516
38520
38534
38530
38548
38548
38550
38564
38563
38565
38574
38588
38596
38600
38600
38612
38616
38625
38626
38628
38644
38644
38656
38664
38660
38671
38672
38676
38688
38694
38694
38714
38714
38703
38730
38720
38724
38728
38740
38756
38752
38752
38760
38780
38768
38786
38780
38784
38785
38804
38796
38804
38816
38820
38824
38830
38829
38848
38852
38852
38866
38868
38865
38874
38878
38884
38888
38894
38900
38904
38911
38910
38928
38930
38932
38940
38941
38948
38960
38948
38960
38976
38972
38980
38996
38996
38990
39000
39012
39018
39015
39040
39030
39038
39036
39042
39045
39060
39056
39072
39076
39084
39088
39103
39096
39104
39108
39108
39128
39128
39132
39132
39154
39144
39160
39166
39184
39180
39180
39194
39196
39200
39212
39228
39234
39234
39238
39244
39250
39258
39264
39273
39272
39289
39284
39284
39296
39298
39308
39319
39324
39324
39341
39344
39348
39358
39364
39372
39380
39388
39384
39397
39400
39404
39412
39426
39436
39430
39448
39458
39464
39468
39476
39480
39484
39500
39492
39496
39492
39510
39520
39520
39528
39536
39532
39558
39550
39544
39560
39572
39560
39570
39590
39582
39572
39592
39610
39614
39604
39616
39630
39636
39626
39652
39656
39658
39664
39678
39680
39688
39700
39702
39712
39717
39726
39740
39744
39743
39770
39768
39770
39782
39788
39792
39790
39820
39812
39818
39832
39836
39845
39847
39854
39864
39870
39888
39876
39894
39896
39901
39892
39916
39910
39914
39932
39934
39932
39933
39940
39952
39944
39956
39972
39964
39957
39964
39967
39972
39972
39980
39980
39988
39988
39992
39994
39996
39992
40004
39998
40004
40009
40013
40016
40012
40032
40024
40028
40034
40034
40024
40034
40032
40039
40056
40060
40053
40058
40060
40068
40072
40068
40068
40076
40082
40088
40092
40104
40104
40106
40116
40124
40124
40124
40132
40132
40148
40152
40156
40152
40172
40172
40172
40182
40196
40188
40202
40208
40209
40223
40228
40232
40240
40252
40252
40254
40262
40276
40268
40280
40281
40292
40308
40312
40316
40328
40337
40336
40342
40356
40348
40374
40364
40376
40394
40390
40394
40412
40414
40420
40431
40432
40436
40448
40444
40456
40455
40470
40480
40484
40488
40504
40505
40508
40512
40516
40528
40524
40540
40549
40560
40572
40560
40576
40588
40581
40612
40602
40608
40616
40617
40628
40646
40640
40652
40657
40660
40672
40676
40680
40696
40708
40700
40717
40719
40718
40741
40744
40740
40759
40764
40769
40776
40784
40799
40804
40804
40808
40820
40830
40836
40844
40850
40860
40864
40868
40884
40884
40895
40900
40904
40908
40924
40928
40938
40947
40949
40962
40964
40975
40980
40992
40996
41000
41007
41017
41020
41020
41032
41036
41054
41056
41064
41068
41068
41073
41073
41090
41094
41100
41096
41108
41116
41116
41116
41116
41116
41128
41128
41136
41148
41140
41132
41154
41148
41166
41164
41156
41180
41168
41160
41167
41180
41176
41180
41193
41192
41190
41200
41199
41206
41200
41207
41212
41216
41228
41224
41228
41236
41228
41236
41244
41248
41250
41270
41252
41264
41261
41262
41276
41272
41284
41288
41284
41286
41292
41279
41288
41304
41292
41301
41286
41285
41308
41308
41308
41312
41308
41316
41316
41324
41316
41332
41337
41319
41328
41332
41337
41330
41332
41334
41348
41342
41352
41348
41354
41358
41364
41352
41358
41362
41362
41376
41365
41368
41376
41380
41380
41381
41389
41380
41396
41397
41396
41400
41415
41400
41412
41418
41416
41416
41422
41422
41420
41430
41420
41428
41428
41429
41428
41433
41438
41436
41428
41440
41440
41440
41448
41460
41466
41468
41460
41471
41468
41452
41484
41460
41468
41476
41473
41463
41476
41492
41476
41476
41480
41472
41476
41480
41489
41484
41484
41488
41476
41478
41488
41486
41484
41492
41478
41484
41489
41484
41492
41489
41479
41480
41480
41474
41484
41482
41472
41473
41470
41471
41484
41468
41470
41472
41460
41468
41462
41454
41454
41454
41444
41446
41454
41436
41444
41448
41438
41436
41424
41425
41425
41430
41412
41412
41400
41404
41410
41412
41400
41402
41410
41400
41400
41392
41399
41390
41384
41385
41380
41380
41384
41370
41360
41358
41368
41348
41364
41354
41352
41361
41350
41348
41354
41344
41346
41336
41337
41332
41316
41326
41318
41314
41316
41316
41312
41304
41292
41292
41292
41284
41284
41284
41280
41280
41285
41260
41268
41268
41256
41252
41252
41233
41239
41232
41232
41230
41208
41204
41206
41196
41190
41198
41188
41180
41176
41148
41164
41156
41143
41136
41135
41120
41120
41108
41104
41095
41088
41080
41076
41068
41060
41052
41032
41034
41028
41028
41008
41002
40988
40988
40984
40967
40956
40948
40948
40932
40928
40926
40912
40898
40894
40892
40880
40868
40856
40852
40840
40832
40830
40812
40804
40802
40784
40770
40772
40764
40744
40736
40722
40716
40708
40700
40694
40684
40668
40644
40662
40636
40640
40613
40612
40612
40584
40580
40576
40552
40552
40540
40532
40526
40516
40492
40490
40480
40472
40455
40440
40444
40420
40428
40408
40399
40386
40386
40372
40368
40368
40348
40338
40328
40312
40306
40296
40288
40280
40277
40254
40260
40244
40225
40224
40220
40204
40202
40182
40184
40168
40152
40160
40156
40136
40122
40113
40100
40100
40088
40076
40072
40062
40047
40044
40036
40012
40010
40001
39996
39980
39960
39948
39944
39928
39908
39908
39900
39884
39872
39852
39840
39847
39816
39812
39796
39770
39780
39758
39744
39740
39722
39700
39712
39692
39680
39668
39672
39652
39648
39632
39630
39626
39612
39608
39609
39588
39584
39576
39570
39560
39540
39544
39532
39527
39524
39500
39505
39502
39484
39484
39468
39458
39454
39438
39430
39428
39412
39396
39400
39391
39368
39366
39365
39350
39345
39328
39308
39306
39296
39294
39286
39272
39276
39248
39229
39232
39232
39208
39190
39188
39184
39159
39156
39144
39136
39116
39110
39098
39078
39077
39056
39048
39044
39024
39010
39012
38993
38974
38970
38964
38948
38946
38929
38916
38904
38880
38884
38868
38854
38852
38836
38828
38824
38797
38800
38792
38762
38774
38756
38742
38740
38716
38716
38697
38708
38692
38672
38668
38656
38640
38636
38622
38626
38612
38599
38592
38581
38576
38575
38560
38550
38550
38524
38528
38512
38506
38508
38492
38476
38472
38464
38453
38453
38432
38426
38426
38412
38400
38392
38386
38372
38364
38360
38348
38340
38325
38316
38316
38298
38306
38280
38274
38269
38256
38257
38234
38229
38210
38208
38209
38192
38172
38172
38158
38138
38136
38126
38118
38104
38092
38086
38080
38064
38052
38048
38033
38028
38012
38004
37997
37988
37960
37964
37958
37936
37935
37920
37912
37896
37890
37880
37863
37856
37848
37824
37826
37820
37809
37800
37780
37783
37765
37760
37754
37729
37726
37719
37716
37708
37684
37680
37672
37662
37656
37643
37644
37622
37613
37615
37588
37580
37582
37564
37544
37548
37533
37525
37519
37516
37501
37493
37476
37484
37464
37450
37444
37439
37420
37420
37400
37401
37384
37370
37362
37361
37342
37346
37324
37312
37302
37289
37276
37268
37269
37244
37236
37224
37206
37208
37184
37172
37176
37152
37140
37128
37125
37104
37096
37083
37070
37055
37044
37040
37016
37012
37000
36990
36968
36957
36944
36920
36921
36904
36893
36876
36872
36848
36836
36834
36820
36796
36794
36795
36768
36748
36756
36737
36724
36718
36700
36688
36680
36670
36646
36654
36643
36628
36626
36617
36585
36587
36591
36568
36551
36544
36532
36516
36516
36494
36477
36481
36460
36452
36438
36422
36430
36404
36390
36384
36372
36356
36348
36340
36324
36304
36302
36288
36285
36260
36252
36238
36228
36216
36208
36190
36182
36180
36168
36160
36152
36133
36134
36116
36112
36100
36094
36084
36069
36058
36062
36044
36034
36024
36022
36007
36002
36000
35972
35980
35970
35956
35942
35937
35936
35914
35908
35900
35896
35880
35876
35864
35864
35846
35833
35820
35828
35818
35785
35792
35784
35764
35756
35756
35740
35732
35722
35720
35700
35682
35696
35670
35664
35652
35648
35632
35628
35622
35615
35604
35594
35574
35572
35564
35552
35549
35529
35521
35514
35512
35496
35481
35477
35473
35458
35446
35444
35430
35422
35404
35398
35389
35375
35366
35364
35340
35334
35328
35310
35301
35296
35290
35272
35262
35268
35241
35236
35237
35208
35204
35196
35180
35180
35156
35150
35144
35126
35116
35110
35097
35080
35080
35070
35050
35054
35044
35016
35025
35008
34990
34992
34973
34964
34952
34942
34934
34926
34916
34905
34900
34888
34880
34866
34856
34848
34832
34831
34827
34808
34799
34800
34782
34760
34764
34754
34743
34732
34728
34716
34696
34688
34690
34656
34664
34656
34648
34638
34624
34620
34612
34597
34596
34578
34558
34556
34548
34534
34532
34528
34508
34512
34494
34476
34472
34470
34452
34448
34440
34422
34412
34415
34402
34394
34380
34360
34364
34348
34326
34340
34336
34306
34308
34296
34284
34276
34260
34252
34248
34228
34225
34222
34196
34198
34184
34172
34172
34149
34148
34140
34124
34116
34112
34100
34079
34084
34070
34055
34052
34037
34036
34012
34016
34014
34002
33974
33988
33970
33956
33952
33954
33930
33920
33912
33905
33904
33890
33873
33873
33860
33856
33844
33838
33834
33820
33800
33804
33799
33778
33770
33774
33766
33748
33740
33736
33728
33718
33704
33701
33696
33692
33680
33666
33656
33657
33653
33634
33622
33630
33623
33612
33612
33596
33586
33590
33572
33568
33564
33546
33544
33536
33541
33524
33528
33516
33508
33511
33502
33492
33500
33480
33480
33478
33466
33472
33466
33452
33448
33441
33436
33436
33435
33429
33416
33416
33413
33400
33408
33396
33396
33391
33384
33380
33380
33364
33372
33364
33352
33348
33353
33345
33344
33340
33338
33334
33320
33316
33320
33316
33304
33312
33308
33290
33300
33300
33287
33280
33268
33285
33266
33269
33260
33248
33240
33244
33228
33230
33221
33208
33217
33204
33188
33186
33185
33166
33166
33164
33150
33143
33141
33132
33124
33120
33112
33103
33102
33090
33088
33086
33074
33072
33077
33066
33056
33060
33053
33052
33050
33052
33032
33040
33041
33024
33018
33018
33022
33022
33016
33005
33012
32996
33006
33008
33000
33000
32996
32976
32984
32990
32968
32970
32972
32967
32961
32961
32952
32950
32950
32943
32932
32932
32926
32916
32926
32924
32896
32906
32902
32888
32892
32884
32872
32880
32862
32856
32862
32852
32836
32842
32836
32828
32824
32815
32798
32798
32798
32775
32780
32769
32768
32753
32756
32742
32729
32726
32727
32706
32706
32704
32688
32694
32676
32662
32665
32652
32639
32636
32642
32624
32615
32610
32604
32588
32578
32588
32568
32560
32556
32556
32536
32526
32532
32516
32512
32508
32504
32492
32484
32476
32474
32452
32452
32447
32448
32432
32420
32420
32420
32400
32386
32382
32388
32378
32364
32356
32360
32340
32332
32328
32327
32310
32297
32300
32295
32288
32290
32268
32260
32246
32250
32242
32236
32223
32209
32200
32208
32197
32173
32172
32153
32156
32148
32136
32130
32113
32120
32100
32092
32096
32074
32072
32064
32064
32049
32041
32032
32029
32020
32004
32000
31990
31983
31974
31964
31962
31942
31948
31924
31930
31916
31908
31902
31892
31887
31877
31864
31852
31857
31842
31846
31830
31812
31814
31808
31796
31790
31782
31766
31770
31756
31764
31740
31733
31728
31710
31719
31698
31700
31680
31684
31674
31668
31652
31649
31652
31635
31632
31612
31610
31600
31596
31584
31588
31580
31570
31561
31544
31548
31525
31529
31508
31510
31485
31488
31482
31469
31456
31452
31434
31429
31424
31412
31400
31404
31380
31384
31372
31356
31344
31336
31328
31308
31304
31300
31273
31276
31264
31254
31234
31236
31218
31198
31202
31189
31168
31159
31156
31156
31124
31118
31104
31088
31084
31078
31068
31045
31048
31022
31008
31012
30989
30976
30969
30964
30952
30948
30932
30917
30912
30894
30887
30874
30876
30847
30850
30845
30824
30820
30817
30798
30788
30788
30762
30761
30756
30744
30730
30724
30720
30700
30698
30686
30664
30660
30646
30640
30625
30620
30599
30596
30592
30576
30562
30544
30536
30530
30520
30504
30500
30494
30468
30456
30452
30444
30424
30418
30415
30400
30382
30376
30368
30348
30350
30340
30322
30304
30309
30305
30292
30280
30272
30265
30248
30240
30234
30224
30214
30205
30205
30192
30180
30174
30172
30157
30146
30144
30132
30114
30118
30113
30089
30084
30084
30068
30058
30048
30044
30048
30020
30014
30010
29997
30000
29984
29973
29968
29968
29956
29933
29933
29932
29924
29900
29896
29902
29898
29890
29870
29872
29865
29859
29840
29852
29828
29825
29823
29814
29806
29809
29804
29793
29780
29782
29770
29764
29762
29760
29752
29734
29726
29733
29716
29716
29710
29702
29692
29684
29684
29665
29666
29666
29644
29645
29642
29628
29624
29617
29604
29600
29604
29584
29583
29572
29564
29550
29552
29540
29540
29524
29518
29510
29506
29500
29484
29476
29476
29469
29448
29450
29444
29432
29420
29423
29417
29408
29392
29392
29390
29368
29366
29367
29353
29340
29342
29344
29316
29312
29313
29309
29296
29284
29284
29278
29269
29256
29268
29252
29229
29230
29234
29224
29210
29204
29199
29196
29192
29169
29167
29164
29167
29160
29148
29132
29132
29136
29132
29120
29110
29101
29100
29103
29090
29076
29065
29060
29060
29063
29044
29040
29032
29030
29026
29028
29020
29002
28992
29000
28990
28980
28977
28986
28972
28959
28958
28948
28941
28932
28928
28917
28916
28899
28894
28896
28884
28876
28876
28872
28860
28846
28860
28847
28834
28825
28820
28824
28806
28808
28790
28794
28790
28785
28776
28767
28760
28753
28748
28738
28740
28737
28735
28732
28716
28710
28710
28703
28698
28702
28695
28688
28676
28684
28684
28665
28678
28660
28652
28654
28656
28644
28636
28632
28629
28624
28628
28614
28612
28604
28600
28599
28606
28583
28584
28592
28588
28576
28564
28580
28564
28558
28552
28564
28554
28544
28540
28544
28538
28528
28526
28527
28517
28522
28506
28516
28502
28504
28500
28500
28494
28494
28494
28492
28480
28484
28484
28470
28476
28480
28468
28471
28470
28472
28460
28466
28465
28460
28460
28460
28464
28456
28464
28460
28456
28460
28468
28463
28464
28460
28472
28464
28456
28472
28478
28470
28470
28476
28482
28487
28478
28482
28484
28496
28486
28488
28497
28506
28506
28504
28508
28520
28520
28528
28517
28524
28540
28528
28536
28536
28546
28552
28548
28542
28548
28565
28558
28549
28556
28568
28564
28568
28565
28573
28583
28582
28582
28582
28580
28586
28591
28586
28601
28604
28598
28596
28598
28612
28604
28594
28602
28611
28608
28604
28612
28612
28604
28602
28612
28604
28606
28602
28614
28602
28596
28607
28604
28602
28585
28596
28591
28589
28580
28588
28574
28572
28580
28564
28561
28549
28550
28554
28542
28536
28532
28532
28522
28524
28512
28512
28517
28495
28496
28494
28480
28476
28484
28474
28458
28466
28466
28452
28444
28449
28444
28428
28422
28425
28420
28412
28419
28407
28406
28404
28406
28393
28389
28388
28379
28380
28384
28365
28366
28364
28368
28354
28346
28348
28348
28334
28324
28334
28323
28310
28321
28313
28288
28288
28292
28281
28273
28267
28270
28244
28248
28244
28225
28224
28226
28204
28197
28198
28186
28176
28184
28170
28158
28152
28144
28136
28126
28112
28116
28100
28094
28080
28076
28076
28060
28044
28052
28038
28020
28010
28017
28001
27984
27976
27982
27962
27953
27948
27940
27924
27908
27908
27908
27890
27870
27868
27870
27860
27840
27836
27823
27812
27808
27795
27780
27772
27768
27758
27740
27726
27721
27716
27708
27692
27674
27664
27666
27640
27632
27616
27612
27600
27582
27562
27572
27556
27542
27526
27514
27496
27484
27472
27472
27450
27428
27425
27412
27395
27374
27370
27360
27346
27328
27308
27300
27300
27276
27259
27244
27236
27224
27205
27188
27183
27165
27150
27132
27128
27104
27086
27074
27067
27044
27035
27028
27007
26988
26991
26968
26944
26936
26932
26911
26884
26876
26864
26854
26834
26826
26817
26792
26781
26770
26758
26729
26732
26713
26702
26692
26682
26668
26649
26636
26624
26604
26604
26580
26566
26556
26540
26524
26518
26512
26492
26478
26462
26458
26444
26428
26417
26420
26397
26383
26376
26364
26356
26334
26332
26316
26304
26290
26292
26280
26273
26248
26236
26246
26230
26208
26206
26204
26181
26172
26168
26165
26152
26140
26140
26138
26108
26102
26098
26096
26080
26072
26060
26064
26044
26036
26036
26032
26008
26004
25996
25989
25980
25965
25974
25964
25936
25933
25934
25932
25919
25921
25910
25894
25886
25876
25862
25854
25864
25843
25836
25832
25824
25812
25804
25806
25798
25782
25778
25774
25760
25762
25757
25740
25740
25736
25728
25726
25712
25711
25714
25700
25702
25697
25687
25692
25680
25672
25672
25664
25658
25653
25656
25640
25632
25632
25636
25618
25604
25610
25602
25588
25588
25584
25574
25561
25561
25556
25542
25532
25538
25525
25521
25510
25510
25501
25494
25484
25485
25480
25472
25476
25457
25457
25438
25445
25432
25420
25420
25416
25416
25407
25400
25398
25392
25388
25376
25368
25370
25364
25356
25353
25350
25335
25339
25340
25324
25320
25317
25311
25308
25305
25288
25294
25287
25278
25273
25276
25265
25258
25252
25256
25244
25236
25236
25226
25212
25218
25214
25199
25206
25200
25194
25189
25190
25172
25168
25166
25174
25159
25157
25163
25152
25144
25144
25137
25140
25137
25136
25126
25120
25117
25124
25118
25105
25109
25114
25109
25094
25102
25092
25094
25088
25089
25093
25092
25086
25080
25084
25080
25087
25082
25076
25064
25071
25072
25068
25060
25064
25076
25069
25064
25051
25058
25066
25060
25056
25052
25060
25057
25054
25052
25052
25064
25060
25054
25054
25060
25055
25056
25062
25063
25060
25062
25070
25070
25060
25063
25081
25084
25088
25084
25088
25082
25089
25101
25100
25114
25104
25116
25116
25127
25124
25133
25142
25148
25148
25154
25162
25166
25172
25188
25188
25198
25204
25204
25212
25220
25223
25228
25244
25246
25258
25266
25266
25272
25292
25290
25302
25317
25308
25332
25336
25336
25351
25370
25364
25372
25392
25385
25404
25412
25412
25428
25433
25444
25453
25462
25470
25466
25482
25498
25497
25512
25521
25525
25528
25552
25559
25564
25570
25585
25596
25604
25608
25620
25634
25632
25644
25663
25669
25682
25672
25694
25700
25716
25724
25734
25756
25758
25760
25774
25789
25804
25796
25812
25828
25847
25843
25860
25882
25877
25902
25898
25908
25934
25937
25941
25961
25974
25986
25990
26012
26021
26020
26048
26049
26064
26078
26086
26106
26116
26122
26128
26158
26164
26168
26188
26196
26210
26220
26244
26248
26260
26276
26296
26301
26300
26328
26344
26344
26358
26384
26396
26402
26417
26436
26436
26456
26474
26488
26496
26512
26524
26541
26557
26567
26590
26592
26616
26625
26646
26664
26670
26692
26704
26722
26722
26752
26766
26772
26796
26812
26821
26838
26852
26862
26892
26904
26905
26924
26956
26964
26974
26988
27010
27026
27038
27054
27072
27089
27101
27133
27140
27150
27172
27186
27204
27208
27232
27248
27268
27284
27296
27316
27328
27349
27375
27382
27388
27413
27436
27450
27465
27488
27510
27512
27542
27562
27564
27592
27620
27620
27637
27668
27684
27697
27713
27738
27744
27768
27781
27799
27820
27826
27844
27877
27886
27904
27920
27940
27952
27968
28000
28010
28020
28044
28060
28080
28096
28112
28130
28142
28156
28186
28202
28205
28226
28261
28260
28280
28304
28312
28324
28356
28370
28384
28407
28416
28432
28460
28464
28474
28496
28516
28520
28529
28548
28572
28590
28607
28614
28636
28648
28666
28680
28698
28716
28725
28740
28756
28782
28780
28808
28832
28836
28855
28864
28892
28908
28920
28944
28962
28974
28992
29012
29032
29035
29062
29076
29098
29104
29136
29156
29160
29188
29212
29210
29248
29268
29284
29284
29316
29337
29340
29372
29389
29398
29426
29440
29452
29480
29496
29506
29529
29560
29564
29576
29601
29620
29640
29656
29676
29688
29694
29724
29740
29746
29769
29781
29792
29805
29828
29834
29844
29876
29882
29892
29908
29932
29940
29944
29969
29972
29988
30000
30018
30030
30040
30052
30060
30078
30098
30104
30113
30132
30134
30152
30173
30176
30196
30204
30215
30236
30238
30254
30284
30292
30293
30321
30316
30336
30354
30360
30380
30388
30402
30418
30434
30442
30464
30473
30488
30505
30520
30532
30536
30562
30576
30590
30606
30616
30636
30652
30661
30676
30700
30706
30736
30746
30752
30774
30785
30809
30816
30832
30854
30854
30888
30896
30907
30920
30940
30951
30978
30988
31005
31025
31040
31048
31070
31078
31092
31118
31128
31148
31160
31176
31186
31210
31223
31236
31261
31268
31286
31309
31306
31332
31348
31353
31380
31392
31409
31424
31434
31458
31469
31484
31510
31520
31532
31566
31572
31582
31606
31626
31636
31650
31672
31678
31701
31716
31740
31748
31769
31788
31800
31806
31832
31848
31862
31876
31902
31916
31929
31952
31958
31977
31990
32004
32016
32036
32060
32066
32086
32100
32114
32128
32156
32158
32178
32197
32205
32224
32236
32244
32260
32290
32298
32306
32326
32340
32359
32380
32392
32402
32413
32432
32446
32462
32484
32482
32502
32520
32528
32549
32567
32564
32584
32604
32604
32636
32644
32652
32664
32686
32688
32716
32728
32736
32760
32760
32782
32793
32790
32816
32829
32846
32852
32860
32881
32892
32916
32921
32934
32954
32956
32972
32994
33004
33015
33028
33044
33058
33076
33080
33108
33128
33120
33140
33170
33178
33176
33206
33224
33228
33250
33266
33273
33311
33312
33321
33337
33364
33365
33386
33408
33409
33428
33441
33452
33464
33481
33492
33498
33508
33532
33550
33556
33570
33582
33592
33598
33620
33628
33632
33644
33664
33674
33682
33688
33716
33711
33720
33732
33742
33756
33762
33776
33792
33788
33808
33822
33829
33836
33856
33864
33881
33874
33892
33903
33906
33936
33936
33956
33964
33976
33974
33997
34005
34016
34028
34040
34044
34068
34080
34084
34092
34112
34117
34134
34134
34152
34160
34172
34186
34196
34212
34212
34232
34252
34250
34252
34270
34273
34288
34300
34311
34322
34332
34349
34350
34364
34382
34387
34392
34420
34412
34433
34447
34454
34450
34476
34484
34496
34512
34526
34532
34549
34556
34558
34574
34597
34596
34610
34626
34640
34652
34652
34660
34686
34682
34694
34711
34716
34718
34738
34760
34754
34778
34784
34776
34789
34806
34828
34824
34836
34852
34861
34874
34882
34884
34892
34912
34920
34928
34934
34952
34960
34972
34974
34984
35000
35012
35006
35030
35032
35044
35044
35068
35078
35072
35084
35094
35103
35116
35121
35124
35134
35146
35170
35172
35176
35190
35198
35196
35208
35218
35225
35236
35253
35254
35260
35273
35282
35286
35290
35314
35320
35324
35335
35346
35356
35352
35367
35380
35384
35398
35404
35408
35404
35426
35436
35437
35450
35461
35462
35468
35478
35494
35492
35504
35527
35526
35527
35556
35544
35556
35566
35576
35580
35580
35598
35605
35612
35620
35630
35624
35629
35658
35646
35664
35672
35674
35692
35688
35712
35705
35713
35728
35736
35744
35746
35753
35764
35764
35772
35781
35784
35778
35802
35808
35808
35815
35830
35832
35836
35844
35846
35846
35868
35868
35873
35880
35884
35900
35896
35904
35913
35910
35916
35927
35940
35944
35940
35948
35962
35965
35956
35974
35986
35984
35984
35994
35999
36004
36014
36030
36032
36020
36040
36052
36058
36056
36062
36075
36078
36074
36088
36090
36106
36117
36114
36116
36132
36136
36133
36144
36149
36152
36164
36172
36180
36184
36196
36192
36202
36212
36210
36217
36230
36238
36244
36240
36248
36263
36256
36265
36282
36276
36288
36302
36292
36306
36308
36313
36316
36332
36340
36342
36332
36356
36369
36364
36382
36376
36386
36388
36392
36416
36420
36424
36436
36428
36444
36465
36446
36464
36471
36484
36480
36476
36492
36509
36506
36510
36532
36528
36533
36544
36544
36554
36558
36556
36576
36574
36588
36598
36596
36597
36616
36624
36628
36637
36640
36648
36661
36664
36672
36672
36680
36694
36700
36694
36698
36712
36711
36725
36740
36729
36740
36749
36737
36756
36760
36757
36766
36772
36770
36772
36782
36792
36784
36796
36804
36800
36812
36814
36808
36816
36825
36830
36836
36836
36844
36856
36864
36864
36866
36874
36878
36893
36896
36900
36908
36924
36926
36928
36933
36949
36940
36960
36966
36972
36972
36986
36990
36988
36988
37005
37024
37026
37030
37032
37044
37056
37052
37064
37068
37076
37078
37081
37100
37100
37109
37116
37118
37130
37128
37126
37132
37143
37148
37150
37156
37168
37176
37172
37165
37182
37178
37180
37188
37194
37193
37186
37200
37212
37204
37206
37212
37216
37212
37204
37216
37216
37212
37224
37232
37228
37224
37234
37246
37242
37244
37253
37244
37248
37260
37268
37268
37257
37264
37270
37280
37274
37284
37286
37288
37294
37305
37308
37310
37320
37314
37337
37328
37336
37340
37348
37367
37364
37372
37380
37383
37392
37388
37408
37412
37402
37424
37424
37438
37438
37448
37452
37466
37469
37476
37488
37480
37500
37504
37509
37510
37522
37541
37533
37528
37538
37548
37548
37552
37569
37574
37582
37582
37588
37598
37599
37604
37612
37625
37624
37622
37640
37644
37640
37652
37648
37664
37662
37670
37680
37684
37690
37687
37712
37708
37716
37708
37716
37728
37737
37736
37740
37751
37760
37764
37769
37776
37780
37780
37789
37806
37818
37816
37820
37822
37840
37844
37844
37860
37860
37862
37876
37874
37888
37892
37904
37908
37922
37924
37928
37936
37956
37936
37960
37968
37972
37972
37992
38000
38010
38012
38020
38024
38030
38044
38042
38068
38052
38064
38076
38088
38092
38094
38108
38116
38127
38110
38140
38140
38154
38156
38170
38180
38174
38184
38200
38210
38220
38230
38228
38228
38244
38257
38252
38266
38277
38276
38284
38296
38314
38308
38316
38312
38334
38330
38338
38354
38362
38364
38367
38382
38380
38384
38396
38416
38406
38417
38428
38436
38444
38445
38452
38468
38468
38484
38478
38488
38496
38510
38516
38520
38532
38532
38548
38560
38566
38572
38580
38596
38606
38606
38618
38644
38648
38638
38668
38672
38684
38687
38694
38716
38717
38724
38736
38758
38748
38768
38780
38788
38782
38806
38822
38822
38829
38846
38852
38856
38872
38882
38892
38900
38920
38910
38938
38944
38968
38962
38965
38984
38992
39008
39014
39024
39052
39048
39056
39072
39088
39104
39108
39116
39122
39141
39150
39160
39164
39184
39196
39209
39220
39236
39248
39260
39262
39268
39292
39300
39295
39322
39332
39340
39352
39372
39372
39392
39396
39406
39412
39428
39438
39460
39473
39480
39496
39496
39508
39524
39524
39544
39534
39566
39572
39592
39596
39604
39616
39626
39640
39650
39656
39662
39672
39692
39702
39698
39720
39725
39720
39748
39752
39752
39760
39780
39776
39772
39802
39808
39807
39816
39820
39836
39844
39844
39848
39868
39864
39866
39884
39880
39885
39900
39904
39900
39902
39924
39909
39927
39936
39936
39940
39952
39944
39954
39952
39974
39957
39970
39974
39974
39980
39980
39974
39992
39988
40000
39996
39998
40012
40005
40002
40001
40013
40020
40002
40028
40016
40012
40025
40022
40024
40028
40036
40028
40032
40034
40028
40032
40038
40032
40024
40036
40041
40037
40033
40052
40040
40040
40044
40044
40034
40040
40040
40039
40052
40046
40036
40029
40044
40029
40036
40036
40036
40032
40036
40042
40026
40028
40030
40024
40028
40020
40023
40016
40004
40008
40012
40006
39996
39994
39996
39992
39988
39972
39980
39973
39964
39956
39958
39958
39956
39943
39937
39928
39928
39916
39904
39906
39902
39884
39888
39884
39874
39869
39866
39864
39844
39828
39832
39812
39816
39816
39804
39799
39791
39784
39776
39770
39760
39764
39752
39736
39738
39734
39708
39712
39702
39696
39672
39680
39669
39656
39656
39657
39633
39636
39629
39620
39614
39604
39600
39588
39580
39572
39564
39572
39552
39548
39528
39530
39524
39512
39496
39500
39492
39478
39476
39469
39460
39457
39436
39424
39428
39428
39400
39392
39392
39376
39368
39356
39353
39348
39328
39318
39316
39310
39296
39288
39276
39262
39252
39252
39236
39229
39221
39206
39200
39188
39177
39174
39160
39150
39152
39140
39126
39108
39120
39098
39092
39100
39072
39074
39059
39044
39044
39034
39020
39029
39012
38996
38992
38980
38964
38968
38964
38950
38942
38940
38932
38916
38912
38896
38888
38884
38876
38868
38858
38852
38838
38840
38828
38812
38808
38796
38788
38788
38782
38773
38756
38752
38740
38732
38734
38708
38708
38704
38684
38680
38682
38662
38650
38640
38620
38612
38604
38596
38588
38580
38552
38548
38542
38522
38504
38492
38490
38472
38460
38444
38430
38427
38406
38398
38384
38390
38368
38356
38356
38340
38324
38308
38316
38300
38282
38276
38268
38254
38248
38248
38244
38230
38214
38202
38208
38188
38180
38178
38164
38151
38143
38141
38120
38116
38108
38104
38096
38080
38072
38054
38042
38047
38036
38020
38020
38010
37988
37984
37970
37960
37960
37956
37936
37928
37922
37912
37901
37884
37876
37864
37852
37845
37836
37824
37812
37797
37796
37782
37768
37764
37748
37736
37724
37710
37704
37684
37684
37668
37648
37632
37621
37612
37600
37580
37580
37566
37542
37540
37534
37508
37504
37494
37476
37468
37468
37444
37430
37420
37412
37396
37381
37360
37352
37354
37340
37320
37318
37300
37300
37288
37276
37264
37260
37238
37232
37217
37222
37208
37190
37188
37166
37170
37162
37152
37124
37126
37116
37113
37100
37092
37078
37068
37065
37066
37040
37046
37036
37016
37011
37007
36992
36981
36980
36964
36960
36956
36941
36929
36932
36916
36904
36884
36884
36876
36852
36861
36856
36838
36837
36828
36808
36804
36800
36776
36772
36776
36760
36742
36740
36736
36709
36724
36708
36688
36684
36684
36664
36660
36646
36636
36628
36626
36607
36604
36598
36578
36577
36566
36558
36553
36548
36527
36529
36516
36510
36500
36490
36484
36480
36472
36464
36456
36452
36436
36429
36416
36412
36398
36400
36388
36382
36380
36366
36356
36350
36341
36332
36324
36316
36301
36302
36285
36280
36281
36260
36254
36252
36243
36234
36226
36212
36206
36198
36196
36182
36176
36164
36152
36148
36145
36132
36112
36108
36112
36108
36092
36092
36064
36064
36056
36044
36036
36024
36020
36006
35992
35996
35982
35968
35956
35946
35940
35929
35918
35912
35897
35892
35876
35869
35866
35848
35834
35816
35814
35792
35804
35776
35764
35753
35748
35732
35732
35712
35706
35704
35674
35660
35669
35640
35628
35617
35620
35596
35588
35584
35556
35564
35537
35528
35528
35504
35494
35490
35484
35455
35460
35438
35440
35432
35420
35404
35396
35384
35367
35384
35351
35354
35350
35340
35310
35304
35296
35278
35288
35256
35248
35245
35221
35220
35208
35196
35183
35178
35160
35148
35139
35120
35108
35108
35076
35068
35060
35060
35042
35028
35008
35008
34990
34973
34978
34964
34940
34944
34928
34918
34904
34889
34884
34864
34857
34852
34836
34836
34834
34804
34808
34794
34780
34774
34762
34752
34741
34734
34721
34712
34711
34692
34676
34676
34660
34652
34638
34640
34624
34601
34596
34590
34570
34564
34562
34542
34532
34528
34520
34500
34490
34482
34469
34448
34442
34430
34418
34404
34408
34384
34380
34380
34352
34336
34332
34324
34290
34286
34280
34258
34264
34248
34220
34216
34208
34196
34188
34182
34164
34148
34140
34120
34117
34100
34096
34074
34076
34056
34036
34036
34014
34000
33988
33984
33956
33948
33942
33924
33908
33900
33882
33868
33860
33845
33828
33818
33800
33792
33776
33774
33749
33732
33722
33703
33694
33679
33670
33649
33642
33612
33615
33600
33590
33572
33560
33536
33536
33512
33494
33488
33468
33458
33446
33418
33412
33400
33380
33372
33352
33340
33336
33313
33308
33290
33266
33264
33238
33232
33218
33196
33188
33168
33158
33143
33124
33120
33110
33082
33068
33060
33044
33026
33012
32992
32982
32972
32960
32948
32932
32924
32908
32902
32869
32868
32852
32836
32832
32800
32800
32790
32768
32756
32740
32724
32708
32702
32681
32673
32664
32644
32631
32615
32610
32592
32575
32564
32554
32532
32526
32516
32496
32480
32476
32452
32448
32432
32416
32416
32388
32375
32366
32356
32344
32320
32319
32304
32276
32274
32258
32240
32236
32223
32199
32197
32182
32158
32160
32148
32124
32120
32111
32094
32073
32068
32064
32038
32029
32012
32001
31988
31972
31958
31944
31936
31918
31906
31904
31881
31872
31860
31842
31834
31832
31809
31797
31788
31773
31752
31752
31728
31716
31716
31692
31681
31671
31666
31640
31634
31628
31608
31598
31596
31570
31548
31548
31540
31528
31513
31504
31486
31473
31473
31448
31445
31432
31420
31405
31396
31380
31368
31354
31348
31322
31317
31310
31280
31280
31269
31252
31242
31230
31216
31204
31192
31181
31168
31165
31148
31148
31132
31108
31112
31100
31094
31086
31072
31052
31052
31044
31018
31013
31017
30988
30976
30976
30964
30948
30944
30944
30922
30916
30916
30894
30896
30882
30872
30860
30862
30838
30836
30831
30815
30808
30800
30794
30780
30784
30772
30753
30748
30750
30727
30734
30716
30702
30709
30696
30695
30681
30676
30665
30664
30649
30648
30628
30638
30624
30607
30615
30604
30584
30590
30591
30568
30564
30560
30544
30534
30531
30523
30501
30504
30492
30482
30484
30468
30454
30460
30439
30420
30418
30408
30396
30384
30380
30368
30350
30352
30348
30338
30314
30316
30316
30300
30280
30284
30268
30262
30264
30253
30242
30240
30228
30216
30204
30195
30198
30180
30176
30172
30158
30158
30152
30130
30144
30116
30112
30118
30099
30096
30092
30072
30076
30064
30060
30060
30028
30028
30025
30008
30010
30000
29988
29988
29972
29968
29950
29942
29938
29920
29914
29902
29891
29884
29871
29857
29854
29833
29838
29817
29804
29805
29788
29770
29764
29742
29740
29728
29712
29700
29698
29669
29660
29652
29640
29620
29617
29608
29592
29576
29572
29548
29538
29534
29510
29500
29484
29474
29456
29448
29434
29412
29408
29398
29383
29366
29366
29342
29336
29316
29297
29298
29279
29270
29252
29252
29228
29220
29222
29193
29186
29173
29166
29148
29141
29132
29109
29104
29100
29072
29063
29068
29052
29030
29020
29016
28996
28988
28978
28964
28966
28951
28934
28927
28920
28903
28882
28876
28876
28860
28850
28836
28836
28812
28812
28792
28796
28770
28772
28746
28734
28732
28712
28714
28688
28696
28668
28668
28652
28648
28624
28615
28610
28598
28592
28572
28562
28560
28548
28537
28536
28506
28500
28496
28482
28481
28452
28452
28432
28439
28420
28410
28404
28392
28386
28364
28352
28348
28335
28330
28309
28310
28288
28290
28273
28266
28255
28248
28238
28228
28212
28217
28192
28196
28174
28184
28164
28156
28152
28124
28128
28124
28106
28100
28100
28084
28070
28074
28060
28047
28036
28036
28028
28020
28014
28008
27996
27992
27988
27972
27959
27958
27952
27938
27936
27933
27908
27918
27908
27892
27892
27884
27884
27869
27852
27862
27852
27826
27824
27822
27812
27800
27804
27792
27780
27765
27776
27760
27750
27744
27732
27734
27716
27708
27708
27706
27676
27672
27660
27660
27644
27644
27633
27620
27608
27601
27589
27588
27580
27568
27564
27546
27540
27534
27524
27505
27500
27500
27482
27464
27472
27460
27444
27450
27432
27422
27418
27420
27402
27396
27386
27377
27384
27368
27351
27365
27349
27337
27336
27333
27318
27300
27308
27300
27284
27284
27276
27260
27248
27256
27236
27230
27224
27206
27212
27192
27179
27172
27172
27150
27152
27142
27137
27125
27126
27096
27093
27092
27082
27065
27072
27064
27047
27044
27034
27028
27020
27012
27008
26992
26984
26980
26968
26972
26960
26957
26950
26940
26926
26928
26920
26908
26900
26892
26885
26892
26873
26868
26868
26852
26850
26844
26836
26825
26820
26814
26796
26808
26790
26786
26780
26764
26772
26760
26736
26744
26732
26724
26727
26710
26704
26710
26690
26684
26680
26672
26669
26658
26652
26652
26634
26628
26635
26620
26610
26610
26592
26594
26592
26584
26568
26565
26566
26553
26556
26545
26532
26536
26528
26512
26520
26504
26500
26500
26478
26492
26470
26468
26464
26462
26452
26450
26432
26426
26424
26413
26416
26404
26392
26388
26392
26376
26364
26362
26342
26338
26340
26316
26316
26314
26298
26292
26292
26274
26264
26256
26249
26236
26234
26224
26217
26202
26203
26176
26174
26178
26158
26142
26137
26140
26126
26112
26104
26092
26089
26082
26064
26063
26048
26032
26034
26023
26016
25992
25992
25992
25985
25968
25959
25956
25944
25928
25932
25920
25900
25916
25885
25880
25878
25861
25848
25842
25850
25828
25817
25804
25801
25794
25773
25770
25764
25760
25738
25736
25740
25716
25708
25708
25690
25692
25678
25668
25668
25650
25644
25636
25622
25608
25612
25596
25590
25584
25568
25548
25559
25536
25526
25520
25509
25494
25495
25478
25462
25461
25445
25436
25434
25420
25396
25398
25388
25374
25364
25360
25346
25332
25324
25310
25298
25287
25284
25272
25264
25244
25238
25228
25220
25206
25200
25182
25164
25164
25160
25136
25132
25124
25108
25097
25098
25084
25077
25060
25050
25044
25029
25020
25019
24996
24992
24981
24968
24968
24960
24936
24935
24926
24908
24908
24903
24896
24884
24858
24868
24850
24838
24842
24822
24820
24814
24802
24793
24792
24780
24768
24774
24754
24744
24747
24734
24727
24716
24724
24708
24696
24692
24688
24676
24668
24672
24660
24646
24646
24636
24628
24622
24622
24617
24604
24612
24600
24584
24580
24578
24578
24562
24558
24564
24548
24540
24544
24532
24532
24524
24526
24512
24512
24508
24496
24498
24504
24484
24478
24477
24470
24468
24468
24462
24445
24448
24452
24440
24430
24433
24426
24420
24423
24406
24412
24408
24404
24392
24392
24392
24374
24386
24383
24372
24364
24361
24356
24355
24354
24336
24342
24345
24328
24324
24330
24328
24317
24316
24318
24300
24314
24298
24288
24294
24288
24283
24280
24286
24269
24264
24274
24262
24258
24256
24256
24252
24236
24242
24234
24240
24229
24228
24228
24218
24210
24220
24212
24207
24198
24200
24204
24194
24184
24184
24194
24188
24178
24172
24166
24168
24172
24157
24164
24152
24144
24156
24149
24144
24136
24134
24138
24129
24138
24134
24122
24124
24124
24116
24122
24112
24105
24116
24112
24100
24100
24100
24100
24100
24092
24101
24090
24088
24104
24088
24085
24094
24084
24084
24090
24080
24090
24084
24081
24092
24080
24081
24090
24085
24078
24092
24084
24085
24088
24095
24081
24096
24096
24086
24090
24100
24092
24104
24108
24100
24100
24110
24100
24092
24105
24113
24108
24104
24100
24106
24100
24105
24116
24109
24100
24098
24108
24103
24102
24110
24100
24103
24106
24100
24100
24108
24108
24100
24105
24112
24106
24100
24114
24110
24110
24100
24113
24112
24113
24108
24119
24122
24120
24120
24126
24132
24127
24120
24136
24142
24128
24140
24148
24150
24152
24156
24153
24164
24174
24165
24173
24185
24180
24186
24198
24180
24198
24204
24196
24214
24217
24217
24216
24218
24228
24222
24220
24230
24228
24228
24244
24240
24244
24242
24240
24241
24239
24241
24244
24252
24248
24247
24244
24254
24240
24242
24244
24248
24241
24253
24244
24241
24242
24241
24232
24244
24236
24232
24236
24225
24226
24242
24221
24228
24228
24220
24224
24229
24216
24218
24224
24212
24222
24216
24208
24206
24197
24206
24208
24194
24192
24196
24196
24178
24191
24184
24182
24191
24184
24176
24174
24180
24168
24165
24179
24164
24164
24162
24164
24164
24152
24164
24156
24154
24138
24140
24144
24137
24137
24144
24134
24128
24134
24125
24125
24122
24118
24120
24119
24115
24113
24118
24112
24110
24116
24116
24116
24111
24112
24100
24100
24097
24104
24100
24092
24096
24101
24097
24096
24098
24098
24092
24090
24094
24088
24094
24094
24092
24092
24104
24093
24097
24100
24101
24101
24106
24100
24104
24112
24106
24120
24108
24109
24126
24117
24126
24132
24124
24140
24138
24134
24148
24150
24151
24161
24162
24162
24176
24176
24174
24192
24198
24190
24200
24212
24212
24228
24236
24234
24236
24244
24264
24260
24268
24280
24277
24288
24300
24304
24317
24334
24336
24336
24356
24359
24361
24372
24386
24392
24408
24412
24416
24436
24428
24452
24460
24469
24477
24488
24500
24496
24512
24512
24532
24544
24544
24552
24574
24577
24589
24600
24600
24605
24623
24632
24636
24650
24656
24660
24674
24684
24682
24700
24713
24718
24724
24740
24756
24763
24768
24772
24792
24800
24806
24812
24825
24838
24848
24862
24858
24886
24880
24900
24912
24928
24928
24958
24961
24964
24990
24996
25004
25012
25049
25044
25056
25073
25088
25098
25114
25136
25145
25154
25172
25192
25200
25207
25224
25244
25258
25268
25280
25297
25309
25325
25332
25345
25360
25380
25384
25390
25418
25416
25428
25446
25476
25480
25478
25492
25508
25534
25532
25542
25559
25575
25600
25604
25609
25625
25650
25652
25660
25680
25705
25700
25720
25733
25764
25764
25772
25786
25806
25834
25841
25840
25852
25871
25896
25906
25916
25930
25953
25964
25972
25988
26009
26009
26032
26047
26061
26068
26086
26101
26108
26128
26140
26166
26166
26178
26200
26205
26224
26240
26242
26260
26284
26298
26293
26320
26332
26338
26356
26372
26385
26396
26415
26426
26437
26456
26466
26481
26506
26518
26522
26545
26558
26574
26580
26599
26609
26629
26652
26658
26672
26684
26708
26716
26728
26748
26768
26782
26790
26810
26828
26838
26849
26868
26888
26906
26908
26926
26940
26964
26972
26988
26996
27018
27044
27056
27065
27071
27098
27112
27124
27138
27153
27170
27178
27198
27210
27230
27258
27270
27280
27301
27314
27322
27342
27356
27382
27391
27409
27414
27433
27452
27476
27492
27501
27520
27540
27548
27568
27596
27604
27616
27631
27660
27668
27690
27704
27728
27740
27753
27772
27800
27812
27820
27845
27868
27881
27896
27917
27938
27944
27976
27992
28004
28026
28044
28057
28065
28102
28114
28120
28150
28170
28182
28196
28224
28228
28264
28280
28288
28309
28321
28344
28359
28382
28400
28422
28430
28446
28468
28488
28492
28524
28540
28548
28568
28590
28590
28624
28642
28646
28672
28690
28700
28718
28740
28748
28766
28782
28796
28813
28824
28844
28862
28868
28900
28908
28915
28942
28964
28972
28981
29003
29020
29036
29046
29070
29073
29093
29116
29132
29142
29153
29172
29190
29205
29220
29237
29256
29264
29276
29308
29319
29322
29348
29366
29377
29392
29413
29432
29437
29450
29472
29489
29504
29524
29540
29564
29572
29594
29604
29624
29634
29648
29666
29686
29704
29732
29738
29762
29775
29787
29802
29824
29832
29845
29874
29892
29904
29922
29942
29962
29972
29990
30010
30028
30034
30054
30078
30100
30116
30124
30140
30168
30184
30197
30214
30234
30249
30256
30289
30292
30316
30346
30356
30372
30380
30405
30420
30440
30462
30480
30490
30505
30522
30548
30558
30573
30596
30614
30618
30648
30670
30679
30681
30714
30734
30743
30760
30778
30804
30813
30824
30844
30868
30885
30888
30916
30928
30940
30956
30983
30996
31006
31036
31053
31054
31080
31096
31110
31124
31140
31164
31175
31192
31198
31220
31244
31252
31265
31284
31301
31312
31332
31356
31362
31376
31400
31412
31416
31440
31456
31460
31498
31508
31520
31528
31556
31572
31585
31606
31620
31632
31634
31650
31681
31690
31698
31717
31742
31752
31770
31786
31806
31808
31823
31847
31857
31868
31896
31912
31924
31942
31957
31973
31988
31994
32023
32036
32056
32064
32088
32101
32120
32135
32154
32172
32180
32196
32224
32233
32248
32269
32285
32286
32314
32322
32336
32356
32368
32380
32393
32404
32423
32432
32444
32460
32478
32478
32500
32518
32518
32536
32548
32562
32582
32589
32595
32608
32628
32630
32656
32670
32676
32680
32706
32712
32725
32736
32762
32770
32780
32805
32814
32821
32838
32854
32864
32878
32889
32904
32920
32948
32956
32977
32998
32992
33016
33036
33048
33057
33082
33087
33112
33120
33134
33156
33164
33190
33201
33205
33224
33246
33254
33272
33280
33288
33308
33322
33333
33358
33364
33368
33388
33394
33412
33420
33440
33437
33458
33464
33478
33492
33488
33504
33516
33524
33539
33550
33545
33562
33572
33584
33596
33616
33608
33620
33636
33636
33646
33668
33672
33684
33689
33708
33700
33717
33734
33738
33748
33756
33772
33780
33784
33808
33810
33814
33838
33848
33860
33870
33876
33887
33898
33914
33927
33936
33948
33952
33970
33992
33988
34000
34032
34030
34054
34064
34076
34084
34101
34118
34132
34138
34157
34172
34186
34192
34221
34217
34234
34252
34266
34276
34290
34307
34322
34340
34352
34364
34376
34396
34408
34415
34433
34444
34458
34472
34482
34496
34516
34532
34541
34549
34566
34574
34592
34607
34612
34630
34647
34646
34668
34686
34694
34704
34718
34719
34740
34756
34756
34780
34794
34800
34810
34825
34828
34852
34860
34864
34884
34908
34908
34924
34929
34948
34956
34977
34985
34990
35000
35021
35034
35041
35046
35064
35084
35092
35104
35114
35132
35140
35160
35176
35179
35196
35216
35220
35236
35252
35260
35272
35276
35300
35308
35329
35342
35356
35372
35384
35400
35414
35426
35448
35456
35476
35488
35512
35516
35540
35544
35572
35583
35604
35608
35630
35636
35664
35674
35690
35709
35716
35748
35748
35772
35782
35806
35812
35839
35844
35863
35868
35892
35900
35922
35944
35944
35973
35972
36000
36006
36024
36046
36048
36070
36086
36100
36112
36120
36144
36156
36164
36188
36188
36206
36224
36230
36256
36256
36270
36284
36296
36316
36330
36352
36351
36368
36385
36404
36420
36434
36446
36468
36480
36495
36516
36522
36542
36558
36584
36593
36608
36632
36630
36664
36678
36692
36706
36728
36744
36756
36772
36788
36804
36836
36828
36848
36870
36880
36900
36908
36940
36945
36964
36980
36996
37018
37028
37038
37066
37080
37100
37116
37127
37156
37156
37186
37196
37220
37241
37256
37276
37297
37319
37332
37348
37364
37384
37404
37428
37448
37460
37485
37496
37532
37548
37568
37580
37608
37623
37644
37668
37685
37700
37721
37746
37752
37796
37797
37812
37840
37857
37884
37902
37920
37942
37966
37984
37996
38017
38044
38060
38082
38100
38122
38142
38144
38169
38204
38220
38212
38244
38268
38280
38304
38324
38337
38364
38372
38394
38413
38423
38448
38465
38485
38504
38508
38528
38554
38573
38584
38613
38620
38632
38648
38680
38688
38707
38716
38742
38746
38760
38793
38801
38824
38826
38844
38854
38886
38898
38908
38932
38940
38964
38986
38992
39002
39020
39040
39050
39064
39093
39096
39104
39130
39138
39149
39165
39192
39204
39212
39229
39244
39264
39264
39277
39300
39316
39326
39344
39356
39369
39384
39397
39408
39416
39441
39456
39468
39488
39508
39522
39532
39550
39558
39570
39586
39608
39616
39638
39652
39657
39680
39696
39702
39724
39744
39756
39768
39788
39804
39814
39820
39856
39868
39874
39894
39924
39916
39940
39967
39980
39988
40012
40026
40044
40060
40070
40085
40094
40120
40140
40148
40164
40188
40200
40218
40226
40240
40256
40277
40288
40312
40330
40337
40356
40376
40392
40400
40420
40444
40452
40472
40489
40492
40516
40536
40546
40566
40572
40598
40608
40630
40640
40658
40666
40680
40704
40716
40732
40760
40764
40756
40791
40812
40814
40832
40854
40876
40872
40884
40904
40916
40937
40956
40966
40980
41000
41016
41030
41036
41054
41076
41088
41110
41128
41148
41162
41168
41192
41204
41217
41234
41246
41258
41284
41304
41320
41324
41337
41358
41374
41396
41416
41422
41440
41462
41472
41492
41494
41524
41534
41546
41552
41584
41592
41608
41632
41636
41648
41676
41684
41700
41709
41717
41738
41757
41777
41785
41804
41820
41846
41840
41870
41880
41888
41911
41916
41936
41944
41960
41988
41998
42007
42024
42036
42054
42064
42092
42104
42109
42128
42140
42156
42174
42190
42202
42208
42233
42249
42262
42276
42296
42304
42308
42336
42348
42346
42373
42399
42400
42428
42430
42444
42464
42478
42476
42500
42528
42529
42544
42558
42566
42576
42596
42604
42621
42644
42660
42658
42677
42696
42702
42714
42741
42736
42760
42764
42784
42790
42804
42824
42820
42832
42848
42864
42868
42876
42870
42894
42911
42919
42921
42924
42950
42944
42952
42964
42984
42980
42988
43008
43008
43008
43026
43044
43053
43057
43063
43076
43084
43100
43112
43108
43112
43132
43140
43144
43166
43183
43188
43208
43214
43216
43232
43246
43252
43261
43273
43279
43293
43296
43316
43328
43332
43340
43358
43372
43372
43392
43388
43396
43410
43413
43433
43438
43444
43452
43468
43478
43492
43492
43508
43516
43522
43532
43536
43540
43556
43564
43573
43584
43585
43592
43594
43604
43620
43622
43628
43628
43636
43636
43648
43658
43652
43662
43680
43670
43672
43678
43685
43689
43700
43710
43702
43720
43724
43712
43728
43737
43737
43744
43752
43753
43760
43764
43780
43772
43801
43792
43800
43804
43808
43816
43820
43836
43848
43848
43864
43868
43856
43876
43884
43895
43887
43900
43918
43911
43920
43932
43940
43956
43953
43956
43962
43976
43984
43988
43992
44004
44006
44028
44020
44024
44040
44038
44054
44070
44066
44070
44070
44088
44096
44104
44116
44104
44118
44128
44128
44124
44148
44156
44152
44144
44168
44180
44168
44180
44186
44190
44202
44208
44206
44212
44212
44212
44228
44228
44228
44238
44240
44240
44258
44252
44256
44264
44258
44264
44264
44276
44280
44280
44276
44297
44288
44300
44284
44300
44309
44308
44308
44312
44308
44312
44324
44326
44324
44340
44336
44332
44340
44346
44359
44356
44348
44354
44354
44360
44372
44364
44369
44384
44382
44376
44388
44388
44404
44404
44404
44408
44406
44416
44412
44416
44418
44420
44428
44429
44428
44447
44430
44432
44448
44446
44452
44452
44452
44460
44470
44456
44460
44474
44476
44478
44476
44482
44472
44468
44484
44480
44480
44489
44480
44488
44488
44484
44492
44487
44488
44484
44494
44492
44486
44496
44497
44494
44476
44484
44481
44476
44472
44484
44466
44468
44476
44470
44460
44462
44456
44456
44456
44436
44440
44442
44440
44416
44412
44414
44412
44401
44394
44404
44404
44390
44380
44375
44376
44372
44368
44352
44356
44356
44354
44332
44326
44329
44324
44320
44312
44308
44308
44300
44285
44280
44288
44280
44276
44270
44256
44252
44244
44236
44240
44228
44216
44212
44204
44180
44188
44189
44172
44164
44159
44156
44144
44128
44128
44117
44116
44111
44104
44093
44078
44072
44069
44060
44056
44036
44050
44036
44020
44016
44020
44015
44000
43984
43980
43968
43968
43950
43962
43940
43936
43932
43918
43908
43908
43904
43880
43872
43872
43866
43856
43850
43836
43832
43819
43824
43804
43780
43776
43772
43768
43744
43732
43736
43722
43714
43688
43700
43672
43664
43661
43644
43622
43630
43620
43602
43592
43576
43572
43564
43548
43540
43520
43520
43500
43504
43482
43476
43458
43452
43428
43428
43424
43394
43390
43381
43364
43356
43342
43330
43312
43320
43298
43290
43271
43260
43244
43236
43220
43200
43196
43180
43160
43164
43144
43128
43118
43118
43097
43068
43068
43054
43032
43029
42996
42996
42976
42960
42944
42935
42911
42918
42886
42864
42856
42852
42828
42804
42789
42791
42768
42757
42736
42724
42709
42680
42682
42656
42640
42625
42620
42592
42568
42565
42544
42524
42504
42502
42476
42452
42444
42428
42418
42388
42370
42360
42344
42316
42296
42286
42281
42252
42236
42228
42196
42188
42176
42144
42124
42104
42092
42084
42052
42047
42024
42008
41988
41980
41954
41929
41916
41888
41872
41862
41844
41820
41792
41776
41768
41748
41728
41710
41690
41672
41644
41634
41612
41592
41568
41556
41540
41508
41488
41477
41461
41440
41412
41396
41380
41358
41332
41316
41303
41280
41272
41252
41222
41198
41182
41166
41144
41126
41102
41088
41068
41048
41020
41004
40988
40958
40948
40936
40904
40876
40860
40849
40824
40808
40788
40768
40740
40728
40720
40684
40666
40648
40632
40613
40590
40574
40556
40518
40520
40497
40466
40444
40434
40416
40380
40367
40356
40326
40308
40292
40268
40242
40232
40216
40188
40172
40150
40132
40098
40084
40078
40052
40032
40021
40004
39964
39954
39950
39912
39905
39892
39862
39852
39830
39806
39776
39784
39756
39736
39720
39700
39671
39664
39644
39633
39610
39596
39572
39559
39540
39525
39506
39488
39468
39456
39431
39420
39408
39381
39366
39352
39335
39316
39300
39278
39268
39258
39232
39216
39212
39172
39164
39152
39126
39112
39092
39076
39058
39024
39024
39000
38978
38957
38946
38912
38908
38874
38863
38834
38814
38814
38783
38760
38744
38724
38692
38692
38661
38642
38624
38616
38584
38572
38572
38544
38516
38516
38489
38464
38453
38440
38430
38400
38397
38368
38364
38348
38330
38320
38298
38286
38272
38244
38232
38222
38193
38182
38168
38158
38136
38126
38104
38090
38080
38060
38040
38032
38008
37996
37984
37966
37942
37927
37916
37898
37868
37860
37860
37829
37816
37796
37780
37764
37740
37740
37708
37692
37680
37644
37640
37620
37592
37584
37566
37536
37528
37506
37498
37472
37452
37432
37406
37404
37380
37352
37338
37320
37296
37270
37264
37246
37222
37212
37188
37168
37156
37132
37110
37086
37078
37068
37040
37032
37013
36994
36981
36953
36945
36920
36906
36900
36874
36848
36844
36820
36806
36793
36764
36748
36734
36718
36704
36692
36668
36652
36631
36612
36602
36584
36570
36554
36532
36520
36504
36500
36463
36464
36444
36430
36412
36388
36378
36366
36338
36324
36308
36294
36284
36260
36260
36242
36208
36200
36176
36164
36161
36132
36112
36100
36084
36064
36056
36030
36012
35996
35988
35972
35950
35934
35928
35916
35888
35876
35854
35836
35825
35812
35786
35776
35760
35750
35738
35716
35700
35684
35665
35654
35636
35620
35606
35582
35568
35560
35525
35524
35512
35487
35476
35461
35448
35428
35422
35397
35385
35376
35349
35344
35329
35306
35300
35278
35260
35260
35232
35222
35204
35188
35184
35164
35144
35142
35120
35104
35086
35078
35066
35054
35044
35016
35011
34984
34976
34972
34948
34920
34922
34908
34896
34868
34869
34856
34836
34826
34804
34788
34780
34768
34745
34748
34710
34705
34692
34665
34654
34645
34624
34620
34604
34580
34568
34562
34528
34516
34502
34488
34468
34454
34438
34424
34410
34391
34380
34356
34348
34332
34314
34293
34276
34258
34240
34234
34214
34190
34180
34164
34144
34133
34118
34096
34080
34064
34052
34031
34008
33998
33980
33956
33947
33932
33900
33900
33880
33868
33854
33840
33828
33808
33789
33780
33764
33757
33734
33728
33708
33692
33687
33676
33648
33638
33632
33612
33588
33588
33568
33554
33536
33512
33504
33498
33480
33457
33448
33424
33408
33393
33372
33368
33348
33332
33320
33302
33292
33265
33248
33240
33228
33204
33194
33172
33153
33144
33141
33116
33105
33096
33078
33066
33041
33038
33028
33004
32988
32993
32968
32952
32948
32932
32916
32908
32894
32888
32876
32858
32844
32832
32828
32806
32804
32793
32780
32764
32754
32738
32728
32724
32700
32690
32682
32676
32652
32645
32647
32623
32608
32602
32596
32575
32572
32556
32548
32540
32532
32514
32504
32500
32484
32468
32461
32444
32442
32430
32414
32397
32402
32377
32372
32373
32352
32336
32340
32316
32316
32300
32296
32284
32280
32264
32248
32241
32224
32220
32204
32196
32193
32176
32170
32156
32148
32130
32121
32117
32096
32092
32087
32068
32056
32048
32036
32020
32013
31996
31976
31976
31960
31948
31944
31924
31916
31904
31889
31877
31862
31864
31852
31828
31814
31812
31794
31790
31764
31759
31748
31728
31721
31713
31693
31685
31664
31652
31652
31630
31624
31615
31590
31582
31574
31552
31544
31537
31522
31510
31516
31486
31469
31460
31450
31426
31421
31410
31401
31390
31372
31368
31357
31340
31322
31312
31290
31293
31276
31268
31262
31240
31226
31224
31200
31194
31180
31164
31160
31146
31136
31125
31104
31100
31077
31076
31060
31052
31044
31028
31012
31001
30984
30986
30964
30956
30938
30932
30924
30904
30892
30880
30864
30860
30844
30836
30828
30807
30804
30780
30778
30764
30748
30748
30726
30724
30708
30692
30681
30672
30654
30654
30637
30621
30614
30608
30588
30588
30576
30564
30548
30539
30516
30516
30498
30488
30484
30472
30456
30440
30436
30422
30412
30406
30381
30370
30368
30348
30332
30332
30312
30297
30278
30284
30272
30241
30248
30239
30214
30220
30204
30180
30182
30166
30150
30132
30124
30116
30096
30084
30076
30056
30045
30050
30036
30019
30016
29988
29983
29978
29961
29950
29940
29930
29924
29904
29889
29894
29864
29863
29854
29831
29828
29824
29798
29796
29792
29776
29759
29748
29752
29726
29728
29717
29700
29692
29676
29678
29668
29652
29648
29640
29628
29628
29608
29601
29596
29588
29567
29576
29556
29548
29540
29528
29514
29512
29506
29492
29488
29470
29460
29465
29444
29422
29414
29409
29392
29388
29380
29358
29348
29340
29334
29320
29300
29293
29288
29276
29264
29254
29244
29228
29232
29213
29192
29186
29188
29172
29162
29160
29137
29133
29134
29117
29105
29100
29100
29084
29078
29081
29060
29044
29050
29036
29026
29025
29015
29005
29005
29002
28988
28984
28974
28968
28958
28956
28941
28928
28928
28922
28910
28908
28887
28885
28880
28862
28858
28854
28836
28820
28821
28817
28796
28786
28776
28769
28760
28743
28730
28718
28712
28694
28690
28680
28676
28648
28644
28622
28612
28604
28589
28584
28575
28558
28548
28532
28516
28512
28496
28480
28464
28466
28442
28440
28431
28398
28392
28384
28375
28360
28346
28348
28322
28311
28300
28284
28276
28269
28248
28238
28232
28204
28208
28192
28172
28170
28154
28140
28132
28114
28096
28094
28086
28062
28061
28044
28032
28033
28008
28000
27988
27960
27960
27944
27942
27926
27908
27898
27884
27881
27862
27846
27840
27818
27813
27804
27786
27780
27764
27746
27748
27732
27720
27708
27690
27672
27672
27646
27646
27624
27610
27610
27588
27580
27565
27554
27544
27524
27522
27512
27492
27482
27468
27469
27432
27432
27424
27400
27398
27386
27364
27365
27337
27334
27320
27304
27292
27292
27270
27266
27252
27236
27228
27218
27208
27196
27188
27172
27164
27157
27152
27124
27116
27116
27093
27098
27089
27070
27072
27052
27046
27042
27025
27024
26996
26992
26993
26970
26982
26964
26956
26956
26938
26940
26932
26916
26910
26914
26894
26886
26882
26879
26868
26856
26860
26852
26840
26826
26822
26825
26812
26792
26804
26795
26784
26772
26776
26766
26750
26756
26748
26732
26726
26730
26716
26712
26705
26688
26689
26688
26672
26664
26656
26660
26655
26638
26616
26625
26608
26593
26596
26582
26580
26564
26558
26544
26544
26530
26522
26502
26508
26482
26484
26476
26468
26448
26452
26430
26436
26408
26430
26396
26394
26372
26369
26354
26354
26325
26336
26308
26316
26300
26293
26278
26270
26265
26252
26244
26236
26224
26228
26205
26208
26180
26190
26182
26174
26161
26151
26144
26136
26130
26112
26092
26088
26092
26084
26068
26051
26036
26032
26028
26020
26007
25988
25980
25974
25958
25946
25940
25933
25924
25908
25887
25878
25880
25861
25850
25842
25841
25820
25806
25802
25806
25781
25772
25764
25764
25744
25734
25732
25726
25711
25694
25690
25696
25677
25660
25664
25650
25652
25634
25626
25616
25618
25609
25599
25584
25578
25576
25572
25564
25543
25540
25535
25532
25520
25505
25506
25498
25486
25476
25470
25462
25466
25448
25446
25432
25426
25420
25408
25397
25384
25388
25380
25368
25370
25340
25348
25342
25327
25316
25306
25300
25296
25290
25284
25268
25264
25264
25252
25244
25228
25223
25218
25212
25208
25204
25198
25177
25180
25180
25172
25162
25154
25152
25158
25137
25126
25128
25124
25110
25116
25100
25097
25080
25093
25074
25076
25068
25080
25056
25058
25056
25046
25048
25036
25041
25039
25033
25033
25010
25026
25026
25006
25010
25025
25005
25017
25012
24997
25008
25000
25004
25000
24992
25007
25002
24993
25002
24988
24997
24999
24988
25000
24999
24997
25008
25007
25000
25005
25004
25010
25007
25005
25016
25008
25014
25015
25000
25018
25016
25015
25028
25025
25024
25032
25032
25030
25048
25032
25044
25050
25044
25049
25048
25052
25054
25060
25060
25064
25060
25068
25072
25080
25074
25084
25085
25084
25092
25092
25090
25108
25104
25100
25108
25116
25109
25109
25124
25124
25135
25127
25124
25148
25140
25140
25145
25154
25156
25157
25154
25168
25162
25174
25172
25176
25190
25188
25194
25193
25200
25202
25208
25208
25209
25212
25220
25226
25230
25237
25232
25248
25236
25258
25252
25252
25269
25274
25280
25276
25276
25286
25294
25296
25300
25300
25308
25321
25320
25318
25316
25332
25336
25338
25332
25344
25354
25359
25356
25364
25370
25366
25376
25376
25380
25388
25392
25392
25410
25402
25412
25412
25410
25412
25412
25434
25426
25428
25438
25440
25433
25447
25452
25452
25457
25457
25468
25468
25470
25483
25477
25484
25489
25492
25508
25508
25508
25525
25518
25524
25538
25530
25542
25544
25544
25556
25557
25562
25576
25568
25586
25588
25586
25592
25608
25608
25615
25626
25628
25638
25648
25644
25649
25658
25662
25672
25672
25686
25688
25692
25708
25704
25712
25722
25726
25738
25728
25746
25748
25753
25768
25764
25772
25783
25784
25796
25812
25804
25812
25822
25828
25832
25848
25840
25852
25852
25865
25876
25871
25886
25897
25896
25905
25904
25924
25922
25924
25934
25944
25944
25960
25954
25966
25978
25976
25989
25996
25988
26004
26020
26015
26025
26038
26034
26050
26056
26048
26056
26076
26080
26085
26098
26093
26102
26116
26118
26120
26142
26149
26152
26150
26166
26173
26170
26180
26186
26196
26206
26202
26214
26216
26225
26232
26234
26241
26256
26252
26256
26277
26276
26276
26288
26286
26309
26308
26302
26322
26312
26330
26340
26342
26344
26354
26364
26359
26372
26378
26368
26391
26401
26398
26420
26416
26432
26438
26448
26453
26456
26464
26480
26477
26492
26506
26508
26512
26524
26534
26538
26550
26548
26574
26572
26594
26596
26597
26608
26628
26638
26632
26652
26664
26664
26676
26692
26693
26696
26708
26726
26728
26736
26748
26756
26759
26770
26784
26792
26789
26799
26812
26818
26818
26838
26844
26844
26852
26865
26872
26864
26876
26888
26892
26902
26908
26908
26912
26930
26935
26924
26948
26948
26948
26961
26964
26960
26976
26980
26986
26991
26996
26992
27015
27002
27004
27020
27026
27032
27024
27032
27042
27032
27048
27052
27048
27064
27056
27068
27073
27062
27076
27076
27074
27084
27095
27084
27092
27094
27093
27102
27105
27108
27108
27109
27108
27116
27116
27118
27124
27124
27124
27142
27126
27138
27144
27136
27152
27148
27148
27162
27154
27171
27161
27170
27169
27176
27172
27183
27180
27194
27200
27196
27203
27208
27206
27228
27222
27224
27237
27228
27234
27254
27244
27266
27265
27268
27281
27285
27297
27294
27308
27312
27318
27330
27332
27341
27352
27360
27364
27376
27381
27398
27404
27404
27426
27432
27444
27455
27470
27478
27498
27502
27506
27520
27540
27536
27550
27570
27582
27584
27596
27617
27625
27628
27648
27668
27674
27694
27700
27706
27741
27742
27748
27774
27772
27788
27805
27812
27822
27846
27848
27868
27888
27882
27908
27922
27928
27940
27972
27966
27984
27999
28012
28020
28034
28044
28066
28076
28088
28100
28100
28132
28140
28144
28168
28172
28182
28196
28212
28224
28238
28238
28258
28272
28272
28284
28316
28314
28324
28342
28353
28356
28372
28392
28400
28404
28421
28433
28440
28458
28472
28480
28479
28498
28519
28520
28530
28552
28554
28565
28580
28596
28598
28617
28631
28634
28644
28669
28678
28684
28692
28720
28722
28734
28756
28764
28776
28793
28792
28805
28824
28844
28852
28863
28882
28890
28901
28935
28941
28944
28969
28982
28998
28999
29024
29034
29044
29066
29076
29072
29106
29112
29124
29132
29156
29156
29168
29188
29196
29204
29230
29228
29247
29262
29270
29286
29296
29300
29318
29340
29345
29356
29370
29392
29396
29414
29430
29432
29448
29470
29476
29495
29508
29515
29536
29550
29560
29584
29601
29600
29630
29626
29642
29677
29678
29689
29708
29719
29736
29754
29772
29790
29798
29825
29834
29846
29873
29876
29900
29917
29926
29952
29960
29972
29992
30002
30020
30040
30050
30068
30082
30100
30112
30130
30144
30158
30169
30198
30206
30222
30248
30254
30262
30298
30302
30320
30351
30354
30366
30390
30404
30412
30420
30452
30476
30485
30500
30516
30529
30544
30574
30584
30593
30617
30628
30639
30660
30670
30688
30713
30726
30734
30754
30777
30784
30812
30816
30836
30850
30867
30878
30904
30912
30924
30941
30964
30986
30990
31004
31016
31026
31050
31074
31088
31086
31100
31133
31138
31142
31180
31190
31192
31217
31222
31247
31264
31269
31297
31298
31324
31340
31342
31376
31378
31388
31404
31424
31432
31452
31472
31463
31499
31516
31522
31536
31564
31567
31588
31604
31612
31623
31650
31652
31684
31700
31700
31724
31734
31740
31766
31780
31788
31810
31828
31837
31854
31868
31878
31888
31908
31924
31932
31958
31976
31991
31998
32022
32032
32036
32066
32072
32084
32094
32120
32132
32142
32164
32168
32180
32196
32220
32216
32232
32254
32273
32288
32308
32312
32318
32344
32356
32372
32386
32384
32420
32426
32439
32446
32472
32482
32489
32513
32532
32542
32544
32562
32586
32592
32612
32617
32628
32651
32664
32676
32686
32700
32710
32736
32736
32750
32764
32792
32800
32808
32822
32836
32836
32864
32879
32880
32902
32910
32921
32932
32958
32964
32980
32993
33001
33020
33040
33044
33060
33084
33090
33092
33104
33134
33148
33148
33164
33184
33193
33206
33218
33234
33240
33262
33274
33280
33296
33309
33332
33332
33358
33376
33380
33388
33406
33420
33438
33438
33466
33481
33488
33494
33508
33518
33538
33556
33561
33576
33593
33608
33618
33626
33636
33653
33666
33668
33698
33710
33712
33736
33740
33758
33774
33780
33792
33820
33822
33846
33860
33864
33881
33890
33912
33911
33923
33940
33958
33970
33982
33992
34013
34016
34044
34050
34056
34078
34084
34092
34112
34128
34144
34151
34172
34176
34184
34196
34220
34224
34242
34248
34262
34281
34287
34296
34320
34330
34336
34360
34368
34380
34385
34408
34410
34436
34452
34456
34476
34492
34500
34512
34532
34536
34554
34568
34574
34586
34600
34612
34636
34644
34656
34669
34686
34684
34704
34714
34728
34748
34756
34764
34772
34792
34793
34810
34824
34828
34846
34856
34864
34884
34892
34900
34922
34926
34940
34946
34956
34972
34988
34996
35012
35020
35032
35056
35065
35072
35089
35110
35121
35131
35145
35172
35180
35184
35200
35216
35236
35240
35260
35292
35295
35303
35316
35334
35356
35356
35364
35384
35414
35420
35428
35444
35460
35468
35479
35494
35509
35514
35537
35554
35564
35580
35588
35610
35608
35622
35636
35650
35660
35672
35670
35692
35693
35714
35723
35734
35744
35748
35758
35770
35780
35797
35796
35812
35824
35822
35832
35841
35844
35857
35868
35884
35894
35893
35904
35932
35932
35934
35948
35953
35970
35976
35998
35996
36016
36032
36045
36060
36052
36076
36086
36096
36120
36124
36134
36146
36158
36170
36192
36210
36212
36233
36255
36260
36290
36292
36309
36332
36337
36362
36372
36382
36406
36416
36436
36454
36452
36470
36500
36504
36522
36544
36548
36564
36582
36604
36608
36635
36656
36656
36676
36700
36708
36718
36734
36748
36768
36772
36788
36812
36824
36852
36852
36860
36880
36906
36913
36920
36944
36948
36968
36976
36991
37014
37016
37031
37044
37062
37086
37078
37112
37114
37130
37138
37149
37175
37180
37188
37212
37223
37221
37239
37268
37272
37280
37302
37326
37314
37334
37356
37362
37374
37392
37400
37420
37428
37441
37463
37461
37484
37496
37516
37514
37532
37544
37564
37578
37592
37600
37612
37624
37648
37652
37676
37692
37700
37712
37724
37742
37756
37764
37772
37793
37804
37824
37824
37852
37866
37870
37892
37902
37914
37924
37936
37954
37962
37982
37992
38004
38024
38036
38048
38062
38068
38078
38096
38101
38116
38134
38148
38164
38176
38186
38204
38212
38225
38232
38246
38270
38262
38278
38288
38297
38316
38318
38336
38348
38342
38369
38372
38388
38398
38396
38406
38428
38432
38440
38445
38458
38473
38477
38490
38496
38512
38516
38518
38540
38544
38556
38572
38580
38581
38588
38608
38610
38630
38636
38644
38661
38664
38684
38692
38692
38712
38717
38732
38740
38759
38760
38764
38780
38790
38794
38823
38820
38824
38832
38848
38860
38856
38888
38884
38888
38912
38924
38912
38936
38944
38952
38968
38965
38990
38996
39008
39013
39012
39028
39048
39058
39064
39076
39080
39097
39104
39128
39128
39144
39144
39156
39178
39178
39200
39206
39212
39248
39233
39250
39256
39276
39296
39301
39312
39316
39334
39340
39360
39372
39376
39396
39392
39420
39422
39444
39448
39468
39476
39482
39503
39508
39532
39528
39542
39550
39562
39580
39580
39606
39592
39616
39628
39640
39654
39664
39676
39684
39684
39696
39716
39720
39728
39744
39752
39764
39770
39774
39788
39800
39812
39822
39836
39844
39854
39844
39868
39880
39880
39908
39905
39916
39920
39932
39940
39938
39952
39964
39964
39980
39980
39990
39998
40010
40012
40020
40032
40036
40052
40044
40057
40068
40070
40076
40092
40092
40100
40104
40120
40128
40124
40136
40138
40148
40160
40155
40162
40168
40172
40193
40180
40200
40197
40212
40216
40233
40220
40244
40236
40250
40256
40252
40260
40266
40268
40279
40292
40300
40296
40296
40297
40300
40301
40320
40312
40324
40324
40341
40338
40342
40358
40348
40364
40356
40374
40368
40380
40376
40378
40398
40392
40396
40404
40404
40396
40400
40420
40418
40433
40432
40430
40432
40440
40442
40448
40452
40448
40452
40455
40467
40480
40476
40481
40484
40484
40492
40492
40488
40496
40508
40484
40524
40509
40508
40512
40532
40516
40529
40520
40528
40534
40530
40548
40524
40548
40534
40548
40544
40556
40556
40556
40544
40559
40556
40572
40568
40568
40568
40572
40572
40568
40576
40568
40578
40582
40588
40588
40588
40592
40600
40596
40600
40590
40600
40604
40620
40600
40616
40610
40628
40612
40620
40624
40616
40624
40634
40632
40630
40638
40638
40636
40644
40646
40636
40632
40636
40653
40644
40638
40653
40644
40646
40650
40660
40652
40656
40656
40655
40660
40656
40652
40668
40664
40668
40652
40668
40660
40671
40657
40664
40656
40660
40660
40648
40652
40650
40666
40660
40664
40672
40660
40666
40662
40664
40669
40661
40664
40668
40668
40658
40668
40668
40668
40678
40660
40676
40668
40672
40676
40672
40680
40664
40676
40681
40668
40677
40670
40676
40678
40688
40696
40684
40688
40692
40684
40684
40684
40700
40685
40692
40702
40704
40702
40696
40708
40697
40700
40700
40700
40708
40700
40700
40703
40693
40710
40702
40696
40695
40696
40703
40692
40696
40692
40689
40690
40686
40684
40684
40676
40684
40688
40676
40684
40668
40672
40672
40684
40684
40673
40684
40678
40696
40679
40680
40686
40688
40688
40689
40692
40692
40692
40698
40693
40704
40693
40712
40700
40701
40702
40712
40698
40711
40698
40700
40700
40702
40705
40704
40704
40700
40706
40708
40696
40705
40700
40698
40704
40708
40696
40702
40696
40708
40694
40692
40708
40688
40692
40692
40700
40692
40681
40684
40684
40678
40677
40674
40669
40665
40668
40666
40656
40648
40656
40636
40646
40636
40636
40632
40620
40626
40608
40620
40608
40604
40588
40588
40586
40584
40580
40564
40572
40558
40560
40560
40544
40548
40548
40540
40536
40540
40528
40524
40532
40516
40520
40518
40502
40508
40508
40508
40500
40502
40493
40494
40492
40488
40485
40485
40480
40486
40478
40466
40479
40480
40468
40472
40464
40464
40448
40446
40449
40452
40448
40436
40438
40428
40438
40420
40417
40432
40420
40416
40420
40400
40408
40408
40394
40400
40392
40384
40384
40380
40372
40371
40354
40369
40354
40353
40336
40346
40344
40340
40325
40321
40316
40304
40300
40304
40288
40291
40277
40268
40268
40252
40260
40244
40244
40224
40228
40216
40200
40208
40212
40191
40180
40176
40164
40156
40144
40146
40122
40136
40124
40120
40104
40088
40088
40079
40062
40056
40056
40036
40040
40036
40018
40010
40004
39988
39982
39972
39968
39960
39960
39936
39932
39929
39916
39912
39908
39888
39884
39860
39856
39858
39840
39836
39824
39812
39808
39797
39798
39780
39772
39754
39756
39740
39736
39732
39704
39710
39694
39676
39674
39658
39648
39648
39628
39616
39600
39600
39580
39572
39559
39544
39544
39524
39516
39492
39484
39480
39461
39456
39433
39424
39416
39395
39385
39380
39364
39352
39328
39308
39300
39292
39268
39264
39240
39233
39218
39196
39196
39174
39154
39144
39120
39120
39096
39088
39064
39044
39034
39013
39009
38992
38972
38966
38945
38932
38916
38900
38888
38880
38870
38838
38836
38815
38812
38784
38781
38759
38744
38738
38716
38710
38696
38684
38674
38652
38632
38624
38616
38600
38576
38572
38562
38540
38536
38512
38508
38493
38472
38456
38440
38412
38410
38392
38380
38360
38350
38337
38320
38308
38302
38276
38264
38252
38232
38226
38214
38202
38186
38176
38168
38148
38128
38128
38104
38098
38082
38070
38070
38044
38040
38028
38005
38009
37988
37973
37974
37944
37934
37928
37916
37904
37888
37880
37858
37850
37836
37825
37812
37796
37788
37772
37768
37744
37732
37717
37702
37694
37676
37666
37646
37636
37624
37604
37586
37577
37550
37542
37540
37514
37511
37485
37480
37464
37447
37432
37428
37404
37398
37376
37357
37348
37328
37313
37294
37287
37269
37260
37236
37220
37223
37204
37182
37168
37136
37135
37113
37100
37084
37070
37054
37049
37022
37010
36992
36975
36957
36948
36924
36902
36900
36878
36858
36850
36828
36815
36800
36780
36768
36748
36734
36708
36700
36684
36652
36648
36628
36612
36593
36580
36574
36540
36533
36510
36490
36480
36460
36446
36428
36414
36396
36380
36372
36344
36332
36312
36296
36290
36268
36244
36244
36218
36196
36188
36164
36150
36132
36112
36108
36086
36076
36056
36024
36024
36001
35982
35974
35940
35936
35932
35903
35892
35868
35852
35840
35812
35808
35788
35772
35760
35734
35729
35713
35694
35684
35645
35640
35630
35597
35590
35575
35548
35540
35509
35508
35484
35464
35456
35436
35421
35406
35376
35368
35352
35333
35316
35297
35278
35268
35250
35232
35212
35196
35176
35154
35148
35124
35108
35103
35072
35058
35044
35020
35002
34993
34969
34964
34934
34920
34912
34880
34864
34854
34836
34824
34792
34784
34764
34752
34740
34708
34705
34676
34662
34654
34626
34614
34601
34584
34568
34548
34526
34512
34496
34479
34460
34444
34432
34406
34394
34380
34360
34349
34336
34311
34308
34276
34264
34236
34224
34218
34197
34172
34172
34144
34128
34118
34094
34078
34068
34042
34036
34014
34014
33976
33975
33956
33935
33924
33908
33892
33880
33856
33864
33823
33824
33799
33780
33767
33750
33741
33720
33700
33688
33672
33670
33644
33637
33614
33609
33588
33572
33560
33546
33538
33516
33510
33480
33480
33456
33448
33430
33420
33404
33380
33382
33366
33348
33334
33320
33308
33294
33282
33272
33258
33248
33224
33213
33206
33182
33180
33154
33152
33130
33128
33118
33104
33088
33073
33065
33056
33036
33028
33014
32994
32992
32976
32971
32942
32947
32930
32912
32896
32876
32878
32852
32831
32820
32813
32800
32780
32774
32756
32753
32720
32720
32698
32690
32668
32661
32632
32640
32620
32612
32592
32586
32564
32558
32552
32540
32518
32513
32500
32496
32484
32480
32458
32446
32444
32432
32424
32418
32406
32393
32388
32364
32373
32352
32352
32338
32324
32324
32320
32302
32292
32284
32266
32265
32259
32248
32228
32226
32208
32206
32204
32186
32180
32164
32150
32154
32130
32121
32118
32098
32104
32090
32068
32061
32041
32036
32024
32016
32004
31990
31976
31960
31954
31936
31916
31912
31898
31892
31876
31863
31855
31832
31817
31810
31799
31774
31768
31740
31744
31716
31716
31692
31682
31664
31642
31636
31622
31601
31592
31580
31576
31540
31542
31524
31516
31498
31482
31460
31452
31441
31422
31412
31406
31376
31372
31352
31350
31334
31311
31312
31288
31288
31264
31265
31240
31233
31206
31199
31192
31165
31164
31140
31140
31125
31116
31102
31084
31078
31060
31052
31038
31030
31013
30992
30982
30972
30964
30949
30941
30932
30908
30896
30872
30868
30856
30848
30836
30812
30812
30788
30788
30766
30758
30757
30732
30718
30704
30692
30687
30666
30653
30638
30636
30618
30605
30592
30574
30580
30553
30548
30540
30520
30513
30493
30488
30488
30460
30452
30432
30434
30400
30392
30393
30376
30370
30360
30336
30336
30318
30308
30306
30282
30280
30264
30244
30248
30228
30222
30210
30190
30181
30172
30170
30154
30140
30137
30112
30114
30103
30084
30078
30064
30064
30050
30036
30032
30020
30004
30004
29992
29978
29976
29964
29948
29946
29924
29916
29916
29894
29890
29881
29868
29864
29860
29832
29834
29820
29807
29804
29799
29776
29768
29764
29758
29728
29738
29721
29708
29688
29697
29677
29664
29660
29641
29622
29629
29602
29604
29585
29566
29553
29552
29521
29528
29504
29490
29490
29476
29466
29453
29424
29408
29412
29389
29372
29372
29348
29336
29324
29302
29292
29280
29258
29251
29236
29218
29205
29196
29172
29166
29148
29130
29117
29096
29084
29078
29057
29051
29024
29016
29000
28984
28981
28960
28942
28936
28916
28904
28894
28880
28864
28854
28852
28817
28812
28800
28784
28776
28756
28740
28736
28716
28703
28684
28674
28665
28648
28633
28623
28606
28587
28578
28560
28545
28526
28516
28490
28484
28476
28452
28438
28423
28409
28392
28378
28360
28352
28328
28322
28306
28296
28280
28276
28254
28241
28236
28216
28208
28193
28169
28167
28148
28141
28132
28127
28108
28104
28076
28086
28060
28046
28038
28035
28010
28014
27984
27986
27972
27961
27940
27940
27920
27918
27896
27884
27884
27864
27849
27844
27824
27816
27805
27784
27784
27778
27754
27748
27733
27728
27714
27692
27692
27684
27668
27658
27642
27634
27631
27608
27607
27586
27564
27572
27560
27546
27540
27522
27508
27514
27482
27482
27472
27448
27446
27428
