RESPIRATION
30996
30996
30988
30980
30984
30968
30984
30976
30980
30966
30986
30978
30974
30978
30984
30964
30976
30962
30980
30968
30981
30976
30976
30988
30980
30990
30991
30988
31005
30998
31014
31017
31016
31021
31029
31036
31050
31064
31060
31062
31069
31074
31092
31084
31114
31116
31132
31136
31152
31160
31174
31184
31204
31212
31216
31242
31252
31273
31276
31297
31296
31328
31329
31356
31364
31390
31396
31414
31428
31452
31458
31482
31497
31518
31534
31552
31570
31588
31612
31616
31646
31656
31676
31690
31724
31724
31759
31768
31796
31798
31824
31838
31866
31888
31901
31920
31934
31964
31980
31998
32015
32037
32056
32068
32100
32116
32132
32148
32168
32191
32204
32230
32248
32268
32292
32305
32320
32349
32366
32394
32401
32424
32444
32455
32488
32492
32518
32538
32549
32582
32590
32612
32638
32647
32670
32678
32708
32724
32743
32764
32772
32805
32824
32836
32858
32880
32910
32916
32952
32956
32982
33002
33020
33060
33056
33096
33100
33124
33146
33162
33188
33198
33225
33236
33268
33292
33295
33330
33336
33368
33380
33414
33428
33444
33469
33486
33504
33525
33536
33562
33576
33604
33628
33626
33668
33668
33692
33708
33732
33745
33756
33781
33796
33820
33828
33866
33862
33888
33904
33912
33937
33948
33960
33972
34000
34016
34016
34044
34051
34073
34094
34100
34120
34135
34148
34164
34180
34184
34206
34212
34232
34240
34256
34268
34272
34292
34308
34317
34328
34340
34357
34359
34382
34392
34396
34413
34420
34436
34436
34444
34476
34471
34488
34488
34496
34513
34513
34540
34540
34552
34566
34581
34588
34612
34612
34616
34628
34632
34644
34652
34664
34668
34688
34680
34704
34710
34716
34724
34732
34752
34754
34760
34773
34772
34792
34792
34804
34812
34812
34822
34824
34833
34836
34848
34852
34854
34862
34870
34885
34882
34900
34890
34908
34901
34926
34916
34918
34924
34928
34944
34932
34952
34940
34956
34952
34965
34958
34961
34981
34976
34982
34984
34983
34994
34986
35000
34993
35004
35008
35004
35018
35004
35016
35008
35025
35020
35020
35033
35023
35032
35025
35038
35042
35044
35044
35046
35044
35044
35058
35052
35051
35052
35048
35054
35052
35066
35056
35048
35064
35052
35056
35068
35060
35073
35054
35065
35060
35064
35068
35064
35057
35053
35066
35048
35062
35048
35056
35069
35048
35053
35052
35052
35058
35053
35048
35050
35040
35040
35040
35044
35030
35028
35020
35014
35028
35008
35014
35004
35004
34997
34996
34996
34992
34980
34984
34973
34965
34956
34961
34936
34932
34932
34916
34916
34905
34903
34890
34880
34879
34864
34857
34850
34840
34844
34828
34820
34800
34793
34788
34760
34764
34742
34732
34718
34716
34698
34681
34678
34661
34648
34628
34624
34612
34596
34581
34565
34553
34534
34524
34496
34481
34470
34436
34442
34421
34398
34390
34362
34349
34333
34320
34289
34288
34272
34254
34236
34229
34200
34190
34172
34166
34148
34130
34112
34084
34092
34070
34062
34037
34036
34008
34000
33986
33980
33962
33944
33938
33912
33903
33890
33872
33860
33840
33832
33816
33800
33786
33768
33754
33741
33730
33725
33714
33694
33686
33668
33666
33636
33632
33608
33608
33576
33570
33555
33543
33524
33518
33500
33488
33476
33468
33460
33445
33415
33415
33408
33388
33392
33376
33352
33348
33333
33328
33297
33300
33292
33282
33276
33248
33252
33240
33236
33217
33217
33204
33200
33188
33168
33180
33157
33154
33136
33132
33124
33112
33110
33096
33100
33083
33080
33076
33062
33068
33049
33040
33040
33031
33036
33017
33005
33000
32986
32988
32974
32980
32964
32970
32950
32956
32946
32938
32938
32937
32932
32919
32917
32904
32916
32896
32889
32888
32888
32874
32870
32866
32850
32860
32851
32848
32843
32848
32836
32832
32829
32816
32821
32820
32817
32804
32812
32798
32804
32796
32786
32792
32774
32780
32766
32776
32772
32772
32753
32766
32756
32768
32756
32760
32754
32745
32754
32735
32741
32733
32744
32730
32725
32736
32726
32728
32728
32732
32728
32736
32724
32735
32730
32735
32735
32721
32732
32732
32731
32726
32730
32732
32740
32738
32740
32748
32735
32752
32750
32753
32756
32762
32754
32764
32756
32776
32774
32770
32772
32778
32784
32782
32792
32778
32800
32790
32802
32801
32812
32810
32814
32828
32832
32824
32836
32828
32836
32839
32848
32844
32852
32852
32861
32862
32868
32878
32872
32876
32894
32888
32910
32900
32912
32910
32920
32921
32924
32930
32930
32943
32938
32948
32932
32956
32960
32964
32960
32988
32971
32981
32986
33004
32999
33014
33002
33024
33014
33028
33022
33036
33030
33036
33053
33052
33060
33070
33070
33080
33076
33088
33084
33104
33094
33107
33113
33120
33124
33128
33125
33130
33140
33144
33157
33150
33170
33164
33175
33190
33189
33192
33200
33216
33216
33226
33221
33236
33248
33244
33253
33244
33262
33264
33274
33292
33278
33292
33309
33308
33318
33324
33324
33332
33338
33340
33350
33340
33364
33364
33364
33370
33380
33374
33381
33381
33396
33404
33396
33414
33409
33415
33420
33432
33433
33431
33432
33432
33444
33444
33442
33448
33456
33452
33461
33468
33460
33464
33465
33476
33472
33489
33482
33476
33490
33487
33486
33486
33480
33484
33488
33480
33488
33487
33472
33481
33490
33476
33486
33484
33474
33468
33468
33479
33470
33468
33468
33453
33452
33454
33452
33448
33440
33436
33440
33433
33422
33425
33421
33424
33408
33417
33396
33401
33388
33393
33384
33372
33380
33362
33364
33356
33344
33344
33335
33334
33320
33316
33322
33308
33304
33297
33286
33284
33284
33272
33270
33256
33256
33249
33244
33238
33216
33216
33216
33204
33196
33188
33174
33185
33165
33157
33160
33140
33141
33132
33129
33118
33101
33096
33094
33078
33078
33060
33055
33056
33044
33036
33028
33005
33016
32997
32984
32982
32977
32960
32958
32948
32940
32924
32920
32908
32886
32884
32876
32863
32853
32841
32839
32835
32816
32812
32798
32790
32786
32773
32762
32742
32734
32737
32708
32713
32693
32692
32686
32664
32666
32654
32650
32644
32640
32634
32622
32618
32610
32601
32590
32585
32580
32580
32568
32564
32560
32560
32546
32549
32552
32546
32545
32534
32536
32544
32533
32536
32530
32529
32534
32524
32537
32527
32532
32540
32543
32534
32532
32543
32535
32534
32554
32552
32548
32570
32571
32560
32570
32577
32580
32584
32606
32598
32594
32612
32614
32614
32626
32640
32644
32656
32672
32677
32678
32698
32702
32717
32716
32731
32740
32746
32762
32764
32792
32788
32808
32806
32832
32833
32844
32866
32868
32890
32907
32916
32932
32945
32951
32970
32976
33000
33009
33030
33045
33062
33074
33090
33112
33118
33148
33153
33180
33200
33212
33250
33252
33278
33300
33320
33348
33356
33380
33408
33422
33446
33468
33508
33508
33540
33561
33584
33608
33616
33660
33693
33706
33740
33757
33784
33816
33842
33878
33890
33932
33956
33986
34013
34040
34084
34108
34148
34172
34205
34244
34268
34300
34336
34354
34406
34423
34454
34496
34508
34540
34576
34604
34640
34676
34700
34732
34749
34784
34800
34852
34864
34904
34919
34943
34976
34996
35022
35050
35072
35104
35120
35149
35164
35184
35210
35224
35252
35273
35296
35322
35336
35360
35368
35397
35416
35432
35452
35461
35496
35504
35514
35541
35552
35580
35598
35614
35622
35644
35652
35676
35688
35704
35730
35722
35752
35752
35778
35786
35798
35813
35812
35836
35852
35854
35883
35884
35892
35904
35916
35924
35934
35951
35953
35972
35972
35980
35988
35996
36012
36014
36028
36024
36022
36050
36050
36052
36057
36057
36076
36076
36084
36084
36084
36109
36104
36116
36122
36127
36126
36124
36132
36138
36148
36146
36164
36164
36173
36182
36172
36182
36184
36188
36201
36202
36216
36196
36214
36223
36220
36236
36228
36252
36244
36246
36252
36268
36260
36264
36276
36280
36288
36289
36304
36298
36312
36312
36320
36332
36342
36336
36350
36350
36354
36366
36372
36376
36384
36384
36404
36408
36412
36426
36426
36430
36436
36438
36460
36457
36468
36476
36476
36492
36492
36496
36510
36508
36513
36518
36523
36544
36545
36550
36564
36559
36573
36572
36576
36582
36580
36598
36597
36598
36604
36604
36612
36614
36624
36631
36628
36634
36636
36640
36644
36645
36654
36654
36660
36654
36662
36661
36670
36661
36676
36682
36674
36680
36682
36684
36688
36686
36688
36692
36682
36704
36700
36700
36705
36706
36718
36708
36704
36719
36712
36724
36709
36720
36719
36722
36730
36728
36724
36728
36738
36728
36740
36728
36740
36748
36732
36730
36732
36740
36728
36741
36724
36740
36732
36732
36738
36728
36736
36730
36734
36727
36730
36728
36720
36725
36712
36720
36708
36710
36718
36700
36704
36702
36702
36703
36708
36696
36692
36684
36696
36676
36680
36672
36670
36676
36672
36676
36668
36664
36656
36664
36660
36654
36660
36642
36660
36654
36644
36664
36648
36649
36652
36644
36644
36644
36630
36637
36641
36630
36632
36644
36633
36628
36624
36621
36620
36631
36608
36612
36621
36612
36600
36600
36597
36597
36604
36588
36580
36574
36592
36574
36564
36570
36560
36552
36552
36548
36548
36536
36542
36532
36520
36520
36508
36505
36500
36510
36492
36493
36472
36480
36468
36452
36455
36444
36444
36436
36418
36424
36407
36412
36404
36393
36397
36380
36362
36366
36356
36348
36348
36332
36325
36332
36312
36300
36301
36282
36292
36276
36270
36260
36252
36236
36236
36225
36214
36207
36198
36180
36186
36175
36160
36152
36150
36140
36136
36130
36116
36108
36100
36088
36084
36064
36068
36052
36048
36044
36028
36036
36012
36016
35996
36000
35988
35988
35980
35964
35968
35956
35948
35950
35932
35928
35920
35920
35908
35908
35904
35876
35878
35877
35861
35868
35860
35848
35852
35841
35830
35837
35820
35816
35812
35810
35804
35793
35782
35784
35776
35772
35762
35760
35760
35756
35742
35748
35733
35728
35728
35716
35709
35710
35700
35696
35678
35684
35672
35664
35665
35656
35649
35644
35636
35634
35618
35628
35604
35604
35610
35592
35578
35578
35573
35556
35553
35548
35554
35540
35518
35512
35505
35500
35492
35482
35472
35472
35460
35460
35450
35424
35428
35413
35404
35397
35378
35378
35360
35364
35349
35332
35330
35308
35300
35294
35279
35272
35252
35238
35236
35225
35220
35206
35182
35168
35166
35160
35148
35130
35124
35100
35090
35082
35064
35060
35038
35036
35018
35008
35004
34980
34978
34961
34938
34934
34916
34908
34898
34887
34882
34862
34844
34834
34820
34810
34806
34790
34768
34764
34748
34742
34716
34703
34696
34682
34666
34660
34626
34620
34604
34584
34572
34554
34528
34520
34508
34492
34477
34456
34436
34436
34397
34396
34372
34360
34344
34336
34321
34292
34290
34272
34264
34240
34242
34228
34201
34212
34192
34172
34172
34164
34132
34140
34124
34117
34112
34092
34082
34080
34054
34049
34048
34030
34029
34016
34001
33994
33989
33992
33976
33969
33956
33944
33940
33926
33905
33908
33889
33884
33870
33860
33860
33834
33828
33825
33799
33791
33780
33764
33756
33752
33737
33729
33710
33688
33688
33668
33664
33644
33640
33632
33608
33602
33592
33568
33561
33548
33528
33524
33512
33484
33488
33472
33452
33446
33426
33413
33404
33380
33375
33351
33340
33324
33302
33292
33268
33270
33242
33236
33210
33202
33175
33166
33144
33120
33120
33090
33068
33056
33018
33000
32980
32961
32942
32924
32906
32884
32857
32844
32804
32796
32768
32740
32712
32693
32668
32632
32620
32580
32566
32532
32511
32492
32452
32438
32406
32376
32357
32326
32296
32275
32242
32224
32182
32158
32137
32090
32076
32044
32020
31988
31952
31936
31900
31882
31857
31828
31800
31769
31745
31732
31702
31676
31640
31631
31591
31580
31550
31521
31508
31472
31464
31436
31413
31388
31376
31359
31332
31321
31292
31280
31264
31240
31236
31204
31198
31176
31164
31150
31125
31124
31104
31096
31074
31079
31056
31052
31036
31030
31016
31016
31008
30990
30984
30970
30968
30950
30956
30938
30936
30928
30936
30916
30913
30909
30900
30900
30890
30888
30869
30883
30866
30863
30869
30856
30844
30853
30846
30842
30840
30837
30829
30820
30828
30820
30828
30823
30820
30816
30812
30818
30805
30820
30802
30812
30792
30800
30804
30796
30810
30798
30799
30812
30801
30813
30810
30798
30820
30808
30808
30814
30812
30820
30810
30816
30812
30816
30814
30814
30826
30814
30828
30828
30824
30830
30830
30836
30832
30829
30847
30836
30852
30841
30852
30856
30844
30852
30860
30854
30868
30868
30871
30881
30878
30886
30878
30892
30898
30908
30912
30914
30929
30926
30940
30949
30942
30960
30960
30968
30977
30982
30998
31000
31016
31020
31028
31038
31038
31056
31060
31074
31078
31085
31092
31092
31113
31122
31127
31140
31137
31160
31168
31169
31188
31190
31208
31208
31233
31226
31252
31262
31278
31276
31284
31300
31305
31312
31332
31334
31341
31356
31365
31381
31380
31412
31404
31416
31439
31441
31468
31471
31479
31492
31513
31508
31524
31532
31549
31569
31564
31588
31602
31604
31628
31636
31644
31660
31668
31688
31692
31716
31721
31728
31764
31756
31776
31790
31792
31820
31828
31836
31854
31864
31889
31896
31910
31928
31936
31948
31960
31972
31991
32008
32013
32021
32052
32054
32072
32068
32094
32106
32108
32132
32138
32162
32180
32185
32201
32200
32232
32236
32263
32256
32284
32302
32320
32332
32345
32361
32380
32396
32414
32436
32460
32464
32488
32497
32526
32544
32564
32592
32610
32624
32652
32660
32700
32711
32750
32770
32786
32816
32828
32868
32886
32920
32936
32972
33000
33006
33056
33079
33115
33129
33164
33196
33212
33252
33263
33300
33320
33354
33382
33408
33434
33468
33500
33512
33548
33566
33604
33621
33660
33674
33711
33726
33749
33780
33807
33825
33844
33880
33880
33910
33936
33958
33980
33986
34016
34032
34052
34071
34088
34106
34112
34136
34140
34148
34172
34168
34204
34200
34210
34228
34222
34246
34248
34252
34268
34276
34276
34292
34296
34292
34300
34305
34306
34320
34312
34332
34326
34330
34336
34330
34344
34328
34344
34344
34356
34356
34352
34364
34357
34366
34376
34362
34380
34372
34372
34388
34388
34382
34397
34404
34396
34404
34412
34426
34433
34436
34444
34438
34460
34450
34468
34478
34467
34490
34498
34496
34516
34508
34513
34542
34542
34554
34566
34566
34570
34590
34584
34596
34606
34608
34626
34620
34622
34640
34652
34658
34649
34676
34664
34680
34692
34676
34704
34694
34711
34719
34718
34724
34736
34744
34748
34757
34768
34772
34774
34796
34796
34808
34816
34814
34842
34850
34860
34868
34880
34878
34901
34900
34914
34928
34928
34940
34941
34952
34965
34960
34964
34969
34988
34981
34992
34997
34998
35012
35020
35005
35020
35030
35015
35029
35020
35028
35018
35016
35020
35020
35016
35024
35016
35012
35016
35010
35001
35010
35004
35004
35007
34996
35004
35008
34996
34992
34997
34990
34988
34984
34980
34982
34983
34975
34980
34976
34972
34981
34965
34972
34969
34957
34960
34954
34960
34948
34954
34952
34938
34942
34928
34932
34933
34932
34934
34926
34916
34933
34914
34912
34912
34900
34910
34900
34900
34892
34876
34884
34868
34868
34864
34840
34864
34848
34844
34836
34829
34834
34824
34829
34813
34810
34805
34797
34804
34782
34776
34780
34772
34768
34750
34753
34756
34732
34740
34733
34718
34724
34724
34712
34709
34708
34687
34692
34684
34668
34678
34664
34658
34656
34638
34636
34628
34616
34628
34616
34604
34605
34590
34596
34588
34575
34582
34555
34564
34546
34540
34538
34524
34520
34524
34504
34508
34492
34490
34500
34481
34480
34478
34465
34476
34460
34468
34456
34445
34452
34436
34436
34425
34430
34424
34412
34420
34410
34420
34416
34414
34416
34416
34412
34410
34412
34412
34418
34408
34408
34396
34405
34407
34398
34400
34390
34400
34400
34392
34396
34404
34400
34408
34404
34412
34412
34410
34404
34420
34408
34408
34410
34402
34416
34408
34409
34416
34405
34422
34420
34428
34428
34420
34426
34436
34434
34444
34434
34444
34438
34436
34446
34446
34440
34448
34448
34453
34460
34464
34464
34465
34470
34471
34488
34488
34480
34496
34492
34484
34498
34488
34484
34495
34488
34492
34498
34496
34508
34502
34512
34520
34512
34526
34526
34520
34544
34540
34528
34525
34546
34544
34546
34540
34549
34548
34542
34556
34544
34545
34560
34556
34568
34568
34576
34580
34586
34570
34580
34588
34570
34591
34576
34568
34585
34570
34596
34580
34580
34590
34588
34596
34596
34604
34600
34598
34600
34600
34612
34612
34598
34614
34606
34600
34618
34608
34604
34620
34608
34618
34625
34620
34628
34641
34630
34628
34636
34632
34628
34631
34631
34625
34624
34612
34616
34620
34604
34620
34612
34608
34606
34600
34604
34604
34600
34596
34596
34576
34584
34575
34558
34560
34556
34549
34545
34540
34532
34530
34528
34518
34529
34508
34520
34512
34508
34508
34506
34496
34474
34488
34468
34468
34453
34450
34444
34444
34436
34430
34427
34420
34410
34412
34412
34419
34414
34404
34396
34397
34382
34368
34368
34368
34348
34346
34344
34328
34324
34312
34304
34316
34300
34292
34289
34272
34293
34272
34268
34260
34248
34232
34224
34224
34204
34188
34190
34172
34156
34148
34146
34132
34126
34127
34108
34101
34100
34083
34074
34073
34048
34022
34016
34004
33990
33972
33956
33952
33920
33913
33916
33893
33880
33872
33852
33838
33836
33828
33812
33794
33774
33764
33744
33724
33716
33700
33676
33673
33644
33640
33636
33606
33592
33594
33572
33540
33556
33525
33509
33504
33482
33468
33453
33438
33423
33394
33396
33364
33348
33348
33308
33308
33304
33271
33264
33266
33239
33220
33216
33180
33169
33164
33132
33137
33116
33096
33090
33072
33060
33041
33016
33018
33000
32992
32988
32968
32960
32950
32937
32932
32908
32904
32872
32872
32868
32846
32838
32838
32820
32804
32796
32796
32778
32785
32773
32754
32756
32741
32736
32736
32728
32713
32712
32701
32700
32696
32680
32682
32680
32672
32664
32664
32668
32672
32656
32661
32660
32660
32652
32652
32662
32652
32641
32648
32636
32628
32636
32631
32623
32638
32618
32618
32626
32608
32616
32628
32602
32608
32610
32597
32590
32588
32570
32576
32572
32564
32570
32556
32556
32564
32548
32552
32564
32556
32568
32572
32560
32580
32588
32585
32593
32596
32596
32606
32607
32608
32620
32624
32620
32629
32651
32644
32646
32660
32656
32661
32677
32675
32676
32689
32676
32688
32692
32697
32684
32708
32700
32697
32693
32706
32710
32700
32708
32712
32700
32704
32702
32690
32700
32698
32692
32692
32684
32680
32682
32686
32674
32676
32680
32664
32676
32668
32663
32676
32668
32665
32662
32676
32660
32668
32676
32668
32677
32661
32665
32676
32662
32681
32678
32672
32679
32684
32680
32686
32702
32695
32704
32709
32698
32714
32718
32712
32716
32704
32720
32721
32728
32730
32718
32743
32732
32749
32746
32740
32754
32752
32760
32762
32758
32767
32768
32764
32768
32764
32768
32783
32770
32770
32776
32769
32781
32782
32773
32798
32793
32780
32800
32784
32796
32800
32798
32789
32797
32801
32800
32800
32796
32804
32804
32798
32804
32789
32792
32804
32804
32796
32798
32792
32780
32786
32798
32789
32784
32768
32776
32775
32764
32760
32772
32758
32748
32750
32757
32750
32736
32741
32744
32744
32737
32734
32733
32732
32740
32732
32712
32740
32730
32718
32732
32730
32730
32744
32732
32744
32749
32751
32748
32766
32765
32761
32776
32776
32782
32790
32792
32804
32820
32828
32823
32844
32853
32856
32868
32884
32888
32900
32904
32926
32933
32942
32958
32957
32972
32998
33000
33012
33028
33038
33048
33058
33060
33082
33094
33098
33106
33128
33132
33152
33166
33166
33184
33212
33212
33216
33228
33245
33240
33256
33274
33280
33286
33292
33308
33321
33335
33342
33346
33365
33368
33380
33372
33391
33412
33413
33412
33428
33429
33433
33452
33456
33462
33476
33472
33493
33496
33496
33520
33514
33528
33529
33540
33546
33564
33564
33569
33573
33584
33584
33604
33596
33620
33626
33617
33629
33636
33636
33653
33654
33668
33671
33668
33680
33680
33692
33684
33704
33708
33708
33713
33732
33717
33736
33728
33732
33752
33748
33752
33758
33750
33764
33776
33772
33777
33780
33782
33788
33788
33789
33804
33797
33817
33816
33815
33832
33832
33832
33852
33842
33854
33856
33852
33857
33864
33860
33877
33864
33870
33876
33880
33884
33892
33884
33904
33901
33904
33911
33894
33918
33916
33908
33920
33912
33924
33924
33918
33916
33934
33914
33920
33924
33918
33932
33916
33920
33916
33916
33925
33921
33932
33908
33916
33920
33902
33908
33908
33887
33894
33896
33880
33888
33890
33888
33896
33878
33886
33884
33876
33876
33870
33876
33860
33864
33860
33848
33856
33850
33836
33848
33836
33838
33840
33828
33824
33830
33816
33824
33810
33812
33808
33816
33812
33792
33798
33802
33790
33788
33781
33774
33774
33785
33760
33777
33775
33762
33768
33766
33760
33766
33752
33756
33756
33760
33748
33745
33737
33740
33751
33730
33740
33736
33733
33732
33737
33724
33736
33726
33724
33726
33724
33728
33720
33724
33722
33712
33726
33708
33714
33716
33705
33714
33700
33716
33706
33696
33706
33692
33702
33688
33687
33686
33672
33692
33668
33672
33660
33652
33663
33640
33649
33636
33630
33628
33620
33615
33616
33604
33592
33592
33588
33580
33574
33564
33562
33553
33538
33534
33521
33522
33504
33496
33486
33487
33486
33474
33472
33457
33468
33436
33444
33444
33435
33420
33412
33412
33391
33396
33389
33380
33382
33365
33381
33358
33356
33360
33346
33345
33354
33336
33338
33342
33330
33334
33324
33324
33316
33320
33310
33310
33313
33304
33316
33312
33312
33309
33300
33320
33309
33312
33313
33308
33311
33314
33310
33317
33316
33315
33321
33308
33324
33321
33326
33332
33325
33332
33331
33332
33336
33332
33321
33324
33342
33328
33324
33332
33328
33328
33328
33321
33312
33312
33308
33305
33292
33298
33290
33292
33290
33292
33284
33285
33281
33280
33280
33278
33297
33280
33286
33286
33269
33286
33294
33292
33316
33316
33318
33324
33332
33322
33340
33340
33340
33356
33352
33344
33353
33365
33356
33356
33372
33370
33358
33369
33362
33368
33381
33372
33364
33375
33368
33368
33368
33361
33344
33344
33353
33334
33336
33334
33320
33317
33314
33296
33296
33296
33290
33278
33280
33274
33260
33261
33249
33244
33240
33228
33234
33220
33212
33206
33212
33212
33201
33199
33208
33190
33205
33200
33200
33196
33200
33197
33194
33200
33192
33201
33201
33196
33204
33204
33206
33212
33218
33215
33232
33220
33228
33227
33246
33236
33244
33251
33232
33256
33252
33253
33252
33252
33261
33248
33256
33260
33264
33263
33264
33269
33264
33269
33263
33278
33268
33276
33264
33259
33268
33260
33268
33252
33260
33254
33252
33256
33248
33248
33246
33242
33240
33240
33228
33220
33228
33224
33222
33210
33208
33194
33204
33188
33188
33173
33172
33170
33166
33162
33156
33156
33144
33148
33138
33124
33134
33124
33114
33127
33096
33100
33096
33092
33088
33092
33077
33092
33073
33069
33077
33064
33062
33074
33064
33064
33069
33064
33072
33060
33066
33066
33066
33080
33070
33068
33070
33076
33076
33080
33071
33097
33072
33095
33109
33100
33112
33095
33112
33120
33124
33140
33126
33134
33132
33140
33142
33144
33160
33158
33164
33172
33172
33178
33184
33190
33186
33192
33196
33192
33212
33205
33216
33216
33212
33233
33228
33236
33236
33240
33246
33252
33258
33262
33249
33276
33270
33263
33286
33284
33296
33292
33310
33297
33296
33316
33316
33327
33322
33332
33340
33344
33353
33356
33364
33361
33380
33380
33392
33398
33404
33412
33414
33428
33428
33437
33438
33457
33464
33473
33484
33476
33502
33504
33532
33530
33540
33540
33556
33568
33576
33572
33598
33595
33596
33620
33622
33638
33638
33658
33660
33662
33684
33676
33696
33692
33712
33720
33720
33732
33730
33740
33746
33757
33764
33776
33776
33784
33794
33792
33800
33810
33806
33820
33828
33832
33828
33829
33852
33856
33844
33864
33860
33869
33876
33866
33880
33880
33880
33896
33892
33893
33904
33898
33909
33912
33905
33919
33911
33909
33919
33916
33920
33928
33922
33924
33934
33920
33925
33928
33923
33937
33930
33936
33940
33928
33932
33937
33928
33938
33929
33932
33932
33932
33936
33924
33924
33938
33924
33924
33926
33916
33932
33932
33924
33932
33910
33916
33917
33908
33910
33917
33898
33908
33904
33900
33888
33892
33888
33888
33892
33880
33892
33888
33888
33886
33874
33880
33874
33862
33870
33868
33865
33864
33848
33860
33852
33845
33853
33852
33852
33854
33844
33841
33852
33844
33846
33830
33840
33836
33828
33840
33824
33820
33824
33812
33820
33806
33813
33808
33798
33807
33800
33796
33797
33796
33787
33780
33782
33772
33764
33766
33758
33752
33748
33745
33732
33740
33724
33726
33712
33701
33712
33703
33692
33696
33684
33688
33672
33664
33656
33636
33656
33636
33632
33626
33602
33612
33593
33590
33590
33578
33572
33570
33556
33540
33535
33521
33525
33518
33498
33504
33485
33480
33468
33466
33461
33460
33436
33437
33424
33412
33413
33398
33392
33390
33374
33372
33369
33348
33340
33344
33314
33318
33313
33292
33292
33288
33271
33268
33264
33250
33253
33244
33234
33220
33228
33216
33202
33188
33189
33188
33164
33168
33153
33152
33150
33137
33142
33124
33124
33111
33104
33112
33100
33102
33076
33078
33076
33056
33060
33040
33048
33032
33032
33028
33008
33016
33012
32997
33000
32998
32992
32980
32984
32980
32966
32962
32964
32948
32948
32950
32942
32932
32937
32929
32920
32926
32916
32910
32912
32900
32896
32896
32884
32873
32868
32868
32844
32849
32847
32828
32832
32817
32812
32800
32792
32780
32782
32768
32764
32752
32745
32751
32738
32724
32730
32720
32720
32714
32700
32708
32694
32696
32696
32695
32693
32688
32700
32692
32692
32696
32692
32688
32692
32680
32688
32689
32680
32681
32673
32664
32676
32652
32664
32660
32646
32644
32648
32640
32638
32626
32616
32623
32614
32620
32602
32584
32580
32567
32565
32560
32548
32548
32524
32524
32514
32506
32497
32488
32488
32476
32476
32464
32452
32452
32432
32432
32428
32413
32415
32399
32396
32388
32373
32385
32364
32359
32352
32348
32358
32350
32357
32344
32337
32336
32324
32334
32314
32316
32314
32308
32310
32292
32298
32284
32288
32280
32273
32288
32275
32263
32272
32253
32264
32246
32248
32244
32232
32224
32226
32228
32206
32208
32200
32188
32194
32176
32180
32166
32168
32153
32144
32140
32124
32124
32116
32116
32089
32096
32082
32080
32062
32048
32056
32036
32030
32023
32012
32012
32004
31994
31988
31964
31972
31954
31944
31929
31928
31924
31904
31904
31884
31876
31878
31856
31864
31844
31840
31828
31824
31824
31800
31806
31784
31792
31762
31776
31760
31743
31752
31716
31730
31716
31709
31712
31694
31696
31686
31690
31684
31674
31680
31672
31670
31678
31660
31654
31663
31648
31657
31644
31652
31644
31640
31644
31640
31654
31647
31653
31644
31648
31654
31652
31656
31654
31665
31662
31670
31669
31672
31672
31688
31688
31685
31694
31682
31706
31692
31724
31712
31716
31724
31716
31732
31735
31740
31750
31754
31762
31765
31760
31780
31767
31784
31782
31790
31801
31796
31807
31808
31812
31825
31838
31825
31828
31840
31837
31844
31854
31855
31860
31870
31864
31873
31877
31872
31888
31898
31896
31908
31904
31906
31918
31912
31926
31932
31926
31940
31944
31942
31941
31956
31956
31956
31968
31969
31971
31986
31980
31988
31992
31996
32004
31992
32004
32020
32027
32016
32022
32020
32020
32032
32040
32024
32048
32036
32040
32060
32050
32052
32055
32056
32076
32064
32070
32076
32084
32078
32088
32086
32084
32096
32100
32094
32112
32105
32104
32116
32122
32116
32140
32128
32133
32148
32136
32138
32154
32158
32141
32158
32166
32160
32172
32186
32172
32184
32199
32196
32197
32215
32212
32212
32224
32232
32230
32229
32245
32245
32245
32248
32262
32244
32268
32264
32268
32280
32276
32288
32300
32300
32304
32316
32305
32316
32320
32326
32338
32326
32338
32350
32342
32352
32356
32358
32369
32360
32378
32385
32377
32392
32392
32393
32401
32413
32412
32420
32420
32417
32428
32428
32432
32440
32450
32452
32457
32456
32468
32476
32476
32490
32480
32500
32500
32492
32520
32510
32516
32524
32529
32540
32528
32544
32556
32544
32556
32560
32562
32577
32576
32588
32596
32596
32611
32608
32622
32632
32632
32647
32636
32652
32660
32662
32684
32676
32677
32692
32696
32714
32722
32724
32736
32728
32748
32756
32756
32766
32776
32772
32788
32798
32792
32802
32800
32822
32824
32824
32832
32842
32852
32844
32860
32876
32869
32894
32892
32896
32908
32906
32916
32908
32924
32938
32936
32950
32948
32954
32972
32970
32988
32988
33000
33001
33020
33016
33022
33044
33036
33052
33055
33072
33070
33080
33088
33096
33116
33112
33133
33134
33148
33168
33180
33184
33188
33200
33213
33220
33224
33236
33244
33268
33268
33276
33284
33296
33311
33324
33340
33332
33359
33377
33376
33396
33400
33412
33420
33436
33452
33445
33464
33472
33482
33500
33508
33527
33530
33554
33556
33572
33584
33596
33604
33618
33634
33649
33652
33671
33668
33686
33704
33700
33720
33724
33752
33752
33770
33788
33791
33808
33820
33828
33841
33856
33874
33876
33888
33900
33916
33932
33934
33942
33956
33964
33968
33992
34004
34017
34028
34032
34055
34048
34084
34092
34098
34108
34120
34142
34138
34152
34164
34168
34196
34192
34220
34224
34241
34250
34260
34284
34284
34318
34316
34337
34343
34369
34377
34376
34401
34406
34428
34428
34444
34452
34462
34472
34474
34496
34498
34516
34528
34536
34542
34556
34566
34576
34581
34596
34604
34612
34634
34632
34652
34656
34670
34679
34696
34712
34720
34734
34740
34762
34765
34790
34798
34801
34828
34821
34848
34840
34865
34864
34876
34888
34896
34908
34918
34924
34940
34948
34964
34975
34977
34992
34996
35026
35023
35036
35036
35048
35050
35066
35068
35082
35095
35093
35106
35112
35116
35128
35135
35140
35162
35165
35172
35185
35182
35200
35192
35207
35217
35220
35232
35240
35239
35260
35268
35264
35290
35288
35308
35316
35325
35337
35339
35360
35357
35376
35388
35388
35400
35400
35412
35428
35426
35448
35444
35454
35476
35470
35476
35498
35492
35500
35524
35514
35527
35532
35538
35550
35553
35564
35552
35560
35574
35573
35580
35577
35598
35593
35608
35608
35612
35617
35628
35632
35624
35632
35628
35640
35648
35634
35646
35646
35640
35646
35653
35653
35648
35664
35662
35660
35664
35661
35668
35680
35670
35685
35670
35681
35677
35672
35680
35676
35680
35680
35676
35692
35684
35695
35692
35700
35696
35692
35706
35696
35703
35701
35692
35706
35704
35696
35706
35700
35716
35710
35702
35711
35708
35714
35717
35716
35734
35724
35732
35734
35735
35744
35736
35742
35748
35744
35760
35752
35758
35760
35760
35772
35777
35780
35782
35798
35796
35812
35797
35818
35816
35829
35830
35836
35836
35840
35844
35861
35857
35862
35879
35872
35880
35888
35904
35916
35906
35932
35924
35944
35934
35946
35948
35964
35966
35964
35982
35980
35988
35984
36008
36002
36020
36012
36034
36028
36047
36036
36062
36052
36068
36056
36073
36087
36076
36088
36084
36096
36086
36112
36109
36124
36112
36140
36128
36139
36138
36140
36148
36142
36158
36148
36164
36152
36162
36165
36164
36172
36165
36176
36170
36180
36182
36188
36180
36184
36188
36196
36188
36192
36188
36196
36202
36184
36202
36180
36192
36184
36196
36182
36188
36180
36192
36182
36190
36184
36180
36188
36184
36176
36168
36181
36172
36178
36161
36165
36150
36160
36150
36150
36140
36144
36136
36140
36132
36134
36130
36122
36120
36116
36112
36113
36100
36116
36088
36081
36090
36064
36072
36068
36052
36048
36048
36036
36048
36028
36038
36030
36024
36017
36008
36000
35996
35984
35988
35966
35956
35960
35954
35940
35941
35936
35932
35914
35920
35906
35892
35904
35894
35888
35870
35872
35857
35852
35844
35836
35820
35814
35796
35804
35794
35780
35780
35764
35766
35760
35752
35738
35736
35732
35720
35713
35710
35700
35695
35689
35665
35666
35656
35652
35642
35640
35630
35625
35615
35604
35600
35596
35580
35576
35572
35564
35550
35552
35532
35525
35516
35518
35498
35488
35494
35486
35472
35458
35464
35444
35446
35442
35428
35423
35428
35408
35396
35392
35383
35386
35366
35356
35354
35340
35336
35328
35325
35304
35308
35292
35292
35286
35280
35268
35266
35246
35244
35238
35232
35220
35207
35204
35192
35192
35172
35176
35160
35160
35150
35149
35134
35128
35128
35110
35109
35096
35094
35080
35072
35068
35048
35044
35021
35030
35025
35004
35016
34996
35000
34989
34974
34972
34952
34956
34956
34935
34940
34928
34917
34912
34894
34896
34878
34892
34868
34862
34860
34852
34844
34831
34840
34822
34822
34804
34804
34796
34782
34780
34768
34760
34764
34736
34744
34736
34735
34728
34712
34717
34704
34702
34686
34692
34676
34676
34676
34656
34646
34640
34624
34632
34616
34604
34609
34596
34586
34589
34578
34560
34572
34554
34549
34544
34542
34532
34524
34526
34508
34511
34493
34488
34480
34478
34474
34456
34460
34452
34442
34444
34429
34436
34420
34416
34416
34398
34407
34384
34384
34376
34362
34354
34344
34348
34332
34336
34326
34317
34314
34303
34305
34292
34288
34288
34276
34273
34264
34258
34253
34232
34249
34228
34224
34225
34204
34201
34194
34180
34196
34180
34166
34172
34160
34169
34154
34152
34141
34132
34136
34112
34112
34108
34100
34092
34092
34077
34080
34068
34060
34060
34052
34056
34048
34044
34028
34020
34016
34012
34004
33982
33992
33974
33976
33969
33942
33957
33936
33930
33928
33902
33916
33904
33894
33888
33894
33868
33876
33864
33860
33848
33842
33841
33818
33822
33808
33808
33806
33792
33796
33780
33788
33768
33775
33764
33764
33752
33740
33734
33736
33726
33717
33717
33700
33700
33692
33696
33689
33678
33668
33672
33658
33664
33646
33652
33645
33637
33624
33620
33622
33605
33609
33592
33588
33584
33576
33570
33556
33552
33548
33526
33536
33532
33524
33512
33502
33505
33494
33496
33468
33476
33449
33460
33432
33436
33422
33414
33409
33404
33399
33390
33392
33372
33385
33359
33365
33349
33350
33344
33336
33318
33312
33302
33284
33300
33276
33276
33274
33249
33256
33240
33245
33238
33222
33216
33211
33204
33192
33196
33168
33172
33153
33150
33140
33141
33120
33120
33120
33106
33102
33088
33089
33076
33074
33057
33072
33044
33040
33024
33025
33008
33006
32990
32972
32988
32962
32964
32956
32936
32932
32924
32923
32902
32892
32893
32885
32864
32866
32849
32837
32834
32815
32806
32796
32776
32784
32764
32759
32752
32730
32724
32702
32692
32688
32677
32680
32645
32648
32624
32622
32616
32598
32588
32568
32557
32539
32533
32520
32512
32500
32494
32480
32474
32452
32446
32424
32431
32406
32401
32382
32380
32364
32360
32342
32329
32324
32321
32296
32295
32286
32274
32270
32268
32252
32246
32234
32225
32220
32206
32200
32192
32169
32188
32158
32158
32148
32142
32140
32136
32133
32117
32132
32109
32112
32108
32098
32100
32076
32084
32078
32074
32061
32066
32049
32048
32050
32044
32028
32037
32036
32022
32026
32018
32020
32006
32016
32002
32002
32002
31988
31983
31984
31980
31972
31964
31972
31972
31956
31948
31954
31960
31960
31938
31932
31934
31936
31920
31930
31924
31914
31918
31894
31894
31888
31896
31880
31885
31884
31876
31878
31863
31868
31860
31863
31856
31855
31848
31840
31828
31824
31824
31823
31824
31809
31804
31796
31802
31788
31788
31781
31778
31780
31772
31776
31760
31764
31751
31752
31736
31734
31726
31725
31724
31718
31716
31705
31708
31696
31692
31696
31681
31693
31676
31684
31668
31670
31668
31653
31652
31658
31645
31646
31638
31636
31644
31622
31632
31624
31620
31620
31610
31620
31612
31616
31606
31609
31599
31598
31596
31604
31589
31588
31588
31588
31588
31577
31584
31578
31586
31580
31588
31576
31581
31572
31589
31575
31583
31572
31584
31580
31580
31580
31584
31573
31584
31581
31586
31574
31588
31581
31602
31588
31599
31592
31596
31588
31607
31596
31608
31602
31614
31609
31615
31608
31620
31615
31627
31620
31632
31636
31644
31646
31648
31648
31665
31660
31676
31664
31684
31676
31692
31671
31697
31696
31700
31696
31717
31708
31726
31722
31740
31735
31756
31756
31760
31762
31778
31770
31785
31781
31802
31804
31798
31808
31818
31828
31828
31842
31842
31846
31860
31856
31872
31874
31892
31888
31903
31904
31912
31916
31928
31926
31942
31944
31938
31956
31948
31973
31973
31973
31992
31990
31997
32008
32009
32023
32028
32036
32050
32048
32054
32052
32064
32076
32072
32086
32088
32088
32102
32100
32116
32121
32128
32144
32140
32151
32167
32154
32181
32172
32184
32184
32188
32200
32196
32208
32208
32224
32224
32228
32236
32246
32260
32250
32268
32264
32277
32268
32288
32292
32300
32296
32300
32300
32310
32322
32318
32328
32320
32338
32346
32344
32352
32352
32369
32372
32368
32372
32372
32388
32394
32399
32390
32404
32405
32401
32417
32418
32412
32426
32428
32434
32440
32438
32446
32458
32460
32472
32465
32480
32480
32484
32492
32490
32494
32511
32502
32518
32512
32528
32532
32540
32549
32546
32564
32566
32576
32581
32584
32600
32598
32616
32612
32624
32624
32622
32642
32640
32656
32654
32673
32680
32691
32701
32703
32718
32719
32736
32736
32738
32758
32765
32774
32774
32780
32799
32792
32816
32806
32832
32836
32840
32848
32855
32873
32874
32896
32884
32900
32901
32924
32928
32930
32945
32956
32960
32972
32986
32984
33004
33002
33016
33035
33040
33048
33060
33074
33080
33088
33096
33104
33109
33114
33128
33134
33140
33148
33160
33166
33180
33182
33185
33200
33196
33225
33204
33218
33216
33233
33222
33236
33228
33240
33240
33244
33252
33260
33266
33270
33276
33284
33294
33292
33304
33320
33316
33330
33332
33348
33358
33360
33354
33372
33376
33380
33384
33400
33397
33401
33420
33416
33447
33432
33452
33456
33462
33466
33476
33489
33480
33496
33492
33514
33508
33516
33518
33522
33532
33549
33544
33548
33562
33558
33566
33576
33572
33568
33588
33586
33591
33582
33605
33590
33608
33602
33620
33612
33624
33624
33632
33641
33640
33654
33645
33654
33650
33666
33660
33668
33672
33668
33676
33680
33670
33681
33688
33686
33692
33700
33702
33700
33706
33704
33702
33706
33704
33702
33712
33700
33710
33706
33702
33709
33700
33692
33689
33696
33694
33692
33690
33686
33692
33681
33689
33684
33680
33684
33681
33680
33669
33668
33665
33662
33664
33664
33666
33656
33660
33644
33648
33648
33641
33641
33635
33652
33636
33632
33644
33624
33632
33626
33616
33630
33611
33620
33622
33616
33622
33609
33612
33604
33608
33616
33604
33620
33608
33616
33609
33608
33605
33608
33616
33596
33620
33612
33622
33602
33620
33620
33632
33620
33628
33636
33634
33648
33640
33664
33652
33680
33658
33669
33676
33677
33689
33684
33698
33702
33718
33720
33730
33730
33743
33750
33762
33772
33776
33796
33792
33810
33813
33828
33828
33849
33844
33868
33864
33871
33888
33890
33901
33920
33926
33932
33944
33941
33964
33964
33984
33988
34008
34004
34029
34027
34044
34049
34063
34068
34085
34078
34096
34101
34124
34119
34138
34146
34156
34165
34164
34188
34184
34200
34208
34216
34225
34228
34249
34256
34272
34272
34282
34300
34308
34321
34332
34345
34348
34356
34374
34372
34390
34396
34414
34420
34430
34440
34449
34465
34470
34486
34497
34508
34516
34528
34542
34536
34564
34564
34588
34581
34594
34604
34600
34628
34616
34640
34636
34655
34662
34668
34676
34686
34706
34700
34725
34724
34732
34732
34750
34748
34762
34764
34768
34781
34780
34792
34800
34804
34802
34817
34817
34832
34836
34848
34850
34849
34856
34860
34876
34868
34881
34885
34880
34893
34886
34896
34900
34916
34904
34913
34924
34921
34938
34932
34946
34932
34944
34946
34944
34956
34954
34954
34956
34959
34972
34970
34960
34980
34980
34974
34996
34992
35004
34994
35004
35010
35004
35012
35016
35012
35020
35028
35028
35020
35028
35028
35039
35034
35044
35044
35037
35052
35046
35061
35061
35056
35065
35068
35054
35066
35064
35062
35076
35066
35072
35074
35074
35085
35080
35078
35087
35084
35086
35084
35081
35098
35094
35098
35105
35084
35104
35106
35093
35113
35092
35112
35098
35110
35108
35104
35116
35118
35118
35132
35120
35124
35134
35127
35128
35137
35121
35140
35137
35138
35146
35144
35140
35151
35148
35148
35153
35148
35169
35148
35164
35164
35160
35170
35168
35164
35172
35172
35174
35182
35174
35174
35184
35189
35176
35180
35192
35181
35185
35196
35183
35204
35200
35198
35204
35190
35198
35204
35191
35210
35202
35205
35204
35201
35204
35213
35216
35212
35217
35217
35215
35217
35225
35220
35224
35222
35232
35228
35234
35225
35236
35229
35232
35242
35234
35236
35233
35240
35244
35239
35248
35238
35244
35252
35256
35246
35247
35262
35249
35258
35246
35260
35258
35254
35260
35249
35252
35258
35248
35265
35268
35252
35258
35252
35264
35262
35264
35262
35252
35262
35260
35254
35264
35258
35260
35260
35249
35260
35246
35257
35260
35247
35252
35246
35244
35247
35244
35240
35252
35238
35248
35247
35238
35236
35248
35238
35236
35246
35240
35234
35246
35228
35230
35228
35224
35236
35220
35231
35213
35220
35220
35204
35220
35213
35218
35201
35212
35212
35196
35212
35192
35210
35192
35196
35190
35192
35188
35180
35188
35172
35174
35167
35176
35164
35160
35161
35162
35162
35156
35168
35168
35150
35156
35166
35146
35159
35148
35146
35144
35148
35164
35140
35152
35148
35148
35156
35156
35148
35164
35151
35156
35152
35148
35156
35146
35156
35140
35140
35132
35138
35133
35127
35134
35120
35126
35120
35110
35104
35106
35100
35090
35092
35088
35088
35076
35082
35060
35070
35050
35057
35047
35055
35036
35041
35040
35044
35036
35029
35040
35034
35040
35028
35036
35029
35022
35028
35012
35028
35020
35016
35022
35012
35028
35018
35031
35020
35023
35040
35024
35044
35044
35036
35046
35044
35044
35044
35052
35054
35044
35055
35052
35060
35056
35060
35056
35054
35053
35064
35076
35072
35063
35060
35069
35082
35076
35072
35065
35063
35080
35070
35081
35072
35070
35072
35069
35077
35064
35072
35062
35064
35065
35057
35060
35052
35056
35040
35052
35039
35042
35028
35038
35020
35033
35004
35008
34997
34996
35008
34985
34992
34982
34976
34980
34960
34964
34944
34940
34936
34938
34928
34916
34908
34902
34902
34892
34880
34884
34868
34868
34852
34850
34852
34828
34828
34828
34804
34808
34796
34786
34789
34765
34774
34756
34752
34742
34740
34736
34724
34726
34714
34708
34696
34676
34686
34672
34670
34657
34640
34645
34628
34638
34622
34616
34598
34600
34593
34582
34584
34564
34566
34552
34552
34542
34530
34529
34524
34520
34494
34512
34490
34484
34486
34481
34472
34469
34458
34466
34456
34460
34448
34444
34446
34428
34442
34432
34436
34428
34432
34429
34434
34428
34410
34424
34412
34420
34420
34420
34426
34420
34420
34420
34424
34422
34424
34420
34428
34428
34432
34428
34434
34413
34436
34428
34436
34428
34436
34438
34432
34450
34440
34442
34448
34440
34444
34448
34436
34437
34444
34440
34444
34440
34436
34448
34448
34444
34450
34432
34441
34447
34436
34444
34444
34444
34448
34436
34440
34429
34422
34436
34432
34428
34448
34424
34424
34434
34432
34436
34428
34436
34432
34430
34428
34420
34424
34428
34417
34428
34414
34420
34418
34409
34420
34410
34415
34410
34401
34416
34390
34400
34384
34405
34398
34396
34400
34380
34386
34372
34375
34372
34356
34364
34348
34350
34340
34350
34332
34330
34328
34328
34320
34302
34311
34304
34293
34286
34272
34268
34262
34268
34244
34248
34230
34233
34218
34216
34200
34196
34191
34182
34181
34162
34160
34150
34138
34133
34116
34109
34106
34088
34084
34059
34064
34045
34044
34033
34024
34020
34006
33989
33982
33989
33964
33964
33948
33943
33932
33918
33920
33905
33892
33872
33876
33865
33849
33854
33828
33830
33825
33803
33798
33790
33793
33764
33776
33752
33736
33732
33724
33718
33700
33695
33676
33676
33656
33668
33644
33645
33628
33620
33618
33594
33590
33582
33560
33566
33542
33554
33528
33522
33503
33501
33498
33474
33470
33468
33444
33434
33442
33416
33420
33408
33392
33388
33368
33369
33348
33352
33328
33326
33308
33305
33292
33280
33284
33260
33253
33248
33236
33228
33212
33214
33206
33187
33189
33160
33164
33144
33144
33128
33124
33118
33100
33106
33076
33089
33076
33069
33060
33036
33054
33033
33028
33012
33009
32993
32988
32985
32976
32972
32950
32956
32937
32933
32926
32916
32914
32900
32896
32892
32878
32878
32860
32866
32845
32838
32833
32840
32826
32820
32802
32808
32789
32791
32774
32772
32758
32756
32757
32732
32742
32740
32720
32724
32708
32706
32689
32687
32687
32672
32678
32652
32664
32644
32640
32634
32620
32625
32616
32617
32605
32608
32596
32592
32580
32572
32568
32560
32550
32548
32544
32548
32530
32524
32532
32508
32520
32500
32506
32496
32492
32486
32464
32474
32468
32452
32458
32449
32446
32433
32420
32440
32418
32420
32406
32408
32414
32396
32388
32398
32376
32378
32378
32361
32372
32360
32358
32356
32343
32348
32330
32340
32322
32324
32330
32316
32321
32305
32308
32310
32296
32316
32293
32300
32296
32292
32284
32284
32282
32286
32277
32278
32270
32268
32284
32270
32277
32272
32268
32272
32287
32272
32269
32281
32272
32284
32286
32282
32284
32276
32292
32288
32288
32300
32281
32302
32292
32303
32312
32300
32316
32312
32316
32316
32303
32316
32310
32305
32308
32303
32302
32292
32297
32292
32292
32304
32293
32296
32292
32278
32292
32284
32287
32286
32286
32294
32280
32292
32280
32292
32288
32288
32300
32294
32300
32292
32293
32312
32303
32306
32308
32300
32320
32314
32320
32320
32319
32324
32316
32332
32322
32327
32326
32316
32338
32338
32336
32330
32340
32334
32344
32332
32332
32342
32325
32350
32330
32327
32332
32328
32326
32326
32327
32320
32328
32324
32321
32326
32322
32332
32316
32326
32320
32320
32324
32316
32324
32309
32316
32318
32316
32320
32316
32318
32313
32330
32316
32324
32318
32319
32327
32316
32320
32324
32324
32314
32330
32320
32336
32316
32320
32324
32321
32327
32314
32325
32320
32324
32308
32324
32306
32320
32308
32314
32298
32300
32308
32292
32300
32284
32284
32280
32278
32280
32271
32271
32260
32276
32260
32252
32249
32244
32252
32232
32244
32213
32222
32228
32196
32214
32188
32187
32188
32166
32176
32160
32159
32144
32146
32136
32142
32128
32128
32104
32108
32088
32096
32084
32072
32075
32060
32052
32038
32044
32032
32036
32010
32016
32006
31997
32000
31990
31992
31980
31972
31972
31958
31948
31945
31960
31944
31938
31936
31936
31932
31934
31933
31929
31936
31931
31940
31921
31942
31928
31936
31924
31940
31932
31940
31940
31944
31940
31960
31950
31956
31962
31966
31984
31970
31994
32000
32004
32012
32012
32024
32021
32044
32037
32048
32052
32062
32069
32074
32084
32086
32102
32116
32118
32131
32128
32144
32145
32164
32172
32162
32188
32184
32200
32204
32208
32216
32218
32238
32236
32246
32260
32258
32282
32270
32290
32300
32302
32316
32320
32330
32324
32342
32343
32352
32357
32368
32372
32374
32390
32396
32408
32408
32418
32429
32428
32452
32442
32468
32462
32468
32486
32480
32490
32492
32492
32513
32508
32521
32528
32529
32548
32556
32551
32560
32560
32564
32576
32586
32574
32588
32586
32596
32600
32600
32617
32608
32616
32616
32612
32638
32630
32632
32641
32638
32655
32644
32652
32658
32652
32664
32664
32672
32672
32660
32672
32672
32676
32682
32678
32700
32692
32703
32703
32708
32712
32713
32720
32716
32727
32722
32740
32720
32748
32737
32748
32737
32756
32756
32752
32765
32760
32778
32772
32783
32780
32794
32796
32804
32805
32812
32812
32820
32824
32827
32836
32824
32857
32840
32852
32868
32857
32869
32868
32890
32888
32889
32894
32904
32897
32914
32914
32916
32934
32928
32936
32942
32942
32964
32951
32952
32964
32970
32982
32968
32990
32990
32998
33004
33004
33020
33018
33024
33020
33016
33036
33040
33041
33047
33050
33064
33052
33072
33071
33076
33086
33080
33102
33094
33100
33116
33112
33120
33112
33122
33124
33131
33145
33140
33133
33144
33150
33160
33153
33167
33168
33167
33180
33177
33180
33184
33182
33202
33181
33190
33206
33190
33198
33200
33197
33213
33208
33216
33216
33205
33215
33222
33216
33220
33222
33212
33224
33223
33218
33224
33206
33224
33216
33220
33224
33220
33220
33212
33224
33220
33212
33220
33225
33221
33223
33210
33208
33216
33202
33214
33208
33196
33204
33201
33204
33190
33200
33188
33200
33196
33201
33194
33178
33190
33181
33182
33180
33176
33172
33155
33168
33162
33148
33156
33156
33148
33156
33152
33140
33148
33138
33143
33144
33124
33132
33136
33132
33108
33121
33112
33118
33112
33097
33112
33092
33100
33096
33092
33093
33084
33093
33078
33076
33092
33072
33080
33068
33068
33060
33064
33054
33058
33046
33057
33036
33044
33044
33037
33040
33032
33032
33026
33028
33028
33025
33016
33024
33020
33020
33020
33012
33012
33012
33001
33020
33012
33004
33014
33006
33028
33012
33010
33028
33022
33028
33012
33028
33015
33034
33015
33033
33028
33039
33033
33052
33041
33060
33052
33060
33060
33082
33090
33084
33104
33100
33124
33114
33124
33137
33148
33146
33169
33160
33184
33200
33189
33210
33226
33240
33240
33252
33272
33268
33280
33292
33293
33316
33314
33332
33332
33343
33352
33356
33366
33380
33377
33385
33400
33406
33414
33430
33430
33447
33460
33462
33476
33484
33508
33516
33516
33542
33557
33569
33588
33592
33600
33618
33636
33644
33660
33680
33682
33684
33719
33716
33726
33736
33742
33756
33776
33766
33781
33799
33792
33812
33838
33828
33836
33855
33856
33864
33887
33876
33896
33884
33898
33896
33907
33918
33916
33920
33920
33922
33930
33924
33946
33942
33948
33948
33957
33954
33948
33962
33946
33948
33962
33956
33959
33948
33960
33942
33958
33957
33956
33960
33948
33972
33959
33960
33964
33956
33972
33956
33968
33960
33970
33960
33962
33972
33960
33964
33942
33958
33952
33960
33958
33944
33960
33948
33962
33940
33948
33952
33940
33950
33940
33936
33932
33926
33924
33917
33908
33920
33904
33904
33909
33896
33896
33908
33889
33888
33886
33878
33879
33883
33871
33864
33856
33858
33858
33848
33852
33848
33836
33829
33844
33828
33818
33828
33830
33816
33824
33820
33800
33818
33796
33796
33804
33793
33788
33782
33772
33780
33776
33767
33774
33760
33760
33772
33764
33753
33763
33756
33759
33749
33750
33752
33752
33749
33752
33751
33750
33749
33742
33744
33752
33740
33764
33753
33752
33754
33767
33772
33772
33767
33764
33775
33772
33776
33781
33778
33796
33784
33806
33804
33796
33822
33808
33836
33828
33836
33846
33846
33857
33852
33860
33877
33870
33880
33880
33888
33897
33908
33914
33925
33916
33936
33949
33941
33972
33965
33972
33988
33984
34000
34009
34016
34022
34023
34040
34041
34046
34068
34066
34086
34081
34087
34100
34100
34124
34132
34138
34158
34140
34172
34165
34180
34190
34192
34196
34209
34212
34228
34234
34245
34244
34260
34268
34276
34294
34292
34312
34327
34330
34341
34348
34362
34372
34380
34380
34392
34406
34415
34428
34432
34432
34462
34460
34480
34478
34479
34500
34498
34520
34528
34524
34545
34541
34558
34565
34568
34577
34572
34599
34596
34598
34610
34624
34624
34624
34644
34644
34644
34657
34660
34676
34667
34684
34678
34680
34692
34688
34700
34704
34725
34724
34728
34740
34732
34748
34757
34756
34760
34767
34772
34794
34788
34789
34792
34804
34804
34820
34812
34826
34828
34836
34844
34856
34860
34864
34864
34868
34896
34877
34888
34904
34887
34910
34908
34908
34919
34914
34927
34944
34940
34940
34944
34948
34956
34964
34968
34980
34968
34980
34989
34980
34984
34994
34996
34988
35012
35004
35012
35018
35023
35017
35032
35024
35038
35040
35041
35048
35044
35064
35044
35062
35068
35057
35070
35086
35060
35080
35076
35080
35096
35090
35092
35102
35102
35116
35098
35117
35106
35118
35118
35112
35120
35116
35137
35112
35128
35129
35132
35142
35128
35136
35138
35138
35146
35140
35154
35144
35164
35156
35142
35168
35160
35156
35164
35170
35148
35168
35156
35152
35165
35158
35164
35160
35158
35170
35174
35166
35166
35160
35172
35163
35167
35164
35154
35158
35156
35161
35154
35144
35152
35158
35160
35149
35146
35150
35150
35145
35148
35138
35136
35152
35132
35124
35132
35127
35122
35117
35116
35108
35116
35102
35103
35110
35095
35108
35105
35102
35100
35088
35096
35081
35076
35080
35076
35068
35066
35061
35071
35064
35056
35062
35050
35052
35054
35044
35045
35040
35038
35034
35024
35040
35029
35025
35036
35012
35029
35008
35016
35020
35014
35016
35008
35008
35008
35004
35010
34994
35010
35000
35000
34994
35000
34998
34980
34998
34990
34988
34982
34984
34984
34985
34984
34980
34996
34992
34984
34993
34976
34986
34984
34976
34986
34978
34978
34972
34965
34972
34968
34969
34974
34964
34964
34983
34969
34981
34972
34978
34984
34966
34965
34968
34980
34964
34962
34968
34961
34977
34964
34961
34967
34972
34966
34963
34982
34970
34961
34980
34964
34972
34974
34970
34972
34970
34978
34972
34968
34978
34960
34972
34983
34976
34980
34980
34982
34991
34982
34980
34983
34989
34978
34988
34978
34990
34988
34976
34980
34978
34992
34980
34996
34994
34988
35004
34996
35010
35010
35008
35018
35004
35008
35018
35012
35024
35014
35017
35018
35016
35028
35013
35022
35020
35026
35029
35036
35040
35024
35038
35028
35036
35037
35029
35032
35018
35032
35030
35032
35020
35017
35024
35024
35026
35031
35028
35044
35033
35045
35044
35036
35052
35044
35056
35042
35057
35054
35044
35068
35056
35060
35076
35062
35077
35079
35072
35076
35076
35069
35080
35086
35073
35076
35080
35074
35088
35077
35074
35080
35076
35068
35089
35084
35076
35088
35089
35080
35084
35087
35076
35076
35080
35072
35077
35068
35060
35073
35058
35061
35054
35056
35050
35049
35048
35046
35044
35044
35052
35046
35040
35032
35032
35033
35016
35030
35020
35008
35012
34996
35013
35004
35004
35001
34994
34988
34998
34984
34992
34986
34976
34990
34968
34975
34964
34952
34956
34954
34945
34948
34937
34932
34936
34927
34924
34920
34913
34919
34903
34904
34905
34887
34894
34886
34872
34872
34868
34854
34854
34840
34828
34848
34824
34825
34820
34812
34807
34800
34790
34792
34788
34764
34774
34760
34760
34754
34744
34740
34728
34724
34724
34704
34711
34696
34692
34694
34686
34684
34676
34676
34664
34650
34660
34645
34645
34626
34614
34625
34612
34596
34604
34600
34600
34580
34586
34584
34575
34572
34568
34562
34564
34556
34546
34542
34544
34524
34535
34520
34528
34524
34516
34514
34504
34516
34516
34504
34502
34504
34509
34494
34492
34500
34488
34497
34478
34484
34484
34478
34480
34484
34474
34470
34462
34487
34478
34476
34484
34474
34492
34480
34490
34488
34470
34476
34488
34477
34479
34474
34476
34485
34480
34488
34476
34481
34484
34484
34496
34496
34482
34492
34492
34488
34502
34494
34497
34500
34486
34494
34497
34500
34498
34492
34504
34500
34496
34506
34512
34500
34520
34508
34516
34524
34506
34521
34508
34524
34510
34508
34512
34504
34516
34516
34518
34526
34516
34524
34524
34524
34535
34532
34544
34536
34533
34548
34532
34534
34548
34542
34538
34544
34540
34560
34548
34548
34560
34550
34552
34559
34548
34565
34556
34558
34564
34554
34576
34554
34560
34560
34560
34554
34557
34560
34556
34557
34565
34559
34560
34572
34556
34567
34558
34569
34552
34570
34556
34553
34562
34546
34564
34558
34556
34557
34556
34564
34552
34552
34552
34550
34552
34556
34548
34548
34552
34554
34550
34540
34552
34536
34542
34536
34536
34548
34536
34533
34540
34528
34548
34538
34534
34528
34532
34526
34528
34520
34516
34516
34508
34522
34496
34500
34496
34496
34497
34496
34494
34490
34494
34490
34484
34473
34476
34472
34464
34468
34452
34452
34448
34437
34444
34436
34424
34432
34420
34430
34412
34420
34411
34416
34404
34400
34396
34392
34393
34380
34380
34370
34360
34370
34352
34362
34350
34340
34338
34332
34332
34326
34320
34308
34311
34308
34300
34296
34286
34286
34273
34272
34258
34258
34250
34240
34230
34228
34225
34237
34224
34222
34214
34201
34204
34181
34182
34184
34165
34170
34161
34148
34144
34138
34122
34120
34104
34116
34104
34096
34096
34062
34084
34068
34058
34049
34044
34037
34020
34020
34008
33988
33992
33976
33969
33974
33948
33948
33936
33932
33930
33904
33904
33904
33876
33882
33868
33853
33838
33829
33820
33812
33796
33790
33772
33765
33760
33748
33740
33716
33718
33712
33695
33694
33678
33677
33656
33654
33636
33618
33620
33593
33592
33576
33562
33572
33542
33536
33534
33510
33515
33494
33488
33478
33469
33464
33456
33434
33436
33407
33407
33404
33380
33364
33368
33346
33330
33324
33308
33308
33294
33296
33265
33264
33252
33245
33226
33217
33220
33196
33188
33160
33156
33150
33132
33128
33112
33107
33086
33077
33077
33052
33046
33044
33018
33018
32994
33001
32972
32970
32956
32938
32934
32910
32900
32894
32876
32871
32849
32848
32839
32832
32821
32805
32804
32772
32772
32760
32752
32742
32729
32720
32706
32688
32684
32676
32652
32662
32636
32630
32620
32602
32608
32586
32584
32570
32548
32549
32528
32524
32520
32492
32488
32476
32468
32472
32452
32437
32434
32422
32415
32400
32394
32384
32377
32358
32354
32348
32337
32333
32309
32313
32288
32290
32276
32266
32257
32248
32252
32228
32228
32204
32202
32184
32190
32180
32156
32172
32142
32144
32137
32126
32112
32094
32100
32084
32078
32068
32063
32064
32034
32040
32029
32018
32018
31996
32012
31990
31980
31972
31968
31962
31952
31948
31936
31934
31920
31916
31911
31904
31895
31896
31888
31889
31874
31869
31876
31861
31852
31860
31834
31844
31828
31828
31824
31808
31812
31804
31816
31790
31808
31792
31788
31796
31776
31791
31772
31772
31764
31768
31768
31754
31758
31748
31756
31737
31744
31744
31727
31743
31726
31740
31724
31737
31729
31724
31726
31711
31716
31710
31712
31708
31700
31704
31704
31692
31696
31700
31688
31692
31694
31692
31696
31704
31690
31688
31710
31682
31697
31696
31688
31700
31688
31685
31708
31689
31692
31684
31688
31700
31692
31700
31706
31700
31708
31712
31722
31710
31717
31712
31712
31718
31716
31724
31725
31724
31725
31722
31736
31732
31752
31743
31751
31758
31764
31761
31772
31772
31764
31780
31770
31784
31776
31796
31776
31797
31786
31804
31798
31800
31810
31818
31813
31816
31838
31824
31828
31838
31840
31852
31853
31839
31856
31856
31858
31876
31860
31881
31884
31880
31902
31900
31908
31912
31913
31932
31924
31940
31944
31959
31952
31960
31970
31960
31972
31988
31977
31978
31986
31990
32000
31996
32000
32020
32000
32008
32013
32008
32016
32008
32022
32018
32024
32030
32029
32029
32037
32052
32034
32064
32056
32074
32064
32076
32086
32084
32088
32112
32102
32116
32110
32124
32134
32135
32132
32140
32152
32143
32150
32172
32164
32176
32182
32180
32200
32194
32212
32196
32224
32224
32228
32232
32228
32244
32244
32240
32250
32244
32263
32260
32276
32272
32285
32282
32290
32306
32296
32308
32294
32314
32314
32304
32304
32320
32320
32324
32338
32322
32344
32344
32348
32360
32356
32372
32361
32364
32386
32364
32386
32384
32378
32390
32390
32380
32405
32396
32396
32400
32398
32405
32408
32400
32404
32420
32404
32404
32414
32409
32404
32412
32394
32404
32407
32400
32401
32392
32400
32388
32390
32396
32387
32392
32382
32396
32376
32380
32380
32365
32366
32368
32367
32364
32374
32360
32344
32348
32348
32350
32333
32350
32340
32334
32348
32332
32349
32328
32340
32326
32324
32335
32328
32334
32318
32320
32324
32320
32326
32318
32322
32328
32316
32324
32330
32322
32329
32328
32321
32340
32332
32341
32338
32334
32349
32338
32352
32354
32365
32358
32375
32384
32372
32396
32385
32404
32407
32414
32428
32430
32452
32448
32452
32471
32468
32480
32497
32502
32510
32526
32532
32552
32558
32582
32580
32602
32608
32616
32644
32640
32660
32676
32680
32692
32692
32718
32724
32738
32756
32758
32774
32807
32804
32820
32836
32844
32871
32868
32892
32901
32904
32932
32928
32942
32950
32960
32980
32997
32996
33018
33025
33032
33056
33068
33070
33090
33088
33109
33116
33128
33145
33144
33161
33158
33184
33188
33204
33204
33220
33221
33252
33244
33269
33268
33290
33278
33312
33308
33326
33322
33340
33349
33352
33356
33380
33372
33388
33396
33404
33412
33424
33444
33440
33468
33463
33476
33490
33497
33504
33514
33526
33534
33548
33540
33567
33556
33577
33576
33594
33604
33605
33628
33630
33652
33638
33664
33678
33668
33688
33690
33713
33708
33708
33728
33727
33749
33736
33764
33760
33774
33772
33804
33799
33812
33816
33836
33832
33845
33857
33858
33864
33876
33884
33892
33892
33888
33910
33916
33916
33934
33932
33952
33952
33966
33980
33976
33989
33988
34000
34004
34012
34018
34020
34042
34028
34033
34040
34054
34060
34053
34078
34076
34092
34108
34104
34103
34116
34120
34124
34132
34134
34145
34130
34148
34144
34152
34162
34161
34175
34175
34186
34192
34190
34204
34193
34212
34214
34218
34228
34220
34229
34228
34244
34233
34248
34236
34244
34244
34254
34260
34260
34272
34268
34286
34276
34284
34278
34288
34298
34286
34300
34304
34297
34294
34316
34304
34318
34316
34309
34327
34324
34340
34332
34328
34350
34344
34360
34350
34349
34364
34368
34360
34357
34364
34370
34376
34388
34380
34394
34388
34396
34404
34400
34402
34424
34407
34422
34425
34417
34432
34420
34430
34432
34429
34440
34438
34437
34433
34441
34440
34444
34460
34452
34464
34464
34456
34468
34452
34468
34461
34460
34476
34459
34472
34468
34454
34468
34456
34472
34473
34476
34476
34470
34486
34476
34484
34472
34485
34472
34472
34488
34478
34484
34488
34478
34480
34468
34480
34484
34489
34496
34492
34502
34495
34500
34502
34490
34496
34492
34493
34506
34492
34496
34497
34490
34504
34500
34496
34513
34504
34498
34514
34510
34500
34511
34520
34514
34522
34508
34512
34516
34504
34516
34510
34500
34518
34513
34511
34508
34497
34508
34512
34516
34524
34510
34521
34532
34516
34512
34516
34516
34518
34509
34524
34504
34511
34518
34512
34510
34516
34514
34500
34520
34512
34516
34516
34514
34514
34500
34528
34504
34520
34508
34496
34508
34494
34516
34508
34501
34509
34502
34504
34512
34520
34518
34513
34511
34512
34520
34508
34510
34508
34514
34504
34508
34512
34498
34519
34504
34513
34516
34512
34532
34512
34526
34508
34536
34520
34527
34516
34525
34522
34524
34528
34521
34532
34521
34532
34525
34530
34529
34532
34540
34538
34536
34534
34534
34550
34532
34554
34532
34533
34540
34540
34550
34540
34548
34540
34529
34556
34538
34550
34546
34556
34548
34560
34558
34548
34560
34552
34562
34556
34552
34557
34548
34558
34546
34560
34548
34560
34560
34560
34558
34566
34564
34572
34564
34569
34568
34566
34564
34564
34572
34556
34568
34560
34564
34551
34573
34562
34562
34576
34570
34576
34560
34583
34564
34573
34576
34574
34578
34574
34574
34568
34574
34572
34566
34576
34567
34570
34574
34572
34580
34572
34578
34576
34594
34580
34584
34582
34588
34576
34590
34586
34576
34588
34578
34580
34588
34580
34594
34589
34592
34588
34596
34584
34590
34588
34598
34584
34601
34596
34590
34608
34592
34586
34580
34596
34591
34598
34596
34612
34605
34604
34600
34596
34608
34604
34610
34585
34596
34590
34596
34602
34592
34599
34592
34596
34592
34584
34592
34597
34596
34598
34606
34596
34604
34596
34602
34600
34596
34604
34600
34604
34600
34596
34588
34604
34596
34590
34588
34592
34604
34604
34598
34604
34606
34607
34598
34596
34596
34588
34592
34605
34596
34604
34596
34588
34596
34592
34584
34612
34600
34592
34613
34608
34596
34596
34598
34594
34590
34608
34604
34590
34596
34596
34596
34596
34592
34596
34596
34588
34600
34584
34602
34592
34596
34598
34596
34600
34598
34592
34588
34588
34588
34594
34584
34593
34586
34592
34589
34580
34596
34580
34586
34582
34584
34592
34577
34581
34572
34588
34588
34586
34574
34583
34576
34576
34584
34580
34588
34588
34592
34596
34594
34592
34590
34597
34590
34597
34596
34593
34600
34581
34596
34596
34585
34602
34577
34580
34584
34567
34572
34566
34564
34556
34556
34560
34542
34538
34536
34532
34524
34516
34510
34515
34497
34504
34492
34494
34486
34480
34492
34476
34469
34478
34464
34476
34460
34462
34469
34461
34466
34460
34468
34456
34460
34466
34471
34468
34476
34470
34484
34484
34492
34490
34492
34498
34490
34508
34498
34512
34505
34512
34516
34512
34528
34527
34526
34520
34532
34543
34532
34540
34548
34548
34562
34548
34556
34550
34546
34558
34548
34548
34548
34542
34548
34543
34538
34548
34536
34541
34546
34520
34532
34530
34524
34516
34516
34508
34484
34496
34482
34477
34468
34468
34457
34438
34448
34433
34428
34420
34404
34402
34397
34388
34370
34368
34352
34346
34336
34328
34304
34294
34284
34284
34272
34250
34236
34229
34220
34193
34200
34172
34172
34156
34132
34124
34109
34100
34076
34068
34048
34036
34033
34001
33990
33980
33966
33942
33935
33922
33897
33900
33876
33876
33836
33824
33812
33798
33782
33759
33744
33728
33704
33693
33676
33660
33636
33626
33604
33594
33580
33552
33548
33525
33497
33492
33456
33450
33420
33415
33384
33383
33354
33344
33322
33308
33306
33263
33264
33233
33230
33213
33212
33184
33186
33156
33148
33126
33124
33100
33087
33073
33052
33056
33034
33038
33004
33012
32990
32976
32982
32964
32948
32932
32936
32919
32910
32900
32889
32886
32866
32868
32845
32834
32838
32817
32826
32802
32805
32789
32784
32773
32766
32750
32744
32736
32743
32717
32724
32702
32704
32692
32682
32676
32665
32660
32646
32644
32642
32623
32630
32618
32608
32604
32589
32585
32580
32564
32558
32556
32533
32533
32530
32514
32508
32496
32492
32490
32480
32474
32464
32464
32452
32446
32435
32433
32424
32420
32410
32404
32405
32384
32390
32376
32372
32364
32364
32356
32356
32348
32348
32337
32334
32334
32324
32338
32320
32320
32309
32305
32312
32299
32298
32296
32284
32300
32289
32282
32282
32280
32282
32270
32278
32256
32268
32256
32248
32254
32248
32248
32244
32234
32241
32227
32230
32221
32228
32228
32216
32234
32224
32228
32224
32220
32205
32220
32218
32222
32204
32216
32207
32212
32205
32212
32204
32218
32200
32218
32200
32218
32214
32220
32204
32218
32208
32210
32208
32216
32212
32218
32208
32220
32212
32212
32219
32216
32209
32222
32214
32216
32228
32216
32224
32220
32238
32226
32226
32244
32224
32244
32228
32244
32244
32241
32253
32232
32249
32242
32261
32260
32256
32268
32272
32270
32286
32272
32288
32287
32292
32284
32300
32292
32297
32298
32303
32303
32308
32312
32308
32334
32324
32340
32332
32332
32336
32336
32348
32354
32353
32352
32356
32360
32358
32374
32367
32372
32376
32388
32388
32384
32400
32392
32398
32408
32404
32413
32416
32418
32420
32430
32424
32432
32422
32432
32439
32436
32442
32446
32447
32450
32460
32460
32470
32462
32477
32480
32481
32472
32482
32480
32473
32494
32484
32492
32492
32508
32492
32508
32500
32500
32504
32508
32506
32508
32516
32516
32518
32504
32518
32524
32512
32524
32504
32526
32504
32512
32513
32502
32514
32510
32516
32518
32508
32516
32511
32514
32508
32508
32516
32498
32500
32502
32496
32500
32496
32496
32486
32500
32484
32498
32484
32492
32488
32484
32496
32476
32474
32468
32466
32472
32464
32462
32447
32452
32456
32444
32457
32437
32438
32448
32429
32448
32436
32441
32438
32428
32424
32429
32416
32417
32408
32408
32404
32397
32404
32391
32392
32394
32380
32388
32383
32384
32380
32366
32356
32374
32366
32352
32350
32359
32336
32352
32348
32332
32344
32330
32340
32327
32324
32332
32318
32324
32320
32314
32306
32308
32308
32297
32304
32292
32290
32287
32276
32280
32281
32272
32286
32266
32272
32271
32260
32266
32261
32255
32261
32262
32252
32255
32258
32240
32245
32241
32246
32234
32239
32236
32228
32244
32229
32232
32230
32232
32228
32220
32232
32222
32230
32216
32230
32220
32219
32212
32220
32226
32215
32228
32216
32224
32216
32220
32212
32228
32216
32228
32224
32232
32228
32236
32221
32224
32229
32229
32218
32232
32226
32240
32225
32246
32228
32244
32244
32236
32253
32241
32256
32250
32256
32254
32260
32256
32260
32263
32272
32257
32268
32269
32268
32280
32272
32286
32270
32290
32276
32294
32281
32296
32280
32293
32288
32289
32292
32295
32292
32286
32301
32312
32302
32300
32308
32297
32314
32301
32312
32310
32320
32320
32316
32316
32314
32314
32324
32314
32316
32316
32328
32324
32330
32328
32326
32328
32330
32342
32334
32346
32344
32344
32348
32332
32356
32348
32344
32352
32353
32348
32358
32348
32368
32352
32368
32361
32368
32356
32374
32364
32380
32368
32380
32368
32380
32377
32380
32381
32374
32380
32386
32388
32384
32388
32391
32396
32400
32396
32412
32405
32406
32413
32404
32404
32416
32412
32402
32424
32406
32414
32428
32414
32415
32418
32404
32408
32414
32406
32421
32400
32397
32396
32392
32398
32390
32382
32389
32380
32380
32384
32374
32373
32388
32372
32384
32388
32384
32404
32388
32408
32408
32404
32417
32404
32420
32428
32412
32428
32430
32424
32436
32428
32433
32444
32436
32450
32439
32452
32474
32452
32464
32460
32462
32468
32470
32460
32468
32486
32468
32484
32484
32493
32484
32500
32484
32512
32490
32496
32497
32504
32512
32516
32510
32509
32512
32516
32521
32504
32524
32508
32526
32520
32528
32524
32524
32536
32552
32546
32552
32556
32548
32562
32556
32572
32564
32578
32570
32590
32582
32596
32589
32591
32600
32613
32621
32622
32630
32622
32632
32644
32636
32660
32652
32666
32665
32670
32669
32676
32681
32680
32695
32700
32705
32706
32710
32726
32720
32730
32731
32748
32734
32762
32746
32761
32770
32766
32774
32780
32780
32776
32793
32799
32802
32804
32800
32814
32802
32820
32812
32816
32822
32820
32832
32823
32833
32824
32829
32829
32828
32828
32822
32831
32824
32848
32836
32844
32838
32841
32836
32836
32842
32828
32844
32824
32837
32824
32830
32838
32834
32832
32809
32832
32821
32820
32820
32820
32820
32832
32824
32820
32826
32818
32824
32814
32828
32808
32822
32812
32832
32822
32828
32816
32830
32824
32837
32836
32836
32846
32844
32852
32848
32847
32856
32862
32859
32858
32864
32876
32874
32882
32886
32896
32892
32911
32912
32932
32924
32940
32948
32954
32964
32972
32980
32976
32996
32988
33012
33005
33023
33025
33044
33044
33056
33068
33078
33088
33090
33106
33104
33131
33120
33145
33150
33164
33166
33182
33181
33189
33200
33213
33221
33224
33241
33252
33268
33260
33283
33292
33301
33310
33316
33336
33336
33352
33356
33364
33368
33388
33380
33404
33404
33426
33420
33438
33432
33460
33460
33477
33480
33495
33498
33508
33509
33511
33530
33530
33544
33548
33564
33577
33580
33602
33584
33607
33620
33616
33644
33644
33660
33660
33668
33684
33681
33700
33692
33715
33718
33732
33734
33733
33740
33756
33772
33764
33791
33780
33799
33804
33801
33816
33813
33832
33836
33841
33836
33844
33855
33860
33862
33858
33888
33876
33894
33894
33908
33912
33926
33910
33940
33934
33940
33952
33946
33964
33964
33972
33980
33977
33992
33990
34008
33997
34014
34016
34016
34034
34042
34057
34060
34062
34070
34058
34084
34076
34088
34100
34104
34104
34104
34124
34114
34136
34140
34134
34157
34148
34156
34172
34166
34174
34176
34184
34196
34200
34192
34204
34204
34194
34215
34212
34229
34220
34240
34236
34240
34246
34247
34260
34252
34265
34268
34266
34278
34276
34292
34276
34288
34292
34284
34298
34293
34308
34301
34314
34316
34310
34328
34316
34332
34340
34327
34346
34328
34341
34340
34337
34348
34342
34352
34354
34348
34353
34346
34352
34362
34356
34368
34361
34372
34372
34358
34374
34368
34366
34377
34372
34376
34364
34372
34367
34372
34368
34364
34380
34372
34384
34380
34378
34384
34374
34372
34368
34385
34368
34369
34376
34376
34368
34364
34361
34364
34353
34368
34352
34368
34372
34356
34360
34352
34360
34359
34346
34344
34340
34336
34336
34324
34332
34320
34316
34316
34308
34320
34312
34304
34298
34296
34301
34290
34280
34284
34274
34286
34256
34272
34253
34252
34244
34244
34236
34231
34236
34230
34219
34228
34196
34206
34206
34197
34204
34190
34180
34178
34172
34168
34156
34152
34160
34142
34145
34124
34136
34116
34124
34113
34116
34116
34088
34098
34094
34080
34076
34056
34062
34052
34056
34046
34046
34038
34030
34018
34021
34000
34006
34004
33989
33990
33996
33972
33978
33972
33956
33952
33961
33944
33936
33940
33925
33904
33924
33900
33908
33900
33890
33884
33876
33880
33872
33883
33864
33864
33856
33860
33848
33838
33822
33828
33828
33812
33816
33804
33805
33790
33793
33804
33792
33769
33786
33772
33768
33766
33764
33760
33745
33736
33749
33736
33729
33741
33724
33728
33722
33716
33708
33712
33696
33716
33706
33697
33708
33680
33692
33684
33680
33684
33682
33668
33664
33664
33660
33664
33655
33657
33652
33648
33652
33650
33643
33636
33645
33628
33642
33622
33620
33620
33620
33613
33599
33612
33612
33588
33592
33598
33591
33592
33588
33577
33580
33578
33568
33574
33558
33556
33556
33540
33548
33532
33528
33536
33520
33528
33522
33512
33514
33508
33504
33509
33500
33500
33488
33492
33486
33472
33468
33468
33460
33455
33446
33457
33445
33443
33436
33436
33439
33412
33424
33424
33414
33416
33414
33401
33393
33392
33384
33386
33390
33372
33370
33366
33359
33374
33352
33346
33350
33341
33338
33338
33340
33328
33332
33324
33320
33319
33323
33300
33310
33304
33300
33304
33288
33292
33290
33284
33290
33285
33288
33277
33286
33270
33268
33272
33248
33256
33244
33242
33240
33234
33231
33208
33221
33210
33201
33197
33186
33178
33176
33160
33157
33152
33156
33146
33140
33121
33132
33120
33110
33114
33106
33094
33102
33082
33089
33085
33090
33084
33069
33087
33068
33070
33074
33063
33068
33054
33044
33042
33034
33039
33028
33021
33010
33009
33008
33004
32991
32996
32982
32988
32976
32968
32972
32954
32965
32950
32936
32946
32926
32924
32924
32912
32912
32897
32896
32893
32876
32868
32864
32856
32854
32844
32830
32826
32820
32814
32804
32800
32788
32775
32772
32764
32757
32740
32738
32728
32724
32728
32716
32713
32700
32690
32685
32681
32664
32648
32654
32637
32633
32613
32613
32606
32600
32590
32576
32583
32566
32564
32548
32553
32548
32524
32526
32502
32502
32504
32487
32485
32468
32458
32463
32439
32436
32436
32420
32420
32405
32396
32393
32388
32375
32373
32354
32354
32348
32328
32325
32310
32306
32300
32288
32288
32270
32272
32268
32245
32250
32244
32228
32236
32220
32218
32204
32198
32198
32181
32172
32182
32160
32152
32164
32148
32132
32144
32124
32138
32125
32112
32129
32111
32100
32096
32094
32089
32092
32080
32076
32076
32073
32066
32060
32072
32058
32049
32056
32044
32046
32053
32044
32036
32032
32028
32039
32036
32030
32032
32037
32021
32020
32030
32025
32020
32030
32024
32022
32040
32036
32036
32040
32040
32036
32052
32046
32046
32054
32048
32060
32053
32058
32060
32066
32068
32064
32079
32088
32096
32104
32103
32112
32125
32129
32136
32141
32137
32148
32150
32156
32180
32176
32168
32180
32188
32200
32204
32209
32216
32234
32236
32244
32252
32262
32273
32269
32288
32294
32292
32302
32316
32308
32324
32335
32338
32349
32361
32361
32380
32388
32388
32400
32412
32422
32433
32432
32444
32454
32457
32473
32476
32472
32500
32492
32500
32516
32518
32531
32531
32564
32552
32568
32568
32578
32604
32588
32614
32621
32625
32628
32648
32665
32660
32680
32674
32688
32688
32706
32716
32728
32744
32736
32756
32762
32768
32788
32781
32796
32810
32808
32824
32821
32840
32831
32852
32852
32856
32875
32864
32876
32895
32897
32916
32920
32912
32926
32924
32933
32944
32945
32960
32964
32957
32978
32976
32996
32996
33009
33012
33020
33032
33032
33052
33048
33060
33079
33064
33078
33084
33092
33114
33096
33126
33122
33130
33152
33153
33159
33168
33176
33176
33198
33204
33216
33214
33228
33230
33244
33255
33248
33261
33258
33282
33276
33292
33296
33297
33313
33314
33324
33326
33346
33346
33349
33360
33365
33372
33366
33388
33378
33380
33396
33384
33404
33396
33412
33419
33414
33428
33426
33437
33436
33444
33452
33440
33454
33452
33470
33466
33455
33456
33468
33464
33474
33464
33477
33472
33488
33480
33492
33492
33486
33512
33486
33502
33504
33500
33513
33506
33512
33515
33504
33513
33516
33512
33512
33520
33514
33528
33520
33534
33528
33534
33516
33548
33524
33542
33532
33541
33536
33532
33544
33534
33542
33532
33545
33540
33542
33541
33536
33548
33546
33548
33540
33552
33538
33544
33536
33541
33542
33540
33550
33528
33543
33532
33556
33532
33529
33532
33543
33528
33532
33540
33525
33541
33526
33534
33520
33528
33524
33519
33527
33508
33518
33508
33517
33513
33508
33516
33512
33516
33504
33512
33500
33506
33494
33500
33496
33493
33480
33489
33484
33488
33492
33480
33486
33474
33480
33478
33472
33476
33468
33478
33458
33468
33460
33460
33461
33448
33444
33441
33446
33434
33440
33429
33444
33428
33433
33428
33412
33432
33416
33414
33424
33412
33414
33412
33416
33408
33408
33398
33412
33396
33396
33409
33384
33396
33389
33399
33396
33392
33392
33391
33388
33380
33396
33388
33396
33390
33384
33388
33384
33382
33384
33384
33384
33388
33391
33382
33390
33394
33394
33392
33396
33396
33396
33400
33392
33410
33400
33407
33397
33389
33408
33399
33408
33408
33402
33412
33400
33420
33400
33416
33413
33412
33414
33420
33413
33412
33408
33405
33410
33406
33408
33400
33408
33406
33396
33407
33392
33412
33406
33410
33399
33400
33392
33406
33393
33392
33380
33384
33388
33384
33391
33380
33381
33376
33382
33369
33377
33372
33368
33366
33359
33360
33349
33352
33347
33358
33348
33342
33340
33332
33329
33332
33336
33320
33316
33316
33324
33318
33306
33312
33310
33304
33302
33285
33296
33284
33284
33286
33276
33268
33280
33269
33273
33268
33257
33263
33252
33260
33260
33248
33264
33246
33246
33252
33234
33248
33234
33234
33228
33224
33224
33218
33229
33222
33220
33208
33220
33212
33216
33212
33200
33210
33200
33212
33196
33198
33186
33196
33190
33200
33200
33189
33205
33184
33207
33194
33212
33196
33190
33198
33190
33204
33200
33200
33188
33202
33188
33188
33199
33176
33188
33184
33177
33180
33172
33168
33166
33157
33168
33146
33156
33144
33148
33126
33134
33120
33112
33120
33100
33096
33102
33088
33102
33094
33080
33086
33088
33084
33092
33088
33084
33093
33080
33082
33084
33076
33092
33076
33078
33084
33074
33086
33076
33071
33078
33073
33086
33068
33076
33076
33068
33084
33071
33076
33078
33069
33078
33068
33079
33076
33070
33077
33080
33064
33084
33084
33080
33085
33092
33088
33091
33094
33093
33094
33100
33092
33098
33092
33101
33100
33108
33112
33106
33108
33122
33108
33118
33125
33118
33122
33132
33132
33140
33124
33140
33126
33142
33141
33138
33145
33140
33140
33148
33140
33157
33140
33152
33140
33164
33144
33156
33152
33150
33144
33148
33154
33148
33138
33128
33133
33132
33132
33124
33124
33120
33116
33108
33116
33112
33092
33102
33092
33090
33088
33074
33080
33057
33068
33052
33054
33044
33032
33033
33029
33020
33009
33018
33008
33012
33000
33007
32994
32988
32980
32972
32982
32954
32968
32948
32964
32948
32944
32942
32936
32940
32921
32936
32920
32918
32916
32908
32912
32900
32904
32886
32890
32882
32884
32878
32868
32872
32862
32869
32868
32856
32864
32846
32856
32844
32852
32852
32843
32848
32844
32840
32855
32834
32842
32840
32840
32841
32836
32844
32848
32848
32856
32852
32862
32857
32868
32873
32858
32884
32864
32880
32885
32880
32892
32892
32900
32896
32910
32917
32918
32930
32925
32940
32944
32953
32969
32968
32986
32980
32984
33006
32997
33020
33012
33032
33032
33052
33046
33058
33068
33073
33092
33090
33110
33119
33116
33142
33136
33158
33160
33168
33184
33186
33200
33190
33212
33225
33225
33242
33252
33252
33268
33284
33288
33301
33308
33316
33316
33340
33327
33353
33342
33380
33364
33388
33380
33399
33394
33416
33412
33426
33438
33433
33460
33461
33468
33480
33480
33502
33501
33516
33509
33535
33528
33540
33545
33553
33568
33573
33588
33588
33600
33606
33606
33628
33632
33646
33644
33638
33666
33652
33676
33672
33684
33696
33686
33708
33697
33706
33720
33724
33724
33738
33736
33748
33756
33753
33760
33776
33766
33777
33782
33788
33804
33798
33804
33811
33814
33828
33821
33836
33845
33844
33863
33855
33870
33880
33876
33884
33892
33900
33904
33908
33916
33927
33920
33940
33944
33940
33944
33968
33958
33960
33980
33988
33988
34002
34008
34007
34004
34028
34020
34024
34030
34032
34026
34039
34052
34044
34060
34052
34057
34068
34064
34072
34082
34072
34085
34084
34088
34085
34084
34078
34074
34077
34084
34089
34073
34094
34094
34076
34080
34082
34074
34072
34068
34070
34060
34076
34054
34053
34053
34048
34040
34032
34033
34020
34025
34016
34012
34016
33994
34005
33998
34004
33990
33981
33985
33970
33976
33970
33961
33952
33956
33954
33942
33945
33940
33930
33938
33924
33927
33926
33920
33918
33903
33911
33902
33909
33914
33894
33894
33892
33878
33888
33864
33876
33872
33868
33876
33860
33872
33852
33864
33860
33852
33860
33838
33850
33844
33832
33836
33836
33825
33828
33818
33812
33816
33812
33813
33801
33814
33808
33795
33800
33808
33796
33796
33791
33785
33777
33784
33765
33789
33770
33766
33768
33760
33766
33752
33766
33764
33748
33756
33756
33748
33754
33743
33752
33735
33744
33736
33735
33730
33732
33725
33730
33724
33725
33724
33732
33728
33728
33724
33732
33724
33720
33733
33732
33712
33712
33716
33708
33720
33712
33704
33716
33720
33710
33713
33716
33710
33713
33721
33701
33728
33718
33716
33717
33700
33710
33709
33712
33720
33700
33717
33712
33705
33710
33700
33712
33714
33720
33708
33728
33724
33724
33725
33716
33720
33718
33712
33720
33712
33716
33717
33704
33724
33704
33718
33716
33717
33725
33716
33716
33724
33724
33705
33716
33712
33700
33696
33704
33680
33686
33680
33671
33680
33662
33668
33668
33652
33637
33642
33628
33612
33608
33606
33598
33596
33582
33556
33551
33532
33517
33516
33492
33488
33474
33444
33448
33432
33418
33406
33386
33376
33358
33333
33328
33305
33284
33276
33244
33226
33211
33188
33169
33152
33124
33120
33084
33086
33044
33032
33015
32992
32976
32952
32918
32908
32875
32860
32844
32814
32792
32783
32744
32736
32702
32678
32668
32630
32612
32602
32572
32564
32524
32520
32483
32465
32440
32412
32392
32372
32351
32314
32300
32268
32248
32224
32192
32176
32146
32132
32096
32074
32040
32026
31982
31968
31932
31924
31887
31878
31840
31826
31793
31772
31748
31718
31708
31670
31662
31646
31622
31594
31569
31564
31528
31524
31488
31468
31432
31423
31406
31372
31368
31332
31332
31291
31284
31260
31249
31220
31204
31172
31164
31140
31116
31098
31072
31056
31029
31020
30988
30972
30942
30932
30902
30886
30862
30836
30824
30796
30776
30752
30738
30708
30684
30664
30646
30628
30592
30584
30556
30546
30506
30500
30460
30466
30428
30420
30390
30380
30346
30332
30306
30290
30265
30240
30228
30198
30180
30154
30140
30111
30096
30060
30058
30020
30010
29985
29964
29945
29922
29908
29872
29860
29844
29809
29804
29762
29756
29732
29714
29692
29670
29652
29633
29620
29588
29572
29552
29538
29526
29496
29489
29466
29453
29423
29402
29392
29376
29348
29344
29317
29300
29290
29262
29253
29237
29230
29212
29188
29188
29162
29144
29136
29106
29102
29086
29072
29060
29044
29036
29009
29010
28996
28980
28986
28969
28960
28956
28936
28924
28918
28898
28900
28884
28884
28868
28860
28860
28828
28841
28822
28820
28816
28807
28806
28807
28796
28800
28792
28789
28793
28776
28789
28776
28784
28774
28778
28778
28776
28786
28772
28794
28790
28800
28789
28829
28817
28829
28841
28836
28862
28870
28876
28888
28888
28918
28916
28936
28960
28956
28976
28992
29016
29029
29056
29064
29092
29100
29124
29151
29164
29192
29212
29228
29254
29269
29304
29304
29343
29352
29376
29400
29424
29448
29468
29516
29509
29558
29566
29590
29614
29636
29664
29680
29708
29716
29753
29768
29794
29820
29830
29858
29873
29904
29934
29952
29974
30008
30024
30053
30080
30090
30125
30142
30158
30189
30207
30240
30248
30276
30294
30327
30347
30372
30412
30416
30455
30462
30503
30512
30556
30568
30602
30609
30644
30664
30692
30705
30742
30763
30797
30808
30836
30848
30880
30897
30932
30948
30976
30996
31014
31053
31060
31080
31108
31116
31150
31168
31192
31208
31242
31248
31278
31292
31304
31342
31351
31383
31394
31424
31439
31456
31476
31497
31522
31528
31554
31573
31585
31613
31628
31646
31682
31704
31712
31744
31758
31794
31804
31828
31846
31876
31892
31912
31940
31948
31976
32000
32020
32050
32056
32098
32118
32144
32172
32190
32228
32248
32268
32296
32325
32353
32373
32396
32416
32439
32478
32494
32520
32548
32572
32604
32631
32657
32689
32714
32736
32764
32800
32812
32849
32870
32900
32929
32942
32988
32994
33036
33054
33084
33116
33124
33172
33198
33220
33260
33280
33324
33341
33370
33402
33422
33460
33464
33500
33527
33546
33578
33592
33625
33636
33671
33687
33700
33735
33748
33784
33804
33824
33841
33860
33880
33896
33924
33928
33952
33964
33984
34008
34018
34036
34044
34072
34075
34096
34100
34124
34128
34144
34168
34172
34180
34192
34192
34207
34216
34224
34223
34236
34244
34237
34262
34258
34276
34280
34284
34288
34300
34294
34296
34308
34302
34308
34300
34316
34296
34310
34313
34316
34307
34311
34310
34318
34306
34332
34302
34318
34312
34317
34302
34320
34296
34310
34308
34304
34302
34296
34308
34292
34306
34288
34304
34293
34314
34294
34312
34304
34320
34304
34314
34304
34316
34313
34317
34305
34316
34311
34316
34308
34312
34304
34313
34309
34324
34318
34316
34308
34318
34310
34321
34311
34316
34304
34304
34300
34302
34294
34292
34276
34286
34277
34278
34272
34270
34272
34266
34270
34264
34264
34250
34248
34234
34238
34224
34224
34204
34206
34182
34190
34163
34156
34146
34148
34142
34129
34125
34102
34100
34086
34080
34054
34060
34024
34036
34000
34012
33983
33967
33964
33944
33933
33916
33908
33891
33888
33862
33864
33832
33830
33816
33808
33792
33777
33761
33748
33744
33716
33724
33692
33692
33672
33660
33648
33640
33634
33616
33608
33596
33592
33578
33569
33556
33548
33519
33520
33497
33492
33484
33464
33454
33437
33422
33415
33412
33396
33392
33370
33376
33356
33348
33340
33316
33312
33286
33284
33268
33252
33246
33228
33208
33218
33196
33166
33169
33162
33150
33136
33120
33117
33090
33096
33063
33052
33030
33018
33006
32972
32962
32956
32938
32932
32896
32900
32880
32884
32871
32864
32844
32838
32836
32832
32822
32808
32808
32796
32795
32793
32780
32784
32775
32764
32772
32756
32753
32744
32740
32724
32724
32723
32712
32710
32686
32676
32668
32660
32652
32632
32628
32614
32592
32588
32564
32570
32546
32529
32532
32508
32503
32468
32468
32446
32432
32416
32396
32382
32353
32352
32325
32316
32296
32276
32272
32254
32238
32231
32216
32208
32200
32188
32196
32167
32166
32158
32150
32140
32124
32133
32118
32117
32100
32102
32117
32100
32100
32092
32096
32104
32090
32100
32102
32096
32112
32100
32099
32104
32096
32112
32113
32104
32122
32109
32116
32116
32111
32128
32122
32126
32148
32124
32148
32135
32142
32136
32134
32140
32121
32124
32136
32112
32112
32116
32104
32116
32100
32101
32101
32092
32094
32087
32064
32073
32058
32050
32038
32012
32020
31996
31988
31980
31964
31960
31940
31924
31934
31908
31904
31897
31878
31868
31854
31838
31828
31820
31802
31784
31767
31764
31738
31736
31712
31704
31695
31676
31670
31662
31652
31632
31638
31616
31608
31592
31574
31576
31540
31544
31528
31498
31504
31472
31470
31452
31440
31440
31420
31418
31408
31380
31385
31364
31348
31350
31318
31324
31298
31284
31277
31248
31236
31225
31206
31204
31172
31176
31151
31140
31134
31124
31124
31108
31093
31076
31061
31048
31044
31020
31006
31002
30979
30972
30960
30948
30944
30920
30928
30898
30912
30884
30888
30874
30864
30864
30840
30832
30824
30820
30800
30796
30776
30784
30761
30763
30746
30748
30736
30734
30725
30712
30720
30712
30716
30692
30688
30682
30673
30677
30660
30658
30642
30644
30640
30638
30638
30629
30637
30614
30636
30617
30628
30617
30616
30613
30604
30604
30599
30596
30588
30593
30580
30575
30576
30564
30569
30563
30562
30554
30550
30560
30555
30548
30558
30546
30542
30536
30531
30529
30506
30512
30501
30496
30496
30482
30488
30468
30476
30470
30468
30460
30454
30448
30432
30432
30416
30424
30412
30392
30396
30388
30374
30368
30356
30356
30353
30356
30351
30340
30344
30330
30342
30328
30329
30326
30312
30318
30308
30300
30301
30288
30300
30286
30284
30290
30284
30289
30300
30292
30302
30306
30300
30324
30316
30320
30326
30321
30325
30332
30325
30342
30348
30345
30366
30360
30376
30392
30396
30396
30426
30422
30444
30460
30448
30476
30494
30500
30502
30524
30532
30536
30561
30580
30588
30614
30612
30636
30654
30670
30692
30716
30716
30756
30776
30772
30796
30812
30820
30836
30865
30873
30896
30922
30930
30941
30950
30980
31013
31023
31038
31060
31081
31082
31110
31116
31138
31149
31164
31186
31176
31209
31206
31220
31236
31248
31276
31278
31294
31302
31314
31332
31332
31369
31354
31377
31376
31376
31389
31384
31404
31400
31416
31413
31434
31420
31438
31436
31444
31444
31460
31454
31466
31469
31460
31468
31456
31476
31454
31458
31464
31456
31461
31452
31442
31457
31446
31455
31440
31453
31448
31439
31452
31436
31444
31424
31430
31420
31415
31416
31400
31400
31396
31388
31396
31380
31372
31380
31364
31377
31370
31368
31372
31360
31356
31358
31348
31348
31344
31332
31340
31338
31321
31328
31320
31318
31320
31324
31322
31326
31316
31320
31332
31312
31322
31335
31332
31326
31328
31320
31328
31331
31324
31332
31322
31336
31336
31340
31350
31345
31361
31360
31364
31364
31368
31384
31368
31383
31376
31372
31386
31372
31392
31389
31394
31406
31406
31420
31414
31428
31434
31432
31448
31448
31454
31456
31464
31468
31464
31476
31476
31486
31484
31484
31500
31492
31500
31510
31522
31538
31536
31546
31541
31572
31568
31575
31578
31586
31599
31588
31616
31603
31620
31620
31638
31640
31652
31672
31674
31696
31716
31720
31742
31740
31768
31772
31792
31796
31812
31826
31833
31860
31860
31882
31906
31918
31933
31946
31978
31981
32020
32036
32064
32077
32094
32119
32134
32159
32172
32194
32202
32228
32240
32280
32284
32308
32328
32358
32384
32400
32420
32437
32468
32480
32508
32536
32536
32561
32576
32612
32611
32638
32644
32660
32672
32692
32730
32725
32757
32764
32784
32816
32825
32860
32860
32892
32912
32921
32950
32964
32992
33002
33022
33066
33070
33092
33124
33138
33168
33188
33212
33247
33254
33298
33304
33332
33356
33356
33384
33396
33412
33425
33452
33465
33472
33500
33519
33540
33565
33569
33602
33600
33632
33630
33652
33664
33681
33692
33700
33724
33716
33740
33732
33754
33760
33774
33794
33792
33812
33826
33839
33854
33860
33878
33876
33900
33904
33913
33916
33929
33946
33957
33956
33970
33980
34006
34000
34020
34031
34054
34076
34078
34097
34096
34132
34132
34148
34164
34175
34176
34190
34208
34207
34240
34237
34254
34276
34270
34301
34310
34325
34346
34359
34376
34365
34388
34405
34414
34436
34424
34460
34464
34481
34474
34496
34510
34528
34548
34549
34573
34580
34593
34606
34624
34624
34632
34656
34651
34668
34677
34679
34708
34702
34713
34732
34740
34752
34768
34784
34785
34796
34812
34816
34832
34832
34852
34860
34868
34881
34880
34904
34895
34908
34916
34924
34934
34948
34960
34961
34994
34986
35008
35006
35028
35028
35046
35052
35052
35072
35072
35097
35088
35105
35106
35134
35136
35144
35152
35165
35190
35198
35214
35223
35232
35244
35264
35262
35276
35297
35298
35296
35310
35328
35332
35345
35372
35372
35400
35393
35422
35428
35452
35476
35474
35493
35501
35520
35521
35544
35548
35561
35568
35588
35608
35606
35632
35648
35656
35680
35700
35712
35716
35746
35752
35768
35777
35794
35800
35810
35832
35845
35864
35860
35880
35888
35904
35920
35936
35940
35964
35976
35998
36004
36020
36028
36042
36056
36060
36062
36078
36088
36097
36098
36118
36120
36137
36156
36162
36176
36189
36197
36211
36219
36224
36252
36238
36256
36258
36270
36266
36280
36284
36292
36300
36304
36308
36322
36325
36350
36351
36364
36357
36388
36373
36388
36390
36394
36408
36400
36408
36398
36413
36416
36413
36424
36418
36440
36420
36440
36440
36440
36460
36449
36452
36453
36448
36462
36446
36448
36446
36455
36448
36438
36436
36432
36448
36436
36448
36436
36453
36436
36454
36436
36452
36432
36440
36424
36436
36420
36412
36416
36408
36412
36404
36400
36396
36394
36400
36388
36409
36388
36406
36386
36388
36384
36374
36386
36359
36368
36342
36356
36332
36338
36324
36318
36313
36308
36312
36296
36296
36286
36296
36288
36286
36276
36268
36260
36252
36239
36236
36221
36224
36205
36200
36190
36192
36172
36174
36175
36162
36174
36156
36158
36152
36132
36140
36112
36104
36110
36094
36076
36082
36062
36052
36058
36052
36041
36040
36034
36034
36032
36029
36012
36024
36008
36002
36000
35978
35978
35960
35958
35944
35937
35935
35926
35908
35916
35904
35904
35889
35904
35894
35892
35877
35868
35868
35844
35854
35832
35828
35812
35804
35796
35781
35783
35764
35772
35758
35758
35757
35748
35760
35724
35732
35716
35716
35704
35692
35684
35668
35674
35640
35640
35620
35616
35620
35596
35610
35588
35586
35585
35560
35578
35564
35544
35548
35526
35520
35513
35488
35489
35468
35466
35452
35440
35446
35424
35426
35424
35396
35412
35388
35404
35380
35373
35372
35356
35344
35332
35326
35301
35296
35296
35272
35268
35265
35265
35252
35249
35237
35247
35232
35236
35220
35212
35204
35180
35185
35172
35164
35156
35130
35136
35124
35118
35124
35106
35096
35100
35096
35087
35080
35076
35071
35060
35056
35052
35028
35040
35016
35002
34999
34984
34980
34980
34964
34968
34954
34962
34950
34958
34954
34939
34944
34928
34914
34911
34896
34884
34884
34878
34855
34852
34836
34844
34833
34824
34830
34808
34817
34816
34808
34804
34804
34806
34786
34780
34776
34762
34752
34740
34734
34718
34716
34717
34722
34701
34700
34696
34705
34688
34700
34695
34681
34672
34672
34663
34656
34649
34629
34628
34632
34608
34609
34608
34594
34592
34580
34596
34592
34596
34592
34581
34582
34570
34580
34556
34556
34544
34544
34533
34518
34512
34505
34500
34496
34490
34504
34496
34480
34496
34488
34488
34490
34473
34470
34464
34464
34436
34446
34436
34420
34420
34416
34404
34413
34400
34403
34396
34396
34398
34384
34386
34380
34373
34368
34348
34336
34336
34326
34316
34318
34292
34298
34272
34276
34264
34265
34268
34252
34264
34239
34244
34238
34222
34232
34204
34204
34194
34180
34182
34166
34159
34145
34148
34128
34137
34136
34128
34130
34116
34112
34112
34100
34094
34081
34072
34053
34060
34048
34020
34016
34006
33999
33977
33984
33972
33972
33964
33952
33956
33932
33936
33920
33900
33902
33884
33872
33852
33836
33822
33809
33782
33788
33772
33756
33734
33720
33720
33704
33687
33682
33662
33653
33620
33615
33602
33576
33574
33528
33524
33496
33476
33466
33440
33438
33414
33392
33385
33353
33352
33325
33312
33302
33270
33253
33223
33222
33184
33172
33146
33120
33108
33077
33060
33053
33023
33004
32985
32964
32949
32926
32905
32886
32852
32842
32802
32778
32760
32718
32708
32676
32650
32628
32596
32584
32552
32540
32502
32492
32454
32442
32413
32382
32356
32334
32308
32276
32255
32225
32200
32160
32142
32116
32088
32046
32046
31995
31996
31968
31942
31920
31900
31868
31842
31816
31784
31760
31728
31712
31676
31657
31622
31608
31577
31556
31532
31513
31504
31470
31456
31428
31418
31384
31380
31343
31332
31304
31288
31260
31253
31213
31210
31180
31169
31136
31130
31124
31100
31104
31080
31072
31054
31032
31028
31007
31001
30978
30964
30953
30942
30929
30914
30912
30896
30894
30878
30888
30880
30873
30876
30865
30860
30844
30852
30850
30832
30831
30818
30823
30810
30816
30820
30796
30812
30809
30813
30822
30820
30822
30821
30828
30836
30824
30836
30832
30847
30840
30838
30848
30856
30842
30856
30870
30852
30880
30873
30886
30902
30898
30912
30920
30928
30935
30944
30938
30962
30950
30970
30960
30980
30976
30984
31004
30994
31020
31028
31036
31052
31056
31076
31074
31089
31104
31100
31124
31122
31132
31143
31136
31149
31160
31162
31182
31183
31204
31212
31217
31233
31230
31264
31256
31280
31290
31293
31309
31308
31316
31334
31334
31340
31354
31345
31364
31384
31383
31394
31408
31416
31437
31428
31457
31464
31471
31488
31485
31494
31514
31514
31524
31528
31540
31548
31565
31566
31586
31600
31604
31628
31636
31649
31663
31672
31679
31694
31704
31712
31728
31728
31750
31764
31760
31780
31792
31810
31812
31836
31854
31860
31879
31896
31904
31928
31930
31946
31952
31974
31985
31988
32012
32020
32034
32056
32048
32090
32092
32109
32135
32144
32164
32182
32190
32200
32224
32244
32262
32264
32294
32306
32312
32341
32346
32366
32388
32392
32420
32428
32448
32470
32480
32502
32528
32528
32560
32580
32588
32615
32622
32628
32655
32668
32688
32704
32726
32734
32756
32767
32806
32808
32836
32854
32868
32896
32902
32922
32944
32948
32980
32990
33000
33028
33024
33061
33069
33081
33112
33118
33140
33156
33172
33194
33206
33218
33238
33248
33267
33280
33292
33304
33326
33330
33344
33366
33376
33373
33397
33407
33436
33441
33450
33476
33476
33484
33508
33518
33508
33535
33548
33538
33569
33564
33572
33596
33588
33604
33623
33604
33636
33649
33656
33658
33674
33676
33688
33692
33694
33701
33718
33708
33716
33738
33734
33742
33748
33750
33760
33770
33772
33788
33796
33796
33820
33816
33822
33844
33829
33840
33852
33848
33856
33852
33858
33868
33876
33869
33898
33898
33905
33924
33916
33933
33932
33942
33954
33950
33969
33965
33958
33978
33980
33980
34000
33989
34004
34004
34000
34016
34028
34028
34048
34055
34054
34062
34067
34072
34080
34082
34094
34078
34088
34110
34096
34104
34110
34112
34124
34141
34138
34150
34142
34155
34165
34160
34173
34178
34176
34184
34190
34180
34198
34204
34190
34208
34216
34216
34220
34228
34240
34232
34249
34245
34256
34272
34268
34268
34284
34278
34276
34294
34288
34303
34294
34308
34308
34321
34324
34321
34342
34335
34364
34364
34360
34372
34378
34378
34388
34389
34398
34404
34396
34403
34404
34408
34432
34428
34430
34440
34448
34450
34461
34460
34481
34484
34480
34488
34506
34505
34500
34512
34506
34520
34520
34520
34530
34532
34544
34540
34568
34558
34564
34574
34581
34584
34594
34604
34594
34606
34608
34604
34622
34616
34624
34624
34628
34641
34644
34649
34662
34668
34674
34684
34684
34686
34704
34697
34698
34712
34708
34708
34720
34712
34724
34728
34728
34726
34743
34737
34740
34752
34753
34744
34758
34756
34749
34752
34753
34748
34757
34762
34750
34748
34752
34756
34750
34744
34762
34752
34760
34762
34768
34765
34776
34772
34778
34789
34780
34772
34776
34788
34776
34783
34785
34788
34788
34783
34805
34796
34817
34808
34812
34817
34826
34829
34824
34834
34822
34836
34833
34837
34848
34840
34844
34846
34840
34860
34839
34846
34849
34852
34860
34861
34872
34868
34856
34876
34860
34865
34876
34854
34868
34860
34874
34864
34860
34864
34873
34872
34876
34868
34876
34882
34868
34876
34884
34870
34864
34884
34876
34866
34865
34874
34862
34864
34860
34868
34856
34864
34868
34856
34877
34856
34868
34856
34841
34852
34852
34833
34852
34836
34820
34828
34822
34820
34808
34810
34797
34812
34796
34792
34801
34788
34776
34780
34778
34764
34772
34748
34748
34749
34738
34734
34718
34712
34718
34706
34716
34702
34700
34692
34695
34693
34684
34688
34678
34681
34660
34670
34660
34647
34648
34644
34644
34644
34636
34634
34644
34624
34620
34624
34616
34628
34622
34624
34622
34612
34608
34620
34604
34601
34605
34604
34596
34606
34588
34596
34606
34594
34599
34604
34604
34612
34596
34608
34616
34604
34606
34622
34608
34608
34622
34606
34614
34624
34621
34624
34632
34628
34636
34653
34644
34650
34662
34660
34676
34656
34678
34676
34676
34687
34672
34704
34686
34700
34702
34700
34724
34712
34732
34726
34742
34748
34734
34756
34764
34758
34782
34764
34784
34786
34794
34788
34788
34804
34800
34808
34817
34828
34845
34832
34844
34860
34839
34862
34850
34864
34866
34868
34884
34872
34888
34886
34887
34902
34897
34916
34906
34916
34918
34917
34949
34928
34944
34942
34944
34968
34956
34972
34970
34964
34980
34972
34988
34989
34988
35010
35008
35012
35022
35028
35045
35046
35037
35060
35052
35060
35060
35060
35072
35064
35072
35073
35072
35089
35089
35096
35096
35108
35108
35122
35117
35124
35129
35129
35144
35144
35146
35140
35147
35141
35164
35149
35150
35162
35160
35174
35176
35188
35182
35191
35182
35204
35192
35202
35204
35204
35206
35209
35220
35204
35212
35214
35216
35228
35220
35225
35230
35220
35238
35236
35248
35244
35247
35256
35245
35252
35260
35244
35256
35254
35256
35262
35246
35260
35256
35266
35264
35268
35272
35276
35282
35278
35288
35280
35300
35284
35292
35292
35292
35297
35294
35285
35287
35297
35284
35294
35296
35292
35300
35300
35302
35294
35304
35305
35300
35306
35297
35301
35316
35304
35300
35300
35298
35314
35304
35312
35313
35312
35308
35308
35320
35316
35323
35316
35319
35311
35320
35308
35320
35313
35322
35324
35316
35328
35325
35330
35332
35326
35336
35342
35335
35356
35348
35349
35348
35348
35354
35338
35356
35336
35348
35348
35349
35356
35348
35361
35356
35358
35360
35375
35364
35372
35372
35368
35376
35364
35380
35368
35364
35372
35364
35366
35360
35361
35360
35357
35367
35360
35362
35368
35354
35380
35356
35372
35364
35360
35360
35354
35342
35342
35332
35320
35338
35330
35324
35335
35316
35303
35310
35308
35308
35295
35290
35296
35276
35282
35268
35257
35270
35248
35244
35232
35220
35224
35210
35200
35192
35194
35188
35173
35170
35152
35156
35140
35133
35124
35108
35112
35093
35076
35064
35040
35044
35044
35029
35020
35002
35000
34992
34974
34973
34954
34952
34948
34918
34924
34896
34896
34874
34868
34853
34842
34830
34812
34820
34778
34774
34772
34756
34758
34733
34732
34717
34702
34694
34664
34672
34644
34640
34622
34600
34604
34576
34570
34560
34542
34541
34518
34508
34512
34476
34486
34463
34448
34426
34416
34398
34388
34375
34348
34352
34326
34325
34294
34282
34274
34246
34244
34238
34212
34208
34181
34176
34157
34142
34130
34100
34100
34072
34056
34044
34016
34005
33980
33976
33960
33926
33932
33908
33894
33878
33868
33848
33834
33826
33784
33777
33752
33736
33720
33702
33688
33660
33652
33620
33623
33600
33578
33566
33544
33542
33510
33508
33484
33464
33460
33430
33420
33400
33370
33362
33336
33324
33302
33290
33280
33242
33242
33216
33207
33184
33165
33148
33128
33120
33082
33062
33056
33024
32996
32982
32944
32944
32900
32892
32861
32848
32841
32804
32797
32766
32752
32732
32708
32695
32664
32648
32620
32608
32584
32570
32552
32518
32516
32494
32469
32460
32446
32420
32420
32392
32386
32356
32356
32328
32324
32308
32280
32278
32260
32236
32232
32202
32204
32188
32174
32168
32144
32144
32132
32103
32108
32092
32076
32080
32060
32044
32044
32022
32010
32006
31998
31988
31986
31960
31948
31956
31940
31934
31932
31920
31904
31912
31890
31895
31874
31868
31872
31860
31864
31854
31832
31836
31814
31814
31806
31805
31806
31804
31800
31789
31780
31784
31760
31768
31750
31749
31742
31726
31724
31733
31702
31710
31705
31688
31700
31693
31680
31692
31676
31660
31676
31655
31650
31657
31628
31638
31629
31602
31616
31588
31590
31591
31576
31584
31562
31572
31560
31556
31558
31541
31540
31528
31524
31512
31506
31509
31485
31479
31472
31446
31457
31444
31424
31434
31422
31412
31412
31392
31380
31390
31384
31364
31352
31348
31336
31332
31303
31312
31292
31276
31279
31264
31264
31240
31238
31232
31224
31212
31215
31201
31201
31176
31178
31158
31172
31154
31138
31132
31120
31124
31104
31100
31100
31087
31092
31084
31073
31073
31080
31063
31062
31064
31064
31044
31056
31047
31049
31040
31032
31032
31028
31040
31023
31038
31021
31040
31044
31039
31054
31037
31060
31044
31052
31054
31054
31058
31050
31070
31056
31074
31052
31060
31076
31076
31096
31078
31094
31105
31108
31111
31120
31128
31132
31128
31140
31136
31161
31137
31161
31152
31172
31160
31178
31180
31186
31202
31204
31212
31220
31233
31228
31246
31242
31268
31250
31268
31268
31276
31288
31288
31300
31302
31321
31312
31342
31340
31356
31368
31374
31384
31394
31408
31400
31420
31424
31437
31448
31436
31460
31460
31476
31476
31490
31498
31509
31524
31526
31542
31540
31562
31558
31580
31572
31592
31588
31604
31594
31617
31610
31616
31628
31628
31642
31654
31653
31668
31676
31676
31689
31687
31706
31698
31720
31712
31724
31726
31726
31744
31740
31748
31748
31764
31766
31772
31768
31777
31788
31788
31804
31804
31800
31824
31818
31830
31829
31830
31840
31830
31844
31839
31844
31850
31846
31864
31858
31876
31876
31880
31884
31884
31892
31896
31910
31894
31916
31908
31912
31916
31908
31921
31916
31938
31924
31937
31936
31944
31956
31959
31969
31980
31978
31980
31992
31984
31994
31996
32002
32000
32008
32012
32025
32012
32032
32033
32025
32044
32040
32060
32060
32076
32080
32080
32084
32090
32084
32088
32098
32100
32108
32092
32122
32108
32132
32132
32133
32132
32150
32149
32157
32172
32164
32174
32168
32180
32176
32184
32180
32180
32188
32192
32191
32192
32199
32204
32216
32220
32216
32236
32224
32238
32240
32244
32249
32248
32258
32250
32264
32259
32263
32265
32262
32276
32268
32279
32270
32289
32284
32294
32300
32308
32310
32305
32320
32308
32316
32316
32312
32324
32316
32320
32320
32330
32324
32337
32340
32350
32344
32356
32356
32351
32360
32366
32370
32364
32383
32366
32383
32377
32378
32373
32384
32388
32388
32404
32390
32394
32404
32410
32410
32421
32423
32423
32436
32428
32438
32436
32443
32444
32445
32442
32446
32454
32456
32456
32462
32473
32468
32485
32488
32489
32490
32489
32500
32484
32496
32500
32508
32508
32497
32520
32506
32516
32512
32516
32516
32532
32532
32535
32540
32540
32552
32548
32557
32556
32558
32562
32554
32564
32554
32569
32566
32585
32564
32580
32592
32585
32600
32596
32604
32612
32628
32610
32628
32620
32628
32633
32639
32648
32636
32642
32660
32656
32660
32674
32672
32688
32684
32688
32700
32704
32711
32710
32728
32716
32724
32740
32722
32743
32740
32741
32744
32745
32766
32760
32786
32780
32792
32786
32799
32804
32812
32809
32820
32822
32814
32828
32828
32837
32840
32839
32848
32852
32858
32862
32868
32881
32878
32888
32893
32921
32910
32920
32930
32936
32945
32940
32968
32962
32964
32978
32980
32996
33012
33024
33028
33048
33054
33073
33064
33088
33088
33104
33114
33117
33130
33126
33141
33152
33152
33170
33164
33176
33173
33206
33202
33228
33228
33248
33253
33260
33271
33286
33294
33310
33316
33328
33341
33344
33370
33376
33402
33399
33420
33448
33448
33472
33484
33504
33526
33526
33552
33550
33584
33581
33604
33608
33612
33628
33642
33660
33678
33684
33692
33708
33718
33742
33742
33762
33766
33784
33791
33796
33811
33813
33836
33833
33841
33854
33868
33864
33872
33880
33884
33903
33908
33924
33932
33936
33967
33952
33984
33976
33988
33990
34000
34023
34017
34036
34040
34054
34056
34072
34094
34082
34104
34126
34133
34153
34148
34180
34177
34188
34201
34208
34220
34222
34242
34252
34274
34270
34292
34288
34320
34310
34338
34344
34358
34370
34377
34400
34392
34416
34416
34430
34438
34440
34458
34472
34477
34469
34494
34500
34508
34520
34524
34541
34556
34560
34588
34576
34600
34594
34620
34625
34624
34632
34644
34648
34654
34656
34655
34664
34668
34698
34693
34716
34712
34722
34719
34740
34740
34744
34764
34748
34769
34766
34768
34780
34774
34778
34786
34788
34796
34804
34804
34828
34820
34826
34844
34842
34852
34849
34856
34848
34847
34861
34852
34865
34877
34870
34878
34880
34884
34889
34900
34912
34909
34912
34929
34928
34940
34928
34948
34945
34951
34950
34956
34972
34958
34972
34966
34972
34994
34984
34997
35004
35008
35024
35028
35021
35042
35038
35055
35048
35061
35068
35064
35082
35072
35084
35089
35080
35104
35114
35114
35124
35133
35140
35148
35167
35168
35164
35180
35176
35185
35193
35196
35208
35202
35208
35236
35221
35240
35240
35246
35268
35262
35276
35292
35292
35306
35301
35319
35333
35328
35338
35358
35352
35364
35356
35381
35376
35392
35400
35420
35416
35428
35440
35456
35468
35462
35486
35473
35501
35492
35509
35524
35530
35524
35544
35552
35551
35574
35576
35596
35600
35608
35626
35633
35636
35654
35660
35672
35672
35676
35688
35700
35694
35700
35716
35708
35724
35740
35734
35752
35760
35767
35776
35780
35792
35792
35808
35796
35824
35815
35824
35820
35828
35832
35836
35842
35858
35847
35856
35874
35866
35884
35886
35894
35906
35904
35908
35906
35924
35908
35918
35916
35916
35940
35918
35940
35936
35936
35948
35942
35964
35952
35964
35968
35965
35980
35976
35978
35982
35972
35996
35980
35984
35984
35972
36004
35991
36001
35997
35996
36010
36000
36016
36017
36021
36014
36016
36020
36020
36014
36016
36022
36013
36020
36005
36025
36010
36020
36026
36010
36028
36020
36014
36040
36032
36020
36030
36021
36022
36021
36000
36016
36000
36000
35998
35993
35997
35997
36000
35998
36001
36004
35994
36000
35984
35998
35980
35982
35974
35974
35962
35956
35964
35956
35952
35934
35944
35934
35936
35932
35924
35940
35920
35936
35917
35922
35908
35896
35898
35892
35880
35872
35881
35864
35872
35840
35848
35850
35832
35825
35816
35834
35814
35824
35806
35816
35800
35806
35776
35774
35768
35758
35759
35740
35738
35733
35718
35714
35706
35721
35696
35702
35682
35688
35684
35669
35672
35652
35652
35640
35640
35616
35621
35612
35604
35588
35580
35580
35572
35568
35562
35552
35554
35536
35544
35541
35524
35516
35516
35498
35501
35477
35468
35464
35446
35460
35436
35429
35440
35416
35410
35420
35400
35396
35390
35376
35380
35368
35344
35358
35332
35318
35324
35303
35303
35291
35290
35284
35272
35269
35265
35252
35253
35244
35248
35228
35230
35206
35204
35193
35184
35176
35160
35168
35142
35146
35146
35129
35122
35125
35120
35114
35100
35108
35082
35094
35068
35068
35056
35060
35036
35033
35016
35016
35004
35008
34996
34996
34980
34980
34973
34978
34968
34960
34960
34948
34948
34939
34928
34916
34916
34900
34896
34884
34878
34868
34856
34862
34858
34844
34852
34836
34852
34828
34821
34822
34808
34813
34788
34798
34782
34776
34756
34758
34748
34744
34732
34725
34732
34719
34721
34711
34724
34710
34704
34700
34676
34688
34678
34668
34668
34652
34647
34628
34621
34622
34616
34622
34608
34600
34604
34596
34598
34592
34594
34582
34560
34572
34556
34556
34540
34536
34538
34520
34521
34512
34524
34502
34516
34488
34504
34488
34494
34476
34494
34463
34472
34456
34449
34456
34434
34429
34416
34422
34408
34404
34394
34392
34382
34382
34382
34376
34366
34360
34378
34348
34360
34338
34343
34318
34335
34320
34312
34308
34296
34303
34290
34292
34286
34300
34284
34276
34288
34281
34277
34276
34260
34264
34254
34257
34244
34236
34232
34224
34228
34220
34212
34210
34220
34209
34196
34212
34198
34204
34196
34184
34184
34172
34174
34164
34149
34148
34132
34136
34125
34117
34112
34104
34112
34097
34104
34090
34090
34086
34080
34076
34068
34070
34044
34052
34028
34032
34024
34000
34020
33991
33996
33992
33988
33975
33976
33986
33956
33966
33964
33948
33956
33938
33932
33927
33916
33918
33888
33888
33886
33862
33872
33858
33864
33860
33852
33844
33846
33840
33828
33830
33821
33808
33808
33789
33788
33788
33764
33764
33762
33744
33744
33732
33729
33728
33725
33704
33716
33702
33700
33698
33680
33688
33668
33656
33662
33640
33636
33628
33620
33620
33618
33604
33608
33601
33600
33600
33597
33592
33584
33576
33569
33560
33560
33548
33534
33519
33524
33520
33504
33511
33502
33509
33488
33490
33492
33490
33500
33476
33488
33473
33469
33460
33460
33452
33444
33430
33432
33436
33437
33409
33420
33414
33432
33420
33428
33412
33422
33420
33414
33416
33398
33400
33400
33390
33404
33388
33388
33382
33388
33380
33382
33380
33376
33388
33375
33396
33388
33390
33394
33381
33392
33380
33382
33378
33372
33382
33370
33386
33358
33372
33357
33374
33369
33380
33372
33389
33378
33396
33376
33392
33380
33388
33374
33380
33376
33376
33369
33380
33368
33376
33369
33384
33372
33386
33380
33389
33380
33399
33392
33397
33389
33396
33397
33386
33396
33380
33393
33392
33388
33388
33394
33386
33408
33396
33416
33410
33421
33408
33426
33408
33424
33413
33430
33412
33428
33429
33421
33424
33428
33420
33424
33436
33438
33441
33440
33452
33456
33464
33458
33470
33455
33468
33461
33470
33464
33465
33455
33472
33453
33480
33450
33468
33470
33472
33484
33484
33484
33496
33493
33493
33494
33484
33502
33488
33502
33490
33494
33487
33505
33482
33500
33494
33504
33508
33504
33521
33508
33524
33513
33518
33520
33516
33517
33508
33520
33506
33520
33520
33508
33518
33508
33518
33524
33516
33536
33524
33528
33536
33537
33548
33524
33540
33528
33528
33530
33528
33533
33517
33516
33524
33528
33516
33532
33528
33536
33540
33540
33540
33532
33536
33534
33540
33532
33532
33512
33526
33530
33520
33514
33516
33512
33508
33519
33522
33514
33534
33510
33535
33512
33526
33516
33524
33510
33516
33505
33497
33508
33488
33498
33489
33486
33493
33484
33488
33496
33492
33484
33484
33496
33484
33480
33484
33476
33480
33458
33472
33460
33464
33454
33457
33444
33453
33444
33468
33454
33456
33456
33452
33452
33450
33444
33446
33444
33440
33442
33420
33424
33432
33423
33420
33425
33412
33426
33420
33412
33426
33415
33428
33408
33416
33411
33404
33412
33388
33404
33388
33388
33390
33377
33384
33374
33382
33381
33372
33392
33372
33380
33380
33375
33378
33366
33368
33362
33357
33364
33344
33356
33332
33345
33344
33342
33340
33332
33342
33336
33350
33340
33348
33338
33330
33335
33324
33324
33320
33320
33304
33311
33292
33306
33292
33295
33301
33292
33302
33284
33300
33288
33296
33280
33292
33284
33280
33278
33264
33268
33255
33262
33244
33245
33233
33244
33242
33246
33242
33233
33232
33230
33236
33221
33226
33212
33204
33212
33186
33184
33180
33156
33176
33153
33156
33143
33134
33136
33124
33124
33128
33109
33116
33096
33090
33086
33070
33068
33048
33041
33028
33008
33009
32990
32997
32980
32974
32972
32957
32954
32928
32934
32922
32908
32905
32898
32876
32869
32850
32849
32812
32821
32798
32806
32782
32780
32774
32761
32756
32744
32740
32724
32724
32708
32704
32694
32673
32684
32652
32652
32636
32632
32616
32607
32608
32590
32592
32580
32576
32570
32558
32554
32545
32532
32524
32516
32520
32500
32493
32480
32482
32464
32460
32450
32444
32432
32440
32426
32420
32410
32406
32394
32389
32391
32377
32372
32356
32355
32332
32332
32312
32310
32298
32293
32277
32276
32280
32260
32248
32246
32250
32238
32222
32221
32200
32194
32180
32164
32162
32144
32142
32124
32112
32096
32100
32084
32077
32064
32050
32060
32032
32036
32022
32012
32004
31976
31980
31960
31952
31937
31920
31918
31900
31896
31884
31872
31868
31856
31846
31845
31841
31820
31813
31790
31794
31760
31756
31744
31726
31708
31702
31677
31672
31652
31634
31626
31608
31618
31582
31584
31578
31564
31556
31532
31536
31512
31508
31497
31476
31480
31453
31456
31432
31430
31426
31416
31413
31386
31400
31388
31384
31378
31357
31364
31336
31345
31332
31332
31316
31310
31312
31292
31300
31278
31284
31272
31262
31269
31274
31274
31262
31252
31248
31252
31252
31236
31220
31220
31217
31220
31204
31204
31184
31190
31179
31180
31184
31172
31176
31170
31173
31168
31158
31164
31140
31159
31150
31141
31144
31140
31142
31134
31124
31125
31124
31134
31125
31130
31129
31123
31145
31127
31124
31133
31120
31124
31112
31119
31116
31100
31098
31092
31105
31096
31102
31089
31100
31088
31088
31086
31084
31085
31080
31082
31068
31080
31060
31072
31058
31050
31042
31044
31040
31032
31026
31030
31020
31020
31028
31021
31020
31017
31012
31010
31006
30992
31004
30997
30990
30980
30968
30980
30964
30970
30968
30960
30966
30960
30973
30956
30972
30964
30964
30962
30964
30965
30956
30966
30952
30958
30950
30950
30965
30948
30970
30956
30980
30973
30976
30989
30990
30988
31004
30999
31012
31012
31020
31012
31032
31028
31028
31044
31045
31064
31054
31082
31084
31092
31108
31123
31126
31143
31144
31165
31168
31178
31192
31198
31220
31217
31239
31238
31258
31272
31288
31298
31303
31332
31340
31373
31374
31398
31404
31424
31439
31456
31460
31482
31500
31498
31525
31521
31552
31556
31586
31590
31610
31628
31652
31669
31687
31704
31710
31736
31742
31760
31777
31781
31804
31808
31833
31842
31856
31873
31876
31909
31906
31940
31948
31964
31980
31994
32014
32016
32038
32052
32064
32076
32084
32098
32108
32132
32136
32154
32165
32170
32200
32204
32216
32246
32244
32268
32273
32296
32308
32319
32328
32340
32356
32368
32380
32392
32404
32418
32434
32440
32460
32468
32492
32495
32516
32518
32546
32548
32566
32574
32576
32596
32604
32612
32622
32624
32650
32649
32669
32677
32692
32708
32724
32740
32750
32762
32780
32775
32800
32808
32809
32828
32836
32848
32864
32881
32888
32890
32912
32912
32930
32948
32961
32986
32985
33004
33007
33036
33036
33060
33061
33072
33092
33095
33125
33118
33134
33148
33169
33184
33180
33213
33214
33230
33245
33256
33272
33280
33301
33311
33320
33332
33340
33352
33369
33372
33380
33408
33410
33436
33436
33460
33468
33492
33484
33512
33517
33527
33549
33552
33572
33566
33596
33596
33604
33616
33626
33632
33652
33658
33680
33681
33700
33720
33712
33732
33740
33756
33772
33760
33789
33780
33802
33798
33812
33820
33828
33852
33852
33868
33878
33880
33896
33898
33918
33930
33932
33936
33952
33952
33960
33968
33978
33992
33988
34004
34002
34016
34032
34024
34041
34049
34050
34068
34069
34087
34098
34100
34114
34112
34116
34122
34121
34140
34129
34151
34148
34151
34160
34167
34185
34176
34201
34204
34206
34209
34208
34228
34216
34230
34232
34232
34244
34246
34236
34244
34252
34255
34261
34276
34260
34284
34276
34286
34298
34288
34292
34310
34303
34311
34310
34307
34308
34328
34326
34310
34324
34332
34332
34338
34338
34348
34360
34340
34372
34366
34364
34372
34372
34378
34369
34381
34384
34378
34392
34385
34380
34394
34388
34404
34402
34408
34414
34414
34420
34422
34424
34431
34420
34436
34424
34429
34433
34436
34432
34432
34446
34437
34440
34446
34446
34453
34440
34468
34455
34462
34468
34474
34469
34470
34474
34468
34478
34468
34476
34472
34480
34464
34488
34480
34494
34490
34496
34507
34497
34517
34500
34516
34506
34516
34512
34500
34509
34518
34516
34516
34528
34510
34532
34517
34525
34546
34524
34552
34541
34548
34548
34544
34548
34553
34543
34556
34544
34564
34565
34552
34564
34558
34572
34566
34577
34582
34576
34588
34581
34596
34600
34590
34605
34596
34600
34604
34590
34607
34590
34605
34604
34604
34614
34613
34624
34620
34632
34631
34628
34638
34648
34638
34652
34632
34649
34652
34638
34655
34648
34644
34660
34652
34664
34660
34668
34668
34680
34688
34676
34692
34680
34694
34705
34692
34692
34700
34692
34704
34698
34706
34703
34704
34708
34716
34722
34712
34726
34729
34733
34736
34728
34738
34732
34746
34740
34740
34742
34736
34736
34740
34738
34744
34736
34752
34744
34756
34752
34758
34758
34764
34764
34764
34756
34764
34760
34748
34762
34752
34756
34750
34756
34762
34756
34773
34760
34770
34776
34764
34776
34768
34789
34772
34776
34774
34774
34780
34780
34777
34776
34774
34772
34782
34780
34780
34788
34780
34802
34788
34789
34797
34784
34798
34788
34784
34786
34772
34772
34784
34768
34760
34760
34769
34748
34748
34748
34756
34754
34756
34756
34734
34743
34732
34736
34732
34732
34726
34720
34728
34710
34728
34720
34724
34716
34724
34716
34725
34722
34732
34717
34724
34728
34724
34725
34719
34722
34717
34716
34724
34724
34727
34740
34724
34751
34732
34748
34754
34746
34766
34752
34772
34772
34767
34778
34776
34764
34769
34776
34780
34780
34776
34790
34782
34786
34796
34786
34804
34805
34804
34826
34812
34814
34826
34808
34817
34812
34822
34830
34823
34828
34812
34824
34828
34820
34837
34838
34836
34832
34832
34844
34832
34829
34840
34831
34817
34836
34814
34820
34818
34804
34814
34800
34799
34801
34790
34798
34793
34788
34788
34776
34776
34772
34772
34764
34752
34756
34738
34748
34743
34725
34727
34724
34728
34702
34716
34708
34700
34704
34690
34694
34684
34688
34672
34672
34662
34672
34644
34656
34644
34628
34625
34642
34625
34628
34622
34624
34622
34612
34612
34612
34600
34596
34596
34596
34596
34580
34584
34564
34576
34552
34564
34558
34560
34556
34552
34551
34552
34566
34548
34564
34548
34558
34550
34568
34548
34561
34550
34544
34562
34542
34548
34544
34548
34552
34562
34564
34580
34572
34592
34585
34584
34594
34600
34588
34604
34592
34610
34618
34604
34612
34625
34640
34628
34644
34646
34656
34668
34664
34676
34692
34700
34693
34704
34708
34717
34730
34724
34728
34732
34746
34750
34756
34748
34764
34776
34784
34797
34784
34798
34806
34812
34816
34818
34820
34840
34828
34838
34836
34848
34846
34846
34864
34854
34873
34876
34876
34888
34884
34901
34904
34904
34904
34900
34916
34906
34922
34916
34920
34924
34928
34920
34925
34936
34932
34940
34940
34946
34968
34948
34980
34968
34972
34980
34965
34976
34980
34980
34982
34980
34994
34988
34984
34997
34998
35017
35000
35007
35028
35012
35028
35024
35024
35031
35016
35032
35012
35021
35028
35025
35029
35008
35032
35016
35029
35019
35033
35036
35028
35039
35020
35032
35014
35030
35021
35031
35017
35020
35018
35017
35008
35012
35008
35000
35008
35010
34994
35012
34996
35004
34998
35006
34986
35006
34991
34988
34980
34976
34972
34972
34964
34970
34964
34964
34960
34974
34952
34964
34954
34952
34956
34945
34949
34944
34946
34944
34928
34926
34920
34918
34916
34917
34916
34912
34901
34916
34908
34908
34908
34906
34897
34912
34892
34892
34882
34885
34882
34874
34876
34848
34857
34858
34850
34844
34847
34844
34836
34837
34840
34836
34817
34824
34824
34816
34810
34804
34796
34788
34790
34772
34783
34762
34766
34752
34756
34756
34740
34756
34743
34745
34739
34712
34728
34716
34722
34690
34700
34678
34677
34680
34654
34664
34660
34645
34646
34644
34629
34636
34636
34620
34618
34612
34590
34586
34592
34577
34574
34566
34552
34542
34542
34528
34532
34527
34512
34508
34500
34496
34496
34474
34472
34468
34450
34449
34433
34422
34416
34404
34389
34388
34372
34366
34360
34348
34338
34334
34324
34324
34300
34318
34284
34286
34278
34260
34256
34237
34238
34208
34214
34193
34186
34173
34154
34152
34134
34132
34126
34116
34104
34104
34085
34076
34064
34060
34046
34028
34028
34000
33995
33981
33972
33952
33948
33932
33928
33916
33904
33896
33878
33874
33863
33860
33834
33828
33813
33800
33788
33780
33760
33736
33738
33716
33700
33700
33684
33674
33656
33652
33638
33625
33612
33595
33592
33568
33562
33541
33520
33511
33496
33482
33469
33449
33440
33415
33416
33397
33382
33376
33356
33353
33324
33318
33292
33292
33270
33260
33230
33220
33198
33188
33173
33158
33143
33126
33122
33090
33093
33074
33058
33052
33039
33024
33006
32990
32980
32956
32948
32926
32916
32890
32890
32865
32857
32844
32824
32824
32805
32793
32790
32772
32764
32740
32741
32720
32708
32680
32684
32676
32644
32641
32622
32610
32604
32580
32593
32558
32568
32548
32550
32524
32528
32517
32496
32492
32476
32466
32444
32446
32424
32416
32398
32401
32384
32388
32371
32378
32364
32344
32352
32324
32330
32322
32314
32308
32282
32289
32263
32272
32258
32246
32229
32222
32229
32216
32204
32200
32188
32194
32190
32170
32180
32153
32160
32145
32148
32143
32130
32126
32108
32108
32092
32100
32068
32084
32070
32076
32064
32058
32064
32050
32056
32032
32048
32028
32031
32018
32014
31998
32013
31994
31998
31996
31973
31989
31980
31974
31982
31974
31976
31984
31969
31964
31964
31951
31960
31944
31948
31942
31928
31932
31932
31904
31904
31901
31913
31888
31899
31892
31876
31882
31876
31858
31865
31838
31842
31830
31821
31812
31804
31802
31788
31800
31770
31782
31765
31772
31764
31764
31769
31764
31771
31756
31760
31736
31748
31728
31745
31724
31734
31727
31724
31719
31716
31712
31726
31708
31716
31716
31710
31724
31708
31714
31710
31701
31704
31700
31696
31692
31688
31692
31684
31696
31680
31676
31684
31676
31685
31676
31679
31688
31676
31685
31682
31680
31676
31662
31672
31654
31666
31656
31652
31648
31648
31648
31650
31652
31654
31650
31666
31660
31660
31660
31656
31655
31660
31660
31640
31652
31654
31648
31649
31648
31652
31637
31652
31646
31656
31638
31654
31644
31652
31652
31656
31646
31652
31642
31645
31628
31640
31628
31630
31631
31628
31631
31624
31620
31614
31618
31612
31620
31614
31613
31612
31604
31596
31591
31588
31588
31578
31584
31556
31572
31548
31564
31548
31549
31542
31544
31524
31532
31530
31516
31524
31504
31519
31490
31484
31480
31464
31480
31452
31456
31442
31424
31438
31424
31424
31413
31416
31400
31396
31382
31388
31360
31362
31362
31357
31335
31332
31332
31321
31308
31308
31294
31306
31301
31304
31276
31296
31270
31280
31266
31280
31256
31274
31264
