RESPIRATION
30865
30878
30872
30872
30876
30878
30868
30876
30868
30869
30866
30880
30872
30872
30870
30864
30868
30860
30880
30871
30874
30868
30861
30868
30868
30876
30870
30874
30868
30868
30868
30871
30865
30877
30880
30876
30860
30865
30876
30872
30882
30868
30861
30875
30878
30873
30872
30876
30874
30868
30882
30880
30872
30872
30874
30881
30884
30880
30878
30872
30878
30884
30880
30885
30877
30878
30877
30880
30884
30874
30880
30884
30888
30879
30890
30879
30882
30880
30878
30876
30884
30885
30884
30882
30884
30882
30878
30878
30876
30884
30883
30876
30887
30884
30880
30876
30884
30884
30876
30872
30884
30884
30887
30879
30876
30884
30872
30872
30878
30878
30881
30880
30884
30876
30882
30888
30881
30880
30886
30885
30878
30882
30881
30888
30884
30884
30881
30884
30886
30878
30888
30887
30891
30892
30897
30900
30888
30888
30888
30892
30888
30897
30902
30897
30900
30893
30888
30892
30896
30902
30912
30900
30905
30908
30904
30906
30914
30916
30916
30916
30910
30912
30908
30914
30910
30916
30912
30917
30906
30914
30922
30920
30920
30916
30916
30920
30920
30920
30924
30928
30914
30909
30922
30932
30920
30924
30924
30930
30916
30904
30920
30928
30924
30926
30932
30933
30927
30934
30926
30926
30936
30932
30940
30936
30932
30936
30940
30936
30940
30948
30948
30941
30940
30949
30952
30954
30948
30945
30952
30954
30952
30945
30952
30968
30958
30956
30958
30969
30972
30966
30974
30974
30976
30977
30981
30980
30985
30988
30996
31002
30998
31000
30996
31000
31004
31008
31016
31020
31024
31024
31018
31040
31040
31044
31046
31056
31048
31056
31068
31065
31077
31072
31082
31087
31094
31109
31112
31116
31116
31124
31140
31137
31152
31162
31172
31168
31176
31186
31192
31197
31202
31212
31225
31222
31224
31230
31247
31247
31254
31262
31272
31276
31270
31278
31292
31308
31304
31310
31316
31313
31324
31329
31337
31334
31337
31340
31348
31350
31360
31364
31374
31380
31380
31374
31392
31400
31405
31405
31414
31428
31424
31424
31432
31440
31436
31452
31452
31448
31460
31476
31478
31481
31480
31484
31490
31509
31503
31506
31503
31520
31510
31520
31529
31528
31536
31538
31540
31544
31541
31556
31553
31556
31566
31568
31573
31578
31582
31574
31583
31580
31592
31588
31588
31598
31601
31596
31600
31600
31604
31606
31601
31616
31622
31618
31618
31612
31616
31620
31620
31636
31626
31640
31632
31632
31652
31636
31660
31658
31650
31668
31664
31660
31668
31672
31672
31678
31684
31692
31696
31694
31704
31709
31712
31720
31724
31726
31732
31741
31750
31754
31760
31764
31764
31780
31788
31790
31788
31796
31804
31819
31822
31821
31831
31828
31834
31848
31844
31848
31864
31860
31870
31872
31890
31892
31904
31906
31908
31927
31929
31942
31940
31940
31940
31956
31962
31970
31974
31978
31990
31998
32001
32000
32005
32016
32014
32028
32026
32041
32042
32054
32058
32068
32072
32076
32076
32082
32080
32098
32095
32100
32102
32114
32113
32114
32128
32132
32140
32143
32142
32152
32159
32168
32176
32176
32185
32194
32196
32190
32199
32203
32216
32217
32216
32223
32224
32232
32236
32238
32244
32245
32246
32260
32266
32264
32278
32270
32280
32280
32286
32292
32293
32295
32308
32316
32320
32324
32326
32338
32336
32341
32356
32356
32350
32344
32352
32360
32372
32361
32368
32372
32376
32372
32372
32386
32380
32388
32389
32400
32392
32392
32388
32398
32400
32400
32404
32412
32404
32404
32412
32404
32412
32412
32416
32416
32423
32416
32416
32424
32420
32426
32420
32422
32424
32424
32428
32433
32425
32424
32424
32432
32436
32428
32428
32433
32428
32436
32430
32436
32436
32436
32434
32430
32436
32436
32429
32428
32436
32428
32428
32428
32425
32418
32424
32436
32422
32424
32416
32423
32433
32421
32428
32422
32417
32420
32420
32424
32420
32420
32417
32417
32425
32416
32412
32422
32409
32428
32416
32421
32420
32418
32420
32413
32420
32420
32424
32417
32420
32412
32413
32416
32416
32415
32412
32412
32416
32416
32422
32417
32416
32414
32412
32416
32422
32416
32416
32415
32420
32429
32424
32418
32421
32430
32426
32430
32430
32428
32432
32430
32424
32434
32428
32429
32438
32432
32430
32434
32432
32434
32442
32444
32445
32449
32442
32448
32438
32445
32446
32452
32458
32448
32460
32459
32452
32452
32465
32464
32468
32464
32463
32454
32468
32470
32468
32472
32476
32486
32476
32476
32472
32470
32480
32482
32484
32488
32492
32484
32488
32492
32489
32485
32494
32500
32488
32496
32500
32506
32508
32505
32517
32512
32508
32508
32520
32506
32512
32524
32520
32518
32514
32518
32520
32520
32526
32528
32530
32538
32534
32532
32534
32532
32534
32536
32542
32540
32540
32545
32550
32552
32544
32548
32549
32552
32552
32556
32550
32552
32548
32552
32558
32565
32561
32562
32560
32559
32550
32564
32560
32565
32561
32560
32564
32564
32568
32572
32570
32576
32572
32576
32566
32568
32568
32575
32564
32560
32572
32565
32572
32574
32581
32576
32574
32570
32570
32565
32567
32568
32566
32582
32574
32576
32574
32566
32564
32566
32566
32564
32560
32561
32568
32574
32557
32576
32574
32570
32572
32569
32572
32566
32564
32564
32560
32564
32559
32564
32578
32568
32568
32573
32562
32568
32572
32570
32568
32575
32580
32568
32576
32576
32564
32568
32569
32566
32572
32580
32576
32573
32564
32566
32568
32570
32576
32573
32574
32576
32578
32580
32576
32572
32576
32580
32580
32572
32579
32582
32576
32576
32570
32582
32570
32570
32568
32566
32564
32576
32572
32572
32572
32564
32573
32572
32564
32560
32568
32550
32556
32556
32552
32556
32552
32557
32556
32560
32561
32556
32548
32544
32550
32554
32546
32543
32544
32552
32553
32542
32550
32544
32544
32549
32536
32548
32552
32548
32548
32542
32526
32532
32540
32532
32538
32533
32532
32532
32540
32540
32534
32525
32522
32526
32528
32528
32532
32532
32527
32520
32526
32532
32520
32521
32524
32528
32528
32532
32524
32530
32524
32533
32522
32520
32524
32520
32529
32526
32524
32520
32526
32520
32520
32519
32520
32525
32518
32526
32524
32525
32526
32528
32521
32517
32522
32528
32526
32536
32528
32528
32543
32538
32545
32548
32548
32552
32548
32558
32548
32554
32558
32556
32550
32553
32556
32572
32556
32560
32564
32558
32564
32565
32568
32576
32572
32576
32564
32564
32572
32568
32563
32568
32566
32568
32567
32569
32558
32566
32572
32561
32554
32565
32565
32561
32566
32558
32561
32554
32551
32544
32546
32556
32548
32548
32548
32544
32552
32544
32540
32544
32532
32540
32526
32529
32528
32524
32523
32524
32516
32516
32512
32508
32500
32500
32500
32496
32489
32487
32484
32486
32486
32484
32480
32474
32478
32476
32472
32466
32464
32460
32458
32450
32452
32452
32449
32439
32432
32436
32432
32434
32428
32421
32420
32422
32413
32414
32404
32406
32412
32398
32394
32400
32390
32388
32380
32383
32376
32374
32368
32375
32359
32358
32356
32356
32351
32348
32332
32333
32325
32326
32320
32320
32310
32308
32300
32292
32288
32284
32280
32279
32282
32264
32260
32261
32265
32252
32247
32240
32234
32233
32236
32220
32214
32204
32192
32188
32190
32180
32183
32164
32164
32154
32148
32144
32145
32132
32140
32126
32126
32112
32100
32100
32098
32084
32082
32082
32068
32057
32052
32052
32048
32040
32032
32021
32016
32014
32005
32007
31994
31996
31984
31976
31976
31971
31968
31956
31962
31946
31944
31938
31937
31926
31928
31922
31909
31909
31892
31901
31900
31893
31892
31896
31880
31880
31878
31871
31866
31856
31860
31856
31858
31856
31857
31852
31844
31844
31841
31837
31832
31840
31840
31836
31840
31836
31836
31836
31844
31840
31836
31849
31855
31860
31856
31872
31860
31876
31868
31868
31876
31868
31879
31888
31900
31900
31908
31912
31916
31926
31930
31932
31944
31944
31956
31960
31968
31976
31982
31992
31996
32008
32012
32030
32034
32037
32055
32060
32058
32073
32074
32081
32094
32108
32108
32122
32132
32142
32151
32156
32164
32164
32172
32181
32197
32196
32206
32216
32220
32233
32234
32240
32246
32252
32256
32264
32273
32276
32288
32293
32296
32292
32303
32308
32312
32316
32316
32321
32322
32334
32336
32336
32356
32340
32356
32352
32356
32360
32364
32364
32364
32364
32372
32366
32372
32377
32389
32368
32380
32380
32382
32396
32392
32392
32391
32388
32388
32386
32390
32391
32394
32394
32388
32388
32396
32392
32390
32390
32386
32388
32392
32382
32392
32388
32388
32388
32384
32374
32378
32376
32376
32382
32376
32373
32360
32364
32361
32364
32358
32360
32352
32350
32354
32342
32352
32344
32345
32342
32330
32336
32322
32320
32312
32302
32296
32301
32293
32286
32288
32288
32272
32264
32248
32256
32250
32234
32228
32224
32220
32208
32198
32198
32196
32184
32174
32164
32157
32145
32136
32135
32127
32119
32106
32100
32094
32080
32062
32052
32046
32048
32038
32032
32029
32014
32000
31992
31988
31973
31962
31964
31952
31941
31929
31926
31917
31902
31894
31888
31894
31889
31876
31860
31864
31848
31844
31836
31822
31815
31804
31804
31802
31780
31783
31782
31769
31768
31756
31758
31741
31730
31732
31724
31716
31708
31696
31704
31688
31690
31684
31676
31672
31669
31661
31664
31656
31644
31654
31632
31639
31628
31613
31610
31610
31604
31608
31598
31598
31592
31582
31588
31586
31582
31573
31581
31570
31566
31566
31558
31554
31556
31549
31556
31548
31549
31548
31552
31544
31548
31549
31548
31557
31556
31540
31545
31554
31550
31548
31552
31552
31552
31548
31550
31552
31554
31558
31562
31572
31564
31566
31570
31572
31584
31593
31584
31593
31592
31600
31612
31618
31620
31626
31624
31632
31632
31644
31644
31656
31653
31668
31666
31676
31686
31691
31704
31698
31714
31716
31724
31732
31736
31741
31748
31750
31761
31764
31776
31796
31793
31800
31802
31809
31820
31830
31844
31844
31856
31862
31864
31877
31878
31885
31896
31913
31919
31917
31930
31940
31937
31954
31956
31969
31980
31982
31988
31996
31996
32004
32020
32022
32034
32036
32044
32056
32072
32070
32076
32088
32089
32104
32113
32119
32112
32132
32144
32156
32154
32162
32164
32180
32189
32192
32212
32218
32224
32228
32241
32244
32248
32260
32276
32282
32288
32304
32316
32320
32326
32344
32338
32344
32358
32364
32376
32381
32396
32405
32412
32418
32425
32440
32442
32463
32471
32480
32484
32498
32515
32514
32528
32532
32554
32556
32567
32572
32576
32588
32600
32608
32612
32620
32640
32648
32664
32668
32671
32680
32692
32704
32706
32716
32727
32732
32738
32738
32751
32756
32760
32773
32785
32792
32808
32805
32814
32813
32828
32831
32842
32846
32858
32858
32864
32878
32870
32884
32892
32900
32896
32902
32904
32901
32910
32912
32919
32924
32916
32918
32926
32921
32932
32932
32928
32933
32936
32932
32940
32936
32928
32928
32924
32930
32926
32909
32917
32916
32911
32911
32914
32908
32908
32912
32904
32900
32900
32894
32886
32883
32881
32880
32874
32882
32868
32868
32858
32852
32846
32838
32836
32824
32816
32813
32814
32804
32806
32794
32781
32780
32768
32762
32751
32750
32748
32745
32738
32728
32732
32710
32704
32704
32698
32698
32688
32678
32668
32658
32660
32650
32646
32636
32632
32628
32612
32617
32608
32608
32604
32596
32589
32580
32576
32574
32573
32564
32560
32557
32548
32544
32542
32532
32520
32518
32504
32510
32508
32504
32504
32506
32496
32486
32478
32484
32480
32468
32460
32452
32462
32455
32446
32447
32437
32438
32424
32430
32424
32428
32420
32422
32416
32414
32406
32404
32400
32389
32388
32388
32388
32376
32373
32373
32358
32366
32360
32357
32356
32352
32350
32349
32348
32351
32344
32334
32335
32333
32329
32325
32328
32324
32324
32320
32310
32324
32322
32314
32311
32316
32308
32316
32309
32308
32298
32296
32300
32288
32294
32286
32292
32286
32289
32294
32292
32292
32296
32294
32286
32292
32288
32292
32289
32288
32296
32294
32300
32306
32304
32302
32295
32300
32302
32292
32306
32308
32304
32316
32311
32312
32320
32320
32324
32321
32320
32325
32324
32326
32332
32336
32332
32348
32334
32343
32348
32345
32348
32348
32356
32356
32364
32374
32376
32373
32380
32380
32380
32382
32380
32392
32398
32397
32402
32404
32408
32401
32407
32420
32418
32432
32430
32422
32431
32428
32428
32428
32439
32448
32448
32441
32456
32454
32456
32452
32458
32464
32460
32464
32468
32468
32470
32479
32480
32488
32489
32486
32494
32492
32497
32500
32500
32506
32500
32508
32510
32512
32517
32524
32518
32532
32533
32548
32534
32534
32540
32541
32541
32544
32548
32549
32561
32557
32556
32558
32560
32558
32552
32566
32565
32572
32568
32580
32571
32572
32580
32569
32568
32570
32576
32576
32580
32580
32590
32588
32588
32578
32590
32582
32585
32582
32586
32584
32588
32592
32590
32592
32588
32589
32590
32578
32582
32588
32577
32580
32584
32578
32584
32581
32572
32576
32586
32588
32581
32576
32578
32572
32573
32573
32578
32576
32565
32570
32572
32572
32572
32565
32558
32566
32566
32556
32566
32566
32572
32566
32567
32565
32564
32558
32560
32566
32568
32560
32564
32570
32564
32562
32568
32562
32574
32568
32568
32570
32572
32570
32568
32568
32578
32572
32570
32569
32566
32566
32574
32568
32564
32560
32564
32572
32572
32568
32568
32570
32572
32556
32564
32572
32568
32568
32564
32560
32560
32566
32576
32564
32561
32556
32566
32552
32556
32557
32559
32559
32556
32572
32546
32548
32540
32540
32540
32533
32540
32548
32544
32540
32540
32546
32532
32524
32528
32533
32540
32524
32526
32516
32512
32526
32509
32512
32514
32518
32508
32511
32506
32505
32500
32501
32500
32488
32489
32496
32494
32492
32487
32488
32478
32482
32480
32474
32472
32468
32458
32468
32465
32461
32462
32461
32453
32450
32448
32448
32448
32447
32444
32440
32442
32440
32436
32428
32429
32432
32428
32428
32424
32420
32414
32417
32408
32415
32416
32407
32405
32396
32400
32404
32406
32398
32398
32391
32396
32392
32384
32385
32380
32381
32376
32380
32372
32380
32378
32382
32380
32375
32374
32376
32376
32380
32378
32376
32380
32380
32380
32373
32375
32375
32388
32380
32377
32388
32380
32386
32392
32397
32388
32388
32392
32405
32400
32404
32402
32401
32398
32402
32409
32406
32408
32412
32416
32413
32431
32428
32436
32440
32432
32446
32444
32446
32452
32448
32453
32456
32469
32456
32459
32470
32464
32472
32472
32480
32484
32488
32484
32484
32492
32494
32510
32504
32508
32512
32512
32522
32520
32530
32521
32524
32528
32540
32540
32537
32541
32552
32548
32549
32552
32560
32556
32560
32564
32564
32568
32574
32568
32574
32572
32577
32582
32599
32588
32596
32596
32594
32593
32604
32608
32628
32612
32617
32628
32620
32620
32628
32623
32624
32622
32633
32636
32636
32636
32632
32644
32636
32650
32648
32648
32645
32656
32648
32662
32652
32662
32662
32668
32673
32673
32672
32678
32672
32674
32668
32676
32684
32678
32694
32688
32685
32692
32698
32700
32700
32692
32700
32700
32700
32692
32695
32694
32697
32700
32696
32704
32708
32713
32705
32711
32708
32716
32718
32712
32718
32717
32712
32714
32710
32720
32720
32728
32735
32728
32728
32724
32720
32727
32728
32736
32732
32733
32736
32735
32732
32730
32732
32732
32740
32736
32736
32738
32735
32732
32737
32728
32732
32740
32741
32732
32740
32728
32734
32728
32724
32719
32724
32726
32728
32724
32718
32720
32722
32727
32724
32727
32720
32720
32716
32728
32726
32716
32716
32710
32705
32714
32709
32712
32700
32704
32698
32705
32700
32694
32696
32692
32688
32697
32692
32688
32676
32680
32676
32677
32672
32662
32664
32662
32666
32648
32648
32644
32646
32646
32640
32636
32632
32634
32632
32628
32620
32612
32612
32600
32609
32598
32605
32596
32596
32588
32590
32584
32579
32568
32560
32562
32560
32556
32556
32552
32553
32548
32548
32536
32533
32541
32535
32530
32522
32532
32526
32524
32516
32506
32516
32524
32524
32518
32520
32516
32513
32510
32508
32502
32508
32517
32520
32516
32514
32520
32518
32512
32516
32524
32527
32524
32520
32537
32529
32536
32529
32544
32534
32536
32537
32549
32549
32556
32555
32545
32559
32560
32560
32566
32576
32572
32568
32578
32584
32584
32588
32592
32592
32596
32598
32596
32604
32610
32612
32612
32612
32624
32621
32628
32630
32640
32634
32648
32646
32644
32644
32646
32660
32661
32664
32672
32668
32668
32672
32676
32688
32696
32696
32693
32700
32701
32710
32704
32705
32710
32713
32722
32724
32724
32728
32722
32728
32736
32736
32734
32740
32743
32746
32750
32748
32751
32752
32747
32756
32752
32768
32760
32770
32768
32772
32777
32774
32778
32768
32782
32784
32774
32788
32792
32788
32780
32775
32776
32793
32788
32790
32784
32780
32772
32772
32769
32776
32774
32772
32764
32756
32757
32760
32750
32756
32750
32750
32748
32750
32744
32738
32735
32733
32732
32732
32716
32728
32720
32718
32716
32706
32706
32698
32698
32704
32692
32687
32690
32686
32682
32673
32676
32681
32672
32668
32664
32670
32664
32645
32648
32650
32648
32655
32653
32648
32644
32640
32638
32640
32636
32633
32634
32640
32636
32628
32630
32622
32622
32624
32625
32620
32628
32634
32623
32622
32630
32622
32622
32626
32630
32625
32628
32628
32620
32629
32624
32636
32634
32628
32636
32632
32623
32632
32628
32638
32644
32632
32644
32646
32646
32641
32644
32646
32650
32644
32648
32644
32648
32652
32660
32652
32656
32664
32668
32664
32659
32663
32672
32673
32672
32666
32656
32668
32668
32670
32682
32684
32678
32684
32676
32680
32688
32684
32690
32690
32692
32696
32692
32698
32692
32701
32692
32693
32704
32700
32704
32702
32704
32704
32707
32705
32708
32708
32712
32705
32708
32712
32722
32712
32714
32712
32712
32710
32714
32720
32709
32708
32709
32712
32712
32710
32709
32712
32710
32704
32711
32708
32702
32712
32709
32704
32700
32698
32704
32693
32688
32698
32700
32692
32693
32676
32686
32684
32682
32680
32684
32689
32680
32672
32676
32666
32672
32668
32668
32670
32670
32668
32662
32656
32656
32656
32652
32652
32648
32658
32664
32650
32660
32660
32655
32654
32656
32660
32653
32654
32667
32664
32664
32666
32664
32668
32670
32676
32676
32672
32682
32688
32692
32700
32702
32710
32712
32712
32720
32732
32732
32738
32739
32752
32756
32780
32768
32777
32791
32798
32805
32820
32833
32839
32846
32860
32868
32876
32880
32882
32905
32908
32918
32936
32944
32952
32970
32976
32985
33002
33006
33022
33028
33052
33060
33062
33076
33092
33097
33112
33124
33134
33148
33152
33168
33177
33184
33196
33205
33224
33232
33252
33260
33269
33288
33292
33306
33317
33330
33340
33348
33356
33378
33380
33384
33412
33408
33420
33425
33452
33460
33472
33490
33492
33508
33510
33524
33530
33540
33556
33556
33570
33580
33586
33604
33608
33614
33631
33644
33646
33652
33672
33686
33689
33708
33716
33721
33733
33732
33752
33760
33768
33776
33788
33788
33798
33812
33818
33834
33828
33844
33854
33858
33857
33873
33882
33896
33900
33913
33918
33921
33934
33940
33940
33949
33956
33962
33970
33974
33984
33985
33996
34000
33996
34009
34008
34020
34026
34034
34032
34046
34041
34042
34046
34072
34065
34076
34076
34077
34084
34086
34092
34100
34100
34096
34094
34100
34100
34096
34106
34104
34104
34104
34108
34104
34108
34108
34114
34110
34112
34094
34108
34108
34114
34110
34106
34105
34092
34098
34095
34092
34081
34078
34080
34068
34076
34066
34068
34064
34056
34060
34062
34044
34045
34040
34032
34024
34032
34024
34020
34014
34001
34002
33996
33988
33980
33968
33976
33982
33972
33964
33964
33948
33944
33940
33941
33940
33932
33924
33916
33905
33901
33888
33894
33896
33881
33884
33872
33870
33868
33861
33853
33850
33836
33832
33822
33812
33820
33800
33788
33788
33778
33772
33764
33756
33735
33742
33732
33732
33710
33704
33696
33684
33676
33676
33668
33648
33652
33635
33618
33616
33604
33596
33585
33560
33564
33552
33540
33530
33512
33508
33494
33480
33476
33464
33450
33444
33425
33421
33412
33391
33384
33372
33344
33346
33328
33316
33312
33301
33284
33277
33252
33250
33236
33220
33204
33186
33181
33169
33150
33153
33124
33116
33100
33080
33075
33053
33045
33036
33024
33012
32989
32986
32968
32956
32948
32932
32922
32912
32892
32880
32872
32868
32856
32839
32825
32813
32814
32797
32789
32776
32770
32756
32740
32741
32733
32726
32708
32704
32688
32676
32668
32656
32652
32640
32638
32624
32609
32604
32600
32592
32580
32576
32561
32559
32540
32537
32524
32532
32512
32502
32498
32487
32483
32472
32468
32452
32444
32436
32435
32436
32420
32415
32408
32404
32394
32372
32369
32370
32353
32351
32342
32332
32330
32326
32314
32298
32296
32294
32288
32274
32270
32257
32252
32241
32248
32232
32220
32224
32204
32196
32188
32190
32172
32172
32164
32156
32150
32134
32136
32136
32126
32112
32105
32101
32100
32084
32080
32080
32076
32062
32060
32048
32036
32037
32036
32021
32021
32022
32004
31998
31988
31985
31968
31964
31956
31957
31953
31940
31938
31930
31919
31920
31912
31908
31892
31889
31884
31873
31866
31865
31867
31860
31848
31834
31836
31820
31816
31817
31820
31802
31804
31792
31785
31776
31774
31776
31756
31754
31745
31735
31734
31725
31716
31712
31712
31704
31684
31684
31672
31660
31656
31648
31636
31628
31622
31614
31609
31596
31594
31597
31580
31568
31568
31556
31556
31543
31536
31536
31519
31520
31514
31500
31490
31486
31480
31474
31466
31458
31460
31456
31448
31452
31436
31430
31438
31424
31418
31416
31400
31408
31388
31391
31390
31380
31373
31368
31358
31356
31348
31355
31340
31335
31324
31328
31320
31320
31312
31302
31308
31295
31286
31284
31276
31266
31262
31264
31268
31254
31246
31246
31232
31237
31228
31225
31218
31212
31206
31199
31205
31196
31192
31188
31184
31180
31173
31161
31164
31153
31156
31143
31148
31140
31128
31116
31119
31109
31106
31100
31104
31092
31096
31090
31080
31073
31070
31060
31060
31054
31052
31046
31044
31038
31038
31031
31024
31017
31010
31004
31010
31000
30993
30988
30980
30988
30980
30972
30964
30960
30960
30953
30956
30948
30944
30940
30927
30932
30916
30924
30908
30916
30904
30916
30896
30893
30886
30880
30878
30878
30874
30868
30864
30862
30852
30852
30852
30845
30844
30838
30838
30832
30825
30820
30814
30818
30798
30810
30812
30808
30790
30792
30791
30792
30794
30788
30780
30776
30780
30768
30766
30760
30754
30754
30756
30756
30745
30752
30746
30740
30736
30742
30748
30740
30736
30732
30732
30728
30728
30724
30720
30717
30720
30721
30710
30702
30705
30705
30712
30706
30708
30712
30702
30714
30706
30692
30703
30704
30704
30689
30694
30696
30694
30692
30688
30688
30689
30674
30681
30681
30686
30680
30687
30684
30680
30680
30672
30674
30670
30657
30668
30664
30661
30660
30664
30648
30665
30654
30652
30652
30643
30648
30650
30647
30644
30638
30636
30631
30628
30623
30622
30628
30628
30624
30610
30618
30612
30617
30612
30606
30607
30596
30604
30598
30596
30598
30589
30592
30584
30588
30585
30572
30578
30573
30566
30564
30562
30560
30558
30560
30561
30564
30552
30557
30556
30548
30550
30540
30536
30550
30536
30543
30540
30532
30532
30528
30529
30530
30516
30527
30524
30516
30520
30524
30520
30520
30522
30525
30517
30509
30507
30508
30512
30504
30506
30512
30511
30522
30508
30512
30513
30504
30514
30508
30510
30501
30508
30505
30494
30502
30504
30496
30496
30501
30500
30496
30496
30502
30504
30504
30504
30500
30504
30500
30500
30492
30493
30492
30488
30492
30484
30480
30488
30480
30490
30488
30484
30481
30480
30468
30476
30460
30468
30464
30468
30466
30472
30468
30461
30456
30456
30463
30460
30448
30468
30450
30460
30460
30452
30448
30449
30454
30448
30447
30456
30449
30460
30453
30452
30448
30447
30440
30434
30436
30439
30428
30428
30426
30430
30437
30438
30432
30432
30430
30432
30429
30424
30424
30424
30420
30416
30424
30417
30417
30420
30416
30414
30409
30410
30406
30404
30404
30406
30407
30404
30412
30410
30408
30401
30401
30400
30397
30400
30400
30398
30402
30404
30404
30396
30404
30392
30398
30399
30393
30400
30400
30398
30400
30399
30410
30409
30404
30412
30410
30416
30414
30410
30416
30422
30420
30430
30431
30432
30437
30436
30448
30445
30447
30453
30452
30450
30444
30452
30460
30464
30460
30470
30480
30480
30480
30481
30480
30488
30488
30488
30503
30504
30508
30517
30520
30516
30529
30532
30540
30540
30540
30556
30546
30564
30564
30576
30576
30572
30592
30592
30596
30600
30607
30613
30626
30624
30630
30644
30645
30641
30654
30660
30672
30676
30682
30692
30692
30702
30700
30708
30716
30717
30719
30729
30736
30744
30750
30746
30760
30756
30776
30770
30772
30784
30784
30792
30802
30808
30804
30812
30820
30820
30828
30832
30828
30840
30836
30844
30854
30848
30855
30860
30853
30860
30863
30868
30870
30874
30889
30890
30892
30886
30892
30892
30910
30908
30900
30905
30910
30910
30920
30922
30922
30930
30928
30937
30935
30948
30948
30948
30948
30952
30950
30948
30956
30951
30964
30952
30956
30960
30964
30965
30968
30968
30972
30968
30969
30970
30972
30972
30985
30984
30980
30984
30980
30976
30976
30978
30984
30980
30984
30990
30996
30990
30992
30992
30996
30998
31006
31008
31012
31000
31005
30998
31004
31006
31012
31004
31020
31008
31020
31012
31012
31016
31024
31020
31014
31024
31028
31033
31038
31033
31041
31040
31040
31042
31044
31047
31044
31046
31042
31050
31056
31045
31060
31068
31076
31072
31074
31070
31074
31084
31076
31084
31090
31092
31088
31088
31089
31086
31100
31102
31100
31107
31112
31109
31119
31114
31126
31119
31120
31128
31125
31136
31134
31138
31144
31144
31145
31142
31148
31153
31156
31151
31164
31174
31176
31168
31174
31173
31173
31176
31180
31182
31182
31184
31194
31182
31180
31186
31184
31193
31188
31202
31197
31192
31201
31199
31200
31199
31196
31208
31212
31204
31220
31206
31210
31212
31212
31214
31214
31208
31218
31216
31215
31222
31228
31226
31220
31222
31224
31236
31221
31222
31223
31236
31236
31230
31229
31236
31244
31234
31232
31236
31237
31236
31240
31245
31248
31244
31255
31256
31252
31254
31253
31260
31257
31258
31260
31256
31256
31262
31256
31268
31268
31274
31268
31277
31276
31269
31272
31280
31292
31296
31292
31287
31286
31292
31292
31296
31305
31306
31308
31308
31305
31313
31314
31320
31332
31329
31326
31332
31332
31340
31340
31338
31340
31336
31340
31349
31349
31352
31349
31356
31364
31372
31368
31368
31370
31372
31376
31382
31382
31392
31385
31386
31384
31388
31396
31393
31384
31397
31398
31394
31408
31406
31398
31394
31410
31420
31418
31404
31412
31414
31420
31421
31424
31426
31421
31420
31424
31427
31430
31434
31436
31432
31426
31428
31431
31436
31452
31436
31454
31440
31447
31448
31438
31452
31445
31452
31462
31454
31453
31464
31458
31464
31457
31468
31473
31468
31472
31464
31470
31474
31472
31480
31480
31492
31474
31490
31482
31490
31480
31486
31486
31486
31496
31489
31502
31498
31500
31500
31502
31502
31495
31494
31502
31510
31503
31508
31508
31508
31504
31508
31511
31516
31513
31508
31520
31521
31516
31516
31508
31518
31524
31524
31518
31516
31524
31524
31518
31525
31520
31526
31520
31523
31528
31529
31526
31524
31521
31528
31525
31520
31525
31526
31524
31516
31522
31524
31524
31516
31504
31510
31521
31524
31520
31520
31514
31512
31524
31512
31508
31509
31506
31500
31496
31503
31509
31500
31488
31489
31498
31496
31501
31495
31490
31485
31486
31484
31492
31481
31484
31476
31469
31474
31473
31473
31468
31462
31460
31456
31455
31462
31454
31460
31456
31460
31450
31448
31446
31448
31444
31444
31440
31436
31442
31444
31430
31442
31442
31445
31440
31444
31436
31445
31436
31435
31440
31442
31441
31444
31432
31444
31454
31438
31444
31444
31448
31442
31440
31446
31454
31454
31448
31458
31448
31448
31456
31454
31464
31457
31462
31454
31461
31464
31471
31472
31464
31468
31468
31460
31476
31476
31470
31476
31474
31468
31484
31482
31482
31485
31480
31483
31482
31485
31486
31484
31492
31490
31484
31487
31488
31494
31502
31504
31505
31504
31508
31516
31516
31508
31516
31510
31517
31512
31514
31510
31516
31520
31512
31524
31520
31518
31517
31518
31524
31526
31530
31534
31530
31526
31528
31540
31530
31532
31532
31534
31542
31537
31552
31552
31553
31548
31544
31550
31550
31550
31551
31559
31556
31548
31554
31560
31556
31556
31556
31552
31552
31552
31556
31562
31568
31564
31564
31557
31564
31564
31572
31572
31576
31576
31580
31576
31568
31568
31576
31577
31574
31574
31577
31580
31574
31573
31573
31573
31573
31574
31569
31584
31580
31581
31574
31577
31570
31580
31577
31569
31576
31580
31573
31580
31582
31580
31586
31584
31572
31583
31592
31589
31592
31589
31600
31592
31599
31608
31604
31604
31604
31605
31598
31604
31604
31604
31612
31604
31614
31615
31620
31618
31608
31616
31609
31622
31620
31624
31615
31620
31620
31620
31621
31616
31620
31622
31622
31624
31625
31614
31621
31622
31626
31628
31620
31634
31630
31629
31624
31628
31628
31632
31630
31629
31639
31636
31636
31636
31632
31630
31636
31636
31642
31629
31628
31636
31628
31628
31628
31640
31630
31638
31633
31639
31624
31628
31628
31632
31636
31620
31620
31620
31619
31620
31615
31614
31616
31613
31612
31611
31614
31608
31601
31607
31610
31598
31604
31590
31596
31592
31588
31591
31578
31584
31583
31574
31569
31567
31580
31568
31576
31553
31556
31562
31552
31556
31548
31548
31540
31542
31536
31536
31536
31532
31524
31519
31522
31519
31513
31516
31504
31514
31504
31504
31496
31497
31488
31496
31488
31480
31484
31469
31468
31465
31464
31462
31456
31452
31446
31438
31442
31445
31444
31436
31436
31429
31422
31424
31417
31422
31412
31413
31412
31404
31402
31400
31396
31396
31392
31390
31386
31377
31374
31375
31369
31374
31368
31364
31368
31364
31365
31356
31356
31356
31350
31348
31353
31340
31344
31338
31334
31334
31332
31326
31324
31324
31312
31327
31316
31319
31318
31316
31308
31300
31302
31300
31301
31300
31294
31285
31288
31285
31280
31272
31276
31264
31268
31262
31252
31260
31252
31256
31254
31244
31246
31238
31242
31240
31248
31240
31236
31236
31232
31238
31236
31228
31234
31228
31224
31230
31230
31224
31224
31212
31212
31213
31212
31206
31204
31204
31200
31198
31194
31194
31190
31184
31184
31177
31178
31180
31182
31174
31173
31167
31156
31164
31160
31156
31148
31149
31145
31150
31140
31132
31130
31132
31125
31124
31128
31120
31112
31110
31112
31108
31100
31092
31096
31092
31093
31086
31086
31078
31072
31074
31074
31072
31068
31056
31060
31052
31044
31044
31034
31032
31032
31037
31024
31028
31016
31012
31009
31006
30996
30991
30983
30982
30981
30972
30968
30966
30960
30960
30952
30948
30946
30940
30936
30934
30927
30922
30924
30918
30909
30909
30898
30900
30895
30889
30888
30878
30879
30876
30868
30872
30872
30856
30858
30849
30848
30841
30836
30830
30836
30820
30820
30816
30812
30814
30804
30806
30792
30796
30784
30788
30780
30784
30778
30776
30778
30766
30758
30761
30756
30741
30748
30742
30740
30732
30726
30724
30727
30712
30718
30711
30710
30708
30697
30696
30690
30688
30692
30682
30672
30668
30664
30660
30657
30656
30659
30650
30660
30641
30638
30634
30624
30623
30620
30622
30612
30600
30608
30596
30600
30586
30584
30578
30578
30580
30568
30566
30548
30557
30562
30558
30546
30536
30544
30532
30522
30520
30517
30514
30508
30508
30498
30487
30484
30484
30481
30482
30476
30474
30470
30472
30460
30453
30450
30445
30440
30432
30434
30436
30429
30424
30418
30420
30416
30412
30410
30404
30388
30390
30396
30393
30384
30375
30374
30372
30362
30360
30362
30348
30343
30344
30340
30340
30340
30336
30326
30324
30315
30316
30308
30301
30304
30298
30293
30292
30284
30282
30282
30274
30268
30256
30260
30256
30248
30246
30248
30240
30240
30236
30232
30221
30218
30214
30212
30198
30200
30186
30184
30180
30184
30177
30170
30174
30168
30156
30159
30148
30148
30140
30137
30139
30132
30128
30129
30116
30122
30108
30112
30096
30092
30096
30084
30085
30088
30076
30078
30075
30076
30072
30064
30054
30050
30048
30044
30044
30045
30028
30032
30028
30022
30019
30016
30004
30004
30008
30008
30002
29996
29998
29996
29990
29985
29980
29973
29970
29968
29964
29960
29956
29953
29954
29953
29944
29942
29940
29925
29925
29924
29929
29920
29921
29908
29902
29904
29896
29902
29892
29890
29884
29882
29881
29879
29872
29868
29860
29852
29854
29856
29844
29844
29833
29828
29831
29822
29826
29815
29806
29800
29794
29796
29784
29789
29777
29768
29772
29760
29760
29762
29757
29744
29740
29740
29730
29718
29720
29712
29705
29700
29692
29700
29685
29681
29676
29668
29664
29656
29650
29637
29628
29628
29623
29620
29605
29601
29600
29592
29588
29578
29580
29580
29564
29556
29554
29550
29552
29532
29522
29521
29521
29505
29500
29492
29492
29485
29476
29482
29460
29458
29448
29439
29432
29428
29425
29412
29412
29404
29393
29384
29381
29380
29367
29360
29348
29348
29341
29336
29332
29320
29316
29315
29303
29294
29284
29287
29281
29269
29270
29256
29256
29246
29242
29228
29216
29216
29210
29204
29196
29199
29182
29178
29172
29174
29162
29153
29154
29148
29146
29136
29130
29132
29132
29121
29117
29118
29108
29100
29101
29101
29097
29089
29088
29082
29081
29080
29076
29072
29068
29060
29050
29048
29053
29036
29036
29031
29028
29020
29012
29005
29006
28996
29004
28986
28988
28980
28976
28974
28966
28956
28948
28956
28953
28944
28940
28930
28932
28932
28918
28916
28913
28904
28898
28896
28888
28882
28881
28876
28876
28866
28868
28858
28848
28844
28842
28844
28837
28828
28816
28814
28804
28800
28796
28796
28789
28788
28777
28772
28764
28752
28749
28752
28741
28736
28736
28724
28716
28712
28708
28696
28684
28677
28668
28664
28660
28657
28648
28639
28646
28636
28630
28629
28621
28609
28606
28606
28588
28584
28578
28564
28564
28560
28552
28545
28541
28540
28524
28520
28526
28516
28506
28500
28502
28498
28484
28476
28481
28463
28468
28452
28442
28456
28452
28436
28432
28428
28426
28418
28414
28408
28404
28398
28392
28384
28384
28374
28368
28368
28364
28372
28359
28357
28352
28346
28337
28340
28335
28328
28324
28326
28317
28316
28308
28316
28303
28302
28302
28293
28295
28285
28284
28284
28284
28274
28269
28270
28276
28268
28265
28260
28258
28256
28252
28246
28246
28238
28244
28236
28236
28232
28229
28228
28221
28226
28217
28222
28222
28210
28204
28204
28208
28208
28204
28206
28200
28196
28192
28194
28192
28190
28186
28192
28180
28181
28174
28180
28177
28172
28172
28166
28164
28164
28164
28160
28158
28152
28150
28144
28136
28144
28140
28136
28140
28142
28138
28136
28144
28142
28128
28140
28140
28140
28141
28132
28132
28132
28128
28138
28132
28124
28128
28126
28120
28126
28128
28128
28128
28132
28132
28118
28124
28119
28124
28118
28117
28120
28116
28114
28106
28108
28100
28107
28104
28096
28098
28096
28092
28086
28092
28088
28085
28086
28089
28090
28084
28076
28072
28071
28069
28072
28074
28068
28072
28068
28074
28068
28056
28060
28066
28066
28066
28068
28056
28060
28056
28060
28058
28052
28046
28052
28060
28052
28054
28052
28044
28044
28046
28044
28052
28052
28044
28040
28040
28038
28038
28040
28048
28040
28032
28040
28036
28047
28044
28039
28041
28036
28036
28036
28032
28042
28044
28040
28048
28046
28036
28036
28042
28044
28038
28036
28036
28032
28039
28050
28036
28048
28042
28044
28044
28040
28044
28044
28048
28052
28052
28053
28052
28050
28052
28056
28057
28048
28044
28057
28056
28058
28058
28062
28054
28062
28061
28066
28066
28064
28068
28068
28065
28066
28068
28068
28076
28076
28076
28079
28072
28068
28076
28072
28084
28080
28088
28088
28077
28092
28090
28086
28092
28086
28090
28096
28100
28094
28095
28092
28088
28092
28096
28110
28106
28104
28104
28111
28104
28108
28110
28106
28112
28107
28110
28104
28122
28112
28122
28114
28116
28117
28117
28124
28128
28116
28117
28129
28132
28128
28128
28132
28132
28128
28132
28134
28129
28135
28124
28133
28133
28136
28140
28132
28138
28132
28132
28138
28146
28138
28138
28134
28132
28137
28140
28137
28136
28146
28140
28148
28150
28146
28153
28146
28140
28148
28144
28148
28146
28154
28148
28148
28140
28152
28148
28158
28150
28145
28149
28147
28154
28156
28158
28154
28148
28164
28164
28156
28154
28150
28154
28160
28160
28166
28154
28160
28162
28156
28165
28165
28166
28160
28164
28161
28168
28174
28167
28166
28166
28164
28172
28160
28167
28160
28170
28166
28174
28172
28172
28168
28170
28169
28172
28172
28179
28174
28176
28180
28172
28188
28186
28184
28177
28180
28184
28182
28185
28192
28196
28192
28192
28192
28198
28201
28201
28200
28204
28208
28206
28214
28204
28212
28209
28216
28216
28212
28224
28228
28225
28228
28226
28224
28230
28236
28238
28236
28241
28240
28252
28256
28248
28257
28260
28260
28268
28278
28264
28272
28280
28272
28280
28284
28289
28294
28298
28300
28310
28313
28308
28309
28324
28326
28324
28328
28334
28344
28346
28353
28352
28356
28361
28362
28362
28368
28380
28382
28380
28394
28398
28397
28404
28406
28406
28408
28418
28413
28414
28422
28420
28432
28434
28444
28444
28450
28442
28450
28452
28456
28464
28464
28468
28472
28476
28474
28480
28476
28480
28484
28492
28486
28492
28494
28492
28496
28496
28504
28508
28510
28510
28517
28518
28521
28528
28524
28533
28536
28536
28544
28537
28548
28552
28561
28563
28564
28561
28564
28565
28570
28580
28580
28576
28584
28588
28580
28578
28592
28601
28597
28592
28598
28596
28602
28604
28609
28613
28620
28628
28624
28629
28626
28623
28620
28636
28641
28636
28636
28642
28644
28645
28649
28652
28653
28655
28660
28653
28664
28668
28668
28661
28668
28672
28678
28672
28679
28672
28680
28684
28693
28690
28688
28696
28692
28710
28706
28716
28724
28716
28718
28728
28732
28735
28734
28740
28746
28741
28745
28748
28748
28764
28748
28764
28771
28768
28769
28764
28768
28776
28780
28785
28783
28774
28784
28794
28796
28792
28798
28791
28806
28796
28800
28802
28800
28812
28810
28812
28828
28816
28812
28821
28820
28820
28828
28828
28832
28828
28832
28837
28834
28836
28836
28833
28836
28846
28846
28846
28852
28852
28846
28857
28850
28852
28852
28856
28864
28866
28868
28856
28862
28860
28866
28874
28867
28868
28867
28868
28874
28872
28880
28874
28880
28879
28868
28876
28874
28880
28876
28880
28884
28876
28878
28873
28880
28886
28883
28878
28876
28880
28877
28873
28876
28885
28881
28888
28877
28881
28877
28884
28884
28878
28877
28878
28886
28878
28876
28884
28880
28882
28884
28878
28876
28876
28873
28876
28876
28876
28876
28866
28868
28881
28876
28868
28878
28866
28868
28870
28876
28872
28874
28860
28870
28882
28868
28868
28862
28868
28868
28866
28873
28858
28861
28865
28858
28856
28864
28864
28861
28863
28864
28863
28860
28860
28868
28866
28869
28866
28860
28862
28864
28866
28863
28872
28874
28870
28864
28862
28868
28868
28872
28880
28868
28871
28868
28884
28870
28874
28873
28868
28874
28876
28880
28882
28885
28878
28888
28882
28893
28902
28896
28897
28888
28896
28900
28905
28905
28900
28906
28900
28900
28916
28910
28920
28917
28920
28921
28919
28919
28924
28928
28936
28932
28940
28942
28948
28939
28940
28956
28944
28958
28958
28966
28964
28960
28970
28973
28974
28981
28981
28992
28990
28984
28996
28997
28998
29004
29016
29008
29016
29012
29008
29020
29024
29026
29028
29028
29032
29030
29032
29041
29042
29028
29040
29040
29044
29042
29040
29037
29046
29053
29050
29040
29052
29055
29060
29063
29056
29060
29063
29068
29068
29064
29061
29064
29060
29061
29068
29072
29072
29072
29078
29073
29072
29081
29084
29084
29076
29085
29082
29084
29089
29092
29092
29084
29094
29086
29084
29088
29096
29084
29086
29092
29094
29098
29092
29098
29092
29092
29100
29100
29092
29102
29097
29104
29101
29100
29100
29098
29106
29104
29109
29114
29108
29108
29110
29120
29120
29122
29116
29114
29118
29124
29120
29110
29124
29120
29121
29124
29122
29120
29124
29124
29132
29122
29132
29132
29128
29133
29128
29132
29136
29144
29141
29136
29140
29137
29148
29151
29146
29151
29154
29149
29148
29150
29158
29154
29169
29160
29161
29156
29172
29172
29170
29176
29172
29182
29172
29183
29177
29180
29184
29188
29182
29196
29188
29188
29188
29194
29193
29198
29200
29197
29207
29204
29212
29209
29212
29220
29220
29217
29220
29212
29224
29226
29230
29221
29225
29228
29236
29236
29238
29245
29240
29246
29248
29248
29252
29258
29264
29253
29266
29265
29262
29262
29269
29276
29278
29284
29292
29292
29296
29300
29292
29300
29295
29312
29312
29311
29316
29325
29316
29328
29332
29336
29345
29346
29346
29344
29357
29356
29362
29364
29380
29373
29382
29380
29382
29388
29396
29397
29398
29404
29409
29417
29416
29420
29424
29428
29428
29434
29444
29450
29452
29452
29460
29466
29470
29468
29470
29473
29484
29489
29492
29504
29500
29496
29509
29508
29520
29520
29533
29528
29532
29540
29538
29544
29551
29548
29546
29554
29568
29564
29572
29575
29572
29586
29578
29588
29588
29607
29604
29604
29612
29606
29612
29616
29616
29629
29626
29632
29636
29640
29640
29652
29660
29664
29674
29669
29668
29673
29676
29676
29688
29690
29700
29710
29708
29713
29712
29711
29714
29726
29724
29736
29736
29744
29740
29740
29757
29760
29764
29764
29777
29766
29784
29773
29786
29788
29786
29790
29794
29799
29812
29808
29820
29820
29833
29836
29837
29845
29852
29852
29858
29864
29864
29868
29872
29877
29880
29886
29892
29894
29900
29910
29909
29912
29916
29916
29922
29929
29932
29944
29943
29948
29968
29954
29964
29958
29964
29968
29976
29978
29988
29990
29996
29998
30008
30008
30009
30018
30021
30022
30020
30034
30032
30040
30044
30044
30049
30048
30060
30058
30060
30060
30068
30060
30068
30072
30084
30080
30084
30084
30096
30088
30094
30098
30098
30100
30096
30110
30102
30116
30116
30112
30116
30119
30116
30116
30126
30124
30122
30125
30124
30127
30122
30124
30126
30140
30132
30132
30128
30132
30128
30140
30140
30144
30134
30150
30144
30152
30140
30138
30156
30149
30140
30145
30136
30136
30140
30139
30140
30144
30144
30136
30148
30136
30138
30143
30152
30150
30144
30146
30148
30149
30152
30149
30152
30148
30152
30162
30152
30154
30168
30170
30167
30168
30168
30168
30178
30172
30171
30176
30182
30182
30178
30180
30180
30184
30188
30188
30194
30191
30196
30200
30200
30202
30204
30204
30216
30208
30222
30220
30228
30228
30225
30228
30238
30242
30246
30256
30254
30256
30257
30264
30266
30266
30274
30284
30284
30276
30292
30292
30290
30295
30300
30309
30311
30312
30312
30310
30316
30316
30320
30324
30324
30322
30337
30343
30340
30348
30345
30345
30350
30342
30348
30348
30353
30353
30358
30366
30368
30364
30372
30368
30366
30374
30372
30376
30380
30372
30376
30380
30380
30382
30388
30396
30384
30388
30392
30385
30394
30400
30396
30404
30399
30394
30398
30408
30406
30401
30406
30406
30410
30405
30406
30404
30408
30412
30408
30404
30412
30410
30420
30418
30414
30416
30417
30414
30416
30418
30420
30419
30418
30424
30424
30420
30418
30424
30422
30436
30428
30436
30428
30444
30440
30432
30444
30440
30440
30436
30444
30448
30446
30453
30440
30452
30447
30448
30460
30461
30450
30462
30468
30468
30480
30476
30472
30478
30480
30482
30480
30480
30480
30488
30492
30496
30496
30498
30502
30500
30504
30504
30512
30516
30516
30513
30512
30516
30520
30520
30528
30532
30532
30535
30532
30524
30538
30540
30542
30542
30544
30545
30548
30548
30549
30552
30564
30564
30562
30556
30562
30565
30572
30566
30577
30568
30576
30576
30582
30584
30576
30588
30588
30590
30592
30590
30590
30596
30598
30602
30607
30608
30608
30604
30616
30614
30618
30610
30606
30608
30608
30616
30617
30620
30616
30622
30624
30623
30625
30624
30620
30624
30624
30632
30629
30629
30630
30628
30628
30620
30628
30632
30633
30632
30632
30638
30639
30641
30648
30637
30646
30639
30652
30649
30650
30654
30654
30653
30648
30648
30656
30664
30657
30657
30652
30660
30656
30652
30656
30654
30658
30660
30656
30654
30656
30656
30656
30660
30666
30656
30650
30656
30658
30654
30654
30653
30658
30649
30658
30657
30654
30658
30656
30660
30660
30660
30660
30656
30660
30656
30656
30664
30668
30668
30664
30664
30652
30668
30662
30670
30672
30662
30672
30668
30666
30674
30672
30668
30668
30671
30676
30672
30672
30678
30676
30678
30680
30676
30676
30684
30684
30681
30680
30684
30686
30680
30688
30684
30684
30684
30684
30681
30692
30693
30692
30686
30687
30697
30701
30700
30703
30698
30700
30703
30698
30701
30700
30702
30701
30704
30704
30702
30705
30708
30704
30716
30708
30718
30716
30724
30721
30716
30732
30728
30728
30728
30730
30732
30724
30726
30721
30728
30740
30746
30744
30740
30748
30740
30736
30748
30748
30753
30756
30753
30748
30758
30758
30760
30761
30754
30767
30764
30769
30772
30776
30780
30776
30772
30778
30780
30776
30786
30788
30788
30790
30788
30780
30784
30787
30796
30794
30792
30790
30792
30794
30797
30804
30789
30797
30800
30804
30806
30800
30800
30802
30805
30800
30796
30816
30808
30813
30800
30810
30808
30812
30812
30813
30820
30812
30812
30808
30806
30812
30816
30808
30812
30818
30822
30813
30821
30820
30818
30812
30820
30808
30807
30817
30820
30826
30828
30822
30820
30821
30821
30824
30820
30816
30823
30820
30820
30820
30820
30818
30816
30816
30817
30823
30828
30828
30812
30818
30814
30810
30812
30820
30814
30816
30812
30818
30804
30812
30810
30809
30812
30810
30812
30808
30804
30804
30800
30800
30796
30796
30797
30805
30790
30788
30788
30788
30784
30788
30772
30780
30780
30772
30774
30770
30776
30764
30764
30762
30764
30757
30761
30760
30756
30742
30740
30748
30744
30736
30734
30740
30736
30734
30733
30724
30724
30716
30716
30716
30709
30705
30703
30696
30689
30692
30692
30682
30685
30679
30673
30671
30676
30672
30661
30653
30658
30654
30646
30655
30636
30640
30628
30624
30628
30620
30612
30615
30612
30610
30616
30600
30602
30596
30602
30588
30590
30586
30580
30570
30564
30569
30566
30558
30564
30567
30556
30555
30554
30545
30545
30545
30536
30540
30535
30532
30528
30526
30524
30524
30516
30520
30513
30510
30512
30508
30503
30500
30500
30489
30498
30484
30497
30488
30480
30476
30472
30470
30466
30462
30460
30456
30456
30456
30444
30454
30438
30436
30440
30444
30428
30427
30422
30420
30410
30407
30406
30404
30396
30400
30396
30392
30392
30385
30384
30380
30376
30378
30366
30372
30358
30356
30361
30353
30349
30351
30344
30342
30340
30337
30333
30320
30328
30319
30319
30308
30304
30308
30307
30296
30302
30296
30288
30288
30284
30280
30280
30276
30272
30262
30258
30254
30240
30240
30236
30230
30218
30228
30216
30215
30217
30208
30206
30196
30194
30196
30180
30181
30178
30172
30166
30154
30152
30157
30143
30140
30127
30126
30132
30116
30114
30112
30104
30093
30096
30093
30088
30078
30069
30068
30054
30055
30034
30037
30028
30020
30012
30001
29996
30002
29984
29985
29984
29978
29969
29960
29954
29948
29938
29937
29930
29926
29920
29915
29912
29896
29894
29892
29888
29884
29875
29878
29870
29854
29856
29848
29844
29838
29828
29820
29812
29810
29797
29788
29783
29774
29770
29761
29756
29760
29742
29728
29732
29721
29717
29697
29703
29700
29684
29674
29672
29664
29655
29640
29636
29628
29625
29618
29608
29602
29592
29592
29585
29574
29566
29564
29559
29546
29539
29532
29526
29520
29503
29501
29489
29478
29469
29464
29454
29444
29434
29428
29428
29412
29404
29392
29389
29384
29376
29360
29350
29348
29332
29326
29323
29308
29308
29300
29287
29276
29271
29268
29246
29250
29238
29224
29218
29208
29205
29204
29189
29180
29180
29162
29150
29144
29134
29130
29124
29111
29104
29097
29092
29081
29073
29068
29064
29061
29050
29038
29032
29023
29021
29012
29010
28997
28998
28986
28982
28982
28970
28969
28959
28953
28948
28937
28940
28927
28924
28922
28924
28906
28900
28896
28892
28892
28880
28880
28868
28860
28857
28854
28850
28860
28846
28839
28840
28836
28836
28830
28822
28816
28808
28813
28800
28805
28788
28783
28782
28781
28769
28772
28769
28766
28766
28764
28766
28753
28748
28750
28745
28736
28738
28732
28729
28720
28729
28724
28712
28717
28708
28710
28716
28704
28704
28702
28702
28705
28698
28694
28700
28694
28686
28688
28687
28684
28685
28676
28673
28670
28676
28670
28666
28661
28668
28661
28660
28668
28662
28666
28658
28662
28654
28664
28656
28652
28654
28652
28654
28653
28646
28648
28656
28648
28652
28648
28653
28654
28654
28654
28650
28654
28660
28660
28652
28652
28652
28645
28644
28644
28648
28650
28648
28648
28636
28632
28636
28636
28636
28628
28625
28633
28626
28617
28620
28618
28620
28602
28610
28596
28599
28592
28594
28586
28584
28581
28575
28576
28577
28576
28571
28566
28562
28550
28553
28559
28548
28544
28544
28534
28534
28528
28524
28536
28521
28516
28508
28514
28505
28512
28502
28494
28490
28486
28485
28484
28476
28476
28469
28457
28460
28458
28450
28452
28456
28445
28448
28432
28433
28426
28420
28418
28416
28408
28408
28397
28402
28396
28391
28388
28389
28380
28384
28380
28378
28368
28368
28356
28354
28351
28352
28343
28340
28336
28340
28332
28324
28325
28332
28324
28321
28324
28316
28316
28316
28318
28308
28308
28296
28292
28293
28290
28293
28292
28288
28289
28288
28287
28278
28282
28274
28268
28278
28272
28260
28265
28270
28268
28260
28260
28256
28248
28253
28246
28248
28254
28248
28246
28240
28240
28244
28232
28229
28234
28232
28232
28224
28228
28219
28220
28212
28226
28216
28216
28220
28220
28209
28215
28205
28204
28201
28196
28198
28199
28196
28196
28196
28196
28196
28192
28189
28192
28183
28180
28178
28182
28186
28174
28180
28173
28174
28176
28169
28172
28174
28168
28170
28160
28161
28156
28156
28157
28152
28156
28142
28148
28144
28144
28148
28146
28135
28138
28141
28126
28128
28124
28124
28116
28126
28120
28124
28116
28117
28120
28110
28110
28110
28106
28103
28098
28102
28100
28098
28100
28100
28100
28090
28098
28096
28092
28092
28079
28090
28089
28090
28090
28095
28088
28096
28084
28084
28085
28090
28089
28084
28088
28092
28088
28090
28097
28088
28090
28092
28088
28092
28089
28089
28088
28086
28092
28084
28099
28096
28097
28102
28094
28093
28092
28100
28092
28102
28101
28096
28091
28096
28098
28092
28094
28088
28090
28094
28089
28085
28086
28088
28088
28082
28090
28084
28088
28082
28076
28082
28076
28080
28080
28083
28069
28068
28065
28060
28062
28065
28061
28062
28052
28048
28047
28052
28046
28048
28046
28038
28040
28036
28032
28032
28029
28024
28026
28020
28012
28014
28023
28006
28004
28012
28006
27991
28000
28001
27996
27990
27991
27988
27980
27973
27974
27970
27968
27960
27962
27964
27966
27960
27964
27956
27960
27956
27957
27954
27956
27956
27948
27941
27952
27943
27948
27946
27948
27950
27940
27942
27944
27944
27945
27950
27956
27953
27951
27951
27958
27953
27948
27957
27960
27972
27964
27961
27960
27962
27964
27972
27976
27976
27976
27975
27981
27992
27984
27984
27994
28000
28000
28000
27998
28004
28012
28005
28004
28016
28010
28015
28024
28026
28022
28024
28032
28038
28041
28042
28044
28042
28048
28052
28052
28063
28062
28062
28061
28068
28069
28076
28074
28072
28073
28072
28082
28078
28086
28089
28086
28085
28084
28094
28090
28097
28092
28101
28100
28096
28098
28104
28112
28102
28106
28112
28108
28108
28112
28119
28113
28108
28118
28122
28116
28122
28122
28126
28128
28124
28138
28132
28132
28140
28136
28134
28142
28144
28148
28154
28156
28160
28160
28160
28168
28162
28165
28166
28172
28181
28180
28191
28188
28190
28192
28204
28209
28212
28210
28224
28228
28224
28224
28232
28240
28244
28252
28256
28263
28260
28278
28268
28268
28273
28276
28284
28286
28292
28292
28293
28297
28300
28301
28304
28300
28308
28316
28310
28313
28310
28318
28328
28326
28324
28324
28336
28335
28336
28337
28342
28344
28349
28351
28352
28353
28352
28366
28354
28357
28362
28360
28360
28364
28370
28364
28377
28376
28380
28375
28380
28384
28388
28390
28388
28382
28391
28392
28389
28392
28396
28389
28404
28404
28398
28404
28397
28404
28404
28398
28408
28408
28404
28393
28404
28402
28407
28408
28408
28409
28404
28406
28416
28412
28412
28424
28418
28417
28412
28412
28412
28418
28420
28418
28408
28412
28414
28420
28418
28418
28416
28416
28422
28420
28426
28426
28436
28416
28424
28422
28423
28423
28424
28420
28424
28428
28431
28426
28430
28432
28438
28425
28433
28436
28434
28435
28430
28436
28436
28436
28440
28432
28442
28438
28440
28440
28444
28442
28448
28451
28456
28448
28453
28456
28453
28452
28456
28460
28468
28464
28472
28472
28478
28482
28476
28478
28485
28484
28484
28490
28488
28494
28492
28500
28498
28500
28496
28504
28508
28510
28511
28516
28520
28526
28524
28525
28529
28529
28533
28537
28538
28548
28548
28548
28550
28557
28565
28566
28574
28575
28580
28580
28589
28591
28598
28596
28604
28610
28611
28617
28620
28620
28629
28629
28636
28634
28645
28648
28652
28652
28663
28668
28664
28672
28678
28688
28692
28700
28700
28708
28712
28720
28728
28740
28740
28748
28747
28757
28764
28769
28772
28780
28783
28780
28794
28805
28801
28812
28816
28826
28829
28833
28835
28840
28838
28850
28856
28849
28860
28864
28868
28876
28873
28880
28876
28882
28880
28892
28892
28892
28892
28897
28900
28900
28900
28912
28916
28920
28924
28920
28922
28930
28926
28924
28924
28928
28936
28926
28930
28932
28936
28942
28945
28940
28952
28950
28960
28956
28961
28962
28964
28961
28964
28966
28960
28964
28958
28966
28972
28976
28972
28976
28977
28982
28978
28982
28979
28980
28984
28990
28988
28992
28992
28985
28988
28989
28992
28998
28996
28993
28998
28996
29009
29007
29001
29013
29012
29013
29017
29018
29020
29021
29018
29025
29028
29032
29029
29024
29028
29028
29028
29037
29028
29041
29041
29042
29044
29044
29049
29041
29048
29046
29053
29056
29054
29054
29056
29052
29060
29051
29060
29064
29069
29073
29070
29076
29066
29077
29072
29081
29079
29085
29078
29077
29076
29076
29084
29081
29082
29084
29079
29093
29092
29087
29092
29092
29096
29097
29112
29095
29106
29103
29106
29104
29108
29108
29108
29098
29112
29108
29108
29108
29111
29116
29105
29116
29118
29112
29120
29121
29118
29122
29114
29116
29116
29118
29118
29124
29121
29113
29125
29120
29124
29130
29128
29132
29132
29132
29131
29140
29136
29134
29137
29132
29138
29141
29144
29136
29142
29140
29148
29154
29148
29152
29160
29168
29160
29172
29176
29172
29176
29176
29174
29178
29188
29188
29188
29200
29189
29196
29202
29196
29220
29204
29216
29221
29225
29220
29229
29228
29236
29230
29238
29240
29248
29248
29252
29256
29254
29266
29262
29266
29276
29282
29282
29285
29294
29294
29303
29311
29320
29306
29321
29336
29330
29330
29328
29340
29348
29356
29352
29365
29368
29378
29372
29386
29394
29400
29404
29406
29412
29416
29418
29424
29428
29436
29444
29440
29448
29457
29456
29468
29475
29482
29488
29488
29503
29504
29517
29516
29520
29520
29534
29541
29546
29552
29556
29569
29574
29580
29583
29594
29592
29605
29610
29612
29628
29636
29645
29652
29660
29664
29669
29686
29689
29696
29708
29724
29728
29736
29746
29745
29764
29772
29774
29782
29796
29808
29804
29820
29828
29836
29849
29860
29874
29885
29890
29904
29912
29922
29928
29940
29948
29970
29980
29978
30000
30017
30028
30036
30049
30058
30066
30084
30096
30104
30116
30124
30140
30144
30156
30180
30192
30204
30220
30237
30244
30250
30266
30271
30288
30292
30312
30324
30332
30348
30357
30372
30384
30392
30396
30410
30430
30439
30442
30462
30470
30476
30496
30496
30511
30512
30528
30536
30544
30559
30559
30568
30575
30584
30596
30608
30616
30620
30629
30638
30654
30648
30658
30674
30676
30689
30688
30703
30704
30712
30712
30736
30736
30751
30756
30757
30764
30776
30784
30788
30792
30800
30816
30816
30820
30837
30830
30842
30846
30854
30860
30870
30870
30882
30884
30894
30908
30912
30918
30928
30936
30944
30944
30957
30964
30974
30972
30989
30989
30996
31002
31007
31020
31026
31024
31041
31041
31054
31052
31062
31072
31070
31076
31092
31092
31097
31096
31098
31108
31110
31116
31124
31136
31137
31143
31150
31148
31164
31172
31180
31176
31188
31196
31200
31202
31206
31216
31212
31216
31228
31222
31237
31232
31238
31252
31244
31250
31253
31264
31263
31263
31268
31276
31272
31276
31285
31288
31293
31292
31288
31284
31294
31292
31288
31292
31304
31294
31308
31300
31306
31314
31312
31308
31302
31303
31301
31308
31309
31316
31308
31311
31326
31316
31318
31316
31320
31320
31322
31328
31320
31332
31328
31337
31334
31340
31340
31338
31344
31348
31350
31350
31343
31350
31345
31356
31356
31352
31362
31360
31364
31366
31370
31382
31375
31368
31374
31373
31376
31380
31380
31374
31384
31380
31396
31390
31388
31390
31394
31397
31396
31404
31401
31412
31396
31410
31402
31412
31415
31418
31412
31404
31416
31417
31420
31416
31424
31420
31426
31424
31424
31428
31432
31428
31432
31432
31434
31430
31428
31428
31440
31428
31431
31432
31444
31440
31436
31435
31441
31444
31444
31436
31438
31447
31440
31447
31433
31436
31436
31438
31444
31440
31436
31432
31433
31439
31440
31438
31436
31452
31444
31442
31452
31445
31444
31445
31448
31444
31452
31448
31441
31444
31446
31448
31448
31448
31452
31452
31452
31450
31450
31452
31456
31452
31460
31454
31452
31452
31453
31452
31453
31456
31456
31461
31464
31464
31456
31468
31464
31470
31474
31465
31472
31476
31470
31482
31476
31480
31482
31476
31484
31480
31476
31478
31494
31496
31488
31484
31484
31500
31498
31492
31498
31501
31496
31498
31504
31504
31516
31510
31508
31516
31524
31516
31521
31528
31522
31526
31530
31524
31536
31525
31540
31536
31540
31548
31542
31540
31546
31544
31546
31544
31535
31558
31552
31544
31546
31546
31550
31549
31544
31546
31554
31557
31552
31556
31556
31553
31554
31548
31548
31544
31545
31548
31545
31544
31540
31544
31546
31538
31544
31540
31540
31545
31528
31536
31538
31532
31536
31546
31528
31538
31534
31532
31533
31532
31532
31534
31540
31540
31531
31533
31533
31536
31534
31534
31532
31532
31536
31528
31530
31534
31526
31533
31524
31534
31530
31528
31536
31524
31521
31524
31528
31525
31526
31536
31527
31524
31528
31532
31542
31536
31536
31548
31540
31542
31540
31535
31556
31550
31550
31552
31558
31560
31557
31561
31572
31570
31576
31568
31572
31580
31584
31592
31585
31596
31596
31600
31615
31612
31616
31616
31620
31625
31633
31638
31642
31654
31652
31664
31662
31673
31666
31685
31684
31684
31696
31700
31708
31708
31718
31716
31738
31729
31740
31744
31750
31760
31761
31764
31772
31780
31778
31784
31788
31796
31798
31813
31828
31826
31836
31840
31844
31854
31855
31858
31853
31860
31868
31884
31876
31889
31902
31893
31900
31903
31913
31916
31916
31930
31928
31937
31936
31944
31960
31964
31956
31964
31975
31970
31982
31981
31988
31990
32000
32001
32002
32006
32016
32021
32021
32032
32033
32040
32044
32050
32054
32048
32058
32064
32067
32064
32066
32068
32072
32072
32084
32084
32088
32100
32108
32108
32110
32120
32132
32132
32126
32132
32140
32132
32141
32137
32151
32164
32160
32165
32169
32182
32188
32184
32198
32197
32196
32200
32204
32216
32218
32213
32229
32228
32234
32240
32246
32260
32249
32262
32268
32268
32280
32276
32292
32290
32294
32300
32294
32300
32314
32316
32322
32322
32324
32340
32344
32343
32356
32353
32359
32356
32360
32372
32377
32385
32388
32396
32393
32401
32412
32412
32418
32428
32426
32432
32428
32440
32445
32452
32452
32462
32463
32473
32476
32480
32478
32484
32492
32484
32496
32497
32508
32512
32513
32516
32516
32524
32528
32530
32534
32548
32548
32542
32559
32554
32560
32564
32568
32567
32564
32576
32572
32584
32581
32592
32594
32600
32608
32605
32609
32608
32620
32628
32636
32622
32632
32633
32628
32632
32640
32636
32644
32656
32652
32660
32644
32660
32653
32654
32668
32661
32676
32672
32685
32687
32688
32686
32695
32685
32697
32697
32691
32697
32708
32698
32712
32708
32720
32716
32722
32722
32734
32732
32733
32728
32732
32732
32738
32744
32740
32744
32752
32742
32741
32748
32752
32756
32756
32761
32761
32769
32775
32769
32778
32784
32786
32796
32788
32777
32784
32788
32788
32800
32796
32797
32804
32804
32810
32812
32812
32816
32826
32824
32834
32832
32828
32844
32844
32836
32840
32844
32841
32852
32846
32847
32861
32852
32853
32858
32852
32853
32857
32862
32864
32857
32866
32868
32866
32865
32868
32868
32860
32864
32868
32860
32876
32862
32876
32864
32869
32868
32864
32874
32873
32873
32877
32874
32868
32878
32864
32867
32869
32872
32863
32864
32868
32868
32855
32870
32864
32860
32860
32862
32853
32857
32861
32866
32861
32868
32862
32852
32856
32860
32852
32856
32860
32860
32860
32856
32872
32866
32868
32857
32869
32864
32866
32868
32876
32862
32882
32872
32866
32873
32876
32872
32882
32882
32874
32868
32876
32872
32876
32876
32881
32877
32880
32878
32880
32876
32876
32880
32880
32876
32877
32882
32876
32874
32868
32868
32872
32868
32862
32869
32876
32868
32865
32868
32864
32864
32866
32854
32860
32853
32860
32856
32853
32857
32854
32852
32847
32848
32840
32839
32836
32836
32832
32832
32834
32820
32826
32821
32813
32820
32808
32804
32796
32804
32800
32788
32796
32790
32792
32788
32780
32780
32773
32772
32756
32772
32758
32756
32749
32750
32740
32748
32745
32740
32725
32726
32719
32716
32724
32725
32716
32708
32720
32708
32702
32700
32692
32690
32695
32688
32686
32692
32690
32695
32676
32684
32679
32673
32670
32664
32660
32676
32668
32670
32664
32665
32661
32661
32656
32662
32659
32648
32656
32641
32647
32644
32645
32638
32645
32647
32640
32646
32636
32642
32644
32634
32638
32636
32628
32637
32632
32628
32626
32624
32622
32625
32616
32625
32632
32618
32631
32624
32618
32621
32620
32623
32624
32622
32612
32616
32607
32613
32615
32605
32608
32611
32614
32625
32610
32618
32613
32614
32605
32608
32608
32610
32614
32610
32610
32615
32608
32608
32608
32609
32605
32612
32608
32602
32606
32604
32593
32605
32599
32596
32592
32594
32591
32598
32594
32600
32593
32588
32586
32580
32582
32580
32577
32586
32578
32583
32577
32576
32574
32574
32568
32576
32572
32576
32573
32566
32568
32565
32571
32560
32567
32568
32568
32568
32564
32574
32568
32568
32559
32562
32566
32556
32552
32548
32551
32544
32544
32536
32548
32536
32532
32526
32530
32522
32513
32516
32510
32508
32512
32500
32508
32489
32485
32496
32487
32486
32490
32475
32476
32472
32465
32462
32469
32448
32456
32452
32438
32452
32440
32428
32436
32428
32428
32426
32420
32424
32412
32417
32412
32406
32396
32392
32397
32392
32392
32388
32384
32374
32378
32367
32358
32368
32356
32352
32352
32356
32346
32350
32343
32345
32350
32340
32336
32334
32337
32339
32330
32330
32336
32334
32326
32325
32329
32320
32324
32318
32324
32336
32330
32330
32330
32332
32335
32334
32326
32325
32324
32337
32334
32336
32346
32348
32344
32348
32342
32341
32348
32348
32352
32350
32353
32364
32351
32361
32364
32366
32373
32368
32375
32374
32376
32372
32374
32385
32383
32384
32396
32386
32389
32396
32404
32400
32392
32401
32402
32404
32404
32404
32412
32416
32413
32420
32414
32417
32420
32420
32431
32420
32428
32432
32434
32426
32430
32438
32437
32428
32420
32441
32438
32432
32432
32432
32440
32438
32433
32432
32428
32428
32433
32428
32416
32423
32414
32415
32412
32410
32410
32404
32404
32407
32392
32392
32384
32385
32370
32380
32364
32360
32357
32359
32356
32348
32344
32337
32343
32330
32320
32316
32310
32308
32296
32288
32288
32276
32266
32273
32260
32260
32248
32236
32236
32224
32224
32224
32206
32196
32192
32180
32180
32177
32160
32162
32150
32148
32136
32128
32126
32112
32112
32104
32088
32089
32080
32076
32070
32060
32048
32038
32040
32034
32020
32012
32008
31998
31988
31980
31972
31958
31944
31932
31920
31913
31904
31896
31890
31876
31872
31856
31853
31836
31836
31820
31812
31800
31786
31784
31764
31759
31756
31736
31732
31719
31708
31708
31705
31695
31689
31684
31674
31672
31674
31656
31660
31661
31656
31652
31641
31647
31648
31636
31632
31640
31640
31640
31644
31644
31646
31642
31648
31644
31642
31644
31644
31648
31647
31653
31652
31660
31661
31652
31652
31658
31656
31671
31664
31662
31673
31676
31672
31680
31684
31677
31674
31672
31672
31668
31672
31662
31660
31668
31672
31662
31656
31664
31652
31652
31645
31649
31638
31636
31634
31628
31632
31628
31616
31612
31610
31594
31596
31589
31579
31564
31564
31546
31548
31544
31528
31519
31516
31511
31500
31492
31476
31470
31460
31446
31452
31436
31428
31412
31408
31396
31384
31380
31377
31364
31354
31340
31328
31316
31306
31312
31298
31296
31274
31268
31258
31256
31248
31242
31230
31224
31201
31206
31200
31196
31180
31179
31160
31160
31154
31156
31148
31140
31125
31132
31124
31116
31113
31114
31101
31108
31097
31092
31084
31077
31077
31082
31071
31061
31056
31060
31056
31050
31052
31040
31028
31028
31032
31028
31020
31012
31013
31008
31004
31000
31004
31000
30992
30985
30982
30980
30976
30974
30965
30964
30957
30952
30952
30954
30950
30943
30944
30938
30937
30930
30928
30932
30932
30923
30924
30924
30916
30914
30916
30910
30902
30894
30896
30896
30892
30896
30896
30898
30881
30884
30878
30884
30876
30878
30880
30878
30875
30864
30864
30864
30874
30870
30868
30860
30854
30858
30862
30856
30860
30850
30841
30844
30848
30854
30852
30841
30840
30836
30845
30838
30839
30836
30836
30832
30832
30831
30829
30824
30838
30823
30822
30829
30831
30828
30832
30824
30828
30820
30821
30813
30826
30822
30817
30825
30820
30820
30822
30828
30820
30820
30817
30820
30812
30822
30812
30817
30814
30816
30820
30806
30800
30807
30796
30801
30806
30796
30789
30796
30791
30788
30782
30770
30773
30770
30768
30758
30756
30748
30750
30745
30736
30728
30720
30724
30718
30716
30710
30695
30694
30684
30692
30681
30672
30666
30661
30652
30652
30656
30642
30633
30621
30615
30608
30610
30592
30596
30586
30585
30577
30564
30556
30556
30554
30538
30526
30522
30520
30516
30510
30496
30488
30492
30480
30472
30462
30452
30448
30428
30434
30428
30424
30405
30400
30402
30390
30378
30373
30365
30360
30346
30343
30340
30320
30328
30312
30304
30296
30297
30288
30284
30276
30276
30270
30254
30244
30244
30232
30232
30224
30230
30212
30208
30188
30200
30184
30182
30188
30180
30168
30164
30160
30156
30154
30152
30144
30136
30138
30135
30128
30124
30125
30116
30117
30116
30100
30104
30108
30106
30096
30100
30094
30096
30090
30096
30088
30089
30090
30084
30076
30080
30072
30078
30086
30072
30068
30079
30072
30069
30072
30068
30064
30056
30055
30060
30070
30057
30052
30052
30052
30056
30048
30052
30060
30049
30054
30057
30058
30054
30062
30056
30060
30054
30056
30060
30065
30064
30065
30069
30074
30068
30064
30064
30062
30060
30070
30068
30065
30070
30064
30060
30056
30060
30066
30065
30062
30056
30050
30052
30052
30044
30053
30050
30045
30041
30036
30042
30040
30028
30034
30032
30024
30024
30029
30029
30016
30021
30012
30005
30006
30010
30006
30008
29997
29998
29992
29992
29988
29988
29984
29988
29982
29980
29976
29974
29976
29968
29968
29960
29968
29960
29958
29952
29958
29952
29958
29948
29948
29945
29942
29942
29943
29936
29940
29941
29940
29930
29924
29924
29925
29929
29924
29918
29925
29927
29918
29912
29921
29913
29914
29918
29918
29924
29914
29912
29912
29912
29912
29914
29913
29916
29916
29912
29916
29914
29910
29919
29926
29922
29916
29916
29924
29924
29929
29926
29922
29916
29928
29925
29924
29920
29914
29925
29944
29932
29932
29934
29932
29930
29928
29936
29934
29928
29945
29950
29942
29946
29940
29948
29952
29956
29960
29948
29964
29956
29965
29970
29972
29967
29982
29976
29980
29986
29983
29990
29992
30002
30002
30002
30007
30008
30012
30007
30020
30025
30028
30032
30042
30033
30047
30049
30060
30062
30061
30068
30073
30084
30088
30096
30092
30100
30110
30116
30120
30125
30134
30146
30148
30156
30160
30165
30165
30182
30192
30198
30212
30208
30212
30228
30229
30244
30244
30252
30270
30268
30276
30280
30292
30300
30312
30310
30318
30324
30332
30338
30345
30352
30364
30369
30374
30378
30380
30388
30404
30405
30416
30426
30432
30430
30438
30440
30455
30473
30472
30477
30480
30484
30496
30500
30504
30516
30525
30520
30538
30537
30542
30543
30558
30568
30580
30582
30585
30584
30590
30596
30596
30610
30608
30614
30627
30628
30635
30638
30645
30644
30652
30660
30671
30670
30676
30668
30686
30680
30684
30700
30692
30701
30703
30704
30713
30710
30710
30721
30716
30728
30740
30732
30740
30728
30740
30744
30752
30748
30756
30756
30767
30752
30770
30772
30768
30776
30773
30772
30780
30790
30784
30790
30790
30794
30793
30789
30802
30809
30808
30809
30816
30813
30808
30824
30820
30821
30823
30821
30830
30836
30847
30846
30838
30852
30852
30854
30860
30866
30872
30869
30872
30893
30895
30892
30892
30898
30902
30906
30912
30916
30927
30924
30934
30934
30944
30960
30956
30960
30960
30972
30974
30976
30990
30995
30992
30997
31000
31004
31016
31021
31020
31036
31039
31048
31037
31052
31052
31064
31070
31076
31076
31080
31092
31088
31092
31105
31108
31108
31124
31120
31124
31133
31145
31156
31152
31146
31150
31164
31168
31168
31172
31172
31177
31182
31184
31186
31193
31194
31204
31200
31200
31209
31213
31216
31222
31218
31224
31228
31220
31239
31232
31252
31246
31244
31248
31256
31256
31264
31262
31272
31268
31277
31280
31269
31280
31284
31280
31276
31280
31284
31292
31284
31296
31294
31292
31296
31294
31300
31300
31300
31298
31300
31301
31311
31308
31313
31316
31312
31321
31322
31320
31312
31312
31320
31325
31327
31325
31328
31328
31324
31327
31336
31330
31330
31336
31332
31340
31332
31340
31342
31338
31341
31337
31343
31341
31340
31346
31343
31348
31344
31350
31356
31356
31356
31352
31370
31368
31372
31380
31380
31388
31388
31382
31396
31396
31396
31397
31400
31405
31412
31407
31424
31422
31422
31428
31432
31430
31430
31436
31428
31430
31440
31438
31444
31444
31456
31448
31456
31456
31456
31449
31458
31460
31468
31468
31464
31471
31484
31477
31472
31476
31482
31494
31488
31492
31496
31502
31492
31508
31504
31514
31520
31526
31520
31528
31524
31532
31540
31548
31544
31548
31548
31548
31552
31560
31568
31572
31568
31578
31575
31586
31585
31593
31608
31606
31600
31612
31608
31620
31616
31628
31636
31639
31636
31652
31652
31661
31666
31661
31677
31686
31701
31702
31708
31716
31724
31740
31748
31756
31758
31764
31767
31784
31800
31805
31810
31821
31824
31847
31852
31860
31880
31887
31901
31903
31925
31936
31944
31966
31976
31981
31996
31996
32012
32024
32033
32054
32062
32078
32085
32092
32101
32122
32128
32140
32156
32166
32188
32188
32197
32209
32216
32230
32240
32249
32268
32268
32286
32292
32292
32308
32326
32340
32356
32356
32372
32372
32385
32404
32408
32416
32424
32439
32452
32460
32463
32480
32484
32502
32501
32518
32530
32556
32553
32558
32568
32580
32600
32602
32609
32620
32632
32645
32664
32676
32686
32696
32708
32712
32716
32728
32741
32756
32772
32783
32792
32804
32812
32816
32824
32833
32852
32871
32870
32887
32902
32901
32909
32920
32926
32956
32956
32972
32976
32986
32990
33004
33012
33024
33035
33046
33050
33064
33074
33076
33080
33089
33096
33112
33116
33125
33140
33150
33152
33157
33177
33182
33194
33191
33197
33207
33218
33228
33228
33237
33246
33262
33260
33276
33276
33280
33278
33293
33299
33304
33304
33320
33316
33322
33326
33336
33332
33334
33336
33353
33348
33360
33359
33351
33363
33358
33356
33372
33374
33385
33380
33384
33381
33392
33382
33388
33398
33404
33399
33396
33400
33414
33402
33408
33418
33416
33432
33423
33428
33428
33434
33436
33441
33432
33444
33448
33444
33444
33456
33456
33456
33460
33454
33460
33463
33472
33474
33480
33481
33484
33484
33492
33498
33496
33497
33498
33509
33516
33508
33518
33510
33517
33521
33528
33529
33540
33548
33547
33548
33556
33558
33568
33568
33562
33572
33572
33580
33584
33582
33592
33596
33587
33604
33608
33604
33620
33628
33635
33636
33643
33646
33644
33653
33668
33664
33664
33676
33688
33685
33684
33692
33696
33702
33713
33721
33728
33732
33736
33742
33743
33749
33756
33761
33764
33772
33784
33781
33780
33792
33799
33809
33816
33825
33824
33828
33829
33828
33850
33842
33855
33860
33866
33874
33876
33876
33894
33888
33894
33911
33912
33908
33914
33931
33933
33932
33932
33946
33953
33948
33964
33968
33984
33984
33988
33986
33989
33996
34010
34014
34016
34025
34037
34038
34044
34049
34052
34068
34066
34072
34080
34086
34092
34104
34110
34119
34124
34116
34120
34148
34145
34154
34164
34158
34169
34180
34191
34196
34196
34197
34213
34211
34229
34232
34232
34232
34244
34256
34266
34265
34272
34276
34282
34294
34306
34304
34304
34316
34320
34329
34340
34340
34349
34356
34368
34366
34376
34378
34384
34388
34392
34396
34408
34404
34412
34424
34424
34442
34444
34436
34448
34462
34468
34468
34468
34488
34472
34487
34500
34492
34500
34500
34512
34518
34528
34532
34541
34545
34548
34552
34560
34556
34561
34566
34582
34592
34582
34582
34596
34598
34599
34612
34609
34620
34614
34624
34630
34636
34641
34637
34644
34656
34660
34672
34666
34668
34672
34681
34680
34687
34688
34692
34700
34696
34706
34714
34716
34724
34728
34726
34725
34734
34740
34745
34746
34744
34750
34762
34761
34772
34769
34765
34776
34781
34780
34788
34788
34784
34791
34800
34808
34800
34804
34816
34818
34818
34824
34823
34832
34832
34830
34844
34833
34840
34844
34836
34853
34856
34855
34854
34868
34857
34865
34872
34862
34872
34884
34880
34884
34884
34888
34890
34884
34892
34888
34897
34892
34892
34892
34893
34898
34897
34913
34904
34912
34910
34916
34916
34917
34918
34912
34912
34914
34920
34924
34924
34929
34928
34927
34926
34928
34918
34927
34934
34932
34935
34929
34940
34934
34936
34930
34944
34937
34950
34936
34938
34936
34928
34937
34945
34948
34944
34941
34948
34940
34948
34960
34945
34942
34948
34948
34940
34950
34950
34952
34956
34960
34954
34956
34950
34946
34958
34954
34945
34953
34956
34956
34952
34956
34959
34956
34951
34955
34956
34944
34950
34950
34952
34952
34954
34956
34948
34964
34959
34958
34956
34948
34949
34956
34964
34972
34960
34956
34960
34964
34960
34958
34960
34956
34968
34968
34969
34972
34962
34960
34952
34964
34961
34960
34964
34975
34967
34960
34964
34960
34964
34958
34970
34973
34972
34960
34964
34960
34966
34960
34964
34962
34961
34961
34964
34975
34967
34974
34976
34974
34964
34966
34963
34968
34964
34966
34967
34960
34954
34956
34960
34958
34952
34956
34944
34942
34940
34936
34926
34926
34920
34932
34925
34916
34916
34908
34902
34900
34900
34884
34884
34882
34864
34856
34856
34850
34856
34848
34841
34821
34824
34820
34808
34804
34800
34793
34788
34765
34772
34750
34754
34741
34740
34726
34724
34720
34708
34692
34682
34673
34660
34656
34652
34636
34634
34626
34620
34612
34600
34590
34576
34568
34568
34556
34542
34540
34524
34516
34509
34496
34497
34484
34476
34468
34453
34452
34436
34426
34408
34402
34388
34384
34372
34372
34364
34354
34332
34326
34312
34308
34304
34290
34284
34276
34265
34260
34244
34240
34240
34220
34216
34204
34196
34196
34183
34176
34167
34149
34144
34144
34132
34124
34120
34105
34100
34090
34092
34076
34075
34068
34058
34052
34035
34038
34020
34012
34008
34004
33990
33988
33966
33964
33968
33960
33956
33943
33940
33928
33922
33914
33910
33905
33892
33886
33880
33880
33868
33858
33856
33838
33844
33832
33816
33822
33812
33807
33808
33792
33788
33785
33776
33776
33764
33752
33754
33748
33744
33730
33732
33730
33720
33722
33706
33700
33700
33696
33688
33688
33680
33685
33671
33672
33668
33662
33660
33654
33648
33641
33644
33639
33638
33628
33616
33615
33617
33608
33604
33598
33598
33596
33600
33586
33577
33580
33566
33568
33557
33564
33556
33552
33552
33548
33548
33548
33549
33540
33534
33516
33525
33524
33516
33518
33517
33515
33508
33508
33502
33504
33487
33492
33488
33487
33488
33475
33472
33474
33461
33457
33456
33448
33444
33440
33436
33435
33428
33418
33412
33412
33405
33396
33392
33390
33392
33388
33386
33384
33375
33380
33364
33358
33364
33356
33345
33336
33330
33341
33334
33329
33328
33319
33326
33310
33316
33304
33304
33308
33300
33292
33284
33294
33288
33284
33268
33270
33271
33257
33264
33263
33256
33254
33250
33250
33242
33242
33240
33233
33240
33241
33226
33224
33216
33211
33214
33216
33212
33211
33196
33196
33196
33197
33188
33188
33184
33186
33180
33184
33170
33165
33174
33168
33162
33150
33156
33148
33154
33153
33146
33140
33144
33134
33130
33129
33132
33137
33120
33132
33122
33120
33104
33113
33116
33120
33106
33100
33100
33100
33102
33096
33100
33093
33090
33092
33088
33084
33082
33088
33084
33070
33074
33080
33076
33068
33064
33065
33074
33078
33060
33064
33060
33060
33064
33060
33057
33048
33054
33050
33048
33054
33052
33038
33044
33044
33039
33038
33032
33036
33032
33026
33028
33036
33032
33028
33025
33024
33020
33016
33014
33018
33008
33012
33006
33004
33000
32996
33000
33002
32996
33004
32994
32990
32984
32986
32988
32988
32980
32980
32980
32976
32974
32968
32965
32960
32967
32960
32952
32958
32948
32948
32942
32952
32942
32940
32934
32932
32933
32920
32917
32919
32916
32910
32916
32910
32909
32904
32897
32894
32888
32889
32886
32886
32880
32876
32870
32860
32866
32861
32860
32864
32848
32852
32846
32844
32838
32834
32836
32830
32824
32812
32810
32812
32812
32804
32793
32800
32796
32792
32784
32784
32776
32768
32774
32764
32774
32760
32756
32751
32752
32741
32740
32748
32737
32734
32724
32724
32718
32718
32708
32716
32704
32704
32697
32687
32690
32685
32682
32679
32684
32676
32673
32669
32668
32658
32655
32660
32650
32644
32654
32644
32632
32638
32630
32620
32620
32620
32628
32612
32614
32612
32609
32603
32601
32597
32588
32596
32587
32584
32586
32574
32572
32572
32576
32568
32564
32562
32562
32564
32565
32556
32556
32550
32547
32548
32530
32543
32533
32532
32529
32536
32536
32535
32525
32522
32520
32518
32522
32508
32512
32511
32514
32500
32494
32500
32504
32506
32494
32492
32496
32488
32494
32492
32488
32484
32488
32486
32482
32471
32473
32468
32472
32468
32459
32468
32465
32472
32456
32468
32464
32449
32450
32450
32442
32436
32436
32440
32440
32440
32429
32420
32420
32416
32421
32414
32418
32412
32420
32412
32412
32410
32404
32398
32404
32392
32391
32392
32388
32392
32381
32380
32377
32374
32368
32372
32360
32361
32357
32356
32355
32352
32356
32356
32364
32356
32346
32332
32338
32337
32332
32334
32338
32340
32336
32330
32326
32324
32316
32316
32316
32316
32316
32306
32316
32300
32295
32300
32292
32302
32290
32298
32286
32290
32285
32292
32280
32278
32268
32276
32272
32272
32269
32264
32268
32266
32254
32266
32251
32268
32246
32244
32245
32237
32244
32244
32244
32240
32244
32244
32236
32238
32236
32238
32238
32236
32224
32232
32234
32228
32229
32224
32218
32228
32217
32228
32228
32225
32228
32232
32230
32240
32236
32238
32236
32238
32242
32242
32244
32237
32252
32245
32255
32244
32236
32247
32248
32252
32260
32244
32255
32252
32248
32252
32248
32250
32255
32249
32244
32241
32244
32248
32247
32236
32246
32230
32244
32244
32244
32246
32240
32245
32228
32238
32228
32238
32226
32232
32235
32229
32228
32228
32222
32224
32216
32218
32214
32220
32214
32213
32216
32204
32196
32194
32212
32190
32196
32188
32176
32169
32168
32172
32172
32168
32161
32156
32159
32148
32140
32140
32124
32124
32121
32116
32120
32116
32116
32100
32092
32092
32086
32087
32084
32080
32064
32068
32062
32060
32048
32047
32044
32032
32029
32032
32026
32013
32010
32016
32008
32004
31998
32000
31992
31996
31980
31987
31976
31972
31972
31964
31965
31960
31948
31953
31946
31940
31938
31938
31940
31939
31932
31925
31932
31921
31924
31920
31926
31909
31908
31908
31905
31897
31906
31900
31905
31896
31908
31896
31902
31901
31908
31900
31902
31897
31900
31895
31908
31896
31897
31904
31902
31893
31904
31906
31909
31904
31904
31910
31909
31914
31922
31924
31928
31935
31931
31938
31932
31936
31937
31936
31948
31950
31952
31964
31964
31966
31973
31972
31980
31973
31986
31992
31998
32007
32006
32012
32024
32020
32022
32033
32044
32046
32056
32058
32056
32076
32088
32093
32092
32106
32117
32117
32124
32128
32141
32145
32148
32156
32164
32173
32170
32180
32196
32194
32204
32216
32216
32225
32236
32242
32249
32250
32268
32276
32286
32297
32296
32314
32318
32324
32328
32337
32350
32350
32356
32366
32372
32385
32384
32392
32396
32412
32409
32424
32426
32429
32437
32452
32456
32458
32472
32474
32478
32493
32494
32506
32506
32516
32516
32525
32532
32536
32544
32552
32556
32561
32570
32569
32580
32588
32594
32600
32600
32604
32610
32620
32628
32637
32638
32648
32655
32664
32660
32670
32674
32676
32690
32692
32696
32709
32714
32709
32720
32728
32730
32736
32742
32756
32751
32756
32766
32764
32784
32774
32790
32794
32805
32801
32802
32816
32812
32812
32828
32824
32836
32832
32834
32842
32852
32862
32852
32860
32862
32854
32868
32864
32869
32869
32878
32876
32872
32880
32876
32871
32872
32872
32876
32886
32884
32884
32894
32884
32884
32892
32892
32889
32890
32900
32900
32900
32900
32901
32904
32896
32902
32906
32910
32910
32902
32911
32904
32912
32916
32920
32920
32912
32916
32922
32918
32924
32926
32936
32936
32934
32942
32952
32953
32952
32948
32948
32960
32949
32966
32964
32974
32970
32978
32986
32985
32980
32992
32984
32996
33004
33000
33007
33012
33020
33018
33022
33020
33032
33038
33048
33052
33056
33060
33060
33066
33085
33086
33100
33097
33112
33122
33124
33124
33141
33149
33154
33168
33177
33189
33193
33204
33220
33230
33228
33246
33260
33268
33284
33292
33308
33320
33324
33340
33350
33356
33366
33378
33400
33410
33428
33439
33448
33465
33476
33484
33506
33514
33542
33544
33564
33576
33588
33600
33616
33621
33636
33652
33672
33680
33698
33712
33720
33728
33735
33756
33767
33780
33796
33814
33828
33839
33856
33872
33886
33895
33908
33928
33943
33950
33966
33986
33990
34012
34026
34046
34062
34086
34081
34104
34108
34120
34146
34152
34164
34182
34192
34200
34228
34240
34244
34261
34268
34282
34297
34302
34320
34332
34338
34356
34372
34374
34392
34399
34404
34422
34429
34436
34446
34456
34460
34466
34484
34490
34492
34508
34522
34516
34520
34524
34532
34542
34538
34552
34564
34560
34564
34569
34578
34589
34592
34593
34596
34612
34616
34616
34621
34625
34626
34636
34628
34636
34636
34644
34652
34646
34660
34660
34652
34668
34664
34668
34668
34673
34676
34686
34692
34692
34692
34692
34702
34713
34710
34713
34716
34724
34720
34725
34726
34732
34724
34732
34744
34737
34750
34753
34756
34766
34760
34768
34764
34776
34769
34776
34766
34767
34780
34775
34786
34784
34780
34788
34784
34786
34796
34800
34808
34805
34796
34808
34812
34798
34815
34812
34814
34820
34822
34823
34812
34813
34816
34832
34836
34824
34836
34832
34829
34834
34826
34836
34836
34834
34836
34842
34844
34840
34840
34840
34836
34844
34840
34840
34844
34841
34844
34848
34844
34847
34838
34833
34842
34842
34844
34829
34846
34852
34844
34841
34849
34840
34840
34838
34840
34840
34842
34838
34832
34828
34824
34838
34823
34828
34828
34824
34816
34820
34810
34804
34804
34792
34784
34778
34780
34764
34758
34754
34756
34749
34741
34740
34748
34725
34727
34724
34724
34720
34724
34709
34697
34700
34706
34698
34692
34692
34692
34688
34684
34673
34680
34671
34674
34671
34676
34664
34668
34656
34656
34653
34654
34660
34654
34662
34656
34653
34663
34652
34660
34656
34660
34666
34662
34660
34665
34668
34672
34673
34672
34674
34684
34692
34690
34696
34704
34696
34703
34706
34718
34716
34722
34732
34736
34734
34740
34742
34748
34750
34756
34774
34768
34772
34776
34780
34778
34781
34788
34796
34797
34807
34813
34812
34816
34820
34820
34824
34836
34840
34839
34849
34846
34852
34848
34856
34864
34860
34876
34876
34879
34886
34876
34884
34884
34878
34884
34888
34884
34892
34893
34890
34894
34894
34892
34882
34889
34886
34885
34881
34872
34868
34875
34872
34872
34868
34868
34868
34860
34854
34854
34848
34844
34850
34850
34836
34832
34837
34828
34816
34828
34828
34824
34817
34823
34816
34815
34812
34806
34800
34804
34801
34794
34797
34792
34789
34789
34781
34782
34775
34764
34760
34758
34754
34748
34756
34748
34744
34736
34741
34732
34724
34722
34721
34719
34715
34709
34702
34700
34692
34676
34685
34676
34682
34670
34672
34661
34656
34649
34648
34640
34632
34634
34628
34621
34624
34616
34612
34606
34600
34588
34601
34576
34576
34580
34575
34564
34564
34564
34564
34556
34544
34541
34537
34543
34524
34532
34532
34525
34520
34517
34520
34516
34512
34512
34510
34500
34497
34482
34484
34480
34473
34472
34468
34469
34466
34464
34457
34452
34448
34445
34437
34432
34428
34425
34428
34410
34411
34412
34400
34394
34387
34392
34381
34380
34373
34370
34366
34364
34360
34352
34342
34336
34320
34328
34328
34314
34310
34312
34308
34300
34293
34284
34278
34270
34260
34268
34256
34268
34258
34250
34252
34244
34244
34244
34241
34233
34228
34228
34225
34216
34222
34216
34220
34208
34212
34206
34196
34204
34208
34197
34194
34190
34188
34182
34184
34177
34172
34180
34168
34164
34165
34166
34151
34157
34150
34148
34133
34132
34136
34134
34129
34128
34122
34120
34108
34113
34108
34106
34110
34104
34101
34101
34096
34084
34092
34084
34088
34076
34064
34080
34065
34071
34060
34060
34056
34046
34044
34038
34039
34044
34032
34041
34024
34028
34014
34015
34016
34000
33992
33996
33988
33982
33972
33972
33972
33964
33960
33952
33948
33944
33940
33928
33924
33921
33924
33920
33916
33904
33909
33908
33900
33896
33884
33880
33892
33882
33879
33861
33876
33862
33863
33856
33860
33845
33844
33846
33856
33854
33845
33842
33836
33834
33841
33832
33840
33838
33836
33836
33832
33827
33830
33820
33838
33832
33828
33844
33840
33840
33847
33845
33840
33840
33840
33848
33838
33841
33856
33845
33844
33839
33845
33840
33852
33852
33852
33848
33848
33848
33860
33850
33860
33864
33854
33855
33864
33856
33864
33868
33863
33871
33856
33868
33868
33868
33881
33872
33876
33880
33880
33884
33872
33888
33872
33876
33868
33866
33877
33878
33876
33888
33866
33877
33876
33876
33880
33882
33890
33884
33886
33889
33876
33878
33883
33881
33889
33886
33868
33877
33868
33872
33868
33870
33882
33876
33876
33876
33878
33878
33872
33876
33877
33872
33876
33871
33868
33862
33864
33860
33872
33868
33864
33872
33876
33868
33869
33864
33876
33884
33884
33880
33887
33884
33884
33880
33875
33884
33884
33887
33888
33892
33892
33892
33884
33889
33886
33890
33897
33904
33900
33900
33892
33893
33900
33900
33900
33904
33908
33904
33912
33909
33909
33908
33901
33904
33903
33912
33916
33916
33919
33912
33920
33914
33927
33920
33916
33920
33924
33928
33924
33920
33932
33924
33928
33928
33934
33934
33944
33942
33938
33940
33936
33940
33940
33934
33950
33943
33942
33945
33944
33936
33948
33940
33947
33953
33944
33948
33933
33941
33948
33948
33948
33948
33936
33940
33945
33944
33936
33936
33935
33934
33928
33920
33928
33928
33928
33916
33914
33910
33902
33912
33904
33909
33896
33892
33894
33884
33890
33890
33894
33875
33864
33871
33866
33860
33866
33860
33862
33862
33854
33859
33847
33845
33844
33838
33841
33832
33828
33838
33832
33820
33828
33820
33820
33813
33812
33813
33816
33805
33810
33800
33796
33786
33796
33792
33784
33780
33773
33774
33770
33768
33756
33758
33756
33748
33743
33738
33738
33730
33729
33730
33724
33724
33708
33708
33700
33700
33697
33687
33688
33674
33673
33676
33672
33666
33668
33661
33660
33644
33646
33641
33640
33636
33620
33622
33620
33611
33602
33604
33604
33592
33580
33572
33572
33564
33564
33559
33543
33541
33528
33520
33517
33504
33506
33494
33498
33476
33476
33460
33456
33444
33430
33431
33420
33410
33410
33398
33396
33385
33374
33364
33357
33360
33342
33346
33340
33334
33319
33309
33305
33292
33287
33284
33268
33260
33256
33250
33228
33232
33209
33212
33208
33186
33177
33168
33157
33140
33136
33126
33119
33104
33096
33082
33078
33068
33056
33052
33041
33020
33012
33016
33000
32992
32976
32964
32960
32957
32938
32928
32912
32898
32886
32868
32872
32861
32848
32832
32830
32820
32804
32792
32780
32773
32760
32744
32732
32724
32708
32702
32696
32676
32676
32657
32652
32642
32626
32617
32600
32581
32576
32566
32552
32540
32526
32522
32505
32496
32487
32472
32464
32453
32436
32428
32416
32408
32380
32375
32358
32348
32344
32324
32309
32302
32280
32281
32247
32239
32228
32214
32200
32188
32172
32164
32142
32124
32116
32105
32090
32079
32060
32052
32040
32028
32010
32004
31980
31964
31962
31944
31933
31920
31911
31892
31880
31862
31852
31843
31830
31824
31812
31797
31782
31772
31756
31735
31726
31716
31704
31696
31684
31668
31653
31647
31617
31615
31600
31588
31580
31572
31554
31540
31532
31516
31514
31498
31496
31480
31472
31455
31448
31436
31428
31425
31413
31406
31402
31392
31390
31376
31372
31352
31356
31340
31340
31332
31316
31312
31320
31298
31308
31292
31288
31280
31284
31276
31271
31268
31256
31257
31252
31246
31258
31248
31249
31236
31232
31240
31236
31236
31239
31231
31228
31224
31232
31236
31236
31238
31241
31235
31238
31237
31258
31245
31260
31262
31266
31266
31268
31272
31276
31280
31290
31292
31301
31312
31312
31316
31321
31332
31342
31351
31356
31361
31364
31372
31386
31402
31400
31404
31425
31412
31432
31438
31452
31462
31468
31466
31480
31486
31498
31512
31528
31532
31542
31544
31558
31568
31585
31600
31600
31608
31616
31636
31652
31660
31670
31676
31697
31708
31727
31744
31757
31774
31776
31792
31809
31823
31844
31853
31872
31887
31900
31908
31924
31942
31940
31972
31988
31988
32013
32020
32036
32052
32064
32072
32092
32101
32124
32129
32156
32158
32175
32192
32208
32226
32244
32248
32262
32288
32289
32304
32324
32328
32356
32364
32375
32389
32396
32408
32432
32438
32452
32462
32480
32492
32488
32513
32520
32538
32548
32567
32573
32582
32596
32608
32628
32638
32645
32656
32668
32679
32692
32700
32716
32720
32737
32744
32764
32770
32790
32807
32817
32830
32832
32844
32861
32870
32886
32894
32920
32918
32936
32948
32957
32968
32983
32998
33012
33028
33038
33052
33064
33076
33090
33104
33110
33130
33150
33158
33166
33184
33200
33207
33218
33232
33252
33256
33270
33284
33300
33313
33322
33340
33343
33364
33368
33384
33396
33412
33416
33428
33444
33453
33462
33476
33478
33496
33508
33520
33524
33544
33556
33565
33572
33582
33590
33584
33611
33618
33636
33641
33647
33652
33660
33668
33686
33682
33692
33703
33704
33710
33724
33732
33734
33742
33748
33772
33764
33772
33768
33774
33782
33792
33797
33796
33798
33804
33816
33820
33822
33823
33830
33844
33836
33846
33850
33852
33850
33860
33864
33873
33876
33868
33876
33876
33890
33880
33890
33900
33900
33902
33912
33906
33919
33918
33914
33918
33924
33924
33920
33926
33926
33940
33946
33948
33944
33952
33953
33956
33956
33956
33968
33964
33974
33976
33980
33978
33987
33992
33994
33996
33996
34000
33997
34008
34016
34016
34018
34028
34031
34044
34029
34032
34052
34052
34060
34057
34060
34063
34068
34062
34076
34078
34084
34084
34088
34092
34100
34096
34104
34110
34114
34104
34120
34117
34122
34126
34126
34132
34132
34134
34134
34137
34129
34132
34140
34140
34148
34154
34154
34145
34144
34143
34148
34150
34150
34148
34149
34148
34157
34156
34148
34152
34153
34148
34158
34156
34156
34157
34156
34168
34164
34169
34168
34163
34164
34168
34170
34168
34164
34168
34174
34168
34176
34166
34181
34191
34184
34185
34185
34180
34182
34188
34191
34204
34199
34209
34206
34210
34212
34216
34216
34220
34228
34232
34229
34236
34248
34250
34260
34266
34268
34263
34264
34276
34284
34288
34277
34290
34304
34304
34315
34316
34316
34332
34330
34332
34346
34344
34351
34352
34360
34358
34360
34368
34372
34373
34376
34386
34384
34392
34396
34390
34400
34400
34402
34408
34409
34416
34415
34420
34416
34424
34430
34432
34428
34424
34430
34436
34428
34436
34436
34440
34444
34432
34446
34445
34452
34458
34452
34455
34446
34460
34444
34454
34466
34464
34468
34473
34468
34476
34476
34468
34482
34480
34484
34486
34489
34489
34500
34492
34488
34501
34488
34496
34496
34498
34500
34496
34496
34498
34500
34496
34492
34500
34494
34500
34506
34512
34504
34505
34516
34518
34518
34516
34516
34520
34504
34522
34524
34532
34530
34534
34536
34538
34544
34534
34548
34550
34570
34561
34564
34570
34573
34572
34580
34572
34588
34585
34596
34591
34590
34600
34604
34608
34596
34604
34608
34602
34616
34620
34612
34618
34616
34622
34622
34618
34616
34606
34616
34613
34612
34608
34612
34607
34604
34612
34596
34598
34596
34598
34588
34588
34593
34580
34580
34572
34568
34568
34564
34564
34560
34560
34552
34548
34540
34537
34541
34542
34535
34532
34528
34528
34533
34520
34518
34520
34520
34516
34511
34512
34520
34503
34508
34508
34496
34504
34508
34510
34509
34510
34512
34508
34504
34502
34505
34504
34505
34510
34512
34508
34508
34510
34512
34504
34506
34510
34518
34517
34517
34516
34512
34522
34521
34514
34517
34517
34516
34518
34524
34516
34504
34512
34521
34517
34516
34512
34512
34526
34517
34524
34516
34508
34520
34520
34511
34513
34518
34521
34508
34512
34508
34504
34501
34506
34502
34494
34504
34494
34492
34488
34476
34484
34470
34468
34476
34458
34450
34446
34447
34448
34430
34438
34424
34414
34418
34409
34412
34404
34396
34390
34384
34380
34380
34375
34364
34356
34360
34356
34341
34337
34340
34336
34330
34329
34320
34316
34310
34300
34306
34308
34302
34288
34284
34286
34277
34288
34274
34276
34274
34268
34260
34263
34260
34258
34256
34262
34252
34254
34242
34252
34244
34250
34245
34244
34242
34240
34236
34237
34237
34234
34231
34228
34232
34228
34234
34224
34228
34222
34220
34229
34223
34216
34213
34228
34218
34220
34220
34213
34218
34216
34218
34214
34209
34206
34212
34220
34212
34216
34220
34216
34212
34212
34220
34216
34216
34216
34212
34212
34208
34209
34208
34205
34204
34208
34209
34216
34210
34206
34200
34202
34200
34198
34196
34190
34184
34183
34186
34182
34182
34190
34188
34188
34183
34186
34180
34182
34182
34180
34180
34178
34176
34172
34176
34168
34166
34164
34160
34149
34152
34158
34156
34158
34156
34144
34152
34143
34144
34144
34132
34140
34128
34128
34139
34140
34136
34134
34129
34128
34122
34126
34119
34117
34120
34112
34120
34122
34106
34112
34120
34115
34119
34114
34112
34112
34103
34104
34098
34104
34100
34096
34098
34100
34090
34084
34089
34092
34088
34088
34084
34076
34080
34078
34084
34088
34072
34076
34068
34060
34061
34062
34052
34060
34052
34050
34049
34053
34036
34037
34039
34028
34034
34037
34022
34020
34028
34014
34020
34014
34016
33999
33993
34000
33988
33984
33990
33988
33984
33978
33978
33976
33974
33972
33964
33958
33956
33952
33940
33956
33930
33928
33930
33921
33920
33916
33920
33916
33918
33908
33908
33904
33896
33900
33893
33898
33880
33886
33882
33876
33876
33869
33864
33868
33856
33861
33862
33856
33856
33848
33844
33845
33840
33828
33826
33833
33826
33826
33817
33817
33804
33804
33802
33796
33798
33793
33790
33782
33786
33784
33769
33776
33773
33768
33761
33752
33748
33749
33740
33732
33738
33732
33726
33724
33718
33716
33704
33704
33695
33700
33695
33684
33676
33674
33674
33668
33656
33650
33657
33638
33637
33632
33624
33612
33616
33604
33596
33592
33596
33596
33584
33578
33580
33572
33566
33564
33557
33545
33544
33533
33532
33518
33524
33512
33517
33500
33509
33500
33494
33488
33478
33476
33472
33468
33456
33463
33456
33442
33444
33440
33430
33429
33422
33416
33404
33415
33400
33406
33392
33392
33396
33390
33381
33381
33381
33377
33369
33362
33358
33348
33342
33332
33336
33334
33328
33324
33327
33324
33320
33324
33316
33313
33300
33300
33300
33292
33288
33282
33272
33276
33276
33266
33264
33262
33260
33256
33246
33244
33249
33240
33234
33228
33224
33228
33228
33214
33210
33202
33190
33196
33196
33184
33176
33178
33170
33170
33168
33168
33168
33156
33160
33156
33142
33141
33134
33143
33120
33125
33116
33116
33104
33104
33096
33096
33096
33088
33086
33076
33066
33076
33060
33069
33052
33050
33038
33032
33036
33024
33018
33010
33008
32996
32996
32997
33000
32986
32982
32982
32972
32964
32966
32960
32956
32957
32940
32938
32940
32928
32932
32928
32916
32914
32905
32904
32894
32898
32894
32886
32884
32886
32876
32876
32870
32868
32862
32865
32864
32863
32852
32848
32844
32852
32847
32840
32832
32832
32826
32836
32828
32825
32826
32825
32828
32817
32813
32820
32822
32812
32805
32808
32798
32807
32796
32800
32800
32796
32792
32793
32793
32794
32783
32792
32786
32782
32784
32784
32783
32780
32781
32777
32768
32776
32774
32767
32770
32764
32768
32764
32761
32774
32756
32768
32762
32756
32760
32764
32756
32752
32756
32748
32744
32738
32736
32730
32730
32729
32716
32724
32714
32708
32708
32698
32696
32696
32693
32684
32685
32670
32670
32660
32660
32655
32652
32646
32640
32636
32632
32622
32628
32628
32620
32612
32604
32611
32608
32590
32604
32596
32592
32596
32581
32584
32580
32576
32577
32576
32567
32564
32565
32560
32557
32556
32562
32556
32560
32550
32553
32548
32540
32548
32549
32544
32542
32538
32538
32540
32544
32548
32541
32544
32541
32544
32540
32541
32534
32528
32535
32533
32532
32528
32524
32525
32524
32517
32516
32520
32516
32516
32524
32516
32518
32508
32508
32510
32502
32504
32506
32500
32492
32497
32492
32488
32484
32480
32481
32473
32488
32476
32476
32486
32476
32473
32472
32456
32462
32462
32461
32448
32458
32454
32448
32440
32436
32444
32440
32429
32434
32423
32420
32413
32409
32416
32401
32402
32392
32388
32384
32384
32369
32375
32364
32357
32356
32352
32348
32342
32336
32336
32332
32329
32318
32314
32316
32292
32296
32294
32282
32280
32282
32264
32256
32260
32253
32244
32237
32236
32233
32224
32224
32216
32210
32204
32208
32196
32194
32184
32176
32172
32165
32164
32152
32142
32138
32142
32135
32129
32124
32122
32116
32112
32105
32108
32092
32088
32084
32080
32072
32073
32066
32068
32064
32056
32047
32052
32041
32037
32038
32042
32036
32032
32026
32022
32020
32018
32006
32006
32000
31997
31996
31984
31992
31982
31976
31968
31972
31956
31962
31962
31960
31956
31952
31948
31952
31950
31942
31940
31938
31926
31920
31924
31918
31918
31918
31909
31905
31903
31900
31900
31900
31890
31898
31897
31888
31892
31876
31874
31877
31860
31860
31851
31857
31846
31844
31840
31840
31840
31840
31828
31822
31824
31820
31820
31808
31804
31800
31800
31784
31788
31780
31780
31776
31772
31766
31758
31756
31764
31760
31758
31754
31758
31761
31749
31744
31748
31736
31741
31740
31730
31736
31725
31729
31724
31716
31718
31716
31712
31708
31710
31702
31700
31696
31688
31688
31685
31680
31680
31676
31664
31664
31668
31653
31652
31641
31648
31632
31628
31624
31620
31616
31609
31604
31600
31602
31584
31584
31584
31576
31575
31569
31559
31562
31546
31542
31532
31525
31524
31526
31508
31505
31509
31505
31489
31492
31487
31486
31484
31476
31468
31464
31452
31458
31444
31436
31437
31428
31426
31420
31420
31408
31404
31401
31400
31396
31396
31384
31384
31374
31378
31361
31368
31358
31352
31356
31346
31340
31332
31332
31324
31317
31324
31308
31308
31300
31300
31300
31292
31286
31280
31276
31272
31265
31263
31263
31253
31248
31237
31239
31231
31227
31228
31215
31228
31216
31212
31212
31200
31207
31188
31190
31185
31168
31168
31164
31162
31158
31158
31158
31152
31149
31142
31138
31125
31126
31128
31119
31125
31108
31105
31108
31092
31092
31084
31080
31080
31081
31070
31068
31068
31064
31053
31049
31041
31036
31028
31028
31020
31022
31012
31004
31006
30996
30990
30978
30976
30968
30964
30961
30948
30948
30940
30921
30927
30924
30900
30900
30898
30892
30892
30878
30865
30856
30856
30852
30840
30840
30828
30816
30808
30798
30804
30789
30785
30772
30766
30757
30744
30746
30728
30724
30716
30711
30708
30700
30690
30680
30673
30674
30668
30658
30656
30644
30644
30624
30620
30613
30600
30596
30596
30576
30572
30572
30564
30564
30552
30536
30540
30536
30532
30520
30528
30520
30510
30505
30488
30484
30481
30480
30470
30472
30458
30454
30446
30445
30444
30436
30432
30428
30418
30414
30416
30404
30404
30401
30394
30384
30376
30372
30360
30360
30366
30352
30356
30332
30334
30332
30326
30320
30316
30313
30304
30288
30288
30276
30276
30266
30261
30258
30252
30233
30236
30224
30210
30208
30204
30201
30190
30188
30182
30166
30156
30152
30144
30130
30130
30119
30109
30096
30090
30078
30072
30060
30052
30042
30034
30030
30014
30004
29984
29980
29982
29968
29956
29948
29936
29924
29910
29892
29904
29880
29876
29864
29850
29844
29828
29828
29804
29801
29790
29786
29768
29764
29746
29748
29732
29717
29706
29704
29692
29686
29672
29668
29651
29646
29636
29640
29622
29612
29610
29597
29591
29580
29574
29568
29556
29554
29540
29529
29524
29516
29504
29506
29490
29488
29486
29474
29457
29459
29448
29437
29434
29416
29408
29406
29402
29386
29386
29375
29368
29360
29356
29345
29344
29333
29326
29329
29320
29314
29310
29306
29294
29285
29281
29269
29268
29258
29248
29248
29242
29232
29239
29228
29220
29206
29210
29200
29194
29186
29182
29174
29174
29170
29161
29156
29144
29132
29128
29124
29119
29112
29110
29105
29092
29092
29086
29079
29070
29065
29052
29050
29040
29044
29039
29038
29025
29013
29017
29002
29006
28996
28983
28981
28972
28956
28954
28948
28940
28936
28924
28915
28904
28896
28896
28880
28864
28856
28858
28836
28830
28828
28828
28809
28804
28790
28772
28772
28769
28761
28748
28744
28732
28720
28708
28704
28694
28693
28682
28670
28657
28644
28636
28628
28614
28604
28604
28596
28591
28577
28567
28562
28554
28552
28528
28535
28528
28514
28509
28503
28484
28484
28478
28480
28462
28460
28452
28442
28442
28432
28425
28426
28408
28416
28408
28396
28383
28374
28362
28360
28353
28352
28346
28332
28316
28314
28312
28294
28288
28292
28282
28272
28256
28246
28238
28236
28232
28224
28209
28204
28192
28193
28180
28167
28149
28148
28144
28148
28140
28122
28120
28112
28106
28106
28102
28088
28089
28068
28072
28064
28063
28064
28048
28053
28036
28020
28022
28024
28006
28012
28000
27996
27998
27980
27986
27978
27976
27976
27977
27965
27966
27956
27952
27942
27945
27946
27933
27928
27914
27914
27918
27912
27896
27892
27893
27886
27878
27876
27868
27860
27849
27845
27840
27836
27818
27814
27820
27817
27810
27796
27790
27780
27778
27760
27765
27750
27748
27742
27738
27730
27720
27716
27697
27693
27688
27688
27684
27676
27661
27654
27648
27644
27640
27628
27622
27609
27604
27604
27585
27592
27576
27570
27560
27564
27554
27548
27540
27537
27520
27516
27512
27506
27496
27496
27501
27488
27474
27476
27468
27460
27452
27450
27448
27444
27449
27436
27438
27432
27428
27426
27420
27414
27417
27416
27404
27404
27402
27408
27398
27404
27399
27398
27384
27394
27396
27388
27385
27384
27380
27384
27380
27377
27378
27382
27384
27372
27380
27380
27382
27384
27382
27382
27386
27382
27386
27382
27384
27388
27394
27393
27394
27390
27392
27397
27401
27406
27408
27406
27404
27409
27411
27420
27420
27419
27422
27421
27428
27434
27437
27440
27432
27444
27455
27456
27452
27460
27458
27460
27464
27476
27466
27466
27473
27479
27482
27484
27492
27488
27484
27500
27505
27500
27509
27507
27512
27508
27516
27518
27524
27524
27526
27529
27516
27512
27528
27529
27528
27534
27530
27524
27530
27525
27527
27530
27524
27533
27528
27524
27526
27524
27530
27524
27528
27532
27523
27524
27520
27524
27528
27522
27518
27515
27528
27524
27512
27522
27524
27520
27516
27525
27524
27512
27516
27515
27517
27525
27525
27521
27519
27516
27516
27512
27522
27534
27522
27520
27524
27519
27518
27522
27516
27516
27526
27522
27524
27521
27520
27520
27532
27525
27528
27524
27524
27524
27524
27526
27528
27532
27530
27528
27520
27519
27518
27525
27538
27526
27524
27516
27528
27532
27533
27529
27534
27534
27528
27530
27524
27529
27528
27532
27536
27533
27534
27538
27540
27540
27546
27543
27541
27540
27542
27543
27540
27542
27552
27548
27552
27566
27556
27558
27544
27550
27562
27554
27560
27556
27556
27564
27566
27562
27560
27572
27572
27576
27580
27572
27576
27576
27583
27580
27582
27584
27584
27584
27584
27588
27590
27588
27588
27596
27584
27592
27600
27604
27599
27601
27610
27602
27601
27609
27612
27609
27604
27612
27608
27620
27620
27620
27624
27621
27620
27620
27625
27638
27626
27632
27637
27637
27642
27640
27644
27655
27654
27648
27668
27665
27669
27668
27672
27669
27682
27689
27696
27697
27694
27696
27706
27708
27718
27717
27730
27732
27736
27745
27742
27751
27750
27756
27764
27768
27776
27782
27788
27799
27799
27808
27804
27812
27824
27828
27834
27838
27832
27842
27850
27860
27868
27873
27884
27885
27897
27904
27908
27920
27924
27926
27937
27941
27950
27956
27968
27972
27978
27988
27981
27990
28002
28015
28016
28028
28035
28040
28046
28053
28065
28064
28072
28087
28094
28092
28098
28104
28118
28122
28128
28140
28142
28144
28156
28164
28166
28180
28186
28188
28210
28206
28209
28220
28224
28234
28237
28237
28244
28258
28265
28276
28280
28282
28292
28293
28308
28309
28324
28326
28324
28344
28345
28354
28360
28356
28372
28380
28381
28386
28389
28408
28406
28414
28414
28424
28429
28434
28448
28450
28452
28464
28460
28476
28480
28480
28496
28492
28504
28498
28504
28512
28520
28520
28536
28538
28544
28553
28560
28572
28574
28568
28580
28580
28588
28594
28596
28602
28600
28616
28620
28628
28625
28636
28640
28636
28648
28654
28664
28672
28670
28678
28676
28690
28694
28709
28709
28712
28716
28720
28726
28732
28740
28744
28744
28756
28764
28768
28774
28778
28796
28785
28784
28797
28804
28808
28812
28824
28833
28841
28836
28848
28852
28860
28868
28876
28877
28887
28888
28897
28902
28901
28911
28921
28912
28926
28932
28930
28940
28954
28956
28956
28964
28972
28980
28984
28986
28999
29008
29018
29009
29009
29024
29024
29024
29029
29044
29044
29048
29056
29057
29068
29063
29071
29068
29077
29077
29085
29089
29096
29102
29104
29117
29130
29133
29130
29136
29143
29144
29152
29159
29152
29160
29164
29160
29175
29180
29183
29190
29191
29192
29200
29202
29208
29220
29220
29212
29226
29222
29233
29237
29240
29237
29244
29252
29260
29260
29263
29271
29279
29280
29284
29280
29284
29295
29296
29288
29305
29308
29314
29310
29316
29316
29324
29327
29328
29328
29340
29330
29342
29349
29356
29352
29349
29352
29360
29369
29370
29364
29368
29378
29378
29383
29392
29396
29392
29404
29404
29402
29406
29416
29425
29438
29431
29438
29438
29436
29444
29440
29450
29446
29456
29462
29457
29468
29470
29476
29477
29477
29479
29484
29484
29482
29484
29496
29500
29494
29503
29500
29500
29500
29514
29516
29520
29520
29516
29524
29522
29534
29538
29532
29533
29542
29536
29544
29549
29545
29544
29556
29554
29556
29556
29569
29570
29576
29576
29578
29576
29576
29575
29584
29585
29598
29592
29592
29584
29592
29590
29600
29606
29604
29606
29604
29608
29607
29602
29620
29620
29620
29616
29604
29612
29632
29626
29620
29622
29620
29618
29620
29620
29615
29612
29624
29626
29620
29626
29618
29622
29620
29624
29612
29612
29606
29620
29616
29608
29607
29608
29609
29612
29610
29600
29598
29600
29598
29611
29600
29608
29604
29594
29592
29600
29592
29589
29596
29594
29578
29584
29584
29586
29580
29572
29570
29570
29572
29572
29574
29568
29572
29568
29564
29571
29568
29564
29560
29564
29552
29556
29557
29558
29548
29558
29558
29558
29556
29556
29556
29568
29556
29556
29553
29557
29552
29566
29559
29558
29560
29564
29572
29577
29580
29584
29580
29584
29584
29592
29604
29593
29596
29605
29608
29614
29620
29624
29616
29628
29632
29644
29638
29645
29654
29660
29664
29663
29670
29672
29680
29692
29693
29700
29704
29706
29714
29725
29732
29730
29732
29735
29746
29752
29764
29761
29762
29774
29787
29786
29792
29796
29804
29820
29813
29820
29824
29832
29837
29848
29852
29856
29861
29860
29863
29884
29884
29888
29895
29906
29911
29909
29924
29928
29924
29942
29937
29944
29944
29958
29960
29956
29966
29975
29976
29981
29985
29996
29999
29993
29995
30007
30010
30004
30012
30020
30022
30028
30012
30031
30038
30034
30036
30040
30046
30052
30044
30049
30044
30052
30060
30068
30068
30064
30065
30070
30078
30080
30084
30088
30090
30087
30092
30096
30100
30097
30104
30117
30108
30116
30120
30116
30124
30126
30126
30132
30134
30142
30138
30136
30146
30150
30148
30156
30165
30160
30166
30182
30180
30172
30184
30180
30185
30189
30199
30200
30216
30210
30234
30224
30236
30234
30240
30240
30248
30256
30266
30266
30280
30281
30289
30288
30298
30308
30312
30319
30324
30328
30328
30340
30350
30351
30356
30363
30372
30390
30380
30392
30400
30404
30420
30434
30431
30441
30452
30460
30472
30480
30482
30496
30505
30504
30510
30520
30532
30552
30554
30557
30564
30586
30592
30600
30608
30613
30625
30632
30639
30656
30662
30666
30680
30682
30685
30696
30712
30724
30724
30742
30748
30758
30775
30775
30778
30780
30788
30807
30806
30820
30832
30832
30844
30844
30846
30862
30877
30882
30889
30892
30896
30914
30920
30926
30928
30928
30945
30950
30957
30968
30976
30980
30978
30992
30996
30996
31004
31012
31018
31028
31034
31042
31044
31044
31052
31058
31068
31082
31089
31082
31097
31100
31104
31106
31116
31118
31116
31124
31124
31140
31145
31156
31164
31160
31160
31173
31186
31192
31188
31188
31194
31200
31204
31208
31216
31216
31208
31216
31220
31232
31238
31242
31246
31232
31237
31258
31256
31257
31260
31268
31262
31268
31268
31272
31274
31268
31272
31288
31282
31288
31284
31288
31292
31300
31300
31304
31293
31303
31300
31306
31313
31308
31307
31292
31312
31308
31324
31312
31316
31324
31316
31324
31316
31320
31320
31328
31321
31328
31320
31324
31324
31324
31320
31325
31324
31324
31324
31326
31324
31320
31322
31320
31332
31332
31340
31328
31332
31330
31328
31328
31329
31334
31340
31340
31328
31330
31319
31332
31336
31336
31332
31337
31343
31332
31328
31333
31340
31334
31346
31340
31340
31349
31346
31336
31342
31342
31344
31342
31343
31344
31344
31348
31348
31350
31354
31366
31352
31364
31354
31356
31354
31358
31359
31361
31364
31367
31365
31376
31377
31372
31370
31372
31377
31378
31386
31385
31396
31388
31393
31396
31388
31404
31402
31392
31414
31413
31416
31416
31412
31416
31423
31431
31432
31436
31446
31444
31444
31444
31440
31452
31456
31456
31468
31464
31473
31476
31490
31492
31490
31496
31503
31508
31513
31518
31522
31526
31532
31532
31534
31534
31544
31548
31556
31556
31568
31572
31580
31576
31592
31592
31601
31596
31598
31609
31623
31622
31624
31632
31629
31636
31642
31646
31658
31662
31669
31668
31676
31682
31684
31685
31689
31701
31700
31709
31708
31711
31718
31724
31734
31740
31744
31748
31741
31752
31761
31764
31768
31769
31777
31777
31782
31784
31796
31802
31812
31800
31809
31815
31828
31824
31820
31832
31836
31852
31852
31856
31861
31876
31873
31880
31880
31886
31902
31906
31914
31914
31924
31924
31928
31940
31952
31952
31956
31962
31970
31982
31988
31992
32008
32008
32010
32023
32032
32037
32041
32048
32056
32064
32076
32079
32081
32094
32100
32116
32119
32128
32134
32128
32148
32164
32164
32180
32186
32188
32206
32216
32220
32234
32252
32256
32258
32278
32277
32288
32294
32309
32316
32334
32335
32356
32358
32364
32368
32374
32383
32397
32409
32417
32424
32444
32442
32452
32460
32464
32474
32482
32488
32501
32514
32512
32528
32540
32540
32548
32572
32561
32568
32582
32580
32596
32604
32612
32620
32632
32641
32656
32658
32657
32671
32676
32684
32693
32702
32708
32708
32726
32736
32732
32738
32744
32756
32768
32779
32776
32784
32789
32792
32814
32812
32827
32824
32838
32842
32840
32860
32868
32868
32868
32876
32879
32895
32898
32892
32912
32908
32922
32934
32934
32948
32950
32952
32970
32970
32984
32988
32986
33000
33000
33012
33021
33020
33025
33036
33044
33056
33064
33068
33068
33068
33085
33096
33104
33110
33114
33128
33122
33138
33140
33152
33152
33156
33164
33176
33188
33192
33185
33207
33210
33217
33226
33234
33245
33246
33252
33260
33271
33284
33290
33302
33298
33300
33308
33317
33332
33328
33340
33344
33350
33350
33364
33368
33383
33388
33396
33398
33398
33401
33420
33416
33424
33434
33444
33455
33449
33460
33458
33469
33484
33490
33488
33504
33496
33508
33518
33516
33525
33534
33546
33544
33548
33556
33556
33572
33574
33580
33586
33588
33590
33600
33602
33620
33616
33626
33626
33636
33646
33644
33656
33660
33668
33671
33682
33678
33684
33700
33700
33704
33704
33717
33716
33736
33736
33736
33742
33748
33764
33780
33772
33772
33794
33788
33804
33807
33814
33816
33820
33824
33844
33840
33855
33854
33860
33868
33863
33884
33894
33892
33908
33908
33905
33925
33926
33937
33940
33940
33948
33940
33960
33968
33974
33976
33984
33977
33988
33996
33996
34000
34004
34000
34016
34010
34020
34016
34016
34028
34032
34036
34042
34036
34046
34048
34049
34060
34060
34074
34071
34080
34072
34078
34084
34084
34094
34094
34094
34096
34097
34112
34116
34113
34124
34120
34130
34133
34136
34132
34138
34152
34146
34149
34148
34152
34153
34164
34156
34172
34161
34176
34177
34178
34177
34196
34188
34194
34201
34200
34205
34204
34216
34217
34216
34223
34230
34224
34230
34236
34239
34241
34242
34254
34250
34254
34260
34264
34276
34280
34277
34284
34286
34288
34294
34302
34296
34304
34305
34308
34320
34320
34312
34326
34337
34328
34342
34340
34336
34336
34353
34348
34356
34365
34368
34367
34364
34376
34380
34381
34380
34396
34396
34400
34392
34399
34404
34404
34412
34407
34408
34420
34418
34422
34430
34429
34430
34421
34438
34434
34430
34436
34448
34442
34452
34452
34450
34452
34458
34452
34460
34462
34465
34460
34460
34457
34468
34472
34468
34476
34472
34472
34478
34476
34488
34484
34486
34488
34488
34496
34504
34500
34500
34496
34501
34510
34500
34513
34508
34518
34512
34510
34524
34518
34528
34524
34527
34532
34538
34544
34536
34533
34533
34532
34540
34532
34532
34553
34540
34550
34549
34556
34556
34552
34548
34544
34554
34556
34556
34552
34557
34560
34543
34552
34556
34566
34562
34564
34556
34560
34564
34567
34560
34574
34580
34560
34568
34570
34576
34577
34573
34572
34572
34574
34577
34580
34572
34566
34570
34577
34572
34576
34583
34583
34580
34580
34580
34586
34584
34580
34594
34580
34586
34585
34580
34588
34596
34590
34588
34598
34588
34584
34598
34596
34593
34600
34592
34596
34606
34596
34601
34604
34607
34604
34602
34608
34608
34608
34606
34608
34616
34620
34606
34624
34608
34623
34616
34623
34620
34620
34622
34629
34615
34628
34620
34612
34626
34624
34629
34622
34624
34624
34638
34636
34631
34642
34628
34636
34636
34632
34632
34644
34647
34640
34644
34644
34644
34648
34648
34645
34650
34658
34652
34648
34663
34660
34660
34664
34668
34668
34668
34672
34662
34672
34670
34666
34676
34676
34679
34688
34684
34687
34696
34692
34690
34696
34704
34706
34708
34705
34708
34713
34716
34712
34712
34716
34720
34724
34724
34721
34726
34732
34732
34732
34732
34750
34746
34752
34744
34747
34748
34740
34756
34756
34767
34760
34759
34764
34764
34768
34757
34769
34772
34772
34790
34782
34784
34778
34786
34785
34796
34794
34798
34788
34788
34792
34801
34808
34808
34810
34804
34812
34804
34808
34805
34812
34824
34826
34822
34826
34832
34832
34832
34841
34839
34832
34836
34838
34853
34862
34850
34856
34860
34858
34860
34862
34868
34880
34876
34876
34880
34881
34884
34894
34892
34890
34896
34900
34887
34888
34900
34896
34904
34916
34912
34908
34908
34908
34912
34921
34926
34921
34920
34916
34928
34936
34934
34927
34926
34937
34940
34936
34942
34944
34944
34948
34945
34956
34954
34960
34956
34958
34966
34965
34969
34968
34975
34980
34967
34992
34982
34982
34988
34980
34988
34985
35000
35004
34988
35000
35008
35008
35012
35010
35012
35012
35014
35017
35018
35018
35020
35021
35030
35036
35044
35030
35044
35044
35050
35044
35040
35046
35058
35056
35056
35060
35060
35060
35064
35060
35060
35064
35057
35069
35064
35072
35068
35064
35061
35068
35068
35072
35068
35068
35068
35072
35060
35060
35056
35053
35052
35060
35060
35052
35060
35056
35052
35040
35036
35036
35032
35024
35028
35021
35012
35012
35004
35000
34996
34999
34985
34990
34984
34977
34969
34969
34965
34962
34964
34960
34949
34942
34948
34945
34937
34932
34920
34924
34912
34919
34914
34909
34908
34888
34902
34895
34894
34892
34889
34886
34878
34870
34874
34882
34878
34868
34864
34868
34860
34860
34862
34848
34858
34852
34844
34854
34840
34854
34856
34844
34844
34840
34836
34838
34837
34840
34832
34824
34822
34817
34820
34823
34824
34816
34805
34808
34812
34816
34814
34813
34804
34798
34792
34806
34789
34792
34785
34788
34782
34784
34776
34781
34772
34768
34765
34762
34760
34758
34753
34748
34742
34748
34737
34736
34726
34724
34732
34725
34714
34710
34714
34700
34702
34700
34698
34693
34684
34690
34688
34684
34673
34684
34680
34678
34676
34680
34672
34668
34665
34666
34664
34670
34658
34661
34658
34664
34664
34662
34660
34664
34672
34668
34678
34660
34664
34666
34672
34682
34686
34684
34689
34687
34694
34692
34700
34708
34700
34705
34713
34724
34728
34720
34726
34728
34721
34729
34737
34740
34742
34744
34756
34744
34756
34760
34774
34776
34783
34780
34788
34792
34801
34808
34812
34812
34818
34812
34825
34831
34840
34844
34852
34852
34853
34856
34866
34864
34872
34884
34886
34880
34892
34898
34904
34906
34908
34904
34910
34916
34916
34918
34918
34928
34928
34936
34948
34936
34948
34951
34960
34968
34965
34969
34969
34965
34973
34968
34986
34977
34980
34984
34984
34988
35004
35002
35006
35010
35000
35004
35014
35018
35012
35008
35020
35025
35036
35036
35036
35040
35034
35036
35042
35046
35063
35052
35052
35058
35056
35062
35064
35062
35076
35068
35085
35086
35081
35088
35098
35104
35106
35112
35116
35116
35109
35126
35122
35132
35136
35144
35144
35156
35156
35160
35164
35178
35184
35176
35188
35180
35191
35202
35205
35220
35222
35228
35236
35236
35238
35248
35256
35265
35272
35272
35272
35288
35290
35289
35303
35311
35306
35318
35322
35335
35342
35348
35356
35348
35361
35372
35374
35384
35388
35396
35408
35408
35422
35423
35420
35436
35436
35440
35448
35456
35461
35472
35468
35484
35489
35492
35500
35496
35501
35501
35508
35526
35518
35536
35541
35544
35540
35552
35546
35556
35568
35560
35572
35575
35584
35591
35596
35604
35609
35616
35616
35620
35628
35621
35630
35640
35644
35644
35650
35659
35655
35662
35678
35684
35684
35688
35692
35700
35700
35711
35718
35716
35724
35724
35740
35727
35736
35740
35740
35751
35752
35748
35764
35772
35768
35777
35774
35784
35788
35788
35797
35796
35794
35812
35804
35808
35816
35828
35822
35820
35828
35837
35840
35846
35847
35849
35860
35865
35869
35865
35872
35876
35877
35884
35888
35896
35892
35898
35908
35912
35917
35917
35924
35928
35932
35938
35945
35938
35948
35954
35964
35952
35964
35961
35972
35974
35973
35972
35989
35983
35983
35996
35992
36004
36001
36004
36004
36009
36012
36020
36014
36020
36028
36028
36032
36032
36036
36036
36028
36052
36052
36052
36052
36060
36060
36060
36062
36066
36060
36068
36068
36062
36069
36060
36064
36066
36070
36068
36068
36072
36068
36077
36060
36068
36068
36074
36073
36068
36068
36076
36068
36060
36064
36068
36062
36056
36068
36060
36061
36062
36056
36052
36062
36057
36052
36048
36045
36052
36050
36047
36042
36048
36029
36030
36034
36036
36029
36036
36019
36022
36008
36020
36022
36022
36021
36016
36013
36014
36013
36000
36004
35996
35996
35996
35993
36000
35996
35994
35977
35980
35980
35984
35980
35984
35977
35980
35969
35970
35972
35962
35968
35961
35956
35962
35966
35949
35952
35951
35956
35950
35940
35944
35932
35932
35940
35940
35936
35934
35929
35936
35929
35924
35916
35924
35918
35913
35913
35916
35922
35910
35916
35900
35908
35910
35898
35904
35908
35909
35908
35908
35902
35910
35896
35905
35892
35900
35892
35896
35896
35898
35896
35889
35892
35885
35884
35878
35878
35876
35874
35862
35864
35864
35860
35856
35853
35848
35850
35840
35844
35836
35836
35821
35832
35828
35832
35824
35827
35820
35820
35804
35812
35816
35812
35814
35805
35812
35796
35812
35796
35800
35808
35798
35794
35792
35792
35789
35786
35786
35784
35780
35784
35777
35778
35769
35767
35770
35768
35760
35768
35765
35772
35759
35769
35760
35762
35760
35760
35764
35756
35760
35754
35756
35754
35760
35759
35758
35756
35748
35756
35746
35744
35754
35752
35748
35741
35754
35742
35752
35740
35741
35740
35734
35734
35742
35740
35728
35724
35726
35728
35732
35721
35723
35724
35720
35720
35716
35718
35720
35712
35718
35700
35702
35686
35696
35696
35688
35688
35681
35673
35676
35674
35670
35668
35668
35652
35650
35640
35644
35638
35636
35628
35620
35612
35610
35608
35596
35591
35586
35580
35575
35568
35572
35552
35560
35548
35532
35536
35534
35528
35516
35519
35512
35502
35504
35496
35493
35488
35473
35470
35460
35468
35460
35455
35444
35439
35438
35439
35429
35428
35419
35412
35408
35410
35396
35385
35385
35372
35372
35372
35372
35358
35361
35350
35344
35335
35344
35338
35327
35334
35324
35316
35312
35305
35300
35300
35300
35300
35300
35292
35282
35276
35264
35264
35271
35260
35256
35252
35260
35244
35236
35244
35239
35222
35223
35206
35207
35212
35198
35198
35190
35188
35188
35180
35177
35176
35174
35166
35162
35156
35159
35145
35142
35148
35134
35140
35132
35132
35119
35124
35116
35116
35104
35104
35104
35108
35096
35096
35102
35092
35093
35088
35078
35079
35090
35080
35068
35072
35068
35076
35062
35072
35072
35066
35069
35068
35060
35068
35064
35065
35060
35060
35060
35065
35064
35070
35060
35064
35069
35070
35072
35068
35072
35070
35073
35066
35076
35078
35078
35070
35080
35068
35072
35078
35079
35086
35074
35088
35084
35092
35084
35091
35086
35093
35092
35088
35092
35100
35102
35095
35103
35098
35100
35102
35104
35105
35104
35101
35102
35106
35100
35108
35102
35100
35102
35104
35104
35113
35104
35120
35108
35108
35112
35108
35112
35120
35116
35108
35113
35116
35110
35124
35118
35112
35112
35125
35120
35128
35132
35120
35137
35128
35128
35138
35136
35128
35136
35143
35132
35136
35132
35140
35137
35140
35136
35136
35137
35138
35140
35134
35141
35134
35136
35138
35140
35138
35143
35140
35128
35130
35140
35132
35138
35132
35130
35132
35145
35142
35144
35136
35144
35140
35138
35140
35136
35137
35148
35136
35140
35142
35144
35141
35136
35140
35136
35142
35146
35140
35152
35150
35145
35137
35146
35148
35152
35150
35144
35140
35146
35141
35150
35156
35148
35153
35156
35148
35160
35160
35164
35167
35164
35156
35154
35158
35158
35164
35166
35173
35172
35164
35168
35168
35175
35177
35176
35177
35180
35180
35174
35183
35191
35188
35182
35188
35188
35189
35196
35191
35198
35210
35200
35204
35204
35199
35200
35212
35212
35208
35216
35230
35224
35228
35216
35221
35232
35228
35232
35237
35236
35238
35246
35236
35252
35249
35260
35260
35254
35253
35265
35262
35268
35268
35268
35268
35272
35278
35270
35275
35282
35280
35284
35286
35280
35295
35297
35304
35296
35292
35292
35304
35310
35304
35322
35306
35313
35322
35322
35321
35316
35324
35332
35332
35340
35340
35340
35341
35343
35348
35356
35350
35358
35354
35356
35364
35358
35364
35357
35364
35368
35362
35373
35372
35381
35376
35382
35376
35377
35374
35386
35382
35390
35380
35380
35390
35394
35388
35388
35384
35388
35388
35386
35388
35394
35388
35396
35396
35390
35382
35389
35393
35388
35396
35392
35390
35388
35380
35388
35386
35381
35380
35372
35380
35370
35372
35380
35372
35376
35372
35370
35364
35360
35372
35361
35356
35356
35358
35358
35356
35344
35356
35356
35348
35349
35344
35344
35350
35346
35336
35328
35340
35334
35332
35332
35324
35322
35322
35318
35320
35318
35311
35308
35316
35300
35308
35292
35298
35300
35300
35289
35292
35280
35278
35294
35276
35276
35276
35273
35270
35268
35258
35263
35257
35255
35248
35244
35233
35236
35236
35236
35232
35224
35222
35214
35221
35214
35204
35202
35204
35196
35199
35192
35184
35176
35184
35175
35173
35160
35162
35164
35167
35156
35152
35145
35148
35141
35140
35142
35140
35130
35126
35124
35124
35116
35114
35104
35108
35108
35108
35102
35106
35095
35092
35082
35088
35090
35084
35080
35076
35084
35080
35064
35060
35054
35056
35062
35044
35054
35048
35040
35045
35044
35034
35028
35036
35032
35036
