RESPIRATION
36600
36640
36676
36700
36732
36768
36809
36834
36870
36901
36930
36974
37008
37040
37076
37112
37150
37175
37212
37249
37281
37312
37364
37401
37434
37460
37489
37528
37564
37618
37637
37676
37716
37740
37778
37823
37856
37894
37920
37954
38004
38044
38062
38100
38156
38178
38220
38256
38292
38320
38352
38390
38433
38454
38490
38528
38564
38596
38628
38668
38700
38728
38764
38796
38830
38860
38900
38932
38966
38991
39021
39060
39086
39102
39150
39168
39193
39226
39261
39287
39316
39345
39376
39409
39436
39468
39498
39524
39558
39576
39612
39632
39668
39692
39720
39752
39782
39816
39834
39864
39892
39921
39964
39968
39989
40028
40058
40080
40110
40136
40172
40200
40226
40252
40280
40309
40335
40359
40388
40420
40455
40484
40508
40532
40560
40588
40629
40652
40676
40702
40741
40768
40804
40821
40844
40884
40924
40956
40988
40996
41024
41064
41106
41125
41160
41186
41226
41249
41297
41316
41338
41380
41414
41434
41460
41498
41532
41560
41600
41620
41648
41688
41722
41762
41796
41816
41836
41888
41904
41940
41972
42008
42028
42072
42100
42140
42174
42208
42232
42268
42297
42336
42364
42392
42432
42448
42487
42510
42552
42578
42613
42640
42672
42692
42717
42748
42780
42802
42836
42856
42876
42908
42940
42959
42976
43000
43044
43052
43088
43104
43124
43144
43180
43200
43223
43254
43272
43296
43328
43344
43364
43404
43420
43444
43460
43484
43518
43526
43552
43564
43594
43608
43636
43664
43677
43696
43704
43736
43736
43748
43772
43776
43808
43828
43838
43868
43868
43892
43892
43916
43927
43946
43956
43968
43976
43988
44012
44008
44020
44032
44032
44052
44056
44060
44074
44068
44084
44100
44108
44109
44112
44121
44120
44130
44144
44140
44140
44140
44140
44164
44166
44165
44164
44172
44180
44173
44169
44180
44186
44185
44193
44196
44188
44196
44204
44201
44196
44204
44199
44216
44224
44215
44232
44230
44232
44252
44244
44252
44260
44269
44288
44288
44284
44312
44320
44324
44334
44335
44348
44353
44378
44396
44408
44416
44420
44445
44452
44470
44488
44500
44518
44528
44542
44562
44572
44596
44614
44620
44636
44660
44670
44694
44708
44740
44745
44772
44774
44792
44816
44834
44852
44880
44892
44908
44928
44944
44960
44968
44996
45008
45032
45058
45073
45094
45116
45126
45140
45150
45172
45188
45216
45232
45250
45273
45284
45308
45324
45336
45356
45377
45396
45412
45430
45444
45460
45468
45492
45510
45536
45559
45572
45584
45596
45616
45628
45646
45652
45660
45680
45712
45724
45732
45748
45764
45773
45782
45804
45816
45822
45832
45844
45860
45876
45882
45888
45908
45911
45924
45936
45948
45956
45969
45976
45986
46000
46012
46017
46022
46036
46046
46056
46068
46068
46100
46100
46108
46112
46124
46136
46149
46160
46172
46181
46180
46188
46212
46226
46228
46248
46252
46260
46288
46292
46308
46316
46318
46334
46336
46356
46368
46369
46388
46392
46404
46406
46420
46432
46434
46436
46440
46472
46473
46484
46496
46500
46502
46520
46520
46520
46532
46550
46560
46566
46575
46580
46590
46612
46615
46624
46624
46644
46652
46649
46664
46672
46686
46704
46712
46724
46728
46740
46756
46780
46785
46784
46784
46808
46820
46840
46836
46856
46859
46876
46876
46889
46904
46919
46935
46940
46946
46960
46966
46972
46980
46992
47000
47000
47018
47020
47024
47028
47040
47040
47052
47052
47052
47052
47057
47048
47052
47066
47064
47077
47064
47054
47046
47056
47056
47060
47045
47048
47056
47036
47032
47020
47018
47024
47008
47000
46984
46988
46970
46972
46956
46956
46940
46936
46912
46901
46900
46893
46892
46868
46846
46840
46832
46812
46804
46794
46772
46756
46750
46724
46724
46708
46680
46664
46647
46648
46620
46592
46589
46570
46548
46524
46508
46484
46476
46454
46436
46412
46396
46384
46368
46350
46330
46308
46288
46268
46240
46220
46207
46184
46167
46148
46120
46080
46078
46056
46042
46010
45996
45960
45940
45926
45904
45886
45846
45828
45808
45784
45758
45720
45700
45668
45652
45632
45618
45588
45562
45532
45504
45480
45452
45436
45412
45388
45364
45328
45309
45284
45256
45230
45192
45172
45148
45112
45096
45060
45032
45020
44986
44960
44926
44908
44877
44844
44812
44796
44775
44741
44708
44684
44664
44632
44600
44568
44550
44516
44500
44464
44441
44400
44380
44360
44332
44292
44264
44240
44216
44198
44170
44141
44116
44086
44052
44020
43992
43984
43960
43924
43892
43876
43852
43808
43792
43770
43752
43712
43696
43664
43638
43616
43600
43572
43548
43515
43490
43460
43444
43412
43396
43364
43348
43320
43281
43277
43252
43224
43204
43180
43164
43138
43104
43086
43046
43036
43001
42988
42964
42936
42916
42900
42878
42840
42818
42796
42784
42752
42720
42704
42676
42656
42628
42604
42590
42568
42532
42512
42500
42476
42448
42421
42396
42380
42356
42336
42304
42278
42260
42236
42217
42191
42168
42148
42121
42108
42084
42058
42024
42020
42001
41976
41944
41920
41896
41877
41868
41832
41812
41788
41780
41744
41728
41698
41672
41652
41638
41618
41589
41561
41540
41528
41500
41484
41452
41440
41396
41384
41356
41332
41312
41294
41264
41236
41222
41193
41184
41154
41120
41112
41078
41052
41041
41012
40981
40962
40932
40917
40900
40852
40842
40812
40792
40766
40753
40716
40695
40662
40640
40624
40609
40570
40544
40532
40492
40468
40444
40428
40396
40372
40356
40316
40288
40268
40236
40212
40186
40156
40133
40108
40076
40064
40032
40012
39980
39956
39927
39904
39884
39862
39828
39802
39776
39752
39724
39705
39680
39652
39628
39604
39584
39553
39536
39504
39481
39460
39422
39405
39372
39360
39330
39304
39278
39262
39236
39212
39181
39161
39144
39114
39089
39072
39040
39012
38988
38970
38946
38916
38888
38868
38846
38825
38812
38780
38758
38732
38713
38692
38652
38647
38630
38593
38566
38548
38516
38501
38484
38450
38436
38400
38382
38360
38346
38316
38292
38261
38240
38212
38200
38185
38164
38132
38100
38080
38066
38044
38028
38000
37976
37952
37940
37909
37882
37860
37844
37814
37804
37770
37756
37726
37706
37692
37656
37632
37616
37592
37580
37550
37529
37500
37482
37456
37440
37416
37400
37377
37352
37313
37292
37281
37258
37249
37214
37188
37164
37132
37112
37097
37080
37056
37024
37010
36990
36972
36940
36916
36900
36884
36863
36833
36816
36794
36776
36762
36740
36709
36688
36679
36660
36638
36622
36591
36580
36568
36544
36528
36518
36492
36476
36444
36428
36406
36400
36385
36370
36344
36324
36304
36284
36272
36256
36239
36224
36188
36184
36164
36148
36132
36122
36092
36072
36052
36036
36016
35998
35984
35969
35949
35938
35918
35892
35884
35864
35836
35812
35802
35788
35774
35757
35744
35720
35692
35677
35653
35632
35620
35608
35574
35556
35552
35528
35512
35488
35478
35448
35430
35404
35392
35380
35358
35342
35328
35316
35284
35264
35252
35240
35220
35198
35172
35158
35140
35116
35108
35076
35060
35038
35028
35008
35004
34980
34972
34944
34924
34912
34887
34864
34854
34837
34816
34792
34788
34776
34756
34742
34721
34703
34684
34660
34648
34629
34620
34597
34577
34560
34548
34532
34512
34500
34484
34465
34445
34436
34420
34404
34380
34364
34344
34316
34312
34300
34279
34267
34253
34236
34212
34196
34190
34156
34157
34132
34104
34104
34080
34069
34052
34032
34029
34008
33992
33976
33960
33938
33920
33903
33874
33857
33840
33826
33804
33788
33760
33734
33721
33701
33668
33644
33624
33598
33571
33544
33520
33496
33473
33446
33426
33404
33385
33358
33340
33304
33281
33252
33224
33196
33176
33144
33113
33088
33070
33040
33016
32990
32964
32940
32912
32889
32855
32824
32796
32772
32738
32716
32686
32652
32640
32599
32572
32534
32504
32480
32448
32404
32381
32348
32318
32293
32258
32234
32196
32170
32134
32096
32064
32022
31992
31960
31932
31892
31857
31826
31796
31758
31724
31684
31644
31610
31572
31532
31497
31472
31430
31396
31360
31322
31276
31257
31224
31184
31148
31117
31095
31057
31024
30992
30962
30909
30880
30852
30812
30777
30741
30704
30668
30628
30588
30556
30526
30494
30461
30428
30388
30352
30314
30289
30246
30220
30192
30156
30126
30098
30053
30026
29994
29968
29945
29916
29892
29860
29826
29797
29772
29748
29724
29706
29676
29648
29622
29596
29576
29552
29533
29512
29492
29476
29446
29416
29400
29384
29374
29356
29328
29300
29287
29270
29240
29236
29206
29206
29182
29168
29141
29132
29120
29096
29090
29076
29060
29044
29032
29009
29000
28989
28967
28957
28948
28936
28925
28916
28902
28876
28868
28864
28848
28844
28824
28813
28800
28784
28776
28774
28760
28745
28740
28728
28716
28704
28686
28680
28669
28658
28657
28644
28638
28628
28614
28600
28592
28576
28568
28560
28542
28528
28520
28514
28504
28494
28486
28468
28452
28442
28428
28414
28398
28392
28372
28376
28356
28338
28326
28314
28300
28290
28280
28260
28256
28242
28236
28224
28209
28188
28176
28167
28153
28140
28136
28132
28128
28118
28106
28096
28084
28080
28074
28081
28068
28060
28056
28044
28036
28032
28034
28032
28030
28024
28022
28014
28016
28004
28004
27998
27996
27988
27990
27983
27978
27988
27991
27982
27980
27974
27976
27964
27972
27969
27964
27960
27964
27960
27972
27968
27964
27972
27968
27964
27972
27968
27970
27968
27976
27974
27982
27988
27982
27996
27992
27994
28006
28012
28014
28020
28020
28028
28040
28061
28060
28068
28074
28092
28100
28100
28124
28136
28148
28161
28172
28191
28192
28210
28222
28238
28254
28278
28290
28300
28312
28337
28349
28360
28370
28388
28396
28422
28446
28452
28477
28492
28512
28520
28536
28552
28572
28586
28610
28621
28648
28660
28684
28696
28708
28732
28740
28760
28772
28804
28820
28838
28865
28878
28897
28908
28932
28948
28964
28986
29006
29036
29052
29062
29080
29100
29120
29144
29164
29183
29212
29231
29246
29260
29278
29300
29327
29349
29361
29386
29408
29430
29454
29480
29501
29516
29540
29564
29580
29604
29628
29656
29686
29708
29720
29740
29772
29788
29809
29833
29865
29885
29909
29926
29948
29975
30009
30030
30054
30073
30100
30126
30156
30184
30206
30228
30256
30272
30301
30334
30364
30378
30398
30432
30452
30482
30502
30536
30556
30576
30609
30625
30648
30672
30695
30725
30750
30768
30792
30824
30848
30878
30900
30912
30948
30960
30986
31008
31032
31049
31073
31093
31108
31134
31160
31190
31209
31240
31261
31276
31304
31310
31340
31362
31381
31396
31424
31453
31474
31492
31514
31534
31553
31564
31585
31604
31624
31652
31676
31694
31712
31724
31744
31764
31782
31788
31816
31836
31852
31876
31890
31916
31928
31942
31948
31968
31988
32014
32028
32038
32052
32066
32084
32103
32116
32132
32154
32160
32186
32192
32204
32218
32233
32252
32268
32290
32294
32308
32308
32328
32351
32358
32375
32386
32385
32401
32417
32428
32436
32460
32458
32476
32480
32493
32504
32527
32540
32540
32554
32560
32570
32582
32600
32604
32630
32638
32652
32656
32660
32673
32676
32689
32704
32712
32728
32744
32748
32761
32756
32780
32800
32812
32816
32820
32828
32830
32841
32858
32871
32877
32884
32894
32900
32920
32926
32928
32940
32964
32967
32968
32980
32984
32996
33005
33017
33032
33044
33054
33060
33060
33077
33082
33094
33094
33110
33116
33133
33144
33158
33159
33164
33178
33181
33204
33209
33220
33232
33236
33240
33257
33268
33276
33294
33300
33304
33304
33322
33341
33350
33364
33365
33384
33400
33404
33408
33425
33438
33452
33456
33464
33470
33488
33488
33508
33520
33530
33544
33556
33572
33568
33585
33604
33604
33612
33624
33640
33657
33665
33676
33681
33700
33694
33708
33716
33732
33740
33752
33760
33764
33768
33776
33786
33790
33800
33812
33836
33836
33832
33852
33854
33848
33864
33864
33882
33884
33892
33893
33898
33892
33896
33917
33912
33920
33932
33928
33938
33936
33934
33930
33942
33944
33958
33956
33950
33956
33957
33966
33966
33972
33968
33980
33972
33972
33965
33984
33984
33976
33988
33988
33988
33968
33974
33984
33988
33980
33980
33990
33984
33988
33993
33990
33976
33980
33976
33990
33984
33980
33980
33980
33976
33978
33972
33978
33972
33982
33984
33976
33976
33964
33980
33966
33978
33989
33985
33976
33981
33984
33980
33984
33992
33988
33988
33980
33984
33984
33992
33994
34000
34004
33996
33992
34000
33996
34012
33994
34016
34004
34004
33998
34012
34009
34016
34014
34012
34012
34016
34017
34030
34028
34032
34032
34024
34022
34022
34030
34020
34029
34036
34028
34032
34033
34028
34028
34028
34028
34032
34032
34037
34028
34024
34024
34030
34036
34036
34028
34036
34030
34036
34028
34032
34042
34040
34036
34030
34028
34044
34038
34054
34046
34036
34041
34046
34042
34052
34050
34054
34044
34049
34060
34064
34056
34062
34064
34061
34060
34073
34072
34081
34079
34080
34066
34073
34080
34086
34092
34104
34104
34098
34104
34108
34089
34103
34108
34124
34118
34119
34128
34126
34138
34134
34146
34160
34156
34164
34176
34180
34181
34180
34196
34200
34200
34206
34209
34216
34228
34234
34236
34240
34256
34256
34272
34280
34284
34295
34300
34308
34324
34332
34345
34356
34364
34376
34384
34400
34412
34408
34420
34434
34442
34464
34464
34476
34478
34492
34508
34518
34532
34542
34557
34564
34568
34588
34598
34616
34632
34640
34656
34668
34672
34690
34698
34720
34720
34727
34726
34754
34770
34777
34784
34792
34789
34812
34814
34818
34832
34832
34844
34844
34844
34852
34866
34876
34884
34878
34880
34881
34881
34896
34888
34893
34892
34888
34888
34900
34900
34904
34902
34892
34900
34912
34912
34893
34904
34894
34904
34910
34903
34900
34903
34903
34908
34892
34892
34892
34896
34894
34870
34876
34884
34857
34858
34860
34852
34840
34836
34832
34832
34823
34828
34818
34812
34798
34798
34797
34788
34786
34780
34770
34772
34764
34760
34750
34744
34748
34742
34732
34728
34727
34700
34700
34700
34692
34676
34687
34672
34656
34644
34648
34636
34622
34616
34604
34588
34580
34558
34552
34548
34536
34516
34502
34492
34476
34469
34456
34436
34426
34405
34384
34364
34345
34336
34316
34292
34264
34244
34213
34204
34180
34160
34128
34096
34072
34048
34020
33997
33976
33946
33916
33880
33854
33822
33790
33756
33735
33704
33680
33652
33608
33586
33540
33512
33480
33460
33432
33414
33381
33356
33319
33300
33273
33255
33228
33202
33168
33132
33112
33084
33058
33040
33005
32980
32951
32934
32906
32884
32855
32824
32796
32780
32758
32736
32716
32692
32672
32644
32620
32608
32588
32568
32554
32526
32508
32481
32473
32452
32439
32424
32397
32384
32364
32352
32322
32316
32300
32287
32262
32244
32228
32209
32203
32191
32164
32136
32132
32110
32102
32090
32068
32039
32030
32017
32002
31994
31966
31957
31940
31924
31914
31894
31876
31866
31845
31823
31823
31804
31780
31776
31748
31741
31729
31724
31704
31681
31670
31648
31636
31624
31608
31604
31594
31570
31556
31544
31532
31521
31508
31488
31468
31463
31444
31437
31426
31411
31396
31375
31374
31354
31340
31330
31322
31310
31284
31288
31272
31262
31246
31234
31222
31204
31192
31186
31172
31162
31154
31134
31122
31112
31104
31088
31073
31054
31052
31033
31012
30999
31000
30986
30972
30968
30949
30940
30924
30917
30903
30887
30892
30884
30870
30854
30845
30836
30826
30832
30821
30822
30814
30800
30796
30784
30788
30786
30772
30775
30773
30760
30756
30754
30752
30742
30745
30750
30740
30737
30732
30725
30722
30716
30724
30728
30716
30712
30708
30716
30716
30724
30712
30704
30712
30701
30692
30700
30700
30698
30702
30708
30709
30704
30700
30702
30702
30717
30710
30725
30708
30716
30717
30732
30736
30744
30735
30748
30752
30760
30773
30780
30773
30782
30798
30801
30808
30820
30820
30824
30836
30845
30856
30860
30868
30872
30878
30881
30892
30900
30902
30906
30905
30914
30924
30936
30932
30928
30937
30950
30952
30953
30956
30956
30960
30964
30969
30968
30966
30964
30968
30980
30973
30972
30962
30966
30970
30973
30976
30972
30966
30976
30964
30965
30972
30977
30972
30964
30962
30956
30959
30964
30968
30960
30956
30956
30952
30960
30958
30960
30964
30950
30946
30940
30944
30941
30948
30936
30932
30934
30936
30937
30929
30932
30920
30922
30912
30916
30916
30917
30916
30900
30904
30896
30898
30897
30894
30895
30888
30885
30878
30884
30879
30860
30868
30854
30855
30853
30854
30856
30846
30840
30828
30820
30822
30818
30818
30796
30800
30804
30796
30788
30782
30784
30776
30773
30777
30768
30756
30750
30744
30740
30746
30741
30738
30716
30704
30720
30711
30712
30700
30706
30693
30688
30679
30676
30673
30664
30673
30664
30668
30660
30652
30644
30636
30644
30645
30640
30632
30630
30622
30633
30629
30636
30632
30634
30628
30620
30624
30629
30636
30632
30629
30634
30638
30636
30644
30640
30644
30656
30657
30664
30664
30670
30668
30676
30688
30689
30700
30700
30700
30704
30714
30730
30728
30736
30737
30754
30772
30776
30773
30780
30786
30799
30814
30824
30814
30824
30832
30840
30856
30852
30864
30876
30876
30888
30896
30908
30918
30919
30932
30936
30948
30964
30960
30964
30991
30994
30991
31012
31026
31022
31034
31038
31062
31066
31070
31076
31087
31101
31106
31116
31126
31128
31144
31144
31168
31172
31184
31186
31191
31204
31214
31228
31245
31253
31254
31260
31268
31278
31298
31300
31308
31306
31328
31332
31344
31366
31360
31364
31372
31386
31390
31400
31415
31428
31432
31444
31436
31450
31460
31482
31484
31496
31504
31511
31516
31524
31524
31534
31544
31547
31560
31572
31575
31584
31592
31593
31604
31622
31622
31632
31632
31637
31640
31648
31658
31663
31670
31668
31680
31684
31692
31696
31708
31706
31712
31714
31724
31729
31738
31732
31740
31736
31736
31742
31752
31764
31767
31766
31768
31772
31766
31776
31784
31790
31797
31796
31796
31792
31792
31800
31808
31806
31814
31808
31808
31806
31808
31820
31820
31828
31836
31840
31829
31833
31829
31830
31828
31832
31842
31842
31844
31854
31844
31848
31856
31850
31852
31860
31872
31870
31868
31856
31876
31876
31884
31883
31888
31879
31876
31888
31889
31894
31896
31894
31893
31904
31905
31904
31908
31908
31906
31918
31920
31922
31921
31917
31920
31920
31928
31925
31934
31930
31934
31934
31936
31932
31940
31936
31944
31938
31944
31938
31936
31938
31932
31944
31954
31956
31944
31945
31944
31950
31956
31952
31960
31956
31952
31948
31946
31946
31946
31948
31950
31946
31956
31942
31940
31943
31940
31936
31944
31940
31941
31932
31936
31932
31932
31928
31930
31940
31916
31916
31924
31912
31913
31906
31908
31892
31893
31896
31892
31884
31876
31876
31871
31874
31868
31864
31866
31848
31842
31840
31825
31822
31826
31820
31820
31810
31804
31800
31794
31788
31777
31775
31780
31772
31772
31756
31756
31746
31734
31732
31728
31732
31729
31712
31701
31693
31700
31692
31686
31684
31673
31668
31660
31652
31652
31653
31646
31640
31630
31622
31612
31614
31612
31608
31589
31588
31576
31576
31566
31564
31560
31556
31552
31548
31536
31520
31520
31508
31500
31489
31488
31480
31478
31468
31458
31442
31441
31448
31432
31418
31413
31396
31388
31383
31372
31369
31356
31352
31332
31324
31321
31312
31305
31295
31282
31257
31256
31236
31244
31232
31223
31205
31188
31176
31168
31161
31152
31144
31140
31127
31116
31106
31094
31084
31076
31066
31055
31054
31041
31044
31030
31023
31010
31008
30993
30980
30970
30976
30964
30964
30953
30948
30942
30933
30928
30924
30914
30908
30901
30904
30894
30884
30888
30885
30876
30868
30871
30862
30865
30852
30853
30853
30846
30842
30846
30844
30841
30840
30852
30854
30842
30839
30852
30832
30839
30847
30852
30852
30856
30854
30857
30856
30866
30860
30860
30874
30874
30884
30886
30884
30888
30881
30892
30890
30884
30892
30892
30893
30896
30906
30910
30923
30928
30928
30940
30948
30952
30960
30964
30970
30976
30970
30975
30980
30980
30976
30980
30988
30989
30992
30981
30988
30996
30984
30978
30977
30972
30964
30957
30957
30953
30952
30948
30946
30939
30939
30940
30928
30928
30911
30906
30896
30890
30872
30878
30864
30846
30844
30832
30828
30820
30812
30804
30789
30784
30769
30760
30752
30746
30716
30712
30692
30684
30664
30645
30636
30628
30618
30606
30574
30564
30540
30517
30500
30492
30472
30460
30444
30420
30410
30384
30364
30348
30332
30319
30308
30292
30272
30248
30224
30216
30192
30168
30140
30128
30102
30076
30044
30022
30004
29972
29952
29932
29898
29880
29857
29828
29800
29778
29762
29738
29716
29688
29656
29640
29620
29596
29566
29540
29526
29497
29472
29458
29436
29408
29398
29372
29345
29337
29320
29305
29288
29282
29253
29229
29212
29200
29184
29174
29162
29154
29140
29132
29118
29096
29092
29084
29073
29071
29056
29052
29037
29020
29025
29022
29004
29000
28994
28981
28982
28972
28974
28972
28956
28942
28940
28950
28944
28928
28922
28918
28914
28904
28908
28912
28908
28900
28894
28894
28892
28890
28884
28888
28884
28886
28884
28885
28884
28876
28873
28866
28868
28878
28868
28868
28864
28870
28872
28868
28856
28864
28864
28865
28855
28866
28864
28865
28868
28872
28868
28864
28864
28862
28861
28868
28868
28870
28866
28872
28864
28866
28868
28870
28875
28888
28884
28884
28890
28880
28892
28880
28884
28893
28898
28896
28890
28896
28901
28896
28900
28901
28908
28911
28914
28908
28910
28905
28914
28908
28916
28928
28912
28914
28916
28912
28912
28922
28928
28935
28924
28923
28926
28928
28927
28932
28944
28944
28945
28950
28951
28956
28964
28973
28977
28988
28982
29004
29008
29012
29025
29030
29040
29046
29050
29056
29068
29082
29092
29096
29104
29108
29124
29133
29144
29154
29166
29172
29176
29184
29199
29208
29223
29224
29244
29252
29276
29281
29292
29305
29314
29321
29340
29350
29364
29390
29400
29405
29424
29428
29447
29470
29488
29500
29508
29516
29544
29568
29584
29606
29614
29637
29656
29670
29700
29724
29732
29752
29766
29784
29800
29824
29836
29866
29882
29892
29902
29926
29951
29964
29974
29985
29997
30008
30030
30048
30061
30069
30080
30100
30110
30116
30128
30152
30147
30153
30154
30175
30180
30190
30196
30196
30193
30213
30215
30224
30230
30236
30236
30222
30232
30236
30240
30248
30256
30248
30246
30248
30252
30256
30253
30244
30244
30244
30240
30244
30244
30244
30246
30233
30231
30232
30229
30232
30228
30222
30212
30215
30209
30196
30200
30198
30182
30180
30184
30176
30180
30172
30169
30164
30151
30144
30140
30140
30132
30126
30125
30117
30122
30112
30091
30092
30088
30092
30080
30060
30059
30058
30064
30044
30037
30024
30021
30008
30009
30006
30000
30003
29986
29981
29964
29964
29958
29947
29944
29932
29928
29925
29925
29922
29908
29896
29896
29888
29877
29884
29865
29868
29860
29844
29844
29846
29830
29833
29824
29822
29814
29802
29792
29788
29774
29766
29759
29757
29764
29748
29744
29732
29732
29717
29713
29714
29710
29689
29688
29676
29682
29669
29664
29657
29644
29636
29632
29626
29621
29624
29608
29605
29599
29590
29584
29574
29584
29568
29564
29560
29553
29548
29536
29532
29530
29524
29528
29510
29518
29512
29512
29508
29501
29498
29490
29476
29492
29484
29477
29477
29477
29476
29469
29460
29466
29470
29468
29469
29476
29464
29464
29464
29468
29476
29480
29464
29468
29472
29472
29479
29483
29474
29470
29480
29486
29484
29486
29484
29478
29488
29493
29500
29492
29496
29490
29500
29500
29509
29516
29508
29520
29518
29516
29518
29529
29532
29538
29544
29540
29538
29540
29548
29568
29551
29556
29560
29566
29576
29576
29577
29570
29572
29594
29598
29598
29600
29596
29606
29612
29612
29616
29618
29624
29624
29626
29640
29650
29644
29660
29662
29665
29674
29673
29678
29678
29692
29684
29686
29684
29702
29708
29712
29719
29717
29732
29736
29732
29736
29740
29748
29760
29764
29772
29780
29782
29790
29796
29792
29804
29804
29816
29814
29833
29844
29854
29856
29856
29872
29876
29880
29888
29892
29896
29908
29916
29928
29936
29951
29948
29952
29962
29972
29982
29988
30004
30012
30016
30024
30036
30052
30052
30062
30065
30082
30088
30092
30104
30102
30120
30116
30134
30142
30149
30160
30164
30174
30176
30182
30208
30212
30220
30216
30220
30232
30236
30244
30252
30266
30276
30272
30276
30282
30292
30308
30308
30309
30324
30324
30340
30328
30340
30340
30346
30360
30356
30361
30364
30372
30384
30382
30388
30382
30388
30402
30408
30410
30424
30412
30428
30429
30432
30430
30438
30438
30444
30464
30456
30452
30462
30470
30472
30481
30478
30486
30490
30497
30502
30510
30508
30516
30508
30520
30524
30524
30550
30552
30552
30552
30561
30564
30566
30570
30580
30572
30577
30599
30608
30616
30616
30630
30620
30624
30644
30645
30656
30664
30679
30672
30688
30688
30700
30708
30724
30734
30745
30750
30756
30759
30772
30784
30791
30804
30821
30834
30830
30844
30854
30872
30880
30884
30886
30904
30918
30932
30936
30960
30958
30966
30976
30992
31005
31016
31024
31038
31033
31044
31056
31072
31076
31093
31096
31103
31116
31118
31136
31145
31145
31168
31172
31188
31192
31206
31212
31220
31230
31232
31244
31238
31269
31266
31284
31296
31305
31308
31311
31330
31344
31348
31366
31370
31368
31390
31394
31408
31420
31428
31444
31459
31458
31476
31484
31492
31502
31509
31516
31530
31550
31560
31567
31580
31576
31588
31608
31622
31624
31632
31646
31653
31668
31678
31690
31701
31700
31711
31716
31720
31736
31744
31756
31764
31778
31788
31782
31792
31798
31798
31816
31820
31832
31820
31845
31848
31849
31848
31860
31872
31880
31877
31886
31878
31884
31895
31902
31904
31920
31920
31920
31925
31924
31929
31944
31950
31950
31946
31945
31948
31964
31976
31984
31992
31988
31992
32004
31999
32021
32036
32030
32026
32036
32046
32054
32066
32070
32088
32084
32084
32102
32100
32108
32132
32132
32142
32148
32151
32156
32170
32180
32192
32202
32216
32216
32222
32240
32244
32246
32262
32272
32285
32296
32308
32312
32320
32324
32327
32344
32342
32358
32372
32388
32388
32404
32408
32420
32420
32430
32438
32442
32456
32476
32482
32489
32504
32512
32516
32528
32536
32548
32556
32568
32577
32588
32604
32616
32626
32640
32660
32668
32676
32692
32700
32712
32718
32737
32748
32756
32772
32781
32789
32796
32798
32804
32809
32810
32808
32814
32822
32816
32828
32831
32830
32831
32836
32831
32828
32820
32816
32816
32814
32806
32804
32800
32796
32783
32776
32772
32772
32764
32756
32748
32742
32745
32732
32726
32706
32693
32677
32656
32662
32648
32634
32616
32608
32588
32567
32552
32537
32520
32494
32478
32454
32449
32428
32408
32391
32372
32354
32332
32308
32282
32269
32231
32208
32188
32154
32126
32104
32078
32049
32024
31996
31972
31940
31904
31868
31844
31814
31781
31750
31724
31676
31660
31615
31588
31556
31518
31492
31458
31416
31388
31356
31321
31284
31244
31206
31182
31152
31128
31096
31076
31056
31028
31010
30978
30962
30933
30916
30896
30860
30848
30820
30794
30780
30769
30728
30710
30696
30672
30660
30638
30622
30604
30582
30564
30560
30544
30530
30522
30518
30500
30490
30476
30461
30444
30434
30432
30414
30400
30404
30394
30392
30380
30384
30372
30352
30352
30334
30336
30330
30332
30324
30320
30308
30308
30302
30304
30285
30289
30280
30268
30266
30256
30254
30256
30260
30250
30247
30242
30237
30238
30224
30222
30226
30224
30220
30222
30220
30210
30212
30212
30200
30196
30191
30188
30191
30180
30180
30178
30176
30177
30185
30176
30172
30172
30166
30164
30166
30160
30148
30154
30149
30160
30160
30164
30149
30149
30146
30136
30136
30138
30138
30147
30136
30148
30141
30132
30140
30132
30130
30128
30126
30118
30116
30119
30117
30114
30118
30105
30112
30104
30102
30101
30098
30084
30092
30076
30084
30080
30084
30074
30058
30056
30060
30052
30052
30063
30055
30050
30048
30036
30032
30036
30040
30044
30036
30034
30033
30036
30030
30030
30036
30040
30046
30049
30040
30048
30046
30032
30044
30036
30040
30048
30048
30052
30052
30053
30060
30052
30052
30055
30056
30056
30052
30063
30066
30068
30088
30084
30085
30089
30092
30087
30086
30093
30100
30105
30109
30120
30124
30122
30133
30148
30152
30158
30158
30166
30180
30192
30200
30213
30220
30234
30237
30252
30262
30264
30277
30292
30312
30325
30332
30345
30350
30364
30376
30392
30412
30417
30436
30456
30462
30470
30480
30486
30510
30522
30532
30548
30548
30557
30576
30582
30590
30589
30600
30606
30616
30634
30640
30653
30652
30654
30663
30670
30673
30672
30684
30684
30688
30689
30701
30702
30716
30713
30717
30716
30714
30710
30716
30713
30718
30716
30716
30714
30718
30721
30716
30705
30718
30716
30716
30726
30724
30736
30718
30716
30716
30716
30720
30716
30716
30716
30713
30720
30720
30736
30717
30716
30724
30725
30716
30718
30718
30724
30718
30712
30713
30724
30719
30716
30718
30728
30732
30724
30720
30726
30721
30716
30725
30729
30740
30736
30733
30738
30732
30732
30724
30729
30740
30744
30745
30748
30752
30752
30746
30756
30748
30748
30748
30757
30760
30757
30759
30770
30772
30780
30784
30772
30777
30780
30783
30780
30790
30782
30794
30796
30792
30788
30792
30797
30794
30800
30808
30808
30812
30816
30814
30816
30822
30820
30813
30816
30816
30820
30831
30826
30828
30828
30820
30824
30828
30836
30838
30825
30832
30830
30829
30837
30825
30838
30832
30836
30837
30839
30836
30848
30840
30830
30824
30832
30834
30832
30838
30836
30844
30844
30845
30842
30849
30840
30833
30838
30834
30836
30840
30836
30850
30840
30844
30852
30844
30853
30852
30853
30857
30866
30860
30856
30853
30865
30864
30868
30870
30874
30868
30876
30876
30884
30880
30881
30886
30896
30885
30900
30892
30909
30902
30908
30901
30914
30916
30916
30917
30922
30924
30924
30926
30928
30934
30944
30950
30944
30939
30952
30954
30943
30952
30962
30968
30965
30970
30965
30975
30978
30993
30988
30992
30992
30994
30994
30997
31006
31008
31012
31010
31016
31012
31016
31006
31018
31021
31020
31028
31028
31032
31018
31020
31030
31029
31045
31036
31034
31033
31036
31038
31040
31047
31052
31037
31038
31052
31040
31040
31049
31052
31048
31050
31049
31040
31038
31038
31032
31028
31034
31044
31052
31048
31036
31036
31033
31032
31038
31040
31036
31046
31036
31026
31040
31028
31031
31032
31037
31028
31028
31020
31016
31018
31012
31016
31012
31012
31012
31020
31010
31008
31006
31004
31004
31000
31004
31000
30992
30986
30993
30986
30984
30988
30988
30992
30988
30984
30973
30982
30984
30972
30974
30980
30974
30974
30968
30960
30956
30956
30968
30966
30960
30962
30952
30960
30953
30956
30968
30964
30954
30957
30960
30960
30952
30948
30946
30956
30950
30952
30956
30948
30944
30944
30952
30948
30956
30940
30952
30962
30954
30948
30940
30946
30951
30948
30948
30944
30946
30944
30948
30948
30949
30946
30948
30940
30952
30951
30950
30952
30946
30950
30949
30932
30944
30940
30944
30944
30944
30949
30962
30952
30952
30958
30952
30958
30950
30964
30952
30954
30958
30948
30952
30964
30972
30960
30956
30960
30957
30968
30958
30960
30964
30968
30956
30968
30968
30958
30966
30968
30964
30972
30972
30980
30966
30964
30969
30962
30970
30972
30968
30970
30965
30956
30958
30953
30952
30962
30956
30956
30958
30958
30954
30949
30932
30936
30942
30938
30948
30932
30936
30936
30920
30924
30928
30926
30912
30912
30913
30902
30896
30900
30888
30888
30893
30892
30884
30876
30878
30874
30872
30866
30860
30859
30856
30860
30862
30868
30848
30852
30844
30844
30844
30846
30840
30848
30844
30848
30839
30842
30836
30836
30840
30836
30846
30840
30844
30844
30838
30840
30842
30848
30852
30857
30844
30844
30848
30856
30854
30852
30853
30857
30860
30858
30860
30861
30863
30865
30861
30863
30852
30862
30868
30868
30876
30862
30860
30854
30862
30866
30872
30866
30844
30849
30860
30857
30850
30844
30836
30836
30829
30830
30828
30820
30820
30820
30808
30801
30800
30792
30780
30786
30776
30778
30777
30760
30754
30748
30744
30732
30740
30728
30727
30718
30710
30693
30686
30692
30676
30678
30668
30670
30654
30645
30644
30628
30628
30628
30622
30621
30605
30607
30592
30580
30580
30580
30568
30567
30556
30558
30550
30549
30548
30544
30533
30528
30530
30512
30516
30510
30508
30496
30496
30492
30488
30500
30481
30478
30473
30468
30474
30478
30476
30473
30472
30462
30456
30463
30460
30467
30472
30473
30478
30465
30472
30474
30476
30484
30490
30492
30504
30516
30518
30518
30525
30533
30544
30558
30557
30562
30570
30566
30573
30566
30593
30591
30597
30596
30602
30597
30608
30606
30600
30612
30596
30602
30606
30604
30604
30606
30596
30592
30586
30584
30578
30570
30576
30572
30569
30562
30552
30536
30534
30536
30537
30518
30516
30505
30500
30496
30480
30462
30460
30445
30436
30430
30420
30412
30402
30382
30364
30358
30336
30318
30316
30300
30287
30282
30260
30240
30222
30208
30188
30180
30170
30144
30125
30104
30077
30066
30046
30030
30008
29988
29956
29936
29922
29900
29880
29856
29826
29806
29780
29764
29743
29716
29694
29662
29640
29608
29588
29572
29548
29532
29504
29480
29448
29428
29404
29394
29376
29364
29351
29334
29310
29294
29269
29266
29252
29240
29216
29202
29182
29164
29152
29138
29132
29114
29108
29092
29070
29064
29055
29036
29026
29021
29016
29020
29009
28997
28990
28976
28965
28964
28962
28964
28968
28960
28952
28946
28940
28945
28932
28936
28932
28930
28924
28932
28932
28932
28941
28932
28919
28920
28916
28912
28916
28924
28924
28920
28925
28911
28912
28912
28908
28904
28912
28910
28898
28908
28902
28910
28912
28905
28908
28904
28900
28892
28900
28894
28900
28894
28906
28900
28903
28904
28897
28892
28894
28902
28904
28904
28900
28898
28894
28892
28895
28905
28902
28900
28900
28900
28900
28891
28900
28904
28916
28908
28924
28916
28912
28910
28919
28921
28934
28932
28934
28934
28940
28937
28942
28948
28956
28962
28962
28958
28964
28964
28964
28972
28976
28980
28984
28989
28980
28988
28992
28994
28992
28992
29001
29002
28994
28996
29000
29002
29000
29004
29001
28997
29000
29000
29012
29024
29016
29030
29024
29029
29028
29044
29044
29044
29046
29053
29062
29076
29080
29079
29086
29086
29082
29090
29108
29118
29122
29124
29138
29141
29141
29133
29144
29159
29160
29164
29168
29180
29180
29196
29192
29192
29192
29209
29204
29214
29224
29221
29232
29228
29242
29244
29256
29262
29269
29270
29276
29281
29286
29300
29304
29321
29329
29342
29348
29353
29368
29382
29400
29415
29426
29428
29448
29462
29476
29498
29509
29532
29540
29557
29576
29592
29612
29621
29638
29656
29674
29688
29715
29733
29742
29758
29765
29790
29804
29824
29840
29848
29864
29868
29884
29908
29924
29928
29938
29962
29973
29972
29988
30000
30004
30014
30024
30040
30048
30050
30060
30072
30080
30088
30093
30100
30120
30120
30120
30133
30137
30144
30144
30150
30164
30178
30172
30180
30190
30192
30198
30208
30220
30224
30236
30240
30260
30253
30260
30262
30276
30292
30296
30300
30300
30308
30313
30312
30334
30332
30348
30357
30357
30376
30390
30388
30400
30400
30404
30415
30421
30424
30428
30444
30456
30469
30464
30474
30478
30496
30496
30504
30504
30512
30520
30526
30530
30540
30536
30552
30556
30564
30560
30580
30582
30584
30590
30588
30597
30608
30615
30623
30616
30632
30632
30640
30644
30654
30661
30661
30676
30680
30677
30678
30681
30692
30696
30692
30713
30714
30721
30730
30733
30742
30756
30748
30756
30764
30761
30774
30782
30788
30788
30796
30807
30808
30812
30816
30816
30816
30822
30830
30830
30832
30844
30844
30858
30864
30864
30866
30866
30872
30879
30888
30888
30896
30900
30902
30919
30916
30926
30938
30929
30936
30936
30936
30944
30944
30952
30950
30968
30972
30982
30986
30992
31000
31004
31000
31012
31012
31012
31020
31036
31036
31052
31052
31050
31048
31060
31068
31076
31089
31094
31101
31108
31102
31108
31108
31124
31130
31138
31152
31152
31156
31158
31172
31170
31176
31182
31194
31213
31212
31214
31218
31224
31236
31244
31254
31264
31269
31282
31278
31292
31287
31300
31300
31316
31332
31330
31343
31354
31352
31358
31360
31360
31372
31392
31396
31396
31407
31418
31418
31428
31436
31446
31458
31460
31470
31462
31484
31472
31492
31502
31512
31514
31524
31531
31537
31533
31536
31540
31548
31553
31568
31576
31580
31584
31592
31600
31604
31600
31622
31616
31624
31636
31644
31648
31656
31664
31662
31665
31664
31672
31692
31700
31708
31714
31712
31716
31716
31732
31734
31748
31752
31760
31764
31768
31774
31772
31776
31781
31796
31795
31808
31810
31812
31814
31812
31825
31834
31834
31839
31840
31852
31853
31852
31868
31873
31880
31882
31878
31884
31889
31889
31905
31909
31914
31912
31912
31916
31928
31936
31952
31954
31960
31960
31959
31972
31968
31980
31982
32000
31986
31992
32004
32012
32020
32020
32036
32044
32050
32052
32052
32064
32056
32068
32081
32084
32095
32104
32119
32124
32128
32130
32129
32142
32152
32156
32172
32164
32180
32196
32198
32204
32225
32224
32224
32228
32244
32255
32260
32268
32278
32273
32288
32293
32304
32304
32314
32304
32320
32322
32333
32328
32340
32350
32356
32360
32364
32364
32372
32373
32374
32374
32384
32388
32390
32390
32404
32408
32400
32406
32402
32412
32409
32408
32404
32408
32418
32410
32424
32428
32428
32428
32428
32428
32429
32428
32444
32440
32452
32438
32439
32440
32436
32452
32448
32455
32460
32453
32464
32454
32464
32458
32456
32456
32464
32466
32476
32474
32481
32480
32494
32492
32492
32476
32492
32494
32493
32500
32502
32511
32510
32516
32522
32516
32530
32535
32532
32545
32545
32548
32546
32556
32548
32556
32554
32556
32559
32565
32564
32580
32578
32584
32594
32588
32592
32600
32606
32604
32608
32616
32618
32628
32636
32639
32640
32644
32652
32656
32656
32660
32676
32682
32688
32708
32708
32722
32740
32738
32750
32750
32766
32773
32796
32796
32804
32808
32808
32816
32832
32832
32837
32848
32852
32846
32852
32854
32854
32860
32868
32868
32864
32868
32865
32849
32868
32864
32864
32864
32857
32860
32846
32848
32852
32852
32848
32848
32846
32836
32852
32848
32824
32820
32806
32804
32812
32798
32797
32798
32784
32778
32767
32764
32750
32740
32732
32722
32712
32706
32698
32697
32665
32653
32650
32644
32638
32623
32608
32590
32575
32560
32548
32532
32516
32500
32484
32474
32452
32438
32412
32388
32364
32348
32324
32302
32279
32266
32236
32216
32188
32164
32132
32110
32084
32056
32032
32008
31982
31960
31929
31892
31870
31844
31816
31793
31765
31732
31696
31684
31656
31626
31614
31579
31558
31533
31512
31478
31445
31425
31394
31378
31356
31340
31317
31304
31278
31246
31232
31208
31194
31172
31156
31145
31132
31116
31102
31085
31077
31052
31052
31032
31026
31008
31004
30982
30983
30964
30956
30946
30942
30926
30925
30920
30913
30912
30908
30885
30878
30872
30868
30869
30856
30852
30856
30836
30832
30830
30816
30818
30816
30816
30812
30808
30801
30810
30808
30802
30792
30782
30781
30766
30770
30776
30776
30774
30764
30760
30756
30756
30750
30748
30752
30754
30740
30741
30728
30732
30727
30737
30733
30732
30720
30724
30722
30718
30709
30716
30716
30718
30716
30713
30708
30700
30694
30689
30696
30694
30696
30696
30692
30682
30672
30682
30680
30663
30680
30676
30664
30660
30656
30653
30640
30648
30652
30640
30634
30629
30624
30628
30621
30616
30600
30607
30604
30602
30592
30592
30588
30581
30584
30584
30576
30580
30586
30577
30572
30569
30565
30574
30580
30579
30580
30571
30580
30581
30584
30588
30588
30598
30586
30588
30596
30602
30608
30614
30608
30612
30620
30628
30616
30628
30632
30632
30638
30648
30654
30637
30648
30654
30665
30668
30680
30684
30688
30704
30694
30706
30716
30712
30724
30720
30736
30745
30757
30770
30776
30780
30788
30801
30800
30820
30840
30853
30869
30876
30884
30894
30908
30928
30936
30954
30972
30984
31000
31006
31012
31034
31050
31064
31084
31100
31100
31114
31132
31140
31154
31176
31192
31206
31223
31237
31244
31250
31256
31284
31296
31308
31308
31317
31332
31340
31348
31365
31372
31394
31396
31408
31414
31422
31432
31440
31452
31464
31464
31476
31485
31501
31500
31510
31512
31524
31532
31532
31536
31541
31548
31564
31572
31573
31592
31584
31588
31596
31616
31614
31614
31612
31628
31636
31640
31644
31644
31664
31656
31662
31676
31676
31684
31688
31688
31695
31700
31696
31716
31719
31730
31730
31750
31750
31749
31754
31764
31764
31775
31766
31772
31788
31796
31804
31814
31816
31816
31817
31820
31828
31836
31838
31838
31852
31850
31864
31862
31860
31864
31877
31882
31884
31900
31894
31908
31894
31904
31921
31920
31922
31924
31938
31947
31952
31948
31940
31957
31969
31984
31980
31978
31972
31989
32001
32004
32000
32004
32001
32013
32012
32028
32032
32032
32031
32028
32033
32039
32041
32046
32048
32060
32056
32079
32068
32066
32072
32068
32072
32082
32090
32088
32096
32096
32102
32104
32109
32096
32100
32116
32116
32126
32124
32120
32132
32116
32128
32132
32132
32137
32149
32140
32138
32145
32158
32153
32156
32162
32166
32174
32168
32172
32172
32174
32192
32193
32194
32196
32192
32212
32212
32212
32216
32220
32220
32232
32230
32233
32234
32236
32252
32260
32260
32252
32268
32268
32263
32278
32286
32280
32284
32288
32304
32298
32306
32308
32320
32316
32324
32324
32332
32335
32348
32348
32345
32350
32364
32372
32376
32372
32377
32382
32390
32396
32396
32392
32412
32416
32414
32412
32418
32426
32444
32448
32452
32448
32452
32452
32458
32470
32484
32480
32492
32495
32488
32496
32504
32508
32525
32526
32534
32532
32536
32540
32542
32548
32560
32564
32576
32586
32586
32582
32599
32600
32615
32616
32612
32620
32622
32636
32640
32637
32642
32652
32661
32668
32660
32676
32683
32692
32692
32694
32708
32720
32720
32722
32732
32748
32748
32744
32750
32766
32778
32776
32773
32788
32802
32800
32813
32804
32812
32824
32838
32836
32844
32854
32862
32866
32868
32868
32876
32884
32898
32900
32906
32913
32928
32932
32932
32932
32952
32958
32965
32972
32972
32972
32981
32992
32996
33000
33004
33001
33024
33024
33028
33036
33034
33050
33052
33060
33061
33064
33074
33080
33084
33084
33084
33094
33110
33108
33109
33114
33112
33128
33128
33133
33140
33142
33145
33146
33158
33156
33159
33164
33168
33182
33180
33178
33190
33192
33199
33193
33208
33208
33208
33216
33225
33228
33224
33225
33238
33244
33250
33250
33248
33250
33264
33260
33270
33276
33264
33276
33280
33284
33296
33286
33292
33300
33312
33316
33316
33320
33318
33333
33332
33348
33338
33348
33344
33346
33360
33370
33374
33380
33381
33384
33400
33404
33397
33402
33416
33420
33436
33433
33429
33446
33454
33460
33455
33466
33475
33500
33494
33488
33504
33516
33510
33514
33542
33532
33524
33548
33550
33551
33566
33572
33584
33585
33580
33575
33592
33605
33604
33612
33615
33614
33620
33629
33634
33652
33644
33644
33645
33636
33660
33652
33669
33669
33672
33684
33682
33676
33676
33670
33679
33681
33692
33704
33697
33694
33696
33708
33696
33700
33705
33706
33710
33720
33720
33714
33718
33722
33720
33726
33728
33750
33737
33736
33740
33744
33748
33752
33759
33756
33760
33772
33768
33764
33780
33772
33777
33776
33777
33781
33784
33798
33804
33816
33812
33812
33812
33814
33824
33828
33828
33844
33848
33838
33844
33849
33858
33862
33872
33874
33874
33884
33894
33893
33900
33903
33903
33924
33916
33925
33931
33944
33934
33942
33949
33960
33972
33972
33974
33987
33990
34004
34008
34021
34016
34026
34032
34052
34060
34062
34076
34072
34084
34100
34120
34126
34138
34148
34158
34164
34176
34200
34204
34220
34232
34236
34248
34256
34286
34290
34304
34317
34324
34340
34338
34340
34352
34364
34366
34374
34378
34385
34385
34400
34404
34415
34426
34420
34420
34422
34428
34430
34428
34436
34432
34437
34436
34442
34440
34438
34435
34437
34432
34440
34442
34440
34436
34436
34428
34424
34430
34422
34414
34408
34408
34406
34396
34392
34392
34372
34376
34361
34344
34340
34332
34320
34316
34320
34296
34276
34270
34248
34236
34222
34204
34188
34189
34168
34148
34140
34112
34088
34062
34050
34030
34012
33988
33960
33933
33908
33886
33860
33846
33820
33792
33762
33732
33701
33679
33652
33630
33608
33566
33538
33509
33472
33455
33433
33398
33376
33360
33316
33292
33260
33246
33216
33196
33160
33138
33113
33092
33068
33044
33028
33000
32988
32964
32948
32926
32908
32888
32864
32848
32839
32828
32808
32796
32782
32766
32753
32740
32718
32708
32708
32704
32692
32686
32677
32672
32656
32646
32636
32630
32628
32624
32614
32605
32592
32588
32586
32592
32592
32581
32574
32572
32577
32569
32556
32554
32537
32548
32544
32548
32544
32533
32538
32538
32546
32540
32534
32530
32524
32526
32524
32526
32526
32524
32508
32520
32533
32536
32528
32533
32522
32530
32532
32540
32540
32533
32532
32528
32532
32535
32538
32544
32542
32539
32540
32540
32537
32536
32549
32550
32554
32540
32549
32548
32546
32553
32548
32556
32560
32560
32554
32548
32558
32572
32556
32564
32568
32560
32568
32558
32550
32554
32549
32552
32564
32550
32554
32537
32550
32550
32536
32524
32534
32524
32528
32526
32516
32516
32509
32501
32506
32512
32510
32500
32496
32496
32485
32495
32484
32496
32490
32484
32488
32492
32500
32500
32508
32500
32501
32508
32505
32508
32514
32524
32520
32527
32536
32534
32532
32534
32544
32544
32551
32554
32560
32569
32562
32572
32569
32576
32588
32592
32591
32609
32612
32616
32621
32637
32636
32653
32652
32666
32672
32686
32702
32708
32720
32722
32740
32740
32744
32764
32784
32796
32808
32828
32834
32849
32862
32872
32894
32900
32930
32940
32964
32976
32986
33000
33018
33034
33052
33072
33092
33108
33124
33140
33158
33174
33188
33214
33224
33240
33250
33268
33284
33300
33320
33340
33344
33364
33375
33396
33409
33420
33432
33438
33456
33478
33493
33504
33519
33524
33534
33553
33552
33568
33584
33592
33604
33628
33633
33636
33653
33672
33672
33696
33700
33710
33706
33727
33741
33761
33760
33768
33780
33800
33801
33814
33815
33841
33850
33860
33874
33888
33898
33904
33913
33920
33928
33940
33952
33966
33972
33970
33993
33988
34008
34022
34028
34052
34056
34061
34056
34078
34084
34113
34114
34109
34126
34130
34134
34137
34160
34168
34177
34180
34190
34196
34196
34208
34221
34220
34228
34224
34236
34244
34261
34260
34266
34266
34276
34274
34292
34292
34308
34309
34324
34318
34328
34340
34340
34348
34348
34352
34364
34376
34372
34372
34392
34384
34396
34406
34408
34408
34414
34426
34429
34441
34441
34448
34452
34452
34466
34468
34468
34472
34482
34492
34492
34502
34504
34508
34513
34510
34516
34532
34532
34544
34541
34536
34548
34543
34552
34562
34562
34558
34572
34574
34577
34588
34592
34588
34588
34592
34604
34600
34613
34612
34620
34624
34632
34636
34628
34636
34630
34641
34644
34644
34654
34660
34668
34666
34679
34676
34677
34685
34684
34688
34700
34696
34696
34716
34718
34724
34724
34732
34737
34738
34746
34748
34752
34764
34772
34778
34766
34778
34780
34789
34793
34798
34807
34808
34807
34820
34818
34823
34832
34836
34840
34854
34862
34856
34872
34868
34870
34872
34887
34880
34900
34910
34904
34908
34920
34928
34927
34930
34936
34942
34956
34962
34972
34972
34976
34984
34988
35000
35010
35012
35025
35024
35012
35034
35041
35044
35060
35072
35076
35076
35072
35084
35090
35104
35108
35113
35116
35124
35138
35146
35156
35156
35156
35166
35176
35184
35188
35196
35206
35220
35204
35216
35212
35228
35236
35239
35252
35255
35269
35281
35284
35288
35278
35288
35294
35300
35301
35312
35320
35312
35333
35342
35356
35354
35362
35365
35369
35374
35372
35388
35390
35392
35404
35408
35412
35412
35424
35429
35444
35436
35445
35455
35461
35460
35464
35460
35466
35484
35493
35492
35502
35501
35516
35516
35526
35520
35526
35532
35540
35540
35546
35548
35556
35566
35569
35568
35582
35588
35592
35592
35600
35604
35616
35626
35624
35620
35634
35640
35640
35645
35652
35656
35664
35678
35685
35682
35680
35692
35692
35700
35696
35700
35708
35716
35732
35732
35737
35733
35732
35746
35760
35756
35764
35767
35768
35768
35778
35784
35788
35804
35804
35804
35812
35820
35826
35828
35840
35848
35854
35852
35852
35864
35866
35870
35878
35892
35894
35897
35904
35906
35910
35912
35920
35920
35926
35938
35944
35952
35956
35958
35961
35972
35980
35992
35988
35992
36000
36010
36020
36020
36013
36028
36026
36041
36036
36032
36049
36052
36065
36070
36068
36076
36070
36082
36096
36108
36112
36104
36113
36113
36124
36132
36129
36140
36148
36144
36152
36156
36156
36166
36165
36180
36191
36196
36192
36194
36196
36196
36208
36209
36228
36228
36230
36228
36236
36237
36241
36246
36260
36252
36258
36268
36272
36280
36276
36280
36284
36304
36295
36300
36297
36308
36324
36325
36332
36338
36340
36342
36346
36353
36372
36380
36382
36396
36398
36398
36412
36420
36417
36432
36450
36455
36462
36468
36476
36494
36500
36508
36516
36518
36529
36543
36546
36561
36572
36588
36604
36600
36624
36626
36636
36647
36658
36664
36676
36684
36696
36712
36720
36732
36738
36737
36748
36772
36777
36785
36798
36804
36800
36816
36818
36833
36844
36848
36853
36870
36872
36880
36884
36890
36900
36908
36920
36924
36930
36936
36926
36940
36956
36959
36964
36958
36964
36967
36976
36980
36990
36991
36996
36996
37000
37004
37008
37012
37014
37024
37025
37026
37032
37038
37036
37056
37044
37048
37050
37050
37056
37062
37080
37078
37074
37070
37072
37080
37092
37100
37100
37104
37101
37108
37108
37114
37108
37120
37120
37120
37130
37126
37134
37142
37144
37150
37148
37150
37159
37158
37164
37168
37172
37173
37172
37176
37180
37188
37180
37188
37200
37204
37214
37208
37208
37218
37220
37224
37232
37248
37252
37246
37254
37252
37268
37272
37282
37288
37300
37304
37308
37312
37308
37332
37340
37349
37364
37376
37376
37392
37390
37408
37412
37428
37438
37440
37460
37461
37480
37469
37476
37481
37490
37500
37494
37498
37508
37508
37516
37520
37513
37512
37516
37520
37508
37520
37504
37500
37509
37500
37505
37498
37504
37503
37496
37488
37484
37478
37476
37464
37466
37452
37449
37440
37440
37428
37420
37416
37390
37388
37372
37362
37360
37348
37340
37330
37312
37300
37274
37271
37248
37224
37220
37209
37192
37172
37156
37150
37120
37103
37078
37064
37034
37007
36988
36964
36950
36925
36889
36878
36864
36828
36792
36776
36740
36704
36682
36644
36614
36574
36544
36526
36484
36448
36424
36390
36359
36324
36284
36250
36212
36180
36140
36102
36076
36037
36016
35976
35932
35900
35872
35840
35796
35772
35732
35706
35676
35644
35613
35581
35556
35534
35494
35476
35444
35413
35392
35379
35360
35332
35324
35298
35296
35276
35264
35250
35242
35231
35230
35224
35216
35212
35204
35196
35204
35206
35204
35212
35207
35212
35220
35228
35224
35236
35248
35254
35252
35274
35276
35301
35308
35316
35329
35349
35362
35364
35380
35396
35412
35440
35452
35476
35488
35495
35504
35522
35537
35548
35588
35605
35620
35628
35648
35668
35686
35708
35724
35748
35764
35784
35800
35812
35834
35855
35872
35908
35920
35933
35948
35964
35992
36012
36052
36060
36078
36100
36102
36132
36152
36172
36196
36220
36236
36252
36288
36282
36312
36340
36358
36380
36404
36413
36433
36446
36478
36480
36508
36542
36558
36581
36582
36608
36620
36641
36662
36694
36704
36714
36732
36748
36764
36776
36792
36816
36832
36856
36868
36878
36884
36901
36918
36936
36948
36964
36976
36988
37020
37020
37028
37048
37052
37072
37093
37100
37136
37144
37159
37169
37172
37192
37208
37232
37244
37268
37280
37292
37316
37324
37346
37360
37376
37398
37412
37428
37440
37456
37464
37481
37504
37516
37528
37533
37558
37566
37592
37596
37614
37636
37648
37656
37668
37692
37704
37720
37734
37748
37764
37784
37784
37804
37824
37856
37860
37880
37892
37896
37914
37928
37949
37960
37984
38001
38028
38044
38062
38068
38080
38108
38125
38134
38148
38184
38188
38212
38210
38240
38257
38269
38287
38304
38320
38332
38347
38364
38366
38380
38404
38416
38424
38434
38440
38450
38465
38472
38494
38498
38504
38516
38524
38532
38526
38540
38544
38560
38564
38568
38562
38564
38564
38580
38577
38582
38584
38588
38574
38596
38592
38588
38597
38589
38597
38600
38589
38588
38588
38576
38590
38583
38576
38572
38576
38564
38572
38566
38560
38558
38560
38552
38536
38540
38538
38532
38521
38510
38508
38509
38497
38488
38488
38472
38476
38456
38436
38436
38444
38428
38416
38390
38400
38392
38377
38364
38352
38336
38326
38319
38305
38288
38280
38276
38264
38248
38237
38212
38204
38184
38180
38177
38150
38136
38124
38104
38097
38076
38060
38052
38040
38021
38012
37988
37976
37956
37936
37926
37900
37892
37868
37862
37846
37828
37804
37796
37768
37756
37735
37732
37709
37684
37664
37648
37620
37612
37588
37576
37552
37537
37520
37496
37476
37452
37440
37422
37409
37388
37374
37348
37316
37308
37294
37282
37260
37240
37220
37200
37172
37170
37156
37128
37112
37088
37072
37052
37036
37020
37004
36988
36969
36940
36936
36916
36900
36876
36857
36845
36832
36820
36802
36781
36764
36742
36732
36720
36712
36696
36668
36670
36648
36640
36624
36604
36600
36574
36570
36562
36554
36535
36512
36512
36492
36486
36476
36462
36457
36432
36425
36420
36414
36394
36394
36382
36366
36346
36348
36340
36336
36328
36316
36324
36300
36284
36292
36276
36274
36268
36255
36250
36256
36240
36228
36236
36222
36228
36216
36212
36214
36200
36215
36192
36196
36212
36194
36196
36196
36200
36200
36190
36196
36188
36198
36204
36209
36196
36204
36200
36216
36228
36220
36226
36231
36232
36250
36258
36252
36260
36261
36270
36280
36300
36304
36308
36314
36320
36324
36341
36356
36360
36369
36372
36388
36401
36420
36430
36440
36444
36452
36464
36486
36496
36510
36516
36530
36544
36552
36576
36594
36598
36616
36620
36642
36660
36674
36692
36701
36704
36724
36740
36776
36784
36800
36812
36838
36848
36880
36904
36912
36932
36942
36972
36988
37004
37024
37048
37064
37098
37112
37124
37137
37159
37193
37212
37220
37252
37276
37292
37320
37338
37354
37372
37400
37424
37444
37460
37479
37508
37536
37542
37562
37598
37620
37634
37657
37694
37704
37720
37745
37772
37800
37816
37832
37864
37884
37910
37936
37956
37988
37992
38021
38052
38084
38108
38132
38156
38180
38204
38242
38257
38284
38308
38334
38360
38390
38416
38452
38470
38496
38524
38556
38589
38618
38640
38668
38692
38720
38754
38784
38804
38847
38856
38888
38908
38948
38984
38998
39047
39066
39088
39116
39150
39172
39200
39228
39252
39280
39314
39344
39376
39406
39432
39460
39480
39512
39542
39560
39600
39632
39660
39690
39720
39744
39768
39793
39828
39856
39880
39909
39949
39969
39992
40023
40060
40076
40113
40140
40168
40205
40232
40248
40286
40312
40340
40384
40404
40428
40464
40484
40516
40544
40576
40600
40632
40654
40684
40704
40740
40760
40792
40820
40848
40881
40910
40940
40956
40996
41000
41052
41068
41092
41112
41148
41180
41200
41234
41256
41280
41308
41326
41356
41384
41407
41428
41462
41487
41508
41544
41574
41596
41620
41646
41670
41692
41720
41736
41760
41790
41808
41844
41868
41892
41914
41940
41967
42012
42014
42056
42070
42088
42124
42148
42168
42200
42229
42238
42268
42300
42316
42342
42362
42390
42421
42454
42466
42503
42532
42548
42568
42604
42630
42656
42698
42720
42730
42764
42804
42820
42839
42868
42892
42933
42960
42982
43008
43026
43056
43100
43120
43144
43168
43196
43226
43252
43276
43302
43340
43361
43382
43404
43440
43468
43492
43516
43536
43572
43600
43628
43658
43680
43702
43724
43757
43776
43813
43824
43854
43892
43912
43932
43964
43972
44000
44030
44060
44092
44116
44140
44166
44186
44218
44244
44266
44302
44332
44364
44380
44422
44447
44464
44504
44528
44564
44596
44631
44668
44700
44732
44749
44790
44832
44864
44892
44932
44972
45004
45030
45068
45118
45156
45192
45212
45250
45284
45332
45366
45408
45436
45478
45506
45556
45588
45624
45656
45701
45742
45780
45816
45860
45900
45946
45980
46012
46056
46100
46144
46180
46215
46268
46300
46352
46384
46422
46464
46508
46550
46584
46636
46684
46719
46756
46810
46840
46888
46936
46976
47028
47056
47112
47145
47204
47240
47290
47328
47364
47420
47456
47501
47532
47580
47612
47660
47704
47748
47792
47824
47864
47912
47956
47984
48040
48072
48108
48145
48196
48228
48276
48300
48340
48352
48396
48436
48476
48508
48530
48549
48588
48620
48658
48692
48708
48740
48760
48796
48824
48836
48864
48900
48924
48960
48972
49000
49024
49063
49060
49096
49132
49148
49188
49204
49212
49252
49276
49288
49300
49332
49358
49375
49405
49415
49447
49460
49472
49496
49518
49532
49558
49560
49584
49608
49612
49636
49642
49659
49672
49688
49700
49720
49732
49756
49760
49764
49776
49782
49792
49820
49808
49828
49845
49840
49848
49856
49852
49860
49870
49872
49868
49880
49881
49880
49876
49878
49876
49870
49880
49872
49880
49864
49868
49856
49844
49840
49852
49848
49832
49820
49820
49818
49788
49799
49794
49782
49773
49764
49748
49750
49736
49724
49716
49720
49700
49680
49686
49680
49664
49660
49644
49645
49628
49616
49622
49612
49600
49580
49576
49572
49564
49553
49556
49544
49540
49528
49516
49516
49500
49504
49492
49492
49481
49460
49460
49460
49460
49448
49440
49439
49424
49424
49421
49424
49430
49436
49420
49426
49408
49417
49404
49396
49400
49400
49400
49399
49408
49390
49396
49408
49388
49404
49396
49392
49396
49388
49397
49392
49396
49396
49390
49400
49398
49393
49380
49388
49392
49398
49384
49392
49388
49384
49377
49369
49376
49382
49370
49376
49380
49356
49356
49342
49352
49340
49342
49336
49320
49324
49311
49300
49304
49298
49276
49276
49279
49276
49256
49252
49236
49224
49225
49218
49188
49199
49172
49172
49156
49140
49128
49120
49104
49106
49096
49077
49060
49040
49036
49016
49008
48996
48976
48964
48940
48932
48924
48900
48896
48890
48868
48852
48842
48833
48818
48792
48792
48776
48776
48750
48748
48744
48729
48718
48732
48718
48712
48704
48702
48708
48690
48676
48676
48664
48670
48666
48660
48652
48660
48652
48636
48636
48640
48648
48652
48646
48646
48636
48642
48641
48640
48649
48636
48624
48655
48644
48646
48652
48664
48654
48658
48669
48672
48674
48668
48664
48684
48680
48692
48692
48708
48706
48700
48714
48708
48708
48728
48729
48736
48740
48748
48740
48740
48760
48744
48748
48772
48780
48768
48780
48786
48776
48772
48776
48791
48784
48780
48796
48788
48792
48796
48778
48784
48780
48792
48780
48776
48756
48756
48748
48756
48740
48748
48724
48734
48724
48719
48700
48682
48662
48656
48644
48636
48632
48612
48588
48584
48576
48550
48528
48535
48504
48492
48476
48460
48432
48412
48396
48382
48356
48337
48308
48300
48272
48252
48236
48216
48190
48172
48148
48116
48097
48068
48056
48024
47992
47976
47957
47928
47908
47880
47860
47832
47792
47768
47732
47716
47684
47652
47623
47614
47568
47546
47520
47488
47452
47424
47404
47366
47336
47312
47276
47244
47208
47189
47148
47130
47088
47060
47028
46988
46952
46932
46900
46868
46841
46806
46794
46736
46701
46676
46628
46606
46562
46544
46508
46468
46428
46400
46368
46346
46290
46264
46228
46188
46148
46116
46090
46053
46030
45989
45944
45916
45876
45836
45810
45760
45724
45696
45652
45624
45580
45532
45504
45460
45422
45388
45352
45316
45272
45240
45196
45148
45124
45086
45044
45000
44958
44916
44888
44836
44805
44749
44721
44686
44656
44610
44560
44520
44488
44444
44398
44356
44316
44284
44249
44204
44164
44132
44082
44048
44014
43968
43934
43892
43856
43810
43780
43732
43696
43656
43612
43584
43550
43520
43476
43432
43400
43365
43332
43290
43262
43232
43192
43160
43115
43084
43048
43009
42980
42964
42924
42888
42852
42824
42780
42754
42724
42704
42660
42640
42612
42573
42540
42512
42481
42452
42420
42384
42366
42338
42304
42284
42252
42224
42204
42168
42132
42102
42088
42053
42034
42004
41964
41940
41904
41886
41855
41825
41798
41780
41748
41714
41694
41664
41636
41616
41592
41568
41532
41508
41476
41448
41428
41407
41376
41356
41332
41296
41272
41240
41222
41193
41156
41140
41116
41084
41052
41031
40998
40986
40960
40936
40904
40876
40852
40824
40796
40767
40734
40712
40688
40668
40640
40608
40590
40572
40536
40508
40489
40448
40416
40396
40372
40345
40318
40292
40264
40240
40218
40188
40162
40132
40110
40076
40044
40020
39996
39964
39938
39905
39868
39854
39824
39780
39756
39734
39694
39668
39648
39617
39578
39552
39524
39500
39470
39440
39404
39380
39342
39312
39284
39253
39221
39200
39152
39120
39100
39068
39044
39008
38970
38954
38916
38878
38845
38817
38780
38748
38716
38692
38657
38624
38592
38554
38524
38488
38458
38437
38396
38356
38336
38296
38268
38228
38200
38168
38132
38096
38070
38028
38005
37972
37944
37908
37876
37846
37812
37774
37744
37720
37678
37648
37612
37576
37540
37508
37484
37444
37418
37382
37348
37316
37285
37252
37209
37176
37140
37116
37083
37052
37024
36997
36964
36926
36892
36868
36834
36797
36760
36724
36698
36670
36633
36596
36578
36546
36508
36472
36444
36398
36366
36342
36308
36276
36245
36222
36188
36156
36124
36090
36060
36036
35996
35978
35948
35912
35872
35836
35805
35772
35748
35722
35686
35658
35628
35592
35554
35528
35492
35460
35432
35399
35368
35340
35312
35276
35252
35205
35183
35156
35112
35092
35062
35031
35010
34972
34943
34919
34878
34854
34810
34784
34756
34724
34702
34676
34644
34604
34574
34548
34512
34492
34458
34428
34404
34380
34350
34322
34292
34257
34234
34200
34172
34146
34126
34102
34075
34048
34020
33992
33956
33934
33910
33879
33864
33836
33804
33783
33760
33740
33708
33676
33648
33634
33612
33579
33561
33537
33513
33488
33460
33440
33416
33392
33369
33348
33325
33296
33269
33252
33236
33208
33185
33156
33140
33114
33100
33072
33058
33022
32999
32985
32966
32940
32906
32880
32864
32850
32828
32804
32769
32754
32728
32704
32692
32672
32642
32612
32590
32569
32546
32526
32504
32488
32466
32438
32424
32389
32376
32349
32320
32302
32280
32268
32242
32226
32205
32185
32158
32144
32116
32096
32072
32066
32042
32025
32007
31973
31952
31932
31922
31908
31890
31868
31840
31825
31804
31788
31769
31762
31746
31724
31712
31688
31662
31652
31634
31620
31608
31590
31576
31563
31560
31530
31518
31508
31492
31468
31450
31444
31428
31405
31392
31378
31372
31354
31344
31328
31320
31304
31284
31268
31252
31248
31236
31223
31208
31199
31185
31166
31164
31140
31130
31110
31108
31111
31089
31086
31062
31048
31038
31038
31032
31014
31004
30996
30980
30972
30962
30962
30950
30936
30928
30913
30914
30900
30894
30890
30872
30864
30848
30836
30820
30820
30800
30785
30767
30750
30746
30724
30722
30708
30690
30666
30652
30636
30626
30613
30592
30584
30564
30552
30542
30519
30510
30496
30465
30464
30440
30429
30414
30388
30384
30366
30361
30336
30328
30308
30288
30264
30251
30232
30224
30212
30182
30161
30156
30148
30124
30108
30085
30068
30054
30048
30021
30010
29994
29980
29960
29951
29934
29932
29908
29890
29869
29860
29841
29824
29804
29796
29784
29773
29760
29740
29733
29720
29712
29700
29682
29664
29652
29637
29628
29612
29604
29592
29584
29572
29556
29548
29536
29508
29504
29495
29476
29468
29466
29448
29444
29438
29420
29404
29388
29382
29370
29370
29360
29349
29343
29336
29318
29317
29316
29308
29300
29297
29292
29284
29272
29274
29263
29270
29265
29264
29266
29266
29276
29271
29270
29268
29264
29274
29270
29284
29284
29296
29292
29312
29316
29310
29319
29303
29326
29340
29343
29360
29358
29376
29380
29397
29396
29410
29410
29422
29424
29424
29442
29452
29462
29479
29496
29502
29511
29524
29530
29540
29554
29557
29578
29588
29598
29600
29612
29628
29632
29648
29659
29672
29678
29700
29710
29724
29725
29744
29744
29764
29772
29782
29796
29808
29828
29832
29835
29852
29852
29864
29882
29890
29896
29902
29916
29920
29928
29946
29964
29965
29974
29976
29980
29985
30000
30012
30028
30022
30036
30037
30034
30047
30055
30069
30069
30072
30074
30084
30084
30089
30092
30096
30100
30110
30108
30126
30116
30113
30116
30124
30122
30138
30135
30130
30140
30142
30148
30134
30144
30147
30145
30148
30146
30140
30156
30144
30162
30165
30168
30164
30164
30169
30184
30178
30174
30180
30182
30188
30198
30198
30210
30217
30214
30220
30217
30232
30232
30231
30240
30242
30244
30250
30258
30262
30271
30272
30280
30272
30276
30281
30282
30285
30293
30308
30304
30314
30329
30328
30328
30326
30328
30338
30337
30352
30368
30364
30370
30372
30376
30382
30392
30402
30408
30406
30422
30430
30440
30445
30444
30464
30478
30476
30495
30509
30521
30524
30536
30545
30560
30572
30588
30586
30604
30617
30618
30618
30644
30650
30662
30669
30689
30708
30711
30722
30732
30728
30752
30756
30770
30782
30792
30812
30812
30824
30830
30844
30832
30853
30862
30876
30878
30892
30900
30908
30924
30940
30952
30960
30972
30976
30985
30988
31012
31012
31032
31028
31048
31068
31068
31076
31092
31108
31132
31129
31145
31161
31172
31188
31202
31204
31224
31244
31248
31262
31268
31280
31298
31306
31320
31328
31336
31346
31356
31368
31381
31395
31405
31416
31423
31438
31440
31454
31460
31468
31484
31485
31512
31516
31524
31535
31542
31550
31552
31565
31567
31580
31592
31596
31613
31622
31633
31646
31648
31652
31668
31672
31678
31688
31700
31718
31716
31720
31738
31743
31748
31756
31766
31774
31788
31793
31808
31816
31818
31834
31844
31852
31868
31872
31873
31896
31904
31912
31924
31940
31950
31960
31948
31965
31974
31985
31996
32012
32008
32023
32041
32060
32064
32073
32076
32085
32092
32102
32114
32126
32132
32148
32161
32164
32172
32185
32188
32196
32209
32222
32238
32244
32256
32256
32269
32276
32292
32300
32312
32321
32336
32356
32360
32373
32380
32388
32392
32404
32418
32432
32444
32452
32470
32472
32476
32485
32500
32502
32516
32548
32552
32564
32580
32580
32586
32600
32608
32622
32630
32644
32670
32680
32684
32700
32704
32716
32724
32740
32752
32778
32784
32801
32817
32816
32836
32846
32868
32888
32884
32902
32932
32930
32956
32968
32980
32988
33004
33008
33038
33052
33068
33088
33104
33105
33123
33140
33162
33168
33190
33202
33215
33236
33244
33272
33284
33304
33312
33324
33348
33356
33376
33393
33404
33424
33452
33462
33476
33488
33506
33518
33540
33553
33583
33582
33600
33614
33636
33652
33673
33682
33694
33708
33732
33752
33765
33784
33800
33816
33828
33844
33862
33888
33900
33909
33924
33944
33966
33980
33994
34004
34016
34024
34045
34076
34086
34096
34124
34136
34148
34164
34180
34184
34209
34212
34237
34252
34276
34281
34287
34302
34316
34340
34356
34364
34384
34396
34398
34411
34426
34438
34453
34476
34484
34504
34508
34510
34532
34544
34562
34570
34584
34596
34616
34609
34629
34636
34645
34665
34672
34676
34697
34701
34717
34726
34746
34756
34757
34768
34774
34790
34794
34798
34814
34836
34848
34855
34864
34872
34884
34886
34892
34910
34916
34930
34934
34942
34957
34956
34972
34984
34988
35001
35008
35024
35024
35032
35039
35044
35047
35068
35066
35076
35086
35100
35102
35108
35108
35124
35134
35134
35141
35139
35148
35165
35172
35169
35172
35180
35180
35183
35196
35196
35207
35204
35216
35221
35224
35228
35232
35228
35230
35232
35246
35241
35248
35252
35265
35270
35270
35272
35268
35272
35274
35286
35296
35297
35300
35296
35297
35308
35312
35316
35318
35309
35324
35324
35320
35317
35332
35336
35345
35336
35345
35356
35354
35357
35354
35357
35359
35358
35368
35356
35365
35368
35372
35366
35372
35380
35377
35384
35388
35384
35382
35384
35376
35380
35392
35388
35392
35397
35396
35392
35392
35385
35393
35404
35401
35396
35402
35401
35400
35404
35396
35400
35393
35388
35393
35396
35398
35396
35398
35398
35392
35394
35386
35396
35400
35398
35384
35388
35380
35378
35384
35384
35387
35381
35388
35369
35366
35356
35364
35364
35354
35360
35348
35348
35332
35335
35341
35334
35335
35338
35328
35319
35318
35309
35314
35316
35312
35300
35290
35286
35278
35281
35279
35282
35277
35269
35268
35254
35252
35256
35252
35253
35244
35260
35248
35240
35245
35239
35242
35244
35240
35244
35244
35256
35256
35254
35248
35262
35268
35268
35270
35274
35276
35284
35288
35296
35298
35302
35316
35328
35325
35328
35340
35341
35348
35360
35362
35364
35384
35390
35397
35404
35396
35420
35428
35438
35439
35444
35452
35454
35460
35476
35484
35492
35500
35500
35510
35508
35512
35516
35534
35532
35544
35546
35552
35558
35569
35572
35570
35582
35578
35584
35588
35597
35584
35593
35604
35612
35608
35600
35610
35620
35620
35626
35621
35614
35620
35628
35634
35638
35636
35648
35642
35652
35662
35660
35656
35652
35650
35652
35664
35666
35670
35684
35676
35672
35685
35676
35686
35684
35694
35700
35697
35693
35708
35710
35708
35712
35716
35720
35716
35724
35726
35726
35738
35740
35740
35748
35764
35756
35772
35761
35776
35773
35772
35780
35788
35784
35796
35809
35806
35808
35808
35810
35812
35826
35824
35822
35832
35844
35842
35840
35852
35852
35852
35862
35870
35876
35866
35876
35884
35896
35888
35900
35904
35908
35926
35929
35936
35942
35956
35968
35956
35962
35968
35966
35984
35985
35978
35980
35984
35993
35988
35986
35996
35984
35984
35984
35980
35972
35972
35966
35962
35969
35957
35956
35948
35945
35942
35934
35936
35925
35920
35896
35897
35900
35884
35884
35876
35868
35856
35828
35834
35820
35828
35812
35792
35782
35762
35749
35743
35736
35736
35708
35692
35678
35672
35654
35652
35636
35612
35606
35576
35565
35544
35538
35520
35508
35484
35457
35445
35434
35409
35384
35368
35354
35334
35313
35290
35273
35244
35220
35196
35172
35150
35118
35105
35073
35042
35010
34988
34972
34942
34916
34884
34853
34821
34796
34770
34728
34716
34677
34656
34620
34596
34564
34528
34498
34476
34446
34423
34396
34372
34340
34312
34279
34260
34220
34208
34180
34161
34132
34114
34097
34066
34046
34021
33993
33974
33960
33940
33920
33902
33887
33872
33860
33840
33817
33804
33789
33775
33752
33751
33736
33726
33696
33692
33672
33678
33656
33640
33632
33624
33620
33612
33596
33580
33580
33568
33564
33548
33532
33528
33512
33512
33517
33508
33486
33483
33488
33472
33464
33460
33456
33460
33456
33437
33428
33425
33424
33414
33408
33416
33408
33398
33396
33389
33393
33380
33376
33376
33379
33372
33364
33362
33344
33356
33338
33332
33334
33328
33336
33334
33324
33324
33312
33312
33304
33300
33308
33296
33297
33280
33276
33268
33272
33268
33265
33257
33248
33240
33244
33240
33232
33220
33222
33216
33208
33212
33200
33190
33181
33180
33166
33153
33149
33142
33145
33132
33125
33116
33105
33105
33092
33084
33072
33072
33062
33060
33048
33028
33023
33020
33016
33006
32988
32990
32980
32968
32961
32958
32950
32952
32952
32938
32936
32932
32926
32920
32917
32917
32912
32900
32910
32903
32910
32914
32916
32909
32916
32900
32903
32912
32912
32900
32912
32902
32900
32912
32904
32922
32919
32908
32918
32909
32918
32922
32920
32935
32934
32936
32926
32940
32934
32940
32946
32956
32960
32964
32974
32972
32969
32972
32990
32990
33000
33009
33020
33018
33025
33037
33036
33050
33063
33076
33081
33094
33088
33104
33113
33120
33148
33148
33160
33178
33188
33192
33209
33225
33244
33252
33264
33272
33278
33284
33296
33312
33324
33340
33344
33351
33376
33384
33388
33396
33409
33418
33426
33440
33445
33460
33464
33468
33476
33492
33497
33512
33520
33516
33525
33525
33556
33559
33564
33568
33576
33576
33596
33604
33601
33612
33624
33632
33632
33652
33652
33656
33664
33668
33664
33678
33684
33700
33712
33712
33724
33734
33734
33736
33740
33748
33756
33764
33777
33788
33796
33800
33798
33812
33812
33812
33824
33828
33846
33848
33856
33860
33866
33864
33876
33880
33893
33894
33900
33902
33905
33912
33916
33936
33932
33936
33942
33944
33950
33958
33954
33970
33973
33976
33981
33992
34002
33994
33994
33992
34008
34018
34018
34020
34023
34024
34036
34044
34052
34056
34059
34056
34064
34060
34074
34074
34084
34086
34092
34084
34100
34102
34114
34114
34120
34116
34120
34128
34124
34129
34129
34143
34143
34132
34148
34156
34156
34152
34152
34165
34172
34169
34172
34168
34176
34180
34190
34188
34186
34181
34190
34188
34198
34206
34206
34204
34196
34200
34208
34214
34202
34222
34216
34221
34222
34220
34220
34232
34225
34232
34238
34232
34242
34239
34242
34237
34240
34244
34244
34248
34244
34252
34256
34257
34260
34254
34268
34261
34253
34254
34269
34260
34268
34266
34257
34262
34268
34271
34266
34268
34272
34274
34269
34272
34276
34276
34272
34277
34279
34274
34284
34292
34287
34284
34278
34276
34274
34286
34292
34286
34284
34274
34284
34276
34286
34296
34288
34288
34294
34294
34289
34284
34294
34288
34296
34286
34301
34288
34289
34292
34292
34296
34301
34303
34300
34304
34300
34297
34296
34304
34303
34308
34316
34308
34312
34308
34310
34316
34320
34326
34312
34316
34314
34324
34322
34318
34326
34330
34338
34336
34336
34324
34326
34329
34336
34332
34337
34349
34356
34344
34332
34336
34338
34330
34336
34336
34355
34356
34350
34338
34352
34348
34357
34357
34348
34346
34360
34362
34360
34348
34357
34353
34356
34352
34356
34364
34360
34360
34360
34368
34357
34360
34364
34370
34356
34367
34356
34364
34372
34364
34358
34368
34365
34368
34356
34356
34364
34372
34375
34354
34364
34359
34352
34368
34360
34360
34351
34356
34364
34356
34356
34349
34352
34358
34350
34344
34353
34357
34350
34352
34340
34338
34344
34341
34340
34340
34328
34340
34336
34330
34336
34330
34317
34328
34321
34321
34328
34320
34310
34308
34310
34311
34306
34308
34308
34301
34293
34302
34301
34289
34286
34288
34286
34286
34284
34288
34272
34270
34272
34276
34265
34260
34268
34260
34262
34255
34252
34242
34242
34244
34240
34242
34238
34230
34224
34220
34216
34230
34216
34212
34200
34212
34204
34201
34201
34186
34182
34180
34188
34178
34164
34156
34156
34161
34161
34142
34132
34138
34136
34125
34116
34124
34100
34096
34096
34083
34082
34070
34072
34056
34052
34048
34044
34020
34014
34021
34016
33988
33990
33990
33975
33968
33954
33940
33952
33938
33928
33908
33906
33887
33878
33870
33857
33846
33840
33828
33814
33796
33781
33773
33764
33745
33730
33724
33700
33700
33680
33664
33661
33640
33628
33600
33596
33584
33572
33552
33540
33516
33512
33488
33482
33468
33440
33418
33410
33406
33396
33366
33356
33332
33319
33309
33304
33276
33254
33244
33224
33216
33201
33182
33157
33156
33140
33125
33104
33085
33082
33056
33041
33025
33010
32989
32974
32964
32956
32936
32916
32904
32878
32876
32848
32842
32820
32800
32786
32780
32756
32741
32728
32714
32708
32684
32668
32656
32642
32626
32616
32601
32592
32568
32556
32545
32540
32530
32508
32487
32484
32468
32457
32444
32434
32433
32416
32400
32390
32388
32372
32360
32364
32357
32348
32344
32328
32324
32319
32320
32306
32292
32292
32296
32300
32280
32278
32281
32268
32272
32265
32260
32254
32264
32254
32254
32252
32260
32256
32260
32254
32248
32245
32256
32256
32262
32254
32257
32268
32263
32260
32260
32265
32276
32272
32281
32276
32272
32272
32284
32286
32292
32286
32286
32296
32300
32304
32300
32305
32306
32320
32316
32324
32318
32320
32322
32336
32332
32348
32348
32348
32352
32366
32376
32376
32380
32382
32392
32397
32409
32401
32410
32421
32420
32442
32448
32460
32468
32464
32480
32478
32500
32504
32514
32532
32548
32546
32556
32565
32588
32602
32606
32616
32625
32648
32672
32675
32688
32706
32714
32740
32758
32772
32784
32812
32816
32836
32852
32882
32902
32916
32926
32944
32960
32991
33008
33021
33046
33069
33092
33108
33124
33148
33175
33198
33220
33232
33244
33268
33300
33319
33332
33364
33388
33409
33428
33449
33480
33500
33516
33561
33574
33585
33612
33638
33668
33696
33720
33742
33781
33804
33828
33854
33884
33912
33948
33972
33996
34028
34054
34088
34114
34148
34167
34190
34206
34236
34272
34308
34324
34340
34366
34392
34416
34442
34468
34481
34504
34532
34548
34576
34588
34618
34649
34660
34686
34708
34720
34754
34773
34784
34809
34824
34844
34868
34884
34908
34924
34944
34960
34980
35000
35030
35038
35056
35072
35078
35109
35108
35120
35144
35164
35172
35188
35204
35213
35232
35250
35270
35284
35284
35290
35308
35320
35326
35344
35352
35350
35362
35380
35390
35392
35400
35400
35412
35428
35424
35424
35433
35446
35444
35446
35444
35456
35464
35460
35448
35460
35468
35460
35465
35468
35473
35468
35468
35468
35468
35466
35471
35464
35466
35473
35480
35477
35462
35464
35466
35470
35485
35492
35484
35492
35492
35504
35504
35512
35517
35524
35532
35545
35556
35558
35572
35585
35608
35616
35616
35624
35655
35667
35678
35696
35704
35720
35748
35752
35770
35788
35802
35828
35852
35878
35902
35911
35932
35951
35972
36002
36028
36044
36058
36079
36117
36134
36158
36190
36220
36236
36252
36284
36302
36340
36362
36384
36404
36424
36456
36481
36500
36536
36572
36592
36616
36644
36676
36696
36712
36737
36764
36788
36816
36840
36860
36904
36920
36940
36965
36993
37012
37034
37060
37092
37124
37148
37168
37195
37214
37232
37264
37284
37305
37333
37364
37384
37416
37434
37466
37488
37512
37544
37552
37573
37602
37630
37654
37678
37711
37720
37764
37785
37796
37828
37856
37877
37918
37934
37959
37986
38007
38028
38056
38084
38116
38142
38172
38190
38216
38240
38260
38292
38324
38344
38372
38396
38428
38448
38476
38504
38526
38568
38588
38612
38640
38672
38710
38728
38766
38788
38816
38844
38880
38902
38948
38976
39010
39026
39054
39102
39128
39170
39200
39228
39260
39294
39324
39354
39392
39416
39456
39494
39528
39560
39588
39618
39656
39668
39708
39741
39780
39812
39840
39870
39914
39936
39964
39990
40036
40062
40108
40133
40172
40200
40228
40269
40292
40324
40356
40394
40436
40455
40484
40522
40572
40602
40636
40668
40700
40732
40766
40804
40848
40876
40900
40942
40980
41020
41071
41098
41130
41158
41202
41248
41272
41308
41336
41376
41404
41444
41477
41524
41556
41584
41620
41660
41688
41728
41760
41789
41828
41857
41895
41924
41964
41991
42022
42040
42080
42124
42160
42196
42238
42248
42284
42312
42350
42382
42412
42430
42476
42500
42532
42564
42588
42630
42658
42686
42708
42736
42764
42800
42832
42869
42904
42928
42948
42975
42997
43024
43056
43094
43116
43149
43182
43194
43217
43258
43284
43322
43349
43368
43388
43420
43437
43461
43500
43536
43560
43576
43604
43640
43660
43700
43716
43756
43772
43796
43829
43853
43872
43904
43925
43960
43992
44006
44040
44064
44088
44116
44132
44166
44198
44221
44252
44277
44309
44328
44340
44388
44398
44424
44460
44500
44512
44536
44556
44588
44608
44640
44664
44684
44714
44734
44760
44792
44815
44840
44862
44900
44924
44940
44956
44996
45006
45032
45064
45085
45104
45132
45158
45183
45204
45214
45240
45272
45296
45326
45350
45356
45386
45400
45438
45454
45473
45495
45504
45541
45565
45584
45612
45620
45632
45660
45692
45702
45721
45752
45768
45798
45818
45832
45857
45868
45900
45908
45932
45948
45976
45988
46008
46028
46064
46078
46108
46116
46134
46164
46180
46200
46212
46244
46268
46286
46298
46304
46340
46364
46385
46396
46430
46444
46460
46485
46508
46524
46548
46568
46572
46606
46629
46644
46668
46692
46716
46724
46748
46760
46792
46804
46832
46848
46862
46881
46900
46922
46948
46976
46986
46996
47012
47052
47064
47084
47094
47132
47153
47154
47180
47194
47224
47236
47256
47276
47296
47320
47328
47350
47373
47382
47412
47424
47452
47470
47489
47502
47528
47544
47564
47584
47596
47620
47654
47668
47680
47702
47708
47740
47769
47769
47796
47816
47841
47860
47870
47900
47912
47940
47956
47968
47992
48020
48042
48052
48076
48100
48110
48132
48157
48182
48204
48232
48240
48254
48292
48304
48320
48352
48384
48404
48425
48440
48472
48484
48500
48542
48559
48576
48592
48620
48656
48684
48704
48730
48760
48776
48808
48834
48848
48870
48924
48943
48972
48984
49008
49052
49072
49084
49120
49137
49180
49208
49236
49264
49304
49308
49344
49376
49396
49422
49454
49476
49516
49541
49568
49600
49628
49636
49676
49697
49734
49757
49788
49809
49837
49866
49897
49916
49952
49974
50004
50022
50052
50068
50108
50140
50172
50189
50204
50232
50256
50288
50312
50336
50360
50402
50404
50436
50464
50480
50514
50540
50560
50596
50604
50632
50664
50692
50710
50732
50774
50800
50813
50844
50869
50892
50908
50932
50960
50980
51010
51029
51063
51086
51110
51140
51156
51174
51206
51228
51254
51284
51308
51324
51344
51372
51382
51418
51444
51460
51492
51504
51520
51564
51576
51604
51628
51644
51672
51692
51704
51727
51756
51792
51808
51840
51856
51872
51886
51912
51935
51970
51980
52000
52012
52052
52056
52088
52108
52128
52148
52168
52188
52213
52228
52260
52272
52294
52324
52336
52354
52376
52388
52420
52441
52446
52478
52488
52508
52534
52551
52572
52598
52612
52612
52642
52664
52676
52690
52716
52740
52764
52776
52782
52804
52810
52832
52860
52872
52888
52904
52920
52937
52944
52964
52988
53012
53012
53028
53032
53063
53068
53088
53110
53116
53132
53148
53156
53182
53192
53210
53228
53226
53244
53252
53264
53272
53300
53320
53344
53349
53352
53372
53388
53392
53404
53416
53436
53432
53460
53460
53496
53496
53500
53508
53520
53544
53550
53564
53580
53605
53604
53608
53622
53636
53656
53668
53676
53684
53704
53710
53730
53732
53744
53756
53768
53792
53793
53812
53800
53832
53836
53840
53856
53864
53878
53884
53888
53910
53920
53932
53956
53956
53972
53984
53988
53988
54008
54012
54040
54040
54036
54042
54072
54068
54088
54088
54101
54093
54104
54116
54132
54132
54132
54144
54140
54160
54168
54180
54184
54160
54180
54196
54202
54205
54208
54220
54217
54222
54232
54229
54236
54244
54248
54240
54248
54264
54260
54260
54249
54252
54268
54264
54272
54276
54279
54273
54278
54286
54268
54268
54279
54272
54279
54271
54268
54268
54266
54268
54256
54260
54252
54254
54252
54244
54261
54244
54252
54252
54236
54224
54236
54224
54228
54232
54228
54200
54228
54216
54212
54212
54212
54208
54192
54198
54200
54212
54196
54184
54168
54165
54160
54180
54172
54152
54152
54148
54142
54128
54124
54117
54128
54118
54117
54111
54088
54088
54092
54092
54090
54076
54064
54064
54064
54056
54056
54054
54036
54026
54000
53998
53984
53982
53970
53936
53948
53928
53932
53908
53904
53876
53876
53840
53812
53812
53784
53766
53746
53712
53698
53676
53658
53636
53601
53560
53549
53536
53480
53476
53456
53420
53402
53368
53336
53312
53296
53260
53224
53212
53188
53152
53135
53116
53080
53044
53024
53004
52980
52956
52924
52916
52892
52865
52844
52824
52808
52770
52760
52732
52716
52688
52672
52644
52620
52588
52564
52540
52524
52480
52468
52440
52400
52388
52348
52334
52288
52256
52228
52196
52168
52148
52108
52076
52044
52024
51974
51936
51900
51876
51840
51800
51766
51732
51688
51652
51616
51580
51544
51492
51452
51424
51380
51336
51309
51264
51224
51184
51135
51089
51052
51024
50985
50932
50888
50852
50818
50776
50728
50704
50662
50604
50572
50535
50512
50468
50420
50388
50358
50316
50268
50234
50212
50172
50132
50096
50068
50030
49996
49956
49924
49910
49860
49833
49807
49776
49748
49716
49680
49656
49632
49600
49564
49548
49504
49488
49460
49436
49398
49376
49364
49332
49312
49278
49255
49224
49204
49186
49156
49124
49112
49080
49068
49024
49007
48998
48980
48944
48924
48900
48884
48852
48830
48807
48788
48768
48740
48708
48692
48678
48660
48636
48600
48588
48572
48538
48516
48484
48472
48448
48412
48405
48368
48348
48327
48294
48284
48248
48236
48192
48180
48150
48134
48108
48081
48048
48024
48004
47972
47956
47930
47896
47876
47860
47828
47804
47772
47756
47724
47706
47665
47644
47605
47582
47564
47540
47524
47480
47460
47430
47415
47374
47348
47322
47308
47284
47248
47222
47198
47176
47144
47120
47082
47072
47048
47018
46996
46980
46940
46912
46878
46868
46854
46824
46792
46780
46736
46729
46696
46688
46648
46634
46616
46596
46572
46556
46526
46516
46492
46462
46437
46424
46412
46388
46366
46344
46316
46292
46268
46252
46240
46208
46180
46162
46132
46116
46092
46072
46044
46028
45999
45988
45944
45925
45900
45892
45868
45840
45816
45786
45760
45729
45720
45702
45668
45666
45636
45604
45584
45543
45520
45502
45496
45464
45444
45434
45397
45368
45348
45324
45300
45292
45260
45240
45216
45188
45168
45140
45126
45104
45092
45068
45036
45008
44997
44962
44938
44908
44888
44864
44840
44832
44804
44776
44760
44736
44720
44680
44654
44641
44614
44580
44556
44528
44518
44480
44464
44428
44404
44376
44352
44332
44304
44277
44248
44226
44196
44167
44136
44124
44092
44064
44028
44002
43988
43943
43916
43889
43864
43832
43804
43764
43736
43704
43680
43648
43622
43588
43556
43528
43502
43472
43439
43412
43380
43352
43312
43280
43250
43224
43188
43160
43130
43097
43064
43042
43007
42964
42944
42912
42876
42836
42812
42792
42760
42728
42692
42652
42625
42592
42560
42537
42512
42478
42437
42408
42380
42346
42332
42294
42264
42232
42200
42180
42152
42126
42089
42072
42032
42008
41968
41944
41920
41896
41862
41847
41814
41792
41756
41732
41710
41684
41658
41628
41601
41588
41552
41528
41516
41484
41454
41428
41410
41390
41360
41340
41306
41284
41254
41240
41220
41193
41161
41145
41124
41092
41072
41047
41024
40996
40964
40936
40912
40892
40870
40852
40820
40804
40776
40744
40724
40700
40674
40646
40622
40584
40561
40540
40512
40508
40470
40439
40423
40396
40362
40334
40310
40273
40250
40231
40204
40180
40148
40124
40098
40076
40047
40012
39992
39961
39930
39912
39888
39862
39838
39796
39776
39744
39724
39704
39668
39632
39606
39583
39549
39528
39509
39473
39448
39420
39396
39361
39348
39325
39280
39262
39232
39208
39188
39157
39136
39108
39063
39049
39020
38993
38980
38948
38908
38892
38860
38828
38804
38784
38756
38732
38708
38678
38652
38614
38594
38574
38556
38526
38496
38480
38438
38420
38394
38364
38340
38321
38300
38276
38240
38218
38192
38164
38142
38100
38081
38068
38044
38020
37992
37964
37933
37912
37886
37862
37852
37808
37800
37778
37743
37738
37704
37684
37655
37626
37608
37584
37552
37532
37520
37500
37468
37444
37425
37406
37380
37356
37338
37310
37280
37272
37246
37228
37210
37188
37166
37148
37116
37092
37078
37052
37036
37032
36996
36977
36957
36936
36928
36892
36871
36847
36832
36817
36810
36776
36758
36732
36720
36696
36676
36652
36638
36624
36604
36596
36580
36550
36518
36505
36484
36461
36440
36424
36412
36396
36372
36350
36326
36310
36288
36272
36256
36248
36222
36201
36188
36164
36143
36120
36100
36089
36060
36052
36032
36008
35990
35968
35964
35942
35910
35889
35876
35860
35836
35837
35809
35784
35760
35742
35725
35702
35684
35676
35658
35636
35620
35600
35572
35556
35550
35524
35506
35482
35477
35460
35438
35416
35396
35370
35352
35340
35320
35298
35276
35268
35246
35216
35197
35174
35159
35140
35112
35100
35088
35064
35047
35025
35004
34986
34960
34936
34924
34902
34887
34864
34856
34832
34808
34776
34768
34752
34721
34704
34682
34658
34645
34636
34612
34588
34566
34543
34512
34500
34481
34457
34442
34408
34388
34360
34340
34336
34304
34292
34265
34244
34220
34188
34176
34147
34136
34112
34092
34068
34055
34021
33998
33986
33956
33927
33916
33895
33876
33848
33828
33806
33789
33766
33752
33724
33697
33686
33653
33640
33632
33613
33578
33568
33537
33526
33500
33487
33468
33444
33433
33421
33402
33388
33370
33344
33321
33312
33304
33284
33268
33252
33240
33220
33206
33182
33172
33156
33148
33124
33108
33094
33088
33070
33055
33038
33032
33012
33020
32996
32974
32958
32956
32940
32924
32919
32904
32884
32872
32860
32846
32830
32816
32808
32808
32780
32772
32751
32734
32724
32717
32712
32692
32672
32656
32644
32636
32621
32608
32584
32572
32561
32547
32532
32508
32496
32479
32468
32460
32438
32416
32404
32388
32366
32358
32342
32326
32306
32284
32264
32252
32234
32220
32196
32169
32150
32129
32120
32100
32084
32062
32034
32016
32000
31986
31964
31934
31924
31894
31888
31876
31852
31820
31810
31789
31772
31750
31724
31706
31692
31671
31647
31620
31600
31588
31566
31544
31524
31504
31478
31444
31428
31404
31380
31358
31332
31326
31294
31264
31238
31223
31194
31188
31152
31124
31100
31093
31063
31041
31004
30972
30957
30928
30904
30881
30853
30826
30798
30775
30756
30732
30708
30668
30650
30612
30582
30560
30532
30505
30477
30450
30416
30388
30348
30318
30284
30248
30220
30192
30160
30124
30092
30052
30014
29980
29949
29908
29884
29844
29802
29760
29732
29702
29648
29614
29580
29540
29500
29472
29440
29400
29357
29317
29276
29252
29221
29175
29124
29102
29064
29030
28992
28946
28916
28873
28838
28802
28754
28713
28683
28649
28596
28560
28516
28480
28436
28414
28356
28319
28280
28242
28196
28164
28120
28072
28033
27988
27944
27910
27862
27832
27782
27730
27692
27642
27605
27572
27528
27492
27448
27404
27352
27308
27272
27228
27192
27164
27122
27073
27037
26983
26945
26903
26868
26814
26766
26730
26689
26638
26592
26548
26512
26464
26416
26380
26322
26284
26246
26198
26147
26104
26064
26032
25984
25937
25905
25854
25820
25776
25729
25698
25660
25616
25576
25540
25492
25453
25416
25384
25356
25306
25276
25236
25192
25162
25132
25088
25060
25031
24996
24960
24936
24895
24868
24844
24798
24776
24752
24708
24677
24652
24624
24596
24580
24545
24516
24484
24452
24421
24392
24372
24354
24330
24298
24276
24245
24232
24199
24170
24140
24118
24088
24064
24044
24020
23982
23975
23942
23908
23884
23850
23834
23808
23793
23756
23729
23702
23676
23652
23633
23612
23577
23560
23525
23498
23474
23447
23425
23412
23384
23356
23326
23296
23272
23244
23228
23202
23172
23141
23119
23089
23056
23036
23015
22994
22968
22944
22913
22892
22849
22831
22803
22784
22752
22732
22697
22668
22646
22614
22597
22572
22548
22508
22490
22467
22440
22412
22376
22357
22337
22310
22276
22256
22224
22197
22170
22150
22116
22104
22080
22056
22036
22015
21988
21960
21936
21908
21892
21862
21852
21830
21807
21796
21756
21736
21715
21685
21668
21662
21642
21614
21592
21576
21561
21544
21528
21512
21504
21489
21470
21449
21432
21420
21410
21392
21380
21366
21360
21345
21330
21318
21296
21288
21272
21262
21256
21245
21232
21222
21202
21193
21182
21173
21160
21151
21152
21136
21129
21129
21114
21105
21097
21089
21076
21068
21062
21058
21041
21050
21049
21048
21044
21041
21033
21036
21032
21028
21020
21028
21029
21030
21033
21031
21026
21025
21020
21027
21037
21044
21046
21048
21044
21056
21050
21064
21060
21064
21076
21060
21078
21078
21080
21093
21091
21097
21096
21100
21104
21110
21114
21117
21124
21126
21124
21120
21124
21126
21144
21140
21146
21148
21145
21148
21145
21141
21150
21152
21150
21154
21162
21160
21161
21168
21168
21169
21170
21174
21175
21180
21178
21188
21172
21181
21185
21188
21192
21192
21196
21188
21194
21193
21204
21204
21197
21204
21206
21212
21218
21222
21226
21231
21232
21230
21236
21239
21250
21249
21260
21260
21260
21268
21268
21277
21286
21284
21296
21298
21304
21311
21312
21320
21324
21318
21332
21333
21344
21342
21353
21361
21370
21374
21379
21390
21396
21407
21408
21412
21416
21426
21428
21444
21452
21456
21468
21474
21481
21479
21485
21497
21492
21516
21524
21538
21537
21548
21548
21556
21560
21566
21574
21580
21596
21595
21609
21604
21620
21636
21636
21642
21644
21649
21653
21664
21664
21668
21680
21684
21693
21710
21706
21709
21716
21727
21726
21729
21733
21740
21750
21756
21761
21770
21780
21780
21770
21782
21796
21790
21808
21814
21814
21824
21824
21820
21829
21829
21834
21840
21851
21858
21861
21861
21870
21870
21878
21894
21900
21898
21900
21905
21912
21920
21922
21926
21932
21934
21932
21932
21944
21952
21962
21961
21966
21970
21968
21973
21980
21986
22000
21998
22006
22008
22016
22017
22013
22020
22024
22034
22044
22052
22052
22060
22064
22076
22072
22084
22092
22098
22098
22102
22104
22108
22105
22120
22130
22138
22141
22151
22156
22161
22156
22160
22168
22178
22190
22191
22189
22196
22206
22213
22224
22230
22235
22232
22238
22254
22254
22260
22272
22284
22292
22296
22298
22302
22310
22309
22316
22326
22335
22351
22352
22352
22353
22364
22378
22388
22390
22404
22405
22408
22422
22420
22429
22436
22448
22456
22456
22466
22472
22480
22486
22498
22500
22509
22514
22520
22522
22537
22552
22560
22560
22557
22568
22578
22582
22593
22609
22610
22622
22626
22632
22648
22644
22650
22650
22657
22678
22676
22692
22699
22712
22704
22718
22725
22732
22743
22756
22752
22751
22766
22774
22784
22792
22804
22806
22809
22816
22820
22828
22840
22840
22850
22867
22869
22880
22896
22881
22892
22893
22902
22916
22917
22933
22933
22942
22948
22948
22958
22966
22968
22976
22986
22991
23012
23012
23020
23025
23030
23028
23038
23046
23056
23060
23072
23080
23092
23104
23104
23112
23123
23119
23124
23130
23140
23153
23161
23167
23183
23182
23188
23192
23194
23209
23213
23223
23231
23230
23252
23246
23256
23264
23274
23284
23284
23288
23302
23312
23321
23325
23336
23348
23357
23364
23360
23376
23392
23392
23404
23424
23429
23436
23444
23450
23460
23472
23484
23490
23498
23510
23522
23533
23542
23556
23574
23586
23588
23610
23616
23625
23634
23646
23655
23670
23681
23701
23708
23714
23721
23738
23746
23757
23768
23780
23790
23816
23830
23829
23840
23852
23860
23870
23882
23901
23912
23928
23936
23935
23956
23957
23976
23994
24002
24012
24019
24028
24049
24050
24062
24070
24089
24105
24104
24120
24126
24140
24158
24164
24180
24184
24193
24204
24214
24224
24234
24248
24268
24281
24288
24292
24300
24312
24332
24346
24360
24362
24370
24388
24394
24408
24422
24438
24443
24444
24458
24464
24478
24498
24509
24521
24522
24534
24548
24548
24568
24592
24600
24609
24612
24610
24628
24642
24651
24670
24685
24692
24696
24708
24712
24722
24740
24750
24758
24770
24788
24793
24796
24804
24817
24817
24836
24841
24848
24862
24876
24892
24888
24902
24905
24922
24933
24945
24954
24964
24964
24976
24988
24996
25012
25026
25039
25047
25047
25064
25068
25088
25100
25110
25130
25133
25140
25157
25162
25180
25189
25210
25217
25234
25240
25256
25272
25283
25301
25312
25324
25326
25345
25360
25376
25384
25400
25412
25419
25444
25452
25468
25478
25493
25497
25516
25532
25536
25562
25580
25596
25599
25610
25612
25626
25649
25664
25672
25686
25700
25705
25716
25716
25740
25746
25758
25774
25786
25800
25812
25810
25820
25830
25837
25848
25866
25876
25874
25882
25901
25916
25921
25926
25938
25952
25964
25964
25974
25980
25996
26010
26026
26028
26028
26046
26060
26080
26084
26076
26092
26110
26118
26136
26134
26141
26156
26162
26183
26192
26196
26206
26212
26232
26244
26256
26255
26270
26292
26300
26314
26305
26328
26348
26352
26356
26374
26378
26398
26407
26424
26433
26444
26454
26462
26474
26484
26502
26512
26527
26539
26546
26556
26558
26572
26581
26596
26605
26620
26625
26644
26642
26655
26661
26663
26676
26686
26696
26706
26712
26723
26734
26756
26756
26769
26772
26778
26798
26814
26822
26832
26844
26846
26860
26887
26893
26916
26925
26936
26946
26964
26980
26980
26996
27012
27026
27036
27048
27056
27066
27068
27073
27082
27089
27106
27103
27112
27121
27134
27136
27144
27156
27159
27160
27164
27162
27172
27168
27186
27188
27184
27198
27196
27200
27202
27201
27204
27212
27216
27218
27212
27208
27205
27200
27202
27204
27204
27200
27206
27190
27194
27200
27182
27192
27180
27178
27170
27170
27158
27152
27152
27141
27137
27126
27114
27127
27111
27106
27089
27082
27072
27054
27054
27044
27037
27021
26999
26984
26977
26956
26944
26936
26920
26908
26884
26869
26845
26824
26808
26792
26772
26758
26746
26720
26704
26682
26657
26632
26620
26608
26580
26570
26540
26519
26500
26480
26466
26452
26423
26408
26383
26364
26340
26328
26312
26292
26285
26264
26247
26236
26216
26204
26185
26176
26168
26151
26136
26120
26114
26106
26097
26092
26084
26076
26064
26060
26052
26046
26052
26039
26032
26030
26028
26028
26032
26031
26020
26024
26020
26023
26024
26044
26033
26031
26028
26036
26042
26052
26048
26050
26053
26065
26068
26076
26084
26092
26096
26098
26106
26104
26120
26132
26144
26140
26148
26153
26160
26164
26184
26192
26208
26212
26213
26228
26240
26248
26254
26260
26266
26277
26290
26302
26304
26320
26330
26338
26344
26350
26360
26364
26373
26377
26390
26404
26421
26424
26437
26449
26456
26468
26468
26476
26481
26492
26503
26521
26524
26535
26540
26548
26546
26563
26570
26570
26590
26597
26600
26615
26620
26624
26625
26636
26636
26651
26666
26672
26676
26676
26684
26692
26692
26697
26706
26724
26725
26732
26732
26737
26732
26744
26734
26752
26756
26768
26768
26773
26764
26770
26776
26784
26788
26796
26788
26808
26817
26816
26820
26824
26826
26833
26840
26848
26854
26871
26871
26877
26876
26884
26902
26920
26920
26924
26942
26950
26970
26980
26996
26996
27005
27020
27032
27050
27060
27080
27090
27102
27112
27124
27136
27156
27168
27186
27202
27210
27230
27236
27252
27262
27281
27292
27305
27322
27334
27349
27364
27381
27404
27419
27439
27452
27464
27471
27486
27502
27520
27540
27572
27582
27593
27600
27624
27632
27648
27673
27696
27718
27732
27748
27768
27773
27800
27824
27842
27844
27865
27881
27902
27916
27926
27946
27967
27984
28000
28020
28033
28044
28064
28072
28080
28094
28121
28140
28138
28156
28172
28178
28196
28200
28212
28230
28246
28254
28268
28276
28292
28300
28305
28310
28324
28340
28352
28356
28368
28374
28378
28396
28406
28416
28424
28430
28444
28460
28470
28480
28478
28480
28500
28504
28514
28516
28538
28544
28552
28568
28568
28584
28594
28596
28604
28616
28621
28636
28646
28648
28664
28676
28689
28700
28700
28716
28724
28738
28740
28754
28762
28772
28772
28780
28788
28796
28811
28820
28829
28840
28860
28860
28874
28885
28886
28896
28892
28908
28924
28938
28948
28949
28956
28959
28965
28984
28993
29000
29010
29020
29024
29034
29038
29048
29050
29060
29072
29088
29092
29098
29103
29112
29120
29139
29144
29156
29160
29160
29165
29176
29184
29198
29213
29214
29225
29228
29232
29232
29253
29256
29268
29276
29287
29300
29300
29297
29312
29320
29326
29336
29340
29352
29360
29360
29378
29380
29392
29396
29393
29392
29412
29418
29426
29436
29430
29437
29452
29456
29464
29468
29484
29498
29492
29492
29506
29516
29520
29528
29534
29540
29550
29548
29560
29568
29578
29588
29584
29591
29599
29604
29618
29620
29632
29632
29638
29645
29645
29651
29650
29668
29680
29684
29696
29695
29696
29708
29700
29716
29721
29734
29736
29737
29744
29750
29744
29766
29770
29784
29780
29785
29788
29792
29805
29808
29824
29819
29820
29832
29844
29850
29852
29866
29862
29872
29876
29878
29888
29893
29904
29924
29928
29924
29934
29938
29936
29956
29964
29970
29989
30001
29999
30004
30002
30012
30019
30028
30036
30050
30057
30060
30060
30072
30072
30084
30085
30096
30114
30112
30121
30124
30124
30136
30137
30137
30148
30160
30166
30180
30190
30186
30196
30190
30210
30202
30214
30216
30225
30228
30241
30248
30260
30264
30270
30271
30273
30278
30286
30296
30296
30308
30318
30324
30333
30340
30344
30345
30349
30356
30357
30360
30372
30375
30382
30388
30405
30408
30420
30422
30428
30431
30440
30445
30444
30456
30456
30472
30478
30481
30486
30497
30504
30498
30510
30504
30516
30524
30528
30538
30548
30556
30549
30561
30564
30580
30584
30585
30584
30590
30596
30592
30605
30602
30617
30616
30624
30631
30642
30650
30653
30657
30648
30662
30660
30668
30678
30684
30683
30684
30700
30688
30692
30698
30704
30702
30720
30724
30720
30728
30724
30729
30737
30748
30753
30752
30756
30760
30760
30762
30760
30758
30756
30764
30765
30768
30780
30780
30788
30784
30786
30794
30793
30807
30807
30798
30800
30805
30799
30807
30808
30816
30812
30816
30813
30807
30812
30815
30820
30820
30820
30832
30824
30820
30820
30822
30824
30818
30820
30829
30832
30830
30834
30820
30831
30824
30820
30816
30816
30820
30828
30826
30820
30815
30812
30806
30805
30805
30801
30801
30794
30791
30790
30784
30784
30776
30760
30765
30772
30764
30756
30750
30744
30734
30734
30722
30720
30732
30717
30718
30700
30690
30680
30671
30664
30661
30660
30658
30647
30644
30630
30613
30600
30596
30588
30580
30578
30561
30558
30546
30541
30529
30524
30513
30492
30484
30478
30464
30456
30438
30434
30425
30424
30408
30400
30386
30378
30359
30345
30335
30332
30316
30318
30298
30292
30270
30258
30250
30238
30226
30214
30205
30206
30191
30184
30164
30152
30126
30124
30106
30108
30092
30081
30084
30061
30046
30036
30028
30014
30000
29984
29984
29961
29958
29944
29928
29916
29902
29890
29876
29876
29862
29848
29844
29831
29818
29805
29788
29779
29760
29756
29748
29732
29726
29724
29706
29692
29677
29664
29656
29647
29636
29628
29628
29616
29600
29584
29568
29572
29552
29540
29526
29530
29524
29508
29492
29474
29476
29473
29463
29450
29444
29428
29412
29412
29412
29400
29408
29390
29380
29362
29350
29343
29344
29340
29332
29324
29321
29312
29300
29289
29276
29276
29268
29264
29252
29246
29239
29222
29228
29214
29216
29212
29200
29188
29184
29176
29170
29162
29156
29148
29140
29138
29140
29129
29130
29128
29112
29100
29102
29100
29087
29090
29078
29076
29084
29064
29069
29076
29068
29071
29068
29070
29068
29058
29058
29061
29052
29052
29063
29066
29066
29072
29070
29072
29076
29084
29080
29086
29073
29086
29092
29098
29105
29111
29120
29120
29132
29140
29140
29143
29152
29153
29158
29168
29180
29188
29204
29204
29204
29212
29220
29236
29240
29256
29262
29268
29272
29282
29281
29286
29292
29295
29316
29318
29338
29332
29337
29340
29344
29367
29366
29380
29380
29389
29396
29403
29412
29425
29428
29438
29440
29448
29460
29468
29476
29480
29490
29500
29512
29520
29530
29544
29558
29564
29569
29580
29604
29616
29628
29642
29641
29658
29681
29696
29704
29716
29740
29744
29759
29780
29796
29828
29839
29844
29868
29893
29924
29926
29948
29976
29990
30018
30044
30063
30072
30102
30128
30156
30183
30204
30220
30252
30260
30308
30326
30368
30384
30400
30420
30449
30484
30520
30540
30568
30594
30628
30640
30672
30709
30732
30756
30782
30817
30844
30872
30900
30928
30960
30976
31012
31032
31071
31092
31130
31152
31184
31205
31241
31276
31304
31332
31358
31388
31416
31448
31488
31524
31542
31572
31607
31644
31676
31702
31728
31756
31786
31825
31860
31862
31897
31920
31953
31984
32004
32030
32050
32092
32112
32133
32149
32172
32200
32228
32256
32273
32292
32316
32328
32357
32385
32408
32428
32452
32460
32496
32516
32544
32548
32560
32580
32604
32628
32654
32672
32684
32702
32708
32732
32752
32772
32788
32812
32826
32822
32838
32860
32884
32904
32923
32924
32932
32948
32956
32975
32996
32997
33012
33023
33034
33040
33058
33064
33089
33092
33092
33098
33116
33118
33132
33138
33146
33146
33156
33168
33172
33177
33184
33189
33188
33196
33220
33220
33225
33224
33232
33233
33234
33244
33252
33260
33268
33276
33286
33286
33300
33312
33312
33320
33336
33348
33352
33374
33383
33397
33405
33412
33434
33447
33471
33474
33484
33516
33532
33548
33576
33586
33605
33616
33637
33656
33680
33704
33732
33744
33769
33781
33812
33846
33870
33889
33908
33940
33964
33994
34016
34038
34069
34104
34124
34153
34188
34212
34252
34278
34302
34334
34359
34404
34440
34452
34492
34512
34560
34588
34610
34644
34676
34704
34740
34768
34804
34837
34862
34897
34942
34976
34999
35028
35054
35092
35137
35166
35208
35229
35260
35290
35322
35356
35384
35428
35460
35492
35524
35558
35576
35618
35662
35690
35716
35756
35784
35813
35849
35874
35908
35936
35976
36014
36036
36070
36111
36132
36160
36197
36224
36261
36292
36330
36352
36390
36421
36444
36484
36512
36545
36572
36616
36632
36671
36704
36733
36756
36790
36820
36852
36888
36920
36948
36968
37010
37044
37076
37090
37128
37152
37181
37212
37242
37268
37300
37324
37357
37382
37406
37444
37469
37510
37532
37544
37584
37613
37645
37677
37704
37728
37760
37794
37828
37852
37876
37908
37940
37972
38000
38036
38066
38100
38142
38161
38204
38226
38270
38294
38332
38360
38384
38440
38466
38504
38524
38577
38600
38632
38664
38696
38737
38764
38804
38832
38870
38900
38932
38980
39012
39044
39074
39104
39140
39183
39214
39238
39273
39308
39344
39384
39425
39448
39488
39519
39560
39588
39620
39648
39688
39732
39768
39790
39832
39876
39900
39932
39968
40004
40044
40078
40102
40142
40189
40228
40260
40288
40321
40352
40388
40422
40460
40491
40525
40558
40580
40620
40654
40686
40720
40754
40788
40820
40849
40880
40904
40945
40982
40988
41018
41049
41086
41112
41152
41172
41196
41224
41249
41284
41316
41341
41368
41390
41416
41438
41460
41494
41512
41552
41568
41581
41612
41636
41666
41690
41708
41736
41764
41777
41808
41840
41844
41868
41884
41916
41950
41968
41992
42020
42044
42056
42084
42109
42132
42148
42178
42200
42224
42248
42266
42287
42320
42340
42356
42384
42408
42442
42464
42472
42503
42532
42540
42564
42592
42628
42648
42672
42686
42704
42732
42770
42784
42820
42840
42856
42872
42902
42920
42948
42980
43004
43034
43044
43064
43080
43116
43140
43168
43188
43208
43230
43250
43280
43300
43328
43344
43364
43388
43416
43448
43456
43478
43508
43516
43559
43564
43592
43612
43628
43662
43680
43712
43728
43736
43768
43784
43814
43842
43868
43882
43888
43918
43940
43964
43996
43996
44022
44039
44064
44084
44108
44132
44144
44172
44180
44196
44214
44230
44264
44292
44297
44320
44327
44344
44356
44380
44398
44420
44432
44452
44472
44488
44496
44516
44540
44558
44576
44588
44608
44636
44636
44644
44670
44684
44704
44727
44732
44752
44764
44778
44796
44806
44822
44842
44864
44872
44896
44906
44916
44930
44948
44976
44972
45004
45013
45036
45052
45086
45087
45104
45110
45124
45148
45168
45165
45202
45216
45239
45256
45260
45284
45292
45310
45330
45340
45364
45378
45396
45412
45428
45436
45454
45468
45487
45516
45532
45536
45556
45572
45588
45608
45628
45633
45670
45684
45692
45700
45728
45732
45740
45760
45788
45804
45824
45836
45848
45870
45880
45896
45916
45920
45950
45964
45980
45993
46020
46046
46044
46062
46080
46095
46108
46124
46144
46158
46172
46196
46208
46228
46245
46261
46271
46292
46304
46313
46343
46360
46375
46392
46404
46412
46432
46444
46464
46470
46492
46508
46520
46536
46550
46564
46577
46599
46612
46630
46632
46663
46676
46676
46693
46712
46727
46748
46758
46764
46789
46788
46804
46816
46834
46848
46864
46884
46900
46904
46912
46932
46948
46956
46968
46968
46990
47004
47012
47018
47040
47036
47052
47052
47072
47085
47092
47124
47124
47136
47140
47144
47161
47164
47188
47184
47192
47206
47207
47206
47236
47238
47252
47264
47270
47268
47287
47284
47304
47310
47330
47324
47332
47334
47350
47360
47364
47376
47374
47384
47396
47393
47404
47416
47409
47424
47428
47442
47438
47452
47448
47456
47456
47472
47472
47476
47488
47500
47504
47508
47496
47508
47512
47516
47518
47532
47528
47532
47536
47524
47536
47545
47548
47548
47561
47556
47552
47553
47560
47564
47558
47568
47560
47572
47566
47564
47566
47573
47568
47572
47576
47568
47576
47584
47568
47577
47576
47572
47576
47576
47576
47564
47572
47556
47564
47564
47565
47553
47552
47558
47556
47544
47548
47534
47532
47525
47538
47530
47524
47516
47498
47512
47498
47493
47484
47500
47476
47476
47468
47468
47452
47436
47436
47424
47424
47428
47412
47412
47402
47392
47384
47380
47352
47352
47344
47340
47324
47310
47302
47296
47268
47276
47252
47254
47220
47215
47198
47205
47184
47174
47166
47148
47128
47116
47104
47092
47068
47060
47040
47020
47009
47000
46983
46964
46952
46932
46916
46898
46878
46856
46839
46824
46818
46792
46772
46765
46736
46720
46696
46676
46678
46640
46624
46608
46586
46556
46538
46524
46502
46480
46462
46444
46417
46402
46378
46361
46324
46294
46284
46260
46236
46220
46196
46178
46148
46120
46100
46076
46046
46023
45996
45977
45940
45912
45896
45870
45848
45828
45804
45768
45744
45727
45692
45672
45644
45613
45588
45558
45532
45512
45478
45448
45432
45407
45372
45348
45332
45296
45264
45242
45204
45172
45152
45134
45097
45074
45040
45016
44984
44948
44924
44908
44872
44852
44830
44806
44760
44743
44706
44684
44652
44636
44599
44576
44551
44524
44495
44481
44452
44420
44404
44374
44348
44320
44289
44266
44240
44204
44189
44172
44144
44128
44084
44057
44036
44016
43988
43972
43940
43924
43896
43860
43838
43812
43783
43749
43730
43708
43674
43653
43636
43608
43576
43552
43520
43502
43473
43456
43422
43400
43364
43332
43308
43292
43268
43241
43210
43202
43168
43152
43116
43092
43060
43032
43015
42992
42955
42932
42906
42872
42844
42824
42800
42784
42744
42728
42712
42681
42644
42628
42607
42588
42564
42544
42514
42492
42476
42448
42440
42408
42384
42364
42332
42320
42288
42268
42252
42216
42188
42176
42142
42124
42104
42088
42050
42032
42005
41972
41964
41948
41932
41908
41884
41861
41836
41806
41800
41772
41750
41732
41724
41692
41664
41633
41624
41612
41585
41556
41535
41500
41487
41464
41434
41414
41392
41364
41348
41317
41293
41260
41224
41188
41172
41145
41124
41082
41056
41020
40989
40966
40924
40888
40866
40836
40800
40764
40727
40700
40654
40622
40584
40556
40528
40497
40470
40422
40396
40356
40316
40284
40244
40229
40189
40156
40128
40081
40052
40024
39992
39952
39914
39876
39840
39806
39772
39740
39708
39668
39636
39605
39554
39520
39470
39446
39396
39360
39324
39278
39239
39196
39156
39116
39068
39028
38999
38948
38908
38864
38824
38780
38735
38684
38640
38584
38552
38512
38460
38424
38375
38334
38280
38234
38188
38136
38092
38036
37988
37952
37904
37858
37812
37760
37719
37668
37618
37566
37524
37468
37428
37373
37332
37284
37240
37196
37141
37103
37054
37012
36970
36916
36871
36828
36774
36726
36693
36644
36602
36560
36526
36484
36432
36388
36348
36308
36268
36230
36204
36158
36127
36076
36044
36010
35976
35937
35896
35872
35828
35806
35776
35734
35702
35674
35640
35612
35584
35562
35529
35498
35474
35436
35408
35385
35348
35324
35292
35279
35260
35228
35200
35166
35142
35121
35092
35074
35047
35018
35004
34980
34948
34924
34894
34882
34852
34833
34800
34780
34760
34726
34705
34669
34652
34634
34604
34572
34552
34528
34500
34472
34456
34429
34408
34368
34348
34320
34292
34270
34240
34212
34196
34168
34140
34108
34090
34045
34020
33998
33976
33940
33912
33885
33856
33834
33812
33782
33744
33716
33692
33668
33624
33600
33582
33551
33532
33496
33464
33440
33408
33380
33350
33317
33296
33264
33244
33212
33173
33145
33112
33094
33061
33028
33000
32980
32934
32916
32878
32851
32824
32800
32774
32742
32712
32688
32644
32628
32604
32572
32544
32509
32484
32462
32438
32396
32384
32360
32332
32318
32280
32244
32232
32209
32188
32168
32140
32108
32100
32076
32044
32020
31996
31972
31951
31936
31902
31876
31852
31820
31808
31790
31764
31740
31710
31686
31665
31648
31612
31610
31580
31556
31524
31508
31488
31476
31454
31424
31404
31386
31364
31357
31320
31304
31284
31267
31242
31237
31209
31190
31168
31159
31144
31125
31108
31094
31072
31052
31040
31034
31012
30998
30976
30964
30952
30944
30924
30900
30894
30885
30868
30846
30828
30822
30814
30796
30780
30759
30748
30736
30724
30713
30694
30684
30665
30660
30636
30624
30606
30592
30577
30562
30556
30536
30520
30502
30486
30468
30456
30438
30432
30412
30396
30377
30360
30344
30343
30320
30303
30281
30266
30248
30240
30232
30208
30190
30166
30150
30136
30124
30109
30097
30072
30057
30034
30020
30004
29988
29966
29944
29924
29912
29893
29878
29862
29834
29820
29792
29780
29760
29748
29734
29708
29684
29660
29636
29627
29610
29599
29578
29548
29520
29508
29488
29472
29457
29431
29404
29386
29374
29356
29334
29321
29294
29276
29252
29232
29220
29204
29180
29152
29140
29132
29110
29081
29060
29044
29032
29012
28980
28960
28948
28932
28913
28904
28871
28852
28836
28814
28800
28776
28753
28746
28720
28702
28676
28670
28641
28629
28612
28584
28552
28542
28521
28504
28480
28456
28442
28426
28400
28372
28362
28340
28322
28294
28264
28268
28234
28212
28196
28167
28156
28132
28110
28088
28065
28039
28021
28000
27972
27964
27934
27904
27898
27860
27852
27828
27801
27780
27744
27724
27709
27682
27668
27648
27624
27600
27574
27546
27524
27504
27490
27466
27436
27412
27390
27368
27348
27338
27316
27281
27258
27245
27221
27200
27172
27140
27124
27104
27087
27071
27036
27020
26996
26978
26954
26934
26916
26892
26862
26837
26824
26808
26788
26762
26740
26716
26693
26673
26660
26644
26613
26592
26576
26550
26530
26513
26494
26480
26460
26432
26417
26374
26373
26356
26333
26310
26287
26277
26264
26240
26216
26192
26184
26161
26152
26127
26106
26094
26072
26056
26040
26022
26004
25988
25973
25958
25952
25928
25913
25894
25888
25886
25863
25836
25836
25838
25814
25796
25798
25780
25770
25754
25748
25740
25742
25738
25729
25716
25708
25704
25700
25702
25700
25688
25684
25684
25669
25680
25689
25681
25668
25661
25674
25676
25676
25676
25680
25680
25676
25680
25678
25686
25688
25690
25700
25694
25691
25696
25700
25706
25710
25712
25716
25717
25718
25735
25736
25730
25742
25745
25751
25750
25764
25764
25776
25768
25768
25780
25795
25796
25804
25808
25800
25810
25816
25820
25828
25830
25836
25852
25857
25864
25876
25866
25870
25876
25880
25892
25898
25908
25916
25921
25920
25928
25926
25937
25945
25956
25964
25960
25972
25968
25986
25994
26013
26015
26009
26013
26028
26036
26040
26048
26056
26070
26072
26076
26086
26098
26112
26105
26114
26129
26122
26131
26157
26161
26164
26168
26174
26188
26200
26205
26223
26224
26224
26228
26236
26260
26265
26273
26285
26292
26301
26308
26314
26324
26344
26352
26362
26370
26372
26392
26407
26404
26412
26416
26440
26448
26456
26472
26474
26492
26500
26508
26524
26540
26548
26556
26568
26581
26585
26592
26614
26628
26648
26657
26660
26672
26688
26698
26708
26732
26748
26756
26755
26784
26780
26804
26809
26832
26847
26860
26880
26892
26900
26912
26928
26942
26970
26984
26991
26997
27012
27036
27048
27057
27076
27092
27096
27120
27140
27135
27148
27172
27184
27200
27210
27222
27224
27245
27260
27274
27272
27288
27303
27324
27327
27326
27340
27362
27369
27366
27376
27384
27400
27412
27420
27429
27418
27434
27450
27458
27458
27458
27461
27480
27484
27480
27487
27492
27494
27492
27506
27516
27520
27512
27519
27522
27529
27542
27538
27536
27546
27544
27561
27566
27564
27560
27560
27576
27582
27584
27588
27585
27584
27594
27598
27608
27606
27608
27620
27626
27623
27641
27642
27640
27644
27658
27665
27672
27682
27672
27682
27684
27701
27705
27722
27732
27725
27732
27749
27756
27764
27758
27772
27792
27801
27798
27800
27812
27816
27836
27848
27849
27856
27866
27877
27892
27895
27902
27904
27926
27933
27946
27940
27941
27957
27964
27979
27984
28004
27996
28004
28008
28010
28030
28036
28048
28052
28066
28068
28082
28080
28072
28092
28104
28108
28116
28116
28122
28120
28136
28142
28142
28154
28154
28152
28160
28170
28180
28188
28180
28192
28194
28191
28194
28200
28208
28222
28228
28218
28225
28228
28244
28250
28248
28261
28260
28260
28261
28268
28277
28280
28294
28284
28292
28292
28294
28310
28316
28320
28324
28318
28325
28324
28335
28344
28360
28360
28348
28353
28360
28360
28376
28386
28384
28388
28381
28388
28400
28410
28416
28421
28430
28422
28430
28424
28432
28442
28456
28458
28454
28458
28457
28465
28470
28484
28482
28476
28480
28484
28492
28490
28484
28497
28502
28508
28509
28501
28498
28504
28517
28512
28520
28524
28524
28532
28533
28536
28537
28541
28548
28553
28560
28552
28565
28580
28581
28576
28568
28580
28590
28592
28584
28582
28584
28592
28582
28577
28580
28582
28582
28572
28562
28557
28558
28564
28546
28544
28544
28528
28528
28528
28514
28518
28508
28502
28488
28474
28468
28472
28464
28454
28436
28430
28426
28420
28402
28404
28380
28370
28358
28350
28336
28324
28316
28303
28290
28276
28264
28246
28224
28220
28204
28188
28174
28156
28138
28120
28104
28088
28080
28045
28026
28008
27985
27976
27952
27926
27900
27892
27873
27841
27821
27792
27774
27745
27726
27712
27681
27644
27614
27598
27564
27546
27513
27484
27460
27428
27392
27364
27333
27308
27282
27258
27222
27194
27153
27125
27095
27058
27042
27012
26980
26942
26914
26896
26860
26838
26808
26778
26748
26718
26692
26672
26638
26604
26591
26564
26538
26510
26480
26465
26444
26424
26399
26365
26356
26336
26319
26296
26270
26256
26244
26224
26208
26176
26176
26164
26145
26120
26110
26096
26084
26084
26068
26048
26032
26024
26022
26007
25998
25985
25964
25960
25956
25946
25942
25936
25925
25913
25901
25904
25892
25884
25881
25873
25872
25865
25860
25851
25843
25845
25841
25834
25820
25816
25822
25820
25812
25796
25792
25792
25796
25794
25781
25776
25764
25764
25761
25765
25766
25761
25752
25752
25754
25752
25732
25732
25736
25732
25734
25721
25718
25720
25702
25712
25708
25712
25712
25700
25684
25684
25686
25688
25684
25680
25680
25670
25676
25664
25658
25664
25656
25656
25645
25644
25644
25645
25644
25644
25636
25628
25624
25616
25630
25617
25608
25602
25604
25600
25600
25600
25597
25588
25577
25583
25573
25568
25564
25564
25561
25561
25550
25544
25540
25536
25540
25538
25540
25528
25516
25512
25516
25532
25520
25524
25517
25516
25513
25517
25527
25520
25512
25515
25524
25532
25532
25537
25534
25540
25548
25556
25551
25544
25558
25564
25560
25576
25573
25576
25577
25574
25592
25606
25604
25614
25622
25613
25620
25624
25634
25640
25646
25656
25664
25668
25676
25672
25684
25692
25700
25717
25716
25724
25724
25748
25760
25768
25772
25780
25778
25806
25809
25820
25830
25832
25852
25858
25884
25889
25904
25908
25920
25926
25941
25956
25976
25988
26001
26013
26020
26032
26037
26056
26079
26084
26102
26109
26124
26128
26144
26153
26164
26180
26180
26188
26204
26222
26225
26236
26242
26244
26260
26268
26285
26282
26282
26302
26308
26317
26316
26322
26341
26342
26353
26348
26356
26369
26380
26382
26380
26392
26405
26410
26410
26433
26432
26442
26444
26444
26454
26468
26476
26477
26476
26486
26494
26508
26514
26526
26524
26540
26530
26548
26554
26566
26572
26576
26584
26592
26604
26616
26628
26628
26636
26645
26640
26645
26658
26660
26660
26678
26692
26696
26700
26708
26710
26724
26720
26737
26750
26745
26751
26758
26772
26768
26772
26789
26796
26808
26808
26815
26822
26833
26831
26840
26844
26850
26864
26868
26871
26879
26881
26900
26905
26908
26912
26912
26922
26926
26932
26937
26942
26957
26956
26962
26964
26968
26980
26983
26988
26981
27001
27000
27004
27004
27012
27022
27036
27032
27032
27036
27042
27052
27060
27068
27072
27074
27068
27080
27084
27084
27093
27108
27116
27112
27126
27121
27132
27132
27130
27149
27162
27163
27160
27171
27179
27189
27204
27201
27209
27214
27222
27230
27240
27252
27248
27264
27269
27280
27284
27292
27300
27310
27327
27337
27348
27346
27364
27372
27380
27387
27408
27418
27426
27440
27453
27458
27464
27474
27488
27498
27506
27522
27522
27534
27551
27576
27578
27596
27600
27608
27622
27636
27648
27654
27658
27673
27690
27696
27708
27712
27718
27720
27728
27748
27752
27756
27758
27764
27777
27782
27782
27779
27780
27791
27800
27804
27796
27796
27818
27812
27809
27812
27804
27812
27812
27812
27808
27796
27796
27788
27780
27790
27792
27782
27770
27772
27753
27758
27756
27756
27756
27744
27740
27727
27730
27722
27716
27716
27708
27703
27700
27700
27701
27696
27695
27684
27684
27679
27684
27676
27686
27681
27673
27680
27680
27677
27684
27687
27688
27684
27685
27692
27702
27706
27704
27708
27714
27716
27736
27725
27742
27740
27748
27750
27754
27746
27760
27772
27780
27784
27791
27790
27797
27804
27814
27828
27828
27840
27846
27860
27854
27863
27874
27876
27892
27901
27900
27918
27926
27928
27924
27924
27940
27948
27956
27970
27962
27972
27974
27976
27985
27992
27999
28004
27996
28000
28007
28004
28010
28010
28022
28025
28036
28032
28036
28036
28032
28042
28036
28036
28044
28048
28052
28062
28068
28068
28070
28072
28080
28076
28080
28084
28104
28105
28110
28120
28130
28121
28128
28134
28156
28165
28160
28165
28178
28176
28193
28198
28216
28228
28236
28240
28256
28264
28264
28272
28282
28284
28300
28316
28316
28322
28340
28350
28351
28354
28366
28376
28382
28389
28400
28404
28408
28412
28422
28424
28428
28432
28445
28428
28448
28451
28454
28458
28472
28462
28466
28460
28460
28468
28474
28484
28481
28468
28474
28480
28482
28490
28488
28478
28494
28484
28486
28495
28494
28504
28504
28500
28508
28501
28505
28520
28513
28525
28528
28528
28528
28538
28549
28556
28568
28576
28580
28592
28596
28604
28612
28628
28645
28649
28654
28672
28686
28703
28718
28716
28733
28748
28765
28777
28782
28801
28801
28820
28833
28849
28866
28878
28881
28892
28904
28922
28936
28960
28964
28977
28990
29008
29024
29028
29040
29056
29066
29088
29100
29110
29124
29136
29152
29169
29188
29196
29212
29220
29240
29252
29264
29285
29296
29310
29324
29340
29356
29372
29385
29410
29418
29424
29440
29446
29462
29482
29488
29510
29526
29538
29556
29572
29581
29594
29606
29632
29652
29660
29672
29694
29708
29718
29733
29762
29775
29796
29807
29824
29845
29860
29884
29908
29922
29952
29972
29992
30020
30032
30060
30070
30093
30116
30144
30164
30200
30220
30231
30264
30288
30316
30344
30368
30392
30424
30460
30476
30516
30536
30573
30609
30628
30657
30684
30720
30765
30792
30822
30848
30876
30912
30948
30982
31010
31045
31074
31108
31138
31168
31204
31244
31276
31316
31332
31364
31400
31444
31468
31496
31524
31552
31594
31620
31660
31694
31724
31756
31772
31798
31830
31861
31884
31924
31944
31972
32009
32040
32056
32092
32111
32138
32166
32188
32226
32253
32270
32316
32328
32368
32388
32412
32444
32464
32486
32516
32534
32560
32588
32620
32646
32670
32700
32717
32746
32764
32788
32812
32842
32872
32892
32908
32932
32952
32988
33012
33028
33048
33076
33100
33120
33140
33160
33186
33210
33220
33248
33269
33284
33312
33320
33348
33368
33386
33404
33420
33444
33474
33490
33514
33528
33552
33582
33597
33614
33628
33660
33692
33708
33720
33732
33754
33784
33809
33836
33860
33872
33893
33928
33950
33964
33992
34020
34053
34072
34090
34120
34142
34164
34188
34216
34230
34276
34298
34316
34341
34366
34394
34432
34454
34468
34512
34536
34568
34596
34627
34652
34692
34712
34746
34780
34812
34848
34876
34908
34940
34968
35008
35039
35076
35108
35148
35172
35212
35242
35279
35309
35340
35370
35396
35431
35463
35484
35518
35540
35564
35596
35626
35636
35664
35701
35722
35744
35772
35788
35804
35836
35856
35874
35894
35920
35936
35956
35984
35997
36016
36028
36044
36060
36068
36088
36096
36124
36132
36152
36155
36161
36174
36186
36196
36205
36218
36222
36232
36230
36232
36248
36248
36255
36266
36262
36256
36264
36276
36272
36280
36280
36284
36278
36282
36293
36288
36284
36288
36284
36271
36284
36272
36266
36276
36250
36268
36257
36246
36252
36244
36236
36225
36220
36216
36204
36188
36188
36180
36176
36160
36150
36136
36136
36120
36112
36090
36086
36076
36064
36054
36040
36028
36020
36004
36002
35988
35972
35958
35956
35940
35927
35912
35908
35908
35880
35871
35866
35850
35838
35832
35822
35812
35800
35796
35794
35778
35769
35756
35758
35740
35745
35736
35736
35725
35716
35702
35692
35695
35692
35687
35680
35668
35656
35654
35660
35645
35638
35629
35628
35614
35624
35612
35612
35600
35598
35584
35569
35570
35572
35564
35556
35545
35554
35540
35534
35520
35524
35524
35512
35510
35508
35496
35497
35484
35488
35488
35488
35472
35459
35470
35462
35457
35452
35436
35431
35441
35436
35432
35424
35422
35420
35407
35408
35405
35396
35394
35392
35386
35370
35361
35362
35356
35356
35340
35329
35320
35318
35309
35305
35293
35288
35276
35270
35260
35258
35252
35236
35217
35220
35201
35189
35185
35172
35174
35156
35148
35133
35116
35110
35095
35084
35072
35052
35046
35030
35024
35015
34997
34980
34970
34948
34942
34920
34912
34896
34884
34868
34858
34852
34828
34808
34796
34783
34766
34762
34732
34732
34724
34704
34687
34676
34652
34641
34636
34625
34609
34594
34588
34574
34564
34560
34540
34530
34506
34504
34488
34480
34472
34460
34460
34444
34425
34404
34394
34372
34356
34340
34336
34324
34303
34280
34268
34248
34232
34208
34192
34166
34144
34132
34104
34076
34064
34036
34013
33985
33956
33936
33901
33892
33856
33826
33804
33772
33746
33716
33692
33669
33626
33596
33569
33540
33514
33477
33452
33420
33382
33364
33321
33292
33252
33226
33192
33158
33120
33088
33060
33028
32992
32962
32924
32901
32864
32832
32792
32756
32720
32679
32655
32620
32588
32550
32525
32484
32449
32417
32380
32350
32312
32292
32252
32209
32176
32148
32118
32081
32053
32028
31999
31952
31932
31896
31864
31826
31812
31772
31742
31710
31682
31660
31624
31599
31567
31536
31508
31488
31456
