RESPIRATION
31148
31159
31166
31168
31172
31184
31188
31188
31193
31208
31204
31217
31212
31224
31232
31234
31232
31246
31249
31258
31252
31262
31274
31268
31273
31286
31288
31288
31303
31304
31316
31316
31332
31337
31345
31352
31360
31376
31380
31396
31400
31420
31422
31437
31456
31472
31476
31492
31509
31524
31530
31536
31566
31575
31584
31594
31610
31631
31640
31656
31664
31678
31684
31705
31716
31724
31738
31756
31774
31780
31789
31810
31820
31833
31849
31866
31876
31888
31904
31916
31932
31946
31968
31983
31997
32004
32031
32042
32055
32077
32081
32101
32120
32138
32160
32161
32183
32188
32205
32217
32238
32256
32266
32284
32292
32309
32324
32332
32345
32360
32380
32382
32401
32418
32424
32440
32452
32453
32476
32496
32496
32516
32532
32541
32558
32572
32583
32596
32609
32625
32637
32650
32663
32676
32701
32716
32733
32736
32764
32776
32788
32809
32820
32832
32840
32868
32882
32900
32910
32922
32933
32944
32966
32982
32993
33008
33024
33028
33040
33064
33072
33081
33092
33104
33118
33124
33139
33149
33152
33172
33180
33189
33192
33201
33210
33220
33224
33240
33246
33246
33250
33264
33268
33276
33284
33282
33284
33294
33294
33304
33304
33308
33308
33308
33316
33317
33326
33318
33320
33314
33328
33326
33330
33326
33332
33334
33332
33337
33337
33334
33348
33341
33332
33336
33340
33344
33337
33344
33346
33356
33364
33364
33368
33372
33376
33380
33380
33388
33396
33404
33399
33406
33409
33428
33428
33432
33440
33456
33469
33477
33488
33502
33503
33526
33526
33544
33552
33564
33580
33593
33613
33620
33642
33660
33677
33682
33698
33728
33734
33750
33776
33786
33806
33836
33856
33865
33892
33901
33932
33950
33973
33984
34004
34033
34046
34065
34092
34112
34137
34152
34180
34200
34217
34240
34263
34278
34308
34328
34352
34368
34388
34414
34436
34460
34490
34510
34528
34556
34588
34604
34628
34638
34670
34708
34722
34748
34772
34788
34817
34848
34870
34900
34920
34940
34972
34996
35022
35045
35070
35101
35116
35142
35180
35198
35220
35252
35278
35292
35334
35357
35382
35404
35428
35462
35476
35505
35530
35556
35582
35604
35624
35647
35680
35705
35720
35754
35780
35804
35828
35852
35876
35892
35924
35941
35964
35990
36004
36028
36055
36069
36095
36116
36134
36150
36181
36205
36212
36242
36257
36281
36304
36320
36338
36366
36385
36398
36418
36436
36462
36484
36502
36516
36548
36565
36582
36606
36632
36656
36669
36700
36719
36740
36765
36788
36818
36844
36862
36884
36916
36938
36964
36996
37020
37044
37080
37094
37124
37149
37193
37220
37238
37270
37314
37328
37364
37392
37420
37446
37484
37512
37540
37574
37612
37636
37664
37697
37728
37752
37784
37818
37845
37878
37909
37940
37974
37996
38024
38060
38092
38125
38156
38176
38207
38238
38268
38292
38325
38348
38373
38400
38439
38460
38492
38516
38542
38576
38596
38617
38652
38676
38696
38728
38744
38772
38796
38820
38838
38864
38890
38916
38941
38964
38992
39020
39044
39072
39096
39116
39148
39172
39200
39213
39248
39270
39302
39326
39356
39388
39412
39444
39476
39494
39524
39556
39584
39616
39648
39673
39712
39736
39780
39804
39832
39870
39900
39932
39968
39996
40032
40062
40097
40120
40148
40194
40228
40260
40292
40326
40359
40392
40428
40472
40492
40532
40552
40600
40620
40648
40688
40718
40748
40780
40805
40840
40868
40892
40933
40958
40988
41018
41047
41068
41103
41128
41150
41180
41202
41228
41256
41280
41302
41328
41357
41372
41408
41420
41444
41470
41492
41508
41524
41548
41575
41588
41604
41628
41636
41664
41678
41696
41708
41729
41744
41760
41772
41788
41796
41813
41828
41844
41852
41864
41878
41892
41900
41905
41918
41927
41945
41956
41956
41972
41984
41992
42004
42008
42016
42028
42038
42044
42060
42064
42076
42084
42100
42106
42112
42116
42132
42133
42143
42156
42162
42176
42188
42190
42200
42208
42220
42229
42244
42237
42260
42252
42276
42284
42296
42301
42300
42312
42320
42324
42320
42342
42343
42352
42358
42360
42366
42380
42382
42397
42396
42404
42410
42418
42415
42434
42440
42448
42444
42452
42448
42476
42464
42476
42479
42470
42476
42476
42492
42497
42500
42494
42497
42512
42508
42508
42508
42512
42513
42514
42504
42512
42510
42512
42502
42517
42500
42500
42500
42492
42502
42488
42488
42492
42477
42474
42480
42466
42469
42464
42456
42445
42440
42447
42436
42420
42400
42404
42392
42382
42368
42364
42352
42346
42324
42318
42304
42276
42280
42246
42244
42224
42210
42176
42170
42148
42120
42102
42092
42064
42049
42028
42006
41992
41972
41952
41927
41900
41878
41869
41834
41814
41788
41774
41742
41712
41696
41670
41647
41620
41596
41568
41544
41525
41500
41460
41444
41406
41385
41364
41316
41294
41266
41234
41188
41166
41128
41096
41068
41024
41000
40956
40924
40889
40845
40828
40781
40746
40704
40676
40632
40593
40566
40526
40492
40448
40413
40372
40338
40300
40260
40220
40188
40140
40100
40068
40008
39980
39936
39896
39856
39812
39766
39726
39688
39642
39594
39568
39522
39476
39428
39396
39332
39300
39240
39216
39156
39104
39061
39008
38966
38919
38876
38828
38788
38732
38685
38632
38588
38538
38492
38448
38400
38351
38296
38248
38204
38160
38108
38061
37998
37958
37912
37870
37815
37770
37716
37660
37620
37574
37520
37469
37433
37381
37328
37280
37238
37184
37140
37094
37044
37004
36956
36908
36868
36812
36768
36726
36676
36637
36588
36548
36500
36452
36416
36372
36326
36284
36256
36201
36164
36124
36078
36038
35984
35960
35909
35868
35828
35782
35752
35714
35676
35640
35604
35566
35522
35490
35457
35420
35381
35342
35296
35261
35228
35191
35164
35122
35088
35056
35020
34992
34944
34912
34878
34848
34815
34776
34741
34704
34669
34647
34621
34576
34542
34506
34476
34452
34416
34392
34352
34327
34300
34264
34240
34205
34164
34143
34108
34072
34044
34008
33985
33941
33916
33878
33832
33799
33767
33735
33689
33662
33626
33600
33564
33514
33488
33444
33412
33381
33352
33312
33274
33245
33200
33166
33133
33100
33066
33028
32992
32966
32916
32887
32850
32808
32774
32736
32703
32662
32625
32596
32551
32512
32484
32448
32408
32372
32344
32302
32264
32240
32204
32176
32133
32104
32073
32040
32012
31976
31942
31910
31884
31854
31812
31785
31750
31726
31685
31648
31624
31596
31564
31524
31498
31463
31430
31400
31370
31336
31304
31284
31245
31214
31182
31148
31118
31089
31060
31030
30992
30956
30924
30890
30873
30830
30804
30780
30732
30710
30672
30642
30620
30575
30542
30501
30478
30444
30404
30372
30340
30304
30272
30240
30192
30168
30128
30096
30065
30025
29986
29945
29924
29880
29844
29808
29775
29740
29704
29666
29641
29602
29564
29524
29499
29464
29424
29388
29360
29324
29293
29256
29224
29192
29164
29130
29096
29061
29033
28997
28964
28936
28908
28868
28846
28812
28781
28757
28730
28700
28668
28644
28616
28580
28560
28526
28506
28476
28446
28432
28401
28373
28340
28318
28300
28271
28244
28224
28196
28180
28156
28132
28112
28093
28076
28056
28036
28008
27997
27984
27958
27936
27928
27906
27894
27880
27856
27844
27836
27816
27802
27796
27773
27765
27748
27740
27732
27712
27708
27700
27692
27681
27673
27660
27654
27636
27631
27630
27625
27624
27614
27616
27604
27600
27590
27596
27585
27586
27584
27581
27580
27574
27580
27578
27573
27580
27573
27575
27572
27582
27572
27576
27592
27584
27588
27588
27596
27592
27600
27604
27612
27616
27614
27624
27628
27638
27644
27644
27650
27652
27665
27674
27672
27686
27684
27698
27697
27708
27721
27728
27730
27744
27745
27752
27766
27774
27776
27784
27790
27792
27804
27812
27824
27836
27833
27848
27863
27865
27877
27884
27896
27900
27916
27924
27932
27936
27945
27956
27956
27962
27982
27982
27988
27996
28002
28020
28020
28030
28032
28038
28049
28052
28064
28062
28074
28088
28080
28090
28092
28097
28098
28108
28120
28120
28120
28132
28137
28144
28158
28150
28157
28164
28168
28172
28188
28184
28196
28197
28196
28206
28213
28218
28223
28220
28224
28232
28240
28241
28246
28249
28256
28260
28272
28268
28276
28286
28284
28300
28296
28304
28305
28314
28324
28328
28326
28333
28336
28342
28348
28356
28362
28368
28368
28370
28382
28384
28388
28398
28394
28402
28404
28414
28420
28414
28420
28428
28422
28434
28446
28441
28444
28445
28448
28452
28456
28452
28456
28452
28453
28450
28450
28450
28448
28446
28436
28437
28436
28430
28424
28424
28409
28412
28400
28398
28388
28381
28374
28368
28354
28349
28340
28336
28327
28314
28305
28300
28288
28279
28276
28260
28252
28236
28228
28206
28201
28192
28180
28172
28156
28140
28128
28120
28100
28084
28078
28061
28042
28032
28008
28000
27980
27970
27948
27937
27920
27898
27884
27868
27852
27838
27822
27809
27784
27776
27754
27742
27728
27714
27688
27677
27652
27644
27624
27612
27594
27580
27562
27545
27533
27520
27504
27492
27469
27464
27447
27440
27425
27418
27400
27388
27376
27358
27344
27338
27324
27321
27300
27296
27277
27262
27251
27247
27244
27230
27212
27208
27195
27182
27173
27166
27160
27156
27135
27129
27124
27113
27108
27106
27089
27092
27073
27076
27068
27062
27052
27047
27044
27040
27036
27028
27024
27015
27004
27002
26996
26992
26988
26982
26973
26966
26962
26956
26946
26946
26937
26928
26924
26913
26912
26898
26893
26878
26878
26870
26857
26848
26838
26830
26821
26805
26814
26788
26789
26773
26777
26761
26756
26748
26730
26728
26728
26709
26700
26700
26688
26676
26666
26664
26656
26646
26636
26628
26616
26604
26608
26601
26588
26584
26578
26570
26565
26552
26555
26553
26534
26528
26538
26524
26514
26514
26505
26498
26492
26488
26482
26476
26478
26472
26464
26460
26448
26438
26438
26436
26430
26422
26414
26404
26390
26388
26386
26370
26364
26360
26349
26344
26332
26324
26316
26304
26300
26290
26280
26276
26258
26252
26239
26228
26228
26217
26212
26194
26192
26179
26175
26165
26152
26142
26130
26132
26126
26108
26104
26088
26082
26079
26062
26053
26049
26042
26024
26028
26018
26020
25996
25992
25980
25976
25968
25961
25956
25951
25945
25940
25926
25928
25925
25914
25904
25907
25902
25897
25892
25886
25880
25877
25872
25870
25866
25868
25864
25857
25858
25855
25850
25848
25848
25838
25836
25838
25834
25828
25824
25828
25823
25824
25817
25808
25816
25820
25804
25812
25802
25802
25794
25794
25792
25784
25785
25776
25780
25772
25774
25766
25774
25764
25760
25754
25749
25751
25750
25752
25750
25742
25740
25732
25735
25738
25728
25723
25724
25724
25721
25724
25721
25718
25717
25718
25722
25720
25720
25724
25732
25728
25728
25728
25732
25732
25741
25735
25741
25742
25742
25743
25744
25750
25748
25760
25758
25768
25760
25760
25762
25764
25772
25768
25764
25762
25776
25767
25776
25767
25784
25782
25788
25786
25790
25796
25796
25796
25796
25805
25804
25806
25816
25816
25816
25826
25824
25828
25828
25826
25831
25832
25834
25836
25840
25850
25852
25840
25854
25854
25860
25868
25860
25868
25873
25880
25873
25880
25882
25890
25888
25890
25896
25900
25908
25904
25913
25912
25920
25924
25930
25932
25946
25944
25956
25956
25960
25984
25986
25988
26004
26012
26016
26028
26050
26044
26057
26068
26078
26087
26092
26105
26124
26120
26136
26140
26152
26168
26176
26182
26192
26200
26212
26222
26222
26232
26244
26242
26246
26252
26254
26263
26263
26268
26272
26276
26277
26282
26284
26282
26293
26289
26298
26300
26300
26304
26302
26304
26306
26308
26312
26316
26320
26312
26321
26316
26318
26316
26322
26330
26333
26332
26328
26322
26328
26342
26330
26344
26344
26340
26344
26344
26348
26343
26342
26350
26350
26356
26360
26357
26364
26368
26364
26372
26381
26384
26384
26384
26392
26390
26404
26410
26410
26406
26405
26418
26418
26425
26428
26436
26438
26447
26444
26452
26460
26469
26469
26480
26485
26495
26489
26500
26508
26512
26527
26519
26525
26532
26533
26537
26549
26556
26557
26562
26564
26564
26572
26575
26572
26574
26581
26568
26580
26580
26581
26588
26582
26582
26576
26580
26574
26584
26580
26566
26560
26566
26565
26564
26556
26556
26548
26552
26548
26532
26528
26524
26522
26516
26516
26510
26504
26497
26488
26478
26470
26474
26456
26452
26441
26440
26428
26428
26416
26404
26396
26384
26384
26380
26368
26362
26353
26342
26336
26330
26319
26320
26306
26301
26296
26288
26284
26276
26269
26260
26256
26256
26244
26232
26228
26223
26214
26224
26212
26206
26212
26204
26204
26190
26190
26188
26194
26184
26190
26177
26184
26184
26184
26185
26182
26178
26176
26180
26183
26188
26188
26194
26196
26192
26208
26212
26212
26206
26212
26224
26222
26232
26236
26246
26241
26254
26257
26261
26273
26272
26292
26292
26300
26308
26314
26326
26332
26340
26342
26353
26360
26368
26372
26385
26391
26408
26408
26420
26421
26440
26446
26457
26461
26466
26484
26490
26490
26500
26505
26524
26525
26526
26536
26544
26558
26562
26568
26575
26588
26596
26596
26602
26614
26616
26632
26638
26655
26652
26660
26670
26668
26669
26684
26692
26690
26704
26708
26708
26718
26730
26728
26734
26742
26734
26744
26756
26766
26769
26778
26776
26785
26794
26790
26803
26808
26807
26817
26820
26822
26828
26836
26837
26844
26852
26854
26873
26868
26880
26889
26893
26897
26901
26918
26916
26924
26934
26932
26944
26949
26952
26969
26975
26980
26988
26998
26998
27006
27018
27025
27026
27040
27049
27052
27068
27072
27080
27096
27102
27108
27116
27124
27142
27140
27156
27165
27180
27188
27196
27202
27220
27226
27238
27254
27260
27272
27295
27304
27308
27320
27326
27348
27360
27368
27384
27400
27407
27416
27430
27444
27456
27472
27470
27492
27498
27516
27530
27534
27548
27557
27566
27576
27594
27604
27616
27624
27632
27648
27656
27668
27677
27694
27696
27709
27717
27726
27740
27752
27764
27767
27778
27777
27796
27808
27804
27812
27816
27829
27828
27842
27848
27854
27848
27868
27862
27864
27868
27876
27880
27882
27884
27888
27885
27900
27892
27900
27900
27908
27908
27912
27912
27912
27912
27916
27922
27920
27928
27926
27932
27934
27936
27934
27934
27936
27938
27945
27940
27941
27949
27948
27946
27949
27950
27950
27954
27948
27956
27956
27953
27948
27949
27960
27954
27953
27954
27950
27958
27957
27955
27956
27953
27958
27966
27950
27954
27955
27950
27956
27958
27962
27957
27958
27964
27964
27966
27962
27964
27968
27964
27968
27968
27974
27975
27976
27985
27984
27980
27980
27984
27993
27988
27994
27996
27996
27998
27994
28000
28000
27996
27998
28002
27996
28000
28008
28004
28004
28000
28002
28000
28008
27996
28002
28004
28000
28012
28007
28004
28006
28005
28010
28007
28012
28012
28014
28018
28017
28008
28020
28028
28025
28026
28030
28033
28038
28033
28047
28048
28046
28056
28048
28062
28060
28068
28066
28076
28088
28090
28084
28093
28100
28102
28102
28114
28116
28116
28120
28128
28128
28132
28144
28140
28148
28152
28160
28162
28166
28172
28170
28180
28190
28193
28192
28206
28208
28224
28218
28224
28225
28228
28236
28246
28244
28249
28260
28268
28270
28276
28288
28281
28292
28296
28302
28305
28314
28320
28318
28325
28333
28336
28340
28340
28348
28360
28358
28364
28364
28376
28388
28387
28400
28402
28404
28412
28422
28428
28428
28440
28452
28454
28456
28466
28476
28484
28485
28493
28504
28520
28527
28536
28542
28552
28561
28574
28588
28596
28604
28614
28632
28636
28644
28658
28670
28682
28692
28704
28712
28730
28737
28757
28764
28782
28784
28800
28812
28822
28840
28848
28872
28874
28890
28896
28916
28918
28936
28956
28960
28968
28986
28996
29016
29025
29028
29045
29060
29068
29081
29090
29101
29122
29124
29140
29156
29172
29168
29184
29196
29205
29216
29231
29240
29244
29260
29266
29277
29288
29296
29308
29310
29328
29330
29344
29352
29359
29378
29382
29396
29400
29412
29422
29428
29436
29448
29452
29468
29478
29477
29501
29496
29504
29513
29532
29533
29540
29548
29550
29568
29575
29584
29596
29596
29612
29613
29624
29640
29652
29656
29664
29685
29692
29700
29712
29722
29732
29748
29756
29768
29780
29790
29809
29820
29836
29848
29860
29877
29892
29901
29922
29929
29946
29957
29972
29980
30001
30004
30028
30043
30056
30068
30074
30096
30104
30117
30128
30144
30153
30172
30180
30184
30200
30220
30229
30241
30247
30260
30268
30280
30300
30308
30314
30325
30340
30341
30360
30372
30380
30388
30394
30404
30420
30418
30422
30436
30452
30456
30468
30473
30479
30496
30500
30506
30522
30528
30528
30540
30545
30552
30558
30575
30578
30586
30596
30604
30602
30612
30623
30632
30632
30636
30640
30648
30652
30650
30662
30672
30664
30672
30670
30688
30686
30688
30686
30696
30694
30705
30701
30706
30704
30711
30712
30710
30712
30724
30722
30720
30727
30720
30724
30722
30732
30727
30732
30728
30724
30732
30720
30725
30718
30724
30724
30716
30709
30712
30708
30706
30702
30697
30692
30692
30686
30677
30680
30673
30660
30665
30656
30652
30649
30649
30644
30636
30632
30636
30638
30638
30636
30634
30628
30622
30624
30621
30628
30625
30618
30622
30621
30624
30620
30620
30620
30620
30620
30628
30613
30616
30620
30621
30628
30624
30628
30618
30612
30626
30617
30620
30608
30609
30608
30606
30604
30598
30600
30597
30589
30585
30588
30584
30584
30584
30576
30582
30574
30556
30564
30552
30558
30548
30540
30540
30533
30540
30528
30522
30528
30511
30506
30496
30504
30494
30489
30484
30470
30478
30471
30464
30460
30456
30456
30446
30446
30436
30432
30422
30414
30413
30412
30406
30392
30388
30390
30372
30372
30368
30364
30360
30340
30348
30332
30337
30328
30319
30316
30304
30300
30294
30292
30280
30278
30273
30268
30252
30249
30243
30236
30237
30224
30228
30220
30214
30208
30202
30193
30183
30183
30180
30176
30175
30165
30157
30152
30154
30150
30145
30144
30132
30132
30128
30126
30128
30121
30114
30116
30116
30113
30110
30109
30112
30106
30108
30108
30104
30104
30109
30104
30104
30112
30108
30108
30114
30113
30119
30120
30128
30125
30132
30136
30143
30148
30153
30154
30164
30168
30173
30177
30177
30188
30208
30208
30212
30232
30234
30238
30250
30260
30268
30276
30292
30304
30296
30320
30326
30346
30357
30366
30372
30388
30400
30417
30422
30440
30452
30462
30481
30494
30500
30528
30532
30549
30560
30574
30600
30600
30628
30636
30649
30673
30680
30704
30724
30736
30745
30768
30776
30808
30820
30836
30857
30884
30888
30912
30932
30952
30972
30984
31004
31024
31040
31056
31080
31098
31111
31146
31161
31180
31208
31228
31249
31276
31290
31321
31340
31356
31380
31405
31434
31452
31476
31502
31532
31548
31576
31591
31628
31650
31678
31708
31728
31758
31784
31808
31830
31861
31892
31912
31949
31972
31998
32018
32044
32073
32100
32124
32152
32182
32205
32230
32256
32284
32311
32348
32368
32398
32422
32444
32476
32497
32538
32557
32585
32612
32648
32686
32708
32738
32785
32796
32833
32868
32898
32932
32965
32997
33025
33065
33096
33133
33170
33204
33240
33272
33308
33348
33372
33413
33444
33477
33528
33554
33592
33632
33656
33700
33732
33764
33796
33832
33876
33917
33936
33964
34005
34044
34076
34114
34148
34180
34216
34248
34290
34324
34352
34398
34432
34458
34494
34532
34564
34604
34636
34664
34701
34738
34772
34813
34848
34874
34905
34940
34976
35012
35044
35077
35108
35152
35180
35212
35248
35282
35320
35356
35386
35424
35454
35490
35524
35558
35589
35628
35660
35692
35729
35765
35786
35832
35868
35898
35932
35964
35996
36033
36062
36094
36132
36174
36196
36236
36264
36300
36340
36362
36404
36432
36465
36504
36528
36568
36604
36626
36668
36700
36728
36764
36800
36834
36866
36898
36936
36966
36994
37024
37064
37094
37118
37163
37188
37228
37252
37288
37317
37348
37376
37412
37442
37476
37500
37529
37565
37590
37620
37652
37684
37714
37732
37772
37802
37834
37860
37882
37908
37948
37974
38008
38026
38058
38082
38118
38158
38172
38200
38224
38261
38295
38327
38346
38380
38397
38436
38465
38496
38520
38554
38586
38612
38641
38674
38700
38735
38756
38788
38822
38852
38876
38908
38937
38964
38992
39024
39058
39082
39116
39140
39170
39199
39220
39256
39280
39309
39341
39360
39388
39428
39452
39473
39500
39524
39558
39582
39610
39640
39660
39695
39716
39744
39766
39796
39820
39852
39861
39892
39924
39940
39972
39992
40016
40036
40068
40084
40113
40144
40152
40180
40208
40228
40257
40268
40292
40316
40329
40352
40388
40400
40422
40449
40472
40488
40510
40532
40561
40576
40584
40612
40633
40653
40680
40700
40710
40743
40754
40768
40804
40808
40832
40850
40867
40878
40896
40904
40924
40948
40972
40980
41000
41015
41028
41055
41068
41076
41092
41104
41124
41140
41156
41184
41191
41204
41210
41240
41240
41260
41281
41284
41312
41324
41334
41352
41364
41399
41389
41412
41432
41444
41452
41478
41492
41513
41516
41534
41542
41566
41580
41590
41596
41618
41636
41660
41672
41692
41694
41712
41720
41742
41764
41780
41784
41804
41820
41841
41848
41862
41890
41908
41918
41928
41942
41964
41976
41996
42008
42022
42048
42054
42072
42086
42112
42112
42137
42160
42172
42196
42192
42213
42242
42252
42261
42280
42308
42316
42325
42340
42358
42383
42389
42404
42420
42446
42464
42474
42476
42502
42513
42528
42548
42556
42584
42594
42605
42617
42632
42648
42664
42668
42696
42716
42717
42732
42740
42753
42764
42780
42789
42806
42814
42828
42840
42844
42857
42884
42888
42896
42910
42917
42928
42937
42960
42964
42974
42980
42993
42996
43009
43022
43031
43044
43048
43060
43065
43076
43084
43096
43104
43111
43102
43124
43128
43140
43144
43164
43168
43172
43184
43188
43192
43209
43208
43220
43232
43244
43234
43244
43254
43262
43274
43286
43276
43292
43300
43300
43300
43312
43324
43328
43327
43328
43352
43346
43350
43351
43364
43372
43363
43372
43374
43380
43394
43398
43400
43400
43413
43402
43412
43424
43416
43420
43424
43436
43436
43437
43444
43444
43453
43464
43454
43460
43468
43462
43456
43465
43466
43464
43460
43464
43460
43468
43460
43464
43464
43464
43466
43456
43460
43452
43448
43450
43456
43448
43449
43446
43444
43444
43444
43440
43436
43436
43444
43426
43436
43425
43422
43420
43425
43425
43416
43408
43414
43405
43404
43400
43396
43396
43374
43380
43376
43377
43376
43375
43364
43356
43357
43358
43350
43344
43342
43336
43332
43324
43312
43306
43304
43296
43284
43284
43276
43260
43266
43261
43248
43240
43242
43216
43217
43220
43206
43194
43200
43192
43172
43176
43164
43148
43146
43141
43146
43124
43125
43119
43112
43104
43092
43084
43084
43068
43060
43054
43046
43048
43036
43020
43024
43014
42996
42988
42984
42980
42972
42960
42964
42964
42952
42944
42943
42932
42938
42928
42920
42924
42908
42908
42896
42884
42880
42872
42871
42849
42848
42832
42824
42812
42814
42802
42788
42776
42768
42762
42748
42743
42728
42716
42704
42704
42692
42676
42670
42657
42657
42628
42625
42612
42594
42590
42580
42560
42557
42544
42521
42520
42504
42484
42476
42460
42444
42426
42417
42401
42380
42364
42350
42334
42311
42296
42272
42256
42240
42222
42207
42184
42164
42158
42126
42096
42084
42060
42036
42021
41992
41972
41948
41925
41900
41864
41844
41828
41800
41764
41751
41732
41689
41676
41636
41612
41593
41548
41532
41501
41468
41445
41408
41380
41356
41325
41297
41256
41238
41212
41176
41149
41109
41092
41053
41022
41000
40965
40940
40900
40878
40846
40820
40796
40760
40724
40700
40665
40628
40596
40578
40540
40502
40484
40444
40412
40378
40357
40332
40288
40264
40230
40200
40166
40142
40112
40082
40056
40020
39988
39964
39924
39900
39870
39828
39812
39782
39752
39721
39686
39660
39628
39600
39580
39544
39520
39478
39461
39420
39396
39365
39332
39313
39276
39257
39232
39193
39166
39140
39108
39086
39068
39028
39008
38974
38954
38924
38901
38878
38845
38812
38792
38772
38736
38724
38692
38666
38630
38612
38575
38564
38534
38510
38481
38459
38432
38396
38376
38348
38332
38300
38284
38252
38225
38208
38184
38148
38132
38096
38082
38056
38032
38006
37984
37954
37926
37909
37872
37856
37832
37816
37784
37756
37728
37712
37676
37648
37620
37600
37572
37542
37516
37500
37468
37440
37412
37380
37349
37316
37296
37264
37229
37210
37175
37151
37118
37093
37062
37021
36996
36968
36938
36900
36876
36852
36816
36794
36756
36728
36696
36665
36650
36614
36580
36548
36520
36484
36452
36428
36398
36367
36332
36296
36280
36238
36210
36172
36146
36109
36068
36048
36013
35980
35950
35916
35884
35844
35814
35790
35761
35724
35688
35656
35634
35592
35556
35532
35502
35465
35432
35400
35372
35338
35306
35276
35252
35212
35184
35158
35117
35094
35056
35032
35009
34968
34950
34916
34884
34860
34836
34802
34767
34748
34712
34692
34658
34633
34608
34581
34559
34528
34496
34476
34448
34432
34392
34370
34336
34316
34294
34254
34236
34208
34182
34161
34136
34107
34084
34064
34038
34008
33988
33963
33933
33908
33889
33857
33832
33811
33791
33757
33740
33708
33690
33668
33639
33626
33596
33580
33552
33524
33511
33480
33456
33442
33411
33404
33376
33352
33332
33308
33292
33272
33252
33232
33204
33189
33170
33144
33128
33098
33079
33060
33054
33026
33004
32982
32974
32941
32932
32900
32876
32864
32841
32825
32800
32780
32764
32740
32727
32703
32684
32664
32644
32629
32598
32578
32559
32536
32520
32500
32488
32465
32442
32426
32409
32385
32364
32352
32320
32300
32288
32268
32252
32228
32200
32180
32165
32149
32124
32102
32090
32064
32050
32024
32007
31980
31964
31946
31924
31902
31886
31856
31846
31820
31796
31780
31756
31744
31714
31704
31672
31656
31637
31612
31597
31580
31556
31537
31520
31488
31476
31452
31436
31408
31397
31374
31348
31329
31320
31288
31272
31245
31240
31208
31185
31172
31149
31129
31112
31095
31072
31047
31036
31008
30990
30958
30944
30930
30901
30888
30868
30848
30822
30812
30792
30772
30754
30736
30709
30692
30676
30653
30636
30616
30600
30581
30556
30540
30522
30506
30488
30464
30455
30436
30412
30400
30384
30365
30340
30330
30316
30288
30280
30256
30244
30216
30204
30185
30168
30152
30142
30120
30104
30100
30058
30053
30030
30018
30000
29984
29968
29960
29934
29918
29903
29892
29860
29853
29833
29816
29797
29784
29762
29752
29726
29713
29696
29673
29664
29631
29628
29608
29596
29578
29556
29542
29526
29512
29494
29472
29458
29438
29416
29398
29380
29372
29354
29329
29316
29301
29276
29268
29248
29226
29220
29202
29178
29158
29142
29124
29105
29100
29076
29062
29038
29024
29009
29000
28972
28960
28951
28930
28913
28900
28880
28868
28854
28836
28817
28808
28792
28776
28762
28744
28732
28724
28703
28684
28664
28654
28642
28628
28612
28593
28580
28559
28542
28532
28516
28504
28484
28468
28453
28440
28418
28400
28388
28376
28356
28336
28324
28301
28295
28280
28264
28244
28230
28214
28194
28184
28165
28154
28130
28114
28102
28082
28068
28057
28032
28020
28004
27984
27980
27956
27943
27928
27905
27897
27876
27860
27852
27832
27818
27799
27788
27772
27759
27736
27728
27714
27693
27684
27676
27660
27631
27624
27616
27592
27580
27564
27556
27537
27526
27516
27502
27493
27480
27458
27446
27432
27424
27404
27396
27382
27380
27360
27344
27340
27324
27317
27304
27300
27285
27278
27268
27258
27248
27239
27236
27216
27210
27202
27196
27187
27174
27172
27161
27160
27148
27138
27134
27124
27123
27112
27108
27100
27094
27080
27080
27078
27061
27060
27064
27045
27044
27038
27025
27022
27013
27008
27007
27000
26992
26981
26988
26975
26975
26964
26960
26949
26953
26948
26942
26940
26936
26924
26924
26905
26906
26909
26897
26898
26886
26894
26885
26884
26870
26867
26860
26864
26857
26850
26849
26852
26840
26844
26842
26832
26826
26822
26824
26816
26816
26812
26804
26800
26801
26792
26784
26781
26772
26773
26766
26756
26752
26744
26740
26734
26725
26714
26702
26700
26692
26700
26690
26675
26672
26660
26660
26652
26644
26648
26640
26628
26618
26615
26616
26601
26600
26590
26590
26584
26578
26572
26570
26564
26548
26544
26541
26529
26528
26525
26516
26503
26504
26484
26481
26476
26468
26462
26449
26453
26436
26440
26430
26428
26430
26426
26420
26412
26410
26404
26404
26397
26401
26396
26385
26384
26382
26376
26364
26369
26364
26364
26352
26353
26340
26341
26334
26336
26332
26324
26320
26320
26308
26312
26302
26298
26296
26293
26292
26289
26288
26294
26284
26282
26282
26276
26276
26276
26274
26276
26281
26272
26268
26280
26273
26272
26277
26275
26282
26294
26284
26284
26290
26293
26292
26284
26292
26296
26300
26301
26302
26296
26297
26309
26308
26308
26304
26308
26309
26305
26309
26306
26313
26302
26305
26304
26298
26300
26304
26306
26294
26296
26288
26285
26284
26280
26272
26271
26260
26260
26255
26248
26241
26236
26233
26218
26220
26212
26204
26193
26184
26170
26164
26156
26148
26140
26121
26120
26104
26096
26084
26070
26064
26052
26044
26028
26018
26008
25995
25982
25973
25964
25965
25941
25928
25918
25896
25889
25883
25868
25856
25848
25844
25828
25820
25816
25793
25784
25776
25760
25756
25744
25735
25732
25728
25712
25708
25704
25688
25686
25672
25670
25666
25652
25654
25646
25634
25637
25633
25632
25622
25613
25612
25604
25610
25593
25592
25592
25590
25584
25583
25573
25581
25580
25576
25580
25581
25576
25582
25588
25583
25581
25583
25589
25596
25600
25592
25604
25601
25608
25614
25616
25620
25636
25634
25634
25638
25648
25652
25656
25662
25666
25671
25678
25680
25688
25688
25704
25708
25704
25714
25720
25734
25737
25748
25748
25756
25756
25772
25774
25776
25796
25799
25799
25808
25817
25824
25828
25831
25846
25860
25862
25868
25877
25880
25889
25896
25906
25905
25920
25928
25936
25948
25952
25954
25966
25980
25982
25989
26001
26000
26008
26016
26024
26028
26042
26046
26064
26052
26070
26076
26089
26088
26100
26106
26108
26118
26132
26130
26136
26145
26148
26156
26160
26164
26172
26172
26180
26180
26184
26190
26190
26192
26192
26194
26200
26204
26212
26216
26213
26216
26220
26220
26216
26214
26222
26220
26218
26224
26217
26222
26234
26228
26229
26230
26230
26230
26232
26230
26228
26236
26240
26234
26237
26238
26245
26246
26245
26246
26260
26252
26260
26256
26262
26268
26272
26284
26276
26293
26290
26304
26308
26312
26316
26312
26326
26328
26340
26340
26354
26351
26364
26368
26372
26386
26392
26402
26400
26409
26416
26419
26436
26436
26444
26452
26468
26470
26480
26484
26484
26494
26503
26516
26522
26520
26534
26548
26544
26556
26564
26572
26576
26581
26596
26595
26596
26620
26613
26616
26622
26636
26632
26650
26652
26660
26656
26672
26680
26682
26684
26688
26700
26700
26704
26713
26712
26716
26716
26724
26728
26738
26744
26742
26752
26752
26760
26764
26769
26772
26781
26780
26786
26792
26800
26796
26812
26812
26812
26816
26824
26824
26824
26838
26836
26844
26853
26856
26852
26860
26876
26868
26875
26868
26879
26874
26882
26884
26892
26888
26900
26889
26900
26900
26904
26908
26912
26912
26908
26913
26916
26913
26911
26912
26916
26914
26918
26923
26924
26920
26917
26917
26930
26926
26927
26925
26916
26927
26916
26921
26908
26920
26920
26918
26912
26916
26913
26919
26912
26913
26914
26920
26913
26920
26918
26916
26919
26918
26916
26920
26916
26912
26916
26916
26916
26909
26913
26912
26916
26909
26912
26916
26905
26910
26911
26908
26916
26908
26917
26916
26914
26916
26913
26914
26916
26920
26914
26914
26913
26924
26924
26922
26928
26921
26924
26929
26932
26922
26932
26932
26928
26932
26928
26928
26932
26929
26938
26932
26941
26945
26938
26944
26945
26945
26952
26948
26942
26956
26949
26948
26949
26950
26952
26953
26956
26948
26953
26960
26965
26958
26952
26968
26961
26954
26962
26964
26955
26954
26956
26964
26957
26958
26952
26960
26960
26960
26957
26956
26952
26958
26953
26952
26946
26948
26948
26952
26952
26951
26946
26945
26948
26949
26944
26948
26950
26944
26940
26944
26942
26946
26950
26946
26946
26948
26950
26948
26940
26945
26952
26944
26940
26944
26946
26944
26945
26945
26954
26944
26952
26949
26944
26948
26952
26956
26948
26948
26960
26956
26961
26952
26960
26956
26956
26954
26962
26968
26970
26968
26969
26968
26976
26972
26974
26988
26983
26986
26980
26980
26984
26988
26989
26996
26996
26996
26996
27000
27004
27004
27009
27016
27012
27017
27015
27020
27017
27020
27028
27024
27032
27028
27032
27030
27038
27037
27044
27044
27048
27044
27044
27047
27054
27060
27052
27060
27064
27065
27070
27070
27074
27070
27072
27071
27076
27076
27080
27080
27080
27082
27084
27084
27084
27085
27084
27082
27084
27078
27076
27084
27070
27076
27072
27070
27072
27068
27062
27053
27058
27055
27055
27039
27044
27046
27037
27037
27038
27034
27028
27026
27028
27022
27024
27012
27021
27018
27007
27024
27010
27008
27012
27014
27012
27009
27004
27014
27012
27012
27016
27007
27020
27012
27012
27016
27017
27018
27016
27016
27016
27031
27028
27028
27028
27030
27036
27040
27045
27046
27040
27048
27049
27055
27058
27064
27063
27064
27070
27072
27084
27080
27087
27084
27088
27096
27096
27100
27108
27108
27112
27116
27120
27126
27124
27134
27140
27138
27152
27148
27158
27156
27164
27160
27172
27172
27168
27184
27192
27182
27196
27189
27188
27200
27204
27208
27205
27212
27213
27214
27218
27222
27225
27236
27234
27237
27240
27240
27244
27242
27244
27239
27240
27258
27244
27249
27264
27254
27254
27256
27252
27256
27256
27264
27261
27268
27276
27272
27281
27280
27289
27294
27292
27300
27304
27316
27316
27317
27325
27330
27334
27337
27348
27352
27348
27363
27364
27364
27375
27373
27369
27376
27384
27389
27392
27396
27398
27396
27400
27404
27404
27409
27418
27421
27416
27430
27433
27436
27447
27444
27454
27456
27468
27468
27480
27482
27494
27489
27494
27508
27510
27516
27518
27526
27528
27534
27536
27542
27548
27548
27550
27561
27556
27564
27564
27568
27574
27576
27581
27585
27584
27598
27588
27596
27602
27604
27610
27616
27613
27620
27616
27628
27630
27632
27636
27648
27652
27652
27666
27668
27676
27686
27683
27688
27692
27704
27713
27717
27724
27736
27740
27758
27740
27764
27763
27774
27780
27786
27777
27796
27802
27804
27808
27820
27812
27821
27828
27834
27836
27838
27840
27844
27850
27848
27846
27858
27852
27856
27860
27856
27862
27868
27866
27860
27858
27866
27852
27860
27860
27855
27852
27856
27846
27843
27846
27836
27844
27838
27833
27828
27828
27820
27815
27812
27796
27800
27791
27795
27783
27776
27772
27769
27761
27754
27748
27742
27732
27731
27730
27720
27708
27709
27712
27696
27696
27696
27682
27682
27672
27671
27672
27660
27668
27650
27656
27652
27652
27646
27648
27639
27638
27636
27637
27640
27630
27639
27642
27645
27638
27637
27644
27644
27648
27652
27648
27654
27652
27668
27663
27672
27674
27680
27688
27696
27705
27713
27710
27724
27728
27744
27748
27752
27772
27773
27786
27788
27810
27818
27825
27833
27848
27860
27880
27890
27900
27920
27930
27938
27956
27972
27992
27997
28017
28032
28054
28068
28082
28089
28112
28128
28144
28163
28180
28196
28220
28228
28244
28260
28282
28305
28317
28337
28350
28373
28386
28404
28428
28441
28470
28482
28506
28520
28540
28562
28578
28602
28612
28628
28644
28674
28686
28708
28732
28740
28769
28774
28794
28812
28824
28844
28864
28878
28900
28916
28938
28956
28972
28980
29000
29026
29038
29045
29068
29082
29103
29116
29130
29152
29174
29180
29205
29222
29236
29244
29270
29280
29300
29310
29326
29344
29360
29377
29380
29404
29421
29436
29444
29457
29476
29488
29492
29524
29530
29545
29568
29572
29592
29608
29622
29636
29648
29668
29684
29694
29726
29736
29748
29766
29780
29803
29828
29836
29860
29872
29898
29915
29936
29950
29978
29992
30008
30030
30048
30080
30100
30119
30140
30164
30176
30207
30224
30252
30272
30295
30322
30341
30365
30376
30412
30430
30450
30468
30492
30518
30542
30567
30584
30606
30628
30652
30674
30684
30721
30738
30760
30784
30796
30823
30844
30868
30884
30900
30920
30940
30960
30978
31000
31016
31032
31060
31076
31088
31103
31130
31147
31164
31180
31200
31212
31228
31236
31264
31290
31300
31316
31332
31352
31364
31376
31404
31425
31436
31448
31464
31480
31489
31510
31524
31548
31564
31583
31592
31608
31620
31636
31656
31668
31686
31700
31716
31734
31757
31764
31789
31798
31818
31829
31852
31866
31877
31896
31916
31932
31948
31964
31980
31996
32014
32036
32056
32068
32080
32100
32120
32128
32153
32162
32180
32196
32208
32228
32244
32264
32276
32292
32309
32324
32340
32356
32365
32386
32397
32416
32434
32444
32460
32476
32487
32508
32526
32538
32552
32564
32589
32604
32616
32636
32646
32657
32680
32700
32704
32729
32736
32750
32762
32780
32798
32810
32832
32848
32849
32876
32884
32902
32920
32936
32956
32962
32976
32996
33012
33030
33044
33061
33076
33084
33100
33121
33134
33144
33164
33180
33184
33205
33216
33232
33252
33271
33272
33284
33303
33328
33330
33354
33369
33386
33391
33396
33424
33432
33446
33460
33477
33491
33504
33524
33524
33553
33568
33564
33588
33596
33608
33624
33632
33656
33660
33680
33686
33693
33708
33728
33728
33752
33760
33774
33790
33796
33812
33828
33834
33844
33861
33870
33878
33886
33898
33908
33916
33930
33940
33960
33964
33975
33988
33988
34008
34016
34033
34036
34050
34076
34070
34082
34096
34104
34120
34129
34132
34144
34164
34168
34181
34197
34208
34220
34228
34237
34244
34264
34276
34280
34289
34305
34308
34316
34334
34350
34360
34380
34384
34389
34407
34416
34420
34442
34444
34468
34476
34494
34494
34506
34520
34532
34540
34553
34564
34564
34592
34592
34602
34608
34628
34640
34656
34670
34673
34692
34697
34712
34724
34728
34748
34756
34772
34776
34784
34804
34807
34820
34836
34841
34860
34872
34872
34884
34898
34910
34913
34930
34948
34948
34964
34985
34984
35004
35009
35020
35030
35040
35062
35062
35083
35088
35097
35116
35116
35129
35142
35156
35166
35174
35188
35204
35204
35220
35224
35242
35256
35262
35268
35276
35288
35300
35312
35332
35340
35340
35356
35367
35376
35390
35404
35404
35415
35426
35433
35440
35464
35464
35470
35488
35492
35498
35511
35532
35530
35540
35552
35556
35572
35584
35593
35600
35612
35617
35628
35637
35640
35648
35660
35677
35676
35674
35688
35697
35700
35716
35732
35728
35740
35756
35748
35768
35776
35777
35796
35806
35808
35824
35824
35834
35854
35860
35860
35868
35882
35893
35912
35916
35924
35936
35944
35956
35964
35978
35989
35992
36012
36005
36036
36046
36052
36064
36076
36084
36095
36118
36121
36132
36143
36164
36164
36183
36192
36205
36214
36236
36240
36252
36267
36290
36288
36301
36308
36329
36344
36350
36359
36370
36385
36398
36400
36416
36432
36434
36446
36448
36466
36468
36492
36498
36514
36519
36527
36534
36548
36568
36568
36580
36589
36602
36612
36618
36630
36640
36644
36660
36664
36674
36674
36688
36694
36708
36724
36724
36726
36740
36748
36756
36769
36769
36780
36788
36792
36804
36807
36820
36822
36836
36844
36840
36844
36849
36863
36864
36860
36868
36884
36868
36878
36876
36888
36874
36890
36897
36884
36900
36897
36900
36913
36900
36916
36926
36924
36926
36928
36948
36937
36960
36964
36960
36966
36977
36980
36981
36990
37000
36998
37013
37018
37028
37036
37042
37040
37048
37058
37068
37072
37070
37084
37089
37096
37108
37106
37128
37130
37144
37154
37164
37180
37188
37192
37216
37229
37240
37248
37260
37274
37280
37289
37306
37312
37320
37335
37348
37364
37372
37376
37391
37400
37413
37420
37438
37444
37456
37460
37473
37484
37490
37512
37524
37528
37544
37548
37577
37585
37594
37600
37617
37632
37630
37648
37661
37676
37689
37692
37710
37708
37721
37741
37748
37752
37764
37772
37786
37788
37792
37800
37806
37820
37824
37824
37824
37844
37845
37856
37861
37864
37873
37884
37868
37880
37874
37873
37890
37884
37876
37880
37886
37880
37885
37876
37872
37876
37872
37864
37868
37864
37864
37856
37848
37844
37844
37833
37826
37821
37816
37818
37798
37799
37786
37792
37784
37768
37765
37764
37752
37744
37728
37728
37724
37716
37714
37700
37694
37686
37680
37668
37664
37660
37656
37644
37644
37636
37629
37622
37620
37606
37604
37593
37596
37592
37581
37567
37566
37559
37550
37550
37543
37540
37528
37528
37524
37520
37510
37508
37506
37498
37512
37492
37480
37484
37484
37468
37472
37468
37464
37464
37460
37460
37452
37462
37462
37457
37456
37456
37462
37460
37452
37462
37461
37460
37460
37468
37463
37462
37472
37464
37470
37453
37460
37476
37468
37476
37478
37484
37488
37484
37494
37486
37500
37497
37506
37502
37508
37511
37512
37516
37520
37529
37532
37537
37535
37540
37536
37546
37544
37560
37564
37548
37564
37580
37566
37572
37580
37582
37588
37596
37604
37608
37613
37620
37629
37627
37637
37646
37642
37656
37660
37672
37668
37668
37684
37689
37686
37697
37704
37708
37713
37720
37726
37729
37724
37732
37742
37746
37762
37748
37768
37769
37770
37780
37784
37776
37792
37800
37806
37804
37812
37823
37816
37824
37828
37836
37836
37837
37844
37859
37860
37864
37870
37876
37880
37876
37884
37886
37888
37894
37896
37895
37904
37916
37904
37904
37908
37912
37910
37916
37924
37928
37927
37928
37924
37932
37940
37943
37938
37956
37954
37956
37964
37962
37976
37980
37984
37988
37991
37996
38000
38016
38004
38028
38024
38024
38040
38044
38052
38048
38068
38068
38070
38064
38088
38092
38108
38106
38112
38116
38126
38135
38141
38150
38160
38169
38173
38176
38180
38188
38204
38204
38212
38220
38223
38226
38238
38236
38244
38253
38268
38260
38260
38276
38285
38276
38284
38294
38292
38298
38300
38302
38317
38318
38312
38320
38324
38320
38328
38324
38317
38334
38330
38332
38336
38332
38327
38328
38324
38316
38324
38326
38320
38312
38308
38300
38292
38292
38292
38284
38278
38274
38260
38260
38252
38248
38240
38237
38224
38212
38212
38201
38200
38188
38178
38172
38156
38148
38140
38136
38116
38112
38108
38084
38076
38074
38060
38048
38044
38022
38012
38000
37990
37984
37976
37956
37940
37934
37924
37910
37895
37896
37884
37862
37848
37844
37830
37816
37802
37792
37780
37764
37760
37748
37734
37719
37704
37686
37676
37668
37660
37644
37632
37620
37608
37592
37588
37568
37556
37541
37532
37516
37497
37488
37472
37460
37441
37432
37418
37400
37391
37370
37356
37341
37320
37304
37289
37276
37248
37232
37222
37204
37184
37166
37156
37129
37112
37100
37082
37062
37044
37024
37002
36980
36960
36944
36928
36904
36880
36865
36844
36826
36812
36780
36764
36736
36718
36696
36676
36668
36640
36610
36596
36570
36552
36529
36502
36484
36456
36436
36420
36400
36372
36344
36320
36296
36286
36256
36228
36205
36184
36156
36124
36111
36088
36062
36040
36021
35984
35976
35945
35920
35902
35876
35844
35832
35796
35772
35748
35727
35708
35681
35668
35652
35624
35596
35574
35545
35524
35512
35480
35462
35444
35420
35394
35374
35348
35328
35311
35285
35272
35260
35228
35208
35196
35156
35150
35128
35110
35092
35072
35048
35030
35008
34992
34972
34952
34929
34908
34889
34874
34864
34834
34808
34786
34774
34752
34740
34722
34700
34676
34660
34655
34625
34600
34585
34569
34532
34522
34497
34484
34458
34448
34430
34404
34380
34360
34336
34314
34292
34274
34248
34232
34212
34188
34172
34141
34128
34100
34067
34050
34041
34012
33990
33970
33948
33930
33906
33880
33861
33838
33824
33792
33775
33752
33732
33716
33686
33662
33644
33622
33598
33576
33556
33543
33520
33492
33474
33440
33428
33400
33380
33361
33336
33312
33293
33264
33249
33224
33202
33176
33164
33140
33118
33089
33070
33044
33020
32996
32970
32948
32929
32898
32878
32852
32838
32812
32788
32760
32740
32724
32693
32678
32649
32630
32604
32576
32556
32534
32504
32489
32464
32444
32420
32404
32376
32361
32336
32312
32284
32269
32248
32228
32204
32184
32162
32146
32120
32109
32088
32068
32052
32036
32017
31986
31972
31962
31944
31921
31908
31892
31878
31855
31852
31823
31822
31804
31780
31760
31760
31738
31716
31716
31695
31680
31668
31639
31640
31621
31612
31588
31576
31557
31543
31526
31517
31506
31482
31471
31453
31446
31426
31405
31392
31377
31364
31346
31324
31321
31294
31279
31265
31241
31232
31213
31196
31180
31158
31148
31130
31105
31092
31072
31060
31038
31024
30996
30985
30958
30948
30925
30916
30897
30880
30857
30844
30832
30810
30795
30777
30756
30740
30720
30697
30680
30668
30646
30623
30615
30588
30568
30548
30530
30521
30492
30472
30452
30424
30404
30384
30364
30346
30320
30308
30284
30256
30236
30216
30194
30176
30148
30132
30116
30101
30086
30061
30037
30020
30004
29976
29964
29944
29926
29912
29892
29868
29860
29836
29818
29806
29776
29764
29742
29730
29708
29688
29668
29653
29636
29612
29601
29582
29564
29552
29534
29518
29492
29490
29472
29460
29449
29428
29410
29403
29384
29378
29350
29345
29333
29308
29306
29288
29272
29257
29241
29230
29210
29188
29174
29152
29141
29130
29114
29094
29082
29070
29045
29034
29019
29012
28984
28972
28961
28948
28932
28918
28904
28893
28873
28864
28844
28844
28824
28812
28794
28790
28761
28756
28744
28729
28706
28700
28690
28668
28657
28648
28632
28616
28610
28593
28584
28558
28548
28530
28516
28504
28492
28472
28464
28450
28432
28416
28399
28388
28368
28350
28344
28321
28310
28288
28272
28260
28237
28216
28204
28188
28158
28144
28124
28106
28078
28060
28050
28024
28008
27980
27958
27936
27916
27894
27870
27854
27828
27802
27782
27753
27740
27720
27684
27668
27650
27628
27600
27577
27556
27529
27512
27488
27464
27440
27418
27390
27372
27340
27322
27305
27272
27255
27232
27200
27184
27164
27137
27114
27096
27074
27050
27036
27012
26984
26967
26944
26916
26908
26878
26868
26844
26816
26804
26780
26766
26748
26732
26708
26692
26674
26667
26642
26624
26604
26596
26578
26562
26549
26533
26512
26500
26488
26474
26457
26452
26428
26420
26404
26396
26385
26373
26356
26347
26340
26330
26326
26308
26292
26282
26278
26268
26252
26244
26234
26228
26221
26204
26197
26195
26186
26178
26174
26160
26148
26147
26148
26132
26128
26116
26120
26110
26096
26096
26084
26086
26080
26082
26072
26068
26056
26060
26052
26044
26039
26031
26026
26028
26026
26020
26018
26008
26004
25997
25998
25992
25989
25985
25988
25982
25980
25976
25972
25968
25966
25960
25956
25956
25956
25948
25949
25950
25943
25944
25938
25940
25924
25928
25920
25916
25910
25911
25904
25892
25896
25895
25893
25888
25878
25881
25868
25864
25857
25861
25856
25858
25848
25852
25848
25840
25838
25836
25834
25830
25820
25828
25826
25816
25816
25816
25810
25812
25809
25801
25800
25796
25798
25792
25784
25791
25792
25794
25784
25784
25780
25786
25776
25780
25776
25778
25768
25776
25777
25772
25780
25770
25776
25771
25778
25780
25778
25771
25780
25786
25788
25786
25790
25786
25796
25796
25790
25800
25816
25807
25807
25804
25815
25821
25824
25820
25834
25828
25832
25842
25840
25856
25853
25866
25864
25866
25872
25869
25879
25885
25881
25900
25892
25896
25893
25904
25914
25908
25912
25912
25920
25924
25932
25934
25937
25940
25956
25948
25952
25956
25957
25958
25964
25974
25977
25982
25982
25982
25988
25988
25994
25988
25998
25998
26004
26004
26010
25999
26008
26008
26020
26020
26020
26024
26032
26028
26033
26036
26036
26038
26039
26044
26044
26046
26054
26050
26056
26056
26052
26054
26054
26052
26060
26066
26060
26066
26068
26060
26059
26068
26070
26070
26056
26069
26063
26064
26072
26062
26062
26056
26065
26068
26064
26068
26058
26070
26068
26068
26070
26068
26072
26070
26076
26074
26076
26068
26074
26076
26073
26084
26088
26088
26086
26092
26094
26092
26093
26098
26110
26109
26108
26108
26108
26118
26116
26120
26120
26124
26124
26130
26128
26128
26146
26137
26142
26145
26144
26148
26148
26149
26159
26158
26156
26163
26161
26164
26178
26172
26172
26177
26180
26178
26180
26173
26185
26180
26184
26177
26184
26184
26185
26180
26180
26178
26181
26184
26183
26178
26175
26172
26176
26172
26170
26165
26164
26165
26168
26168
26164
26158
26156
26158
26154
26151
26148
26146
26138
26143
26140
26136
26138
26132
26132
26130
26132
26120
26125
26120
26121
26111
26109
26104
26106
26106
26110
26112
26104
26104
26108
26108
26096
26097
26098
26092
26084
26084
26084
26089
26080
26079
26068
26074
26064
26062
26062
26058
26052
26050
26048
26040
26037
26028
26028
26032
26028
26024
26009
26018
26013
26011
26008
26004
25998
26000
25993
25990
25988
25985
25985
25975
25982
25976
25969
25964
25960
25961
25958
25952
25952
25953
25948
25951
25942
25952
25948
25950
25946
25944
25956
25956
25966
25974
25966
25970
25980
25978
25984
25991
25992
26002
26014
26018
26023
26033
26041
26048
26061
26065
26079
26082
26101
26105
26116
26128
26136
26156
26164
26173
26185
26196
26209
26218
26241
26240
26257
26276
26280
26300
26306
26318
26341
26341
26356
26368
26384
26400
26408
26424
26436
26444
26461
26470
26482
26502
26516
26532
26530
26545
26562
26576
26588
26600
26620
26624
26636
26646
26665
26674
26689
26706
26721
26726
26738
26751
26764
26784
26793
26814
26820
26836
26840
26848
26870
26884
26892
26909
26913
26932
26942
26955
26965
26974
26988
27007
27013
27021
27033
27044
27056
27072
27080
27088
27100
27114
27124
27134
27134
27161
27164
27174
27176
27198
27205
27212
27217
27225
27234
27246
27256
27262
27272
27284
27285
27292
27300
27316
27319
27321
27333
27336
27356
27356
27364
27373
27388
27384
27405
27401
27420
27420
27434
27436
27442
27456
27465
27466
27468
27482
27484
27492
27505
27508
27518
27520
27525
27532
27537
27540
27544
27552
27552
27566
27564
27573
27572
27576
27588
27588
27592
27594
27598
27598
27598
27604
27608
27612
27612
27624
27620
27612
27620
27625
27624
27630
27628
27628
27628
27630
27637
27634
27644
27638
27642
27644
27645
27650
27647
27646
27648
27654
27648
27646
27652
27652
27652
27660
27656
27652
27648
27652
27654
27657
27653
27644
27642
27636
27636
27630
27632
27630
27628
27618
27620
27620
27610
27612
27608
27594
27594
27594
27590
27596
27592
27592
27590
27588
27592
27589
27585
27592
27588
27587
27592
27598
27600
27596
27608
27601
27608
27614
27600
27608
27604
27612
27609
27608
27606
27608
27600
27604
27594
27605
27598
27610
27594
27594
27588
27598
27588
27594
27592
27596
27599
27590
27598
27600
27608
27604
27608
27612
27621
27619
27623
27630
27628
27640
27636
27640
27646
27648
27652
27654
27652
27660
27656
27670
27670
27665
27665
27672
27668
27680
27674
27668
27668
27672
27674
27672
27676
27674
27670
27666
27670
27673
27664
27664
27664
27668
27668
27654
27658
27648
27656
27654
27648
27656
27646
27652
27652
27644
27652
27649
27656
27651
27648
27653
27652
27654
27656
27656
27653
27661
27668
27664
27671
27665
27673
27678
27673
27680
27686
27684
27694
27700
27701
27709
27704
27716
27717
27722
27724
27732
27734
27744
27749
27752
27756
27764
27766
27765
27778
27780
27784
27780
27796
27790
27800
27800
27812
27805
27808
27813
27813
27813
27811
27820
27818
27820
27820
27820
27825
27814
27820
27821
27812
27818
27814
27804
27803
27808
27800
27796
27796
27785
27788
27782
27777
27772
27769
27764
27758
27745
27744
27738
27732
27730
27732
27718
27714
27702
27700
27697
27693
27692
27684
27681
27673
27673
27673
27668
27661
27660
27660
27666
27662
27658
27652
27664
27649
27652
27656
27658
27654
27656
27670
27665
27660
27672
27673
27682
27681
27689
27688
27700
27697
27706
27708
27712
27715
27716
27730
27729
27734
27742
27748
27754
27764
27768
27772
27774
27780
27778
27788
27797
27796
27795
27805
27804
27805
27804
27816
27820
27820
27820
27824
27826
27828
27824
27828
27824
27836
27844
27839
27836
27840
27844
27836
27844
27841
27844
27848
27844
27844
27849
27848
27844
27860
27860
27860
27852
27856
27856
27864
27857
27857
27872
27876
27876
27872
27870
27877
27882
27891
27886
27896
27894
27908
27912
27914
27915
27920
27928
27934
27940
27937
27946
27952
27953
27960
27964
27972
27984
27984
27978
27994
28004
28006
28008
28023
28022
28020
28034
28029
28034
28042
28037
28056
28056
28053
28060
28057
28068
28065
28068
28068
28074
28074
28076
28076
28078
28081
28084
28084
28080
28085
28096
28082
28082
28084
28088
28098
28092
28100
28092
28098
28097
28096
28106
28103
28104
28112
28112
28114
28110
28122
28116
28116
28120
28124
28132
28124
28138
28142
28148
28146
28152
28153
28164
28164
28178
28178
28182
28192
28189
28204
28200
28212
28209
28226
28224
28236
28240
28238
28257
28256
28261
28268
28273
28276
28279
28289
28292
28296
28297
28302
28310
28314
28321
28326
28328
28338
28337
28340
28340
28346
28348
28353
28360
28369
28364
28364
28376
28382
28382
28380
28382
28382
28384
28380
28382
28388
28388
28384
28377
28378
28380
28373
28380
28375
28373
28372
28372
28372
28372
28368
28368
28360
28374
28356
28364
28359
28357
28352
28352
28348
28347
28346
28344
28340
28340
28340
28336
28334
28336
28340
28336
28332
28324
28326
28322
28320
28328
28320
28319
28324
28318
28316
28316
28312
28314
28306
28300
28300
28306
28304
28294
28292
28289
28292
28292
28288
28292
28281
28280
28284
28270
28276
28269
28272
28273
28276
28276
28279
28270
28276
28272
28282
28272
28281
28273
28284
28284
28284
28284
28292
28285
28296
28294
28296
28296
28304
28312
28313
28309
28320
28326
28324
28328
28332
28337
28334
28350
28342
28352
28349
28356
28357
28356
28358
28366
28368
28373
28376
28376
28378
28376
28380
28385
28395
28384
28388
28400
28398
28399
28404
28404
28399
28410
28400
28405
28406
28414
28404
28412
28406
28414
28422
28406
28420
28412
28412
28412
28404
28412
28412
28414
28416
28416
28408
28415
28414
28413
28419
28404
28412
28410
28412
28414
28409
28409
28404
28404
28400
28404
28404
28394
28404
28396
28400
28400
28392
28397
28398
28402
28400
28394
28394
28401
28394
28399
28397
28404
28394
28404
28406
28393
28400
28408
28400
28402
28404
28406
28403
28413
28412
28410
28407
28418
28414
28416
28412
28424
28420
28421
28420
28420
28428
28424
28426
28432
28436
28436
28430
28436
28440
28436
28442
28442
28436
28444
28436
28450
28448
28448
28448
28448
28450
28450
28454
28454
28454
28450
28456
28458
28454
28455
28454
28460
28465
28462
28468
28460
28458
28460
28462
28472
28460
28462
28465
28462
28466
28466
28464
28473
28471
28469
28469
28462
28464
28462
28469
28468
28467
28464
28462
28461
28461
28466
28462
28460
28460
28448
28446
28449
28446
28441
28432
28434
28432
28424
28414
28407
28412
28407
28404
28390
28392
28377
28382
28372
28366
28364
28356
28350
28332
28332
28324
28316
28312
28302
28297
28290
28276
28272
28265
28256
28248
28245
28234
28228
28216
28207
28192
28190
28178
28172
28169
28156
28148
28142
28134
28130
28125
28104
28106
28096
28096
28084
28078
28068
28064
28064
28052
28048
28046
28040
28034
28025
28020
28010
28012
28006
28004
28001
27993
27992
27988
27982
27976
27978
27968
27966
27965
27956
27962
27950
27944
27944
27944
27946
27938
27944
27933
27928
27926
27921
27928
27924
27918
27916
27916
27908
27900
27908
27910
27896
27898
27900
27900
27896
27892
27886
27888
27897
27884
27892
27886
27892
27884
27874
27876
27876
27872
27876
27878
27876
27872
27877
27874
27868
27868
27868
27872
27868
27868
27868
27866
27856
27868
27866
27867
27870
27872
27877
27869
27876
27865
27866
27872
27868
27876
27868
27872
27868
27868
27865
27863
27860
27864
27860
27860
27856
27858
27857
27856
27852
27856
27854
27857
27867
27856
27858
27864
27856
27861
27864
27860
27870
27870
27874
27872
27881
27884
27884
27888
27892
27894
27895
27906
27904
27912
27911
27912
27924
27924
27928
27932
27928
27926
27934
27928
27932
27935
27932
27928
27919
27924
27924
27924
27924
27918
27918
27917
27916
27904
27921
27915
27916
27904
27910
27908
27908
27905
27905
27900
27896
27906
27896
27900
27892
27900
27898
27900
27892
27888
27892
27886
27880
27876
27872
27882
27868
27872
27864
27868
27860
27852
27856
27848
27844
27840
27833
27831
27828
27820
27817
27812
27804
27796
27796
27800
27789
27784
27780
27777
27772
27780
27766
27764
27766
27768
27756
27764
27761
27764
27768
27762
27764
27756
27760
27764
27760
27769
27760
27770
27768
27768
27785
27780
27780
27776
27788
27784
27794
27785
27790
27788
27789
27793
27788
27794
27789
27788
27792
27782
27791
27788
27783
27780
27784
27785
27773
27772
27764
27754
27749
27743
27748
27735
27737
27725
27712
27712
27706
27702
27684
27678
27671
27658
27652
27652
27641
27625
27630
27612
27606
27590
27584
27573
27564
27556
27536
27530
27516
27508
27502
27494
27473
27472
27460
27452
27436
27430
27424
27412
27394
27391
27384
27372
27360
27356
27344
27336
27332
27316
27316
27304
27300
27288
27286
27280
27272
27268
27260
27254
27249
27237
27237
27240
27228
27229
27224
27223
27212
27222
27219
27215
27210
27213
27209
27209
27209
27206
27212
27216
27214
27217
27220
27224
27229
27232
27240
27236
27238
27247
27252
27260
27262
27268
27276
27278
27278
27286
27300
27300
27304
27321
27322
27333
27336
27352
27349
27364
27368
27380
27380
27396
27400
27414
27422
27432
27432
27448
27454
27461
27476
27480
27489
27505
27504
27520
27532
27540
27546
27553
27565
27577
27578
27584
27590
27598
27604
27619
27629
27632
27644
27649
27660
27666
27668
27680
27688
27692
27708
27706
27710
27720
27732
27726
27740
27746
27751
27752
27764
27770
27780
27775
27788
27794
27800
27812
27816
27824
27830
27836
27842
27848
27862
27864
27874
27884
27889
27890
27904
27901
27918
27916
27921
27928
27930
27935
27940
27956
27956
27964
27972
27976
27976
27983
27984
27996
28004
28002
28020
28020
28024
28026
28039
28040
28048
28054
28065
28057
28072
28082
28077
28084
28100
28101
28114
28120
28134
28125
28140
28150
28161
28164
28172
28176
28192
28207
28208
28222
28237
28244
28248
28258
28268
28277
28287
28305
28313
28320
28325
28346
28344
28349
28366
28372
28380
28392
28410
28414
28426
28432
28444
28452
28460
28470
28472
28478
28488
28488
28505
28516
28520
28525
28528
28540
28538
28544
28548
28556
28562
28568
28568
28577
28578
28577
28578
28583
28585
28588
28589
28594
28592
28588
28600
28596
28585
28596
28588
28592
28589
28594
28588
28582
28576
28576
28580
28580
28580
28582
28568
28573
28576
28567
28560
28556
28570
28552
28556
28553
28558
28550
28548
28538
28548
28542
28540
28532
28544
28536
28540
28525
28525
28528
28532
28525
28528
28520
28522
28528
28527
28524
28528
28516
28516
28520
28516
28518
28524
28514
28513
28516
28510
28512
28512
28512
28510
28506
28501
28516
28503
28508
28505
28492
28504
28496
28488
28496
28490
28488
28492
28486
28484
28483
28480
28478
28471
28474
28460
28468
28460
28464
28453
28458
28449
28448
28452
28446
28446
28437
28444
28436
28436
28428
28429
28414
28418
28410
28410
28408
28406
28406
28397
28396
28388
28392
28388
28384
28376
28376
28374
28378
28365
28373
28372
28364
28374
28372
28364
28357
28364
28364
28356
28368
28360
28361
28357
28361
28364
28364
28368
28361
28368
28368
28364
28364
28372
28369
28372
28376
28374
28376
28384
28378
28387
28380
28387
28389
28400
28396
28398
28402
28412
28412
28416
28424
28424
28428
28434
28428
28442
28444
28446
28452
28460
28472
28472
28474
28476
28484
28486
28492
28492
28504
28502
28513
28520
28522
28526
28536
28538
28546
28544
28548
28558
28562
28568
28572
28572
28592
28580
28592
28594
28592
28600
28602
28600
28602
28612
28618
28616
28623
28628
28626
28629
28623
28638
28633
28652
28644
28644
28644
28657
28663
28662
28668
28671
28671
28679
28678
28686
28692
28692
28694
28708
28708
28716
28712
28732
28728
28727
28736
28738
28749
28748
28764
28760
28764
28768
28776
28780
28776
28784
28784
28789
28792
28784
28796
28788
28800
28805
28800
28802
28808
28804
28804
28808
28804
28800
28805
28800
28800
28798
28792
28796
28800
28796
28786
28788
28784
28784
28784
28776
28773
28770
28768
28766
28762
28762
28754
28756
28744
28740
28741
28732
28732
28732
28720
28721
28704
28698
28700
28688
28678
28678
28670
28668
28660
28644
28646
28624
28617
28610
28600
28598
28580
28577
28566
28556
28549
28537
28528
28530
28510
28506
28490
28482
28475
28468
28456
28448
28428
28422
28409
28408
28389
28384
28369
28359
28352
28346
28334
28332
28323
28305
28300
28288
28276
28270
28260
28256
28248
28234
28232
28218
28212
28209
28200
28196
28193
28176
28172
28170
28170
28159
28150
28148
28132
28135
28132
28128
28122
28116
28112
28114
28108
28100
28102
28104
28096
28092
28092
28088
28084
28077
28078
28080
28076
28071
28072
28072
28072
28066
28072
28068
28062
28064
28074
28060
28068
28064
28072
28072
28065
28070
28072
28072
28076
28068
28080
28080
28072
28080
28085
28084
28082
28082
28091
28088
28096
28096
28096
28106
28110
28108
28112
28116
28112
28125
28122
28124
28123
28128
28136
28133
28140
28140
28152
28144
28152
28152
28158
28156
28160
28168
28168
28174
28172
28186
28176
28181
28186
28188
28189
28196
28199
28197
28200
28200
28201
28208
28212
28210
28208
28212
28208
28216
28220
28216
28212
28220
28222
28216
28224
28218
28218
28223
28222
28217
28218
28224
28228
28225
28222
28228
28229
28234
28234
28240
28244
28245
28247
28245
28258
28262
28271
28264
28276
28272
28284
28288
28300
28296
28308
28318
28319
28328
28330
28344
28348
28356
28356
28362
28378
28376
28385
28384
28401
28406
28408
28416
28414
28432
28438
28446
28461
28468
28478
28480
28493
28504
28512
28524
28544
28542
28557
28569
28586
28600
28616
28616
28634
28644
28657
28670
28690
28700
28717
28726
28748
28754
28768
28778
28794
28808
28830
28837
28860
28855
28878
28882
28898
28908
28922
28932
28942
28952
28966
28977
28989
29007
29012
29024
29028
29042
29062
29073
29076
29089
29092
29108
29118
29128
29136
29146
29156
29164
29176
29188
29192
29207
29217
29213
29224
29232
29236
29253
29253
29263
29277
29276
29284
29294
29300
29300
29313
29312
29317
29328
29328
29334
29334
29341
29349
29344
29348
29357
29360
29364
29360
29364
29372
29364
29366
29372
29376
29378
29380
29374
29376
29380
29372
29368
29384
29376
29372
29378
29374
29375
29378
29376
29380
29370
29376
29380
29370
29360
29372
29360
29372
29366
29373
29362
29372
29364
29374
29364
29368
29374
29365
29374
29374
29368
29372
29376
29374
29381
29388
29385
29388
29380
29398
29400
29393
29404
29413
29410
29420
29428
29430
29436
29452
29461
29460
29474
29476
29486
29488
29508
29516
29526
29540
29549
29550
29570
29578
29590
29604
29618
29628
29638
29648
29668
29682
29693
29708
29720
29738
29760
29769
29788
29796
29816
29832
29837
29868
29877
29897
29919
29934
29946
29977
29988
30007
30024
30044
30057
30080
30093
30109
30128
30152
30164
30188
30211
30225
30248
30260
30278
30304
30308
30336
30349
30380
30396
30416
30445
30452
30476
30487
30512
30532
30543
30572
30582
30609
30622
30639
30662
30684
30701
30730
30732
30760
30786
30798
30820
30836
30850
30869
30888
30902
30920
30940
30956
30977
31002
31016
31024
31050
31049
31080
31088
31109
31122
31144
31159
31181
31192
31209
31232
31252
31268
31289
31304
31324
31337
31350
31367
31392
31412
31428
31445
31461
31469
31502
31511
31532
31544
31558
31583
31604
31617
31636
31648
31670
31690
31700
31724
31740
31752
31776
31788
31808
31832
31840
31857
31886
31900
31912
31936
31952
31972
31988
32014
32032
32048
32072
32092
32110
32126
32149
32174
32188
32220
32232
32254
32276
32300
32320
32341
32356
32388
32412
32428
32446
32462
32492
32512
32538
32548
32576
32596
32612
32632
32654
32676
32694
32712
32732
32744
32773
32789
32812
32829
32848
32860
32877
32898
32910
32941
32948
32977
32992
32996
33020
33028
33053
33068
33076
33102
33116
33130
33148
33150
33170
33186
33206
33217
33222
33248
33254
33264
33272
33293
33298
33312
33335
33348
33350
33360
33372
33392
33392
33409
33420
33436
33447
33449
33460
33488
33492
33505
33516
33524
33538
33546
33562
33573
33574
33592
33598
33610
33620
33640
33644
33661
33676
33680
33688
33704
33724
33734
33736
33756
33764
33780
33792
33804
33820
33824
33844
33848
33868
33876
33892
33904
33916
33924
33936
33956
33969
33980
33996
34008
34020
34030
34049
34062
34068
34090
34102
34122
34136
34148
34156
34170
34196
34209
34220
34230
34246
34265
34278
34285
34308
34321
34344
34357
34372
34376
34396
34412
34421
34444
34444
34464
34476
34496
34503
34524
34526
34550
34556
34566
34585
34596
34602
34616
34632
34646
34656
34670
34686
34695
34708
34720
34728
34744
34761
34770
34778
34794
34798
34816
34830
34845
34860
34860
34872
34888
34906
34914
34920
34944
34944
34961
34976
34980
34997
35016
35020
35028
35041
35052
35071
35078
35084
35108
35109
35120
35136
35144
35156
35167
35180
35189
35205
35208
35224
35236
35244
35245
35260
35278
35280
35302
35300
35318
35332
35332
35346
35356
35368
35384
35384
35400
35408
35412
35428
35432
35452
35449
35463
35472
35478
35498
35501
35513
35526
35532
35534
35569
35566
35584
35583
35604
35614
35620
35628
35652
35654
35670
35679
35686
35698
35716
35724
35724
35745
35748
35764
35768
35772
35796
35810
35808
35829
35836
35852
35856
35872
35880
35890
35902
35916
35916
35926
35944
35950
35958
35965
35986
35984
35990
36006
36017
36022
36030
36040
36044
36068
36069
36068
36084
36094
36100
36108
36110
36119
36132
36134
36147
36149
36164
36168
36175
36188
36196
36194
36206
36222
36220
36229
36236
36238
36260
36262
36268
36280
36287
36289
36296
36300
36312
36322
36324
36341
36342
36344
36360
36368
36372
36389
36382
36400
36416
36408
36420
36424
36437
36448
36452
36454
36462
36468
36476
36484
36488
36504
36511
36498
36520
36516
36524
36532
36544
36548
36561
36558
36561
36568
36581
36592
36594
36594
36612
36616
36620
36625
36620
36632
36644
36652
36652
36660
36668
36672
36673
36680
36676
36692
36702
36701
36708
36713
36718
36728
36718
36733
36740
36752
36748
36756
36761
36762
36761
36772
36776
36775
36786
36780
36788
36792
36800
36804
36810
36813
36826
36820
36826
36828
36832
36840
36842
36854
36855
36868
36869
36864
36874
36884
36884
36892
36892
36900
36909
36908
36911
36916
36919
36924
36932
36936
36948
36948
36964
36968
36968
36980
36980
36976
36990
36992
37000
37008
37024
37024
37030
37037
37053
37048
37058
37056
37064
37064
37076
37088
37092
37092
37100
37120
37116
37125
37127
37139
37146
37152
37152
37162
37170
37174
37174
37190
37189
37196
37204
37216
37214
37220
37223
37228
37240
37244
37249
37246
37256
37260
37264
37280
37280
37281
37288
37292
37297
37298
37312
37310
37312
37326
37332
37334
37338
37338
37346
37353
37361
37367
37368
37384
37372
37380
37384
37376
37385
37385
37389
37406
37400
37408
37404
37406
37406
37412
37402
37408
37404
37408
37414
37410
37408
37412
37416
37408
37404
37408
37412
37412
37416
37420
37413
37428
37428
37420
37425
37424
37440
37432
37441
37436
37436
37444
37448
37458
37456
37456
37466
37469
37468
37473
37481
37476
37476
37488
37492
37505
37519
37519
37528
37528
37536
37548
37562
37560
37572
37584
37596
37598
37606
37616
37630
37640
37631
37648
37656
37658
37664
37674
37671
37684
37692
37692
37706
37704
37716
37729
37724
37732
37754
37744
37748
37764
37772
37776
37780
37796
37796
37812
37808
37816
37823
37820
37832
37836
37840
37844
37855
37858
37860
37864
37868
37876
37873
37886
37882
37892
37895
37895
37895
37900
37895
37900
37898
37908
37909
37908
37902
37908
37904
37910
37916
37911
37905
37897
37895
37904
37894
37900
37892
37892
37888
37889
37892
37884
37873
37877
37861
37866
37861
37862
37844
37848
37839
37831
37828
37828
37828
37805
37804
37792
37788
37788
37772
37768
37750
37752
37733
37732
37723
37704
37708
37684
37668
37666
37654
37649
37639
37632
37614
37600
37596
37569
37568
37560
37544
37532
37524
37504
37486
37478
37468
37460
37440
37428
37408
37408
37376
37368
37360
37343
37316
37310
37292
37284
37272
37250
37239
37220
37204
37180
37172
37153
37142
37126
37108
37089
37072
37060
37042
37031
37014
36994
36986
36964
36949
36942
36916
36911
36884
36884
36864
36852
36838
36820
36804
36792
36777
36768
36748
36734
36716
36708
36692
36682
36660
36657
36633
36615
36616
36590
36580
36566
36544
36538
36516
36503
36485
36474
36460
36436
36416
36404
36394
36386
36364
36354
36328
36316
36312
36284
36272
36256
36236
36228
36201
36188
36174
36152
36140
36132
36112
36092
36080
36065
36042
36024
36018
36004
35986
35972
35948
35936
35918
35892
35886
35873
35840
35828
35820
35792
35776
35760
35746
35720
35703
35684
35669
35644
35632
35609
35588
35574
35550
35533
35510
35496
35476
35448
35440
35412
35396
35382
35356
35340
35326
35308
35288
35269
35249
35232
35209
35190
35166
35145
35130
35116
35086
35062
35049
35020
35006
34986
34964
34936
34929
34901
34884
34857
34840
34822
34801
34778
34752
34732
34724
34708
34688
34671
34648
34640
34612
34584
34580
34550
34540
34526
34504
34492
34474
34452
34436
34424
34407
34380
34368
34364
34341
34324
34304
34292
34274
34263
34252
34236
34218
34204
34188
34172
34166
34144
34138
34120
34104
34093
34076
34064
34046
34033
34014
34000
33989
33973
33968
33956
33930
33924
33912
33904
33884
33872
33862
33848
33844
33825
33812
33808
33798
33776
33772
33754
33742
33733
33720
33717
33701
33688
33688
33665
33658
33650
33640
33632
33624
33602
33604
33592
33580
33572
33554
33548
33540
33522
33509
33504
33494
33490
33468
33460
33448
33444
33430
33414
33404
33398
33381
33380
33367
33356
33342
33320
33320
33313
33296
33287
33264
33265
33252
33243
33232
33228
33205
33193
33188
33178
33167
33161
33148
33136
33124
33112
33098
33100
33092
33072
33056
33049
33046
33026
33014
33012
32986
32988
32968
32956
32952
32940
32922
32912
32910
32886
32882
32860
32852
32854
32836
32828
32820
32792
32792
32784
32764
32756
32740
32736
32718
32718
32705
32693
32676
32666
32660
32650
32636
32616
32615
32601
32586
32580
32568
32556
32551
32534
32521
32512
32494
32488
32479
32468
32460
32444
32424
32416
32412
32396
32392
32372
32364
32346
32340
32328
32312
32300
32292
32282
32262
32252
32256
32230
32221
32208
32193
32176
32172
32159
32150
32125
32124
32110
32097
32085
32074
32060
32056
32041
32036
32014
32008
31992
31978
31972
31952
31950
31936
31921
31916
31901
31890
31884
31871
31852
31846
31832
31823
31812
31794
31788
31772
31756
31744
31725
31717
31702
31688
31676
31664
31663
31640
31628
31612
31592
31584
31576
31557
31544
31540
31524
31509
31503
31488
31466
31448
31438
31424
31416
31396
31392
31368
31362
31338
31327
31324
31308
31289
31277
31256
31252
31239
31220
31212
31194
31184
31168
31152
31141
31129
31112
31104
31100
31076
31060
31056
31044
31032
31020
31010
30993
30976
30970
30954
30950
30936
30928
30913
30897
30890
30880
30868
30856
30850
30840
30831
30812
30806
30792
30784
30776
30772
30752
30756
30744
30733
30728
30720
30709
30704
30692
30681
30676
30672
30666
30650
30652
30652
30636
30632
30628
30622
30613
30600
30597
30601
30588
30582
30573
30565
30568
30549
30554
30542
30536
30529
30517
30510
30502
30504
30488
30492
30472
30470
30456
30447
30432
30432
30428
30412
30408
30398
30391
30386
30368
30364
30348
30348
30332
30318
30312
30308
30290
30287
30272
30265
30252
30244
30236
30238
30204
30200
30192
30178
30173
30160
30158
30146
30132
30124
30104
30100
30088
30080
30074
30056
30058
30033
30030
30016
30004
30001
29988
29976
29964
29960
29948
29940
29924
29922
29904
29906
29892
29877
29873
29864
29858
29848
29840
29837
29824
29812
29814
29802
29790
29784
29778
29762
29760
29753
29740
29732
29730
29716
29716
29703
29692
29694
29677
29672
29666
29660
29658
29648
29640
29632
29618
29618
29614
29600
29594
29594
29581
29572
29568
29561
29552
29544
29542
29530
29528
29512
29505
29496
29488
29476
29468
29464
29456
29444
29448
29428
29426
29422
29410
29400
29393
29378
29372
29366
29358
29348
29343
29320
29310
29320
29290
29290
29284
29269
29263
29248
29244
29220
29212
29206
29196
29184
29176
29164
29148
29144
29133
29117
29101
29098
29086
29068
29060
29046
29036
29028
29010
28992
28984
28972
28952
28934
28928
28912
28900
28876
28864
28844
28836
28825
28808
28796
28772
28760
28741
28735
28716
28696
28691
28680
28666
28653
28638
28633
28608
28594
28580
28577
28557
28552
28533
28528
28514
28504
28492
28484
28464
28452
28442
28428
28429
28412
28388
28385
28368
28360
28352
28341
28330
28332
28320
28311
28302
28292
28287
28281
28264
28260
28256
28244
28228
28229
28220
28204
28204
28192
28178
28168
28164
28152
28144
28142
28122
28114
28102
28094
28085
28076
28070
28064
28048
28050
28038
28033
28028
28022
28012
28008
28002
28005
27995
27984
27980
27980
27984
27972
27966
27956
27948
27960
27950
27948
27948
27940
27930
27933
27932
27922
27914
27908
27908
27908
27899
27900
27889
27896
27885
27880
27874
27868
27874
27856
27853
27848
27840
27838
27836
27828
27816
27812
27810
27798
27796
27784
27781
27765
27757
27748
27741
27738
27718
27711
27704
27690
27677
27670
27656
27644
27630
27613
27600
27586
27574
27572
27548
27536
27520
27500
27486
27468
27456
27436
27414
27407
27390
27365
27352
27332
27320
27296
27280
27260
27252
27228
27202
27196
27179
27161
27134
27122
27110
27092
27064
27049
27044
27020
26996
26984
26969
26950
26928
26914
26900
26889
26864
26848
26830
26820
26805
26790
26775
26756
26744
26730
26717
26700
26681
26671
26660
26649
26632
26613
26612
26596
26582
26568
26564
26545
26536
26532
26522
26512
26500
26490
26480
26465
26464
26456
26439
26433
26438
26423
26418
26412
26405
26390
26396
26388
26384
26376
26366
26368
26362
26364
26364
26350
26348
26344
26337
26332
26332
26328
26327
26324
26326
26320
26316
26320
26316
26313
26310
26308
26308
26306
26302
26300
26304
26295
26302
26296
26294
26300
26296
26300
26292
26286
26288
26294
26282
26288
26288
26282
26284
26276
26276
26276
26270
26272
26276
26274
26271
26272
26260
26260
26260
26256
26260
26257
26249
26249
26252
26244
26244
26238
26240
26236
26232
26236
26234
26226
26228
26226
26218
26229
26218
26218
26218
26222
26224
26212
26217
26218
26218
26212
26212
26209
26204
26210
26206
26208
26196
26196
26193
26196
26192
26194
26188
26184
26182
26188
26177
26179
26176
26172
26166
26168
26158
26164
26159
26151
26154
26156
26158
26152
26152
26148
26149
26160
26141
26152
26152
26156
26154
26156
26153
26157
26152
26157
26162
26156
26164
26170
26168
26164
26164
26172
26180
26182
26178
26182
26183
26188
26184
26192
26205
26192
26204
26208
26212
26208
26213
26215
26226
26222
26236
26228
26244
26244
26240
26248
26254
26260
26264
26270
26272
26276
26288
26292
26292
26298
26298
26304
26313
26320
26324
26332
26336
26340
26348
26349
26356
26360
26361
26365
26376
26369
26385
26384
26396
26396
26407
26396
26401
26407
26412
26412
26414
26412
26430
26428
26432
26432
26436
26438
26436
26440
26450
26445
26448
26438
26442
26456
26454
26457
26460
26458
26466
26468
26472
26472
26470
26469
26476
26478
26480
26476
26484
26484
26486
26484
26484
26478
26500
26492
26496
26496
26495
26500
26502
26501
26500
26504
26516
26505
26516
26516
26513
26521
26522
26520
26520
26520
26534
26529
26532
26535
26536
26540
26540
26532
26536
26549
26540
26543
26544
26550
26554
26542
26544
26546
26544
26552
26551
26562
26556
26558
26562
26566
26562
26562
26575
26568
26578
26575
26568
26574
26580
26580
26578
26584
26582
26581
26588
26588
26590
26586
26585
26596
26592
26592
26596
26597
26597
26594
26600
26596
26594
26604
26590
26598
26600
26600
26600
26604
26604
26596
26608
26605
26606
26612
26610
26604
26601
26599
26612
26605
26602
26616
26600
26612
26604
26609
26612
26607
26606
26607
26612
26608
26606
26607
26601
26608
26604
26608
26604
26608
26600
26600
26604
26604
26604
26600
26600
26603
26599
26604
26591
26597
26600
26598
26586
26592
26590
26593
26596
26586
26584
26584
26574
26576
26580
26568
26575
26568
26560
26565
26561
26560
26557
26561
26552
26550
26548
26546
26540
26536
26533
26532
26530
26524
26516
26523
26514
26512
26512
26506
26500
26500
26484
26490
26484
26479
26476
26476
26468
26464
26458
26455
26450
26452
26440
26440
26436
26428
26431
26422
26424
26422
26420
26414
26412
26406
26402
26403
26381
26394
26382
26380
26380
26380
26368
26366
26363
26364
26354
26352
26353
26350
26342
26341
26336
26336
26334
26330
26321
26318
26324
26310
26310
26308
26302
26306
26302
26296
26294
26288
26288
26284
26284
26286
26276
26274
26274
26270
26265
26260
26265
26252
26252
26260
26246
26252
26244
26237
26234
26234
26232
26226
26226
26222
26223
26217
26216
26212
26204
26202
26204
26198
26192
26178
26181
26177
26174
26162
26166
26164
26157
26148
26148
26144
26136
26136
26128
26124
26125
26125
26113
26114
26106
26108
26100
26095
26097
26093
26084
26085
26080
26085
26076
26078
26066
26068
26068
26064
26060
26052
26049
26044
26048
26046
26043
26032
26036
26031
26031
26032
26024
26028
26025
26028
26022
26021
26020
26026
26030
26017
26016
26018
26012
26020
26009
26016
26012
26014
26012
26012
26008
26008
26000
26008
26012
26014
26012
26000
26008
26004
26000
25998
26000
25998
25999
25996
26000
25996
26001
25998
26004
26002
25992
25993
25990
25988
25988
25996
25990
25988
25982
25990
25988
25984
25990
25992
25988
25977
25984
25978
25982
25980
25978
25977
25980
25978
25974
25969
25974
25968
25972
25968
25968
25964
25968
25961
25964
25972
25962
25969
25964
25964
25956
25956
25964
25961
25959
25964
25956
25960
25958
25957
25956
25960
25956
25960
25953
25956
25954
25948
25952
25946
25945
25936
25930
25934
25925
25922
25916
25916
25920
25906
25908
25908
25900
25896
25900
25896
25892
25889
25892
25882
25892
25880
25888
25885
25884
25886
25896
25890
25894
25894
25894
25889
25894
25893
25897
25898
25902
25904
25902
25896
25900
25900
25902
25898
25904
25904
25904
25899
25898
25898
25900
25892
25900
25901
25900
25898
25908
25904
25904
25904
25916
25908
25922
25924
25926
25925
25936
25936
25941
25948
25952
25956
25952
25956
25965
25967
25972
25956
25968
25978
25984
25984
25982
25990
25990
25989
25995
25988
26001
25997
26000
25997
26004
26006
26010
26007
26012
26016
26022
26017
26026
26026
26031
26030
26036
26036
26036
26050
26046
26052
26056
26060
26061
26065
26072
26069
26073
26084
26076
26085
26092
26092
26095
26098
26104
26108
26104
26120
26117
26127
26126
26132
26136
26130
26140
26148
26145
26148
26152
26154
26161
26162
26160
26161
26162
26164
26159
26162
26166
26161
26162
26160
26158
26164
26156
26160
26149
26148
26148
26148
26144
26140
26138
26136
26130
26126
26118
26128
26112
26114
26108
26108
26108
26113
26100
26097
26094
26092
26088
26088
26087
26084
26078
26082
26072
26078
26072
26074
26072
26060
26064
26066
26072
26066
26065
26067
26068
26078
26072
26076
26073
26084
26084
26088
26092
26104
26101
26108
26116
26124
26130
26137
26146
26158
26168
26176
26189
26200
26208
26226
26240
26249
26261
26288
26285
26304
26324
26343
26356
26366
26392
26406
26424
26442
26458
26478
26494
26516
26532
26564
26576
26596
26608
26640
26661
26684
26700
26717
26748
26768
26788
26817
26836
26860
26884
26908
26924
26956
26982
27004
27028
27049
27072
27096
27124
27140
27174
27194
27222
27248
27274
27306
27332
27365
27386
27414
27440
27464
27488
27532
27557
27584
27608
27637
27677
27706
27738
27768
27788
27828
27854
27890
27920
27950
27985
28016
28052
28082
28112
28144
28184
28206
28244
28276
28320
28352
28378
28416
28452
28484
28521
28548
28580
28620
28652
28685
28719
28764
28788
28825
28859
28890
28924
28964
28988
29029
29056
29100
29130
29160
29200
29236
29260
29298
29333
29372
29406
29436
29476
29500
29540
29566
29600
29630
29662
29696
29734
29764
29794
29825
29856
29886
29912
29940
29974
30006
30040
30062
30098
30124
30152
30176
30209
30241
30264
30294
30329
30358
30380
30412
30436
30472
30500
30522
30558
30580
30605
30637
30653
30684
30719
30740
30770
30792
30822
30848
30876
30902
30934
30956
30976
31012
31036
31061
31084
31116
31130
31158
31184
31220
31237
31268
31292
31308
31328
31364
31388
31408
31432
31457
31472
31502
31524
31548
31558
31584
31606
31620
31644
31656
31680
31700
31721
31756
31761
31780
31802
31812
31836
31846
31863
31886
31896
31910
31932
31944
31956
31968
31980
32006
32017
32016
32036
32044
32056
32062
32080
32090
32100
32116
32116
32124
32136
32136
32152
32156
32160
32164
32176
32172
32185
32180
32193
32208
32212
32204
32206
32216
32218
32230
32228
32216
32227
32228
32228
32236
32248
32252
32246
32252
32256
32254
32260
32252
32249
32246
32248
32251
32252
32248
32256
32250
32245
32244
32232
32240
32233
32226
32228
32220
32218
32216
32210
32208
32204
32200
32197
32190
32190
32180
32175
32168
32160
32160
32152
32145
32140
32127
32118
32119
32111
32100
32092
32087
32080
32068
32068
32056
32042
32032
32020
32012
32000
31996
31985
31975
31964
31954
31934
31932
31918
31908
31900
31882
31873
31860
31864
31834
31824
31812
31802
31784
31776
31764
31752
31740
31724
31724
31705
31690
31680
31670
31664
31652
31640
31632
31615
31609
31596
31584
31580
31560
31548
31540
31525
31520
31508
31500
31492
31473
31465
31460
31452
31442
31431
31422
31412
31408
31388
31380
31375
31368
31359
31348
31341
31328
31312
31300
31290
31279
31266
31260
31244
31236
31228
31208
31192
31182
31172
31167
31141
31132
31111
31108
31092
31079
31066
31059
31038
31028
31016
31002
30986
30972
30968
30948
30937
30924
30916
30904
30884
30884
30868
30846
30843
30828
30816
30800
30784
30776
30766
30742
30730
30721
30704
30692
30671
30668
30652
30632
30620
30610
30600
30592
30570
30568
30548
30536
30532
30520
30510
30496
30488
30480
30464
30452
30442
30432
30429
30424
30412
30402
30399
30380
30376
30362
30364
30351
30344
30336
30341
30325
30317
30304
30302
30294
30286
30281
30278
30264
30260
30264
30249
30246
30244
30236
30233
30223
30221
30215
30220
30208
30208
30198
30194
30189
30184
30185
30176
30180
30178
30173
30173
30168
30164
30156
30158
30148
30148
30144
30142
30145
30136
30136
30138
30132
30126
30132
30116
30116
30112
30112
30106
30100
30100
30092
30084
30084
30080
30080
30064
30074
30054
30054
30052
30048
30044
30032
30032
30028
30024
30016
30008
30006
30012
30002
29992
29984
29981
29978
29962
29953
29952
29941
29938
29928
29918
29914
29904
29904
29884
29876
29878
29860
29852
29847
29848
29836
29821
29808
29810
29792
29788
29788
29766
29764
29745
29734
29732
29719
29716
29694
29689
29676
29668
29664
29648
29636
29636
29625
29615
29596
29589
29576
29572
29560
29548
29536
29526
29513
29508
29496
29482
29468
29453
29460
29437
29436
29416
29405
29397
29385
29369
29354
29353
29340
29322
29320
29308
29298
29289
29292
29276
29266
29258
29250
29240
29232
29228
29225
29212
29202
29202
29196
29180
29178
29177
29173
29164
29164
29152
29153
29148
29140
29137
29132
29130
29132
29128
29116
29118
29118
29104
29106
29094
29086
29090
29082
29084
29076
29068
29065
29057
29052
29038
29036
29028
29024
29012
29010
29000
28996
28984
28977
28964
28964
28953
28951
28956
28933
28929
28930
28925
28924
28922
28910
28906
28912
28898
28906
28900
28896
28886
28892
28892
28889
28892
28890
28894
28889
28884
28892
28884
28885
28884
28888
28885
28893
28888
28889
28880
28876
28890
28890
28884
28880
28889
28894
28899
28896
28889
28902
28896
28914
28912
28920
28924
28928
28928
28940
28950
28952
28954
28960
28964
28975
28977
28980
28984
28992
29000
29004
29012
29008
29012
29024
29024
29028
29039
29044
29044
29054
29048
29044
29061
29049
29062
29060
29068
29068
29070
29070
29076
29074
29076
29082
29080
29084
29088
29092
29088
29092
29093
29100
29096
29108
29107
29104
29100
29109
29114
29111
29104
29106
29099
29103
29108
29108
29100
29104
29097
29088
29092
29084
29085
29076
29070
29062
29052
29053
29036
29033
29026
29012
29012
28993
28980
28974
28964
28948
28936
28917
28908
28892
28880
28864
28844
28832
28810
28790
28774
28764
28746
28728
28708
28706
28684
28656
28640
28621
28604
28583
28568
28544
28526
28508
28486
28474
28456
28432
28414
28400
28372
28356
28338
28317
28298
28284
28264
28247
28228
28212
28196
28170
28160
28142
28120
28106
28089
28072
28052
28033
28016
28000
27986
27972
27961
27940
27932
27914
27896
27884
27877
27852
27849
27830
27820
27802
27801
27778
27774
27760
27752
27737
27728
27714
27706
27688
27682
27680
27660
27652
27652
27634
27636
27620
27620
27600
27596
27592
27582
27570
27568
27566
27560
27550
27552
27549
27536
27536
27524
27518
27517
27516
27505
27508
27501
27497
27498
27490
27492
27481
27484
27480
27476
27473
27468
27464
27462
27464
27456
27457
27456
27450
27450
27453
27450
27448
27453
27448
27438
27440
27440
27439
27440
27440
27432
27433
27441
27430
27429
27430
27432
27424
27432
27428
27428
27425
27418
27428
27416
27420
27418
27418
27418
27408
27416
27414
27408
27417
27412
27408
27406
27408
27405
27406
27406
27408
27408
27403
27400
27402
27398
27400
27398
27396
27397
27384
27386
27393
27382
27384
27372
27372
27374
27380
27373
27378
27369
27360
27364
27358
27362
27356
27350
27351
27351
27336
27340
27336
27329
27330
27324
27316
27320
27308
27308
27297
27293
27296
27292
27278
27276
27281
27279
27268
27269
27262
27260
27255
27256
27254
27249
27246
27247
27244
27244
27248
27239
27234
27244
27240
27244
27240
27238
27234
27244
27248
27236
27238
27234
27246
27240
27240
27252
27252
27258
27253
27264
27269
27265
27265
27279
27276
27284
27286
27293
27294
27300
27302
27308
27310
27315
27324
27324
27334
27332
27332
27345
27348
27352
27352
27358
27358
27370
27364
27373
27388
27383
27376
27394
27390
27398
27394
27405
27406
27413
27405
27408
27409
27412
27417
27416
27429
27428
27428
27424
27426
27427
27428
27428
27428
27428
27436
27438
27432
27437
27436
27431
27436
27439
27439
27434
27436
27444
27436
27430
27440
27437
27437
27438
27429
27438
27444
27432
27439
27432
27428
27436
27433
27437
27432
27436
27432
27436
27432
27428
27437
27436
27428
27428
27432
27428
27421
27430
27432
27422
27418
27422
27422
27426
27416
27421
27413
27410
27420
27416
27409
27406
27416
27404
27402
27399
27396
27404
27400
27396
27390
27384
27381
27386
27376
27380
27376
27370
27364
27364
27360
27360
27348
27348
27343
27348
27335
27336
27336
27325
27316
27320
27308
27311
27310
27306
27300
27308
27294
27296
27296
27289
27282
27284
27284
27285
27278
27272
27284
27276
27268
27270
27268
27276
27274
27276
27269
27268
27268
27272
27276
27262
27264
27268
27265
27270
27263
27260
27266
27258
27264
27269
27265
27263
27263
27266
27260
27268
27268
27268
27268
27268
27264
27268
27268
27266
27263
27271
27276
27276
27268
27268
27272
27271
27268
27262
27272
27272
27268
27273
27276
27268
27268
27274
27264
27269
27272
27270
27269
27270
27272
27267
27272
27262
27268
27265
27258
27261
27265
27260
27262
27262
27257
27254
27255
27260
27258
27254
27266
27253
27255
27258
27256
27250
27246
27257
27257
27249
27252
27250
27247
27244
27245
27244
27244
27236
27242
27236
27237
27247
27236
27234
27232
27236
27232
27234
27233
27225
27234
27236
27230
27228
27228
27236
27232
27226
27230
27222
27232
27222
27232
27224
27222
27220
27230
27228
27228
27228
27228
27217
27223
27224
27221
27228
27220
27220
27217
27220
27224
27217
27220
27228
27222
27220
27217
27213
27216
27226
27229
27216
27228
27228
27228
27224
27228
27232
27232
27232
27236
27236
27232
27244
27238
27245
27246
27248
27254
27252
27253
27255
27265
27262
27262
27268
27268
27274
27269
27271
27269
27277
27274
27276
27278
27288
27279
27285
27280
27286
27285
27280
27284
27288
27282
27286
27292
27288
27287
27290
27286
27292
27289
27292
27288
27285
27285
27280
27288
27281
27287
27283
27284
27276
27276
27284
27279
27276
27273
27272
27276
27276
27274
27276
27276
27269
27264
27277
27276
27276
27273
27278
27272
27272
27284
27280
27284
27290
27286
27285
27286
27300
27284
27300
27292
27300
27307
27303
27302
27312
27318
27319
27316
27324
27327
27328
27337
27342
27348
27350
27348
27353
27360
27365
27368
27378
27376
27380
27383
27392
27404
27400
27404
27414
27416
27420
27432
27431
27436
27436
27440
27446
27454
27456
27464
27468
27472
27480
27482
27496
27492
27502
27504
27508
27510
27514
27516
27524
27527
27524
27536
27536
27533
27544
27552
27546
27552
27554
27556
27564
27564
27564
27570
27568
27576
27580
27580
27580
27580
27589
27590
27598
27590
27600
27596
27604
27594
27606
27613
27611
27613
27616
27617
27622
27620
27620
27620
27616
27616
27620
27620
27625
27626
27628
27628
27636
27626
27632
27646
27642
27652
27652
27649
27658
27660
27672
27672
27676
27688
27688
27702
27711
27713
27710
27720
27730
27736
27742
27748
27750
27766
27768
27771
27776
27776
27776
27788
27789
27788
27798
27800
27802
27797
27800
27812
27809
27815
27816
27821
27817
27838
27828
27836
27837
27842
27848
27860
27865
27870
27876
27880
27880
27889
27901
27904
27904
27915
27916
27930
27936
27942
27950
27944
27948
27953
27964
27966
27965
27985
27976
27982
27986
27990
27992
27994
28005
28014
28010
28010
28024
28021
28032
28032
28036
28044
28045
28048
28062
28064
28076
28070
28087
28080
28089
28097
28100
28102
28110
28120
28128
28130
28138
28144
28148
28152
28162
28164
28172
28172
28188
28190
28192
28196
28202
28201
28210
28214
28216
28224
28218
28216
28233
28226
28230
28228
28228
28232
28234
28230
28236
28230
28226
28232
28228
28228
28220
28220
28222
28222
28214
28202
28204
28202
28196
28182
28181
28180
28172
28168
28164
28152
28152
28144
28138
28132
28125
28116
28112
28112
28096
28092
28078
28072
28074
28060
28060
28048
28044
28032
28028
28017
28012
28001
27992
27988
27976
27972
27965
27950
27948
27948
27940
27928
27932
27917
27916
27908
27896
27898
27900
27892
27889
27882
27880
27880
27865
27870
27874
27862
27868
27864
27866
27860
27865
27854
27860
27866
27865
27868
27870
27872
27870
27874
27878
27884
27881
27887
27885
27900
27900
27900
27911
27909
27917
27924
27932
27936
27942
27955
27953
27966
27974
27980
27988
27994
28004
28006
28020
28037
28036
28050
28060
28078
28080
28088
28092
28110
28117
28129
28144
28160
28170
28190
28200
28208
28228
28232
28250
28260
28272
28288
28308
28324
28332
28352
28364
28380
28393
28412
28422
28444
28460
28473
28485
28500
28526
28538
28556
28580
28586
28612
28628
28644
28660
28676
28689
28720
28727
28752
28768
28782
28804
28820
28840
28868
28872
28884
28902
28937
28944
28964
28974
28996
29012
29028
29048
29058
29077
29088
29108
29132
29146
29152
29179
29194
29209
29220
29236
29246
29262
29284
29292
29311
29316
29334
29349
29366
29374
29394
29398
29412
29432
29436
29458
29463
29473
29488
29500
29504
29527
29528
29540
29554
29572
29582
29600
29601
29620
29632
29648
29655
29665
29686
29702
29716
29728
29741
29754
29764
29785
29798
29812
29825
29836
29858
29876
29892
29906
29920
29949
29961
29977
29992
30012
30032
30052
30073
30088
30116
30136
30156
30180
30191
30218
30236
30262
30287
30308
30336
30348
30376
30393
30412
30436
30461
30486
30508
30530
30556
30580
30596
30623
30639
30670
30685
30709
30730
30748
30777
30800
30816
30842
30856
30878
30896
30916
30937
30964
30988
30994
31016
31036
31056
31070
31092
31108
31132
31148
31164
31192
31200
31210
31236
31248
31260
31285
31299
31316
31328
31348
31360
31376
31392
31408
31422
31436
31458
31464
31479
31497
31516
31524
31540
31554
31569
31580
31602
31618
31630
31642
31658
31664
31684
31698
31712
31729
31742
31753
31768
31790
31802
31816
31831
31844
31860
31876
31888
31908
31918
31928
31940
31956
31980
31994
32000
32021
32032
32049
32061
32080
32092
32112
32124
32137
32152
32164
32174
32194
32208
32220
32230
32244
32262
32274
32292
32299
32308
32328
32340
32360
32360
32384
32400
32398
32422
32431
32445
32462
32458
32480
32485
32502
32510
32525
32532
32548
32552
32572
32583
32582
32604
32612
32630
32632
32644
32662
32669
32673
32692
32702
32716
32724
32732
32740
32757
32769
32780
32788
32802
32824
32824
32832
32845
32856
32868
32877
32890
32905
32916
32928
32936
32949
32964
32968
32981
32994
33018
33028
33030
33044
33058
33068
33073
33084
33098
33108
33118
33132
33140
33152
33164
33177
33184
33204
33210
33224
33242
33241
33252
33264
33290
33292
33306
33311
33320
33336
33343
33356
33372
33382
33390
33400
33410
33412
33439
33444
33446
33452
33473
33478
33492
33501
33496
33519
33527
33530
33551
33560
33560
33580
33582
33598
33612
33623
33636
33640
33646
33660
33671
33674
33684
33708
33700
33720
33724
33734
33732
33751
33760
33775
33781
33788
33796
33810
33820
33823
33832
33846
33853
33870
33872
33876
33892
33904
33905
33930
33926
33948
33944
33959
33977
33980
33996
34004
34012
34027
34042
34052
34060
34076
34081
34092
34108
34116
34132
34140
34157
34169
34180
34186
34200
34212
34212
34240
34241
34254
34276
34282
34300
34300
34316
34324
34336
34348
34362
34372
34381
34396
34407
34424
34432
34442
34460
34464
34480
34490
34496
34516
34528
34533
34544
34558
34572
34576
34583
34600
34604
34620
34626
34644
34652
34663
34672
34681
34702
34709
34713
34724
34736
34748
34756
34772
34781
34798
34804
34812
34820
34837
34846
34852
34860
34867
34876
34892
34904
34913
34926
34926
34934
34944
34960
34976
34984
34999
35008
35017
35032
35032
35052
35063
35072
35079
35084
35100
35114
35120
35135
35140
35144
35158
35166
35178
35188
35212
35208
35228
35233
35244
35255
35268
35274
35292
35303
35304
35324
35329
35348
35356
35364
35388
35388
35408
35424
35420
35431
35444
35460
35470
35477
35500
35514
35525
35532
35540
35553
35552
35576
35588
35596
35613
35614
35628
35638
35638
35654
35666
35670
35684
35688
35708
35694
35716
35727
35728
35745
35740
35752
35760
35768
35781
35786
35782
35798
35804
35816
35820
35820
35836
35834
35848
35852
35863
35872
35876
35888
35888
35900
35909
35910
35921
35938
35945
35942
35952
35966
35972
35984
35982
35993
36001
36006
36020
36028
36028
36036
36032
36048
36047
36060
36065
36060
36076
36080
36079
36086
36096
36104
36116
36120
36125
36132
36144
36140
36152
36159
36164
36177
36180
36196
36204
36216
36213
36228
36237
36246
36246
36259
36278
36288
36292
36296
36308
36312
36322
36332
36337
36344
36352
36364
36359
36378
36374
36380
36393
36388
36412
36412
36412
36426
36434
36439
36450
36460
36476
36476
36496
36506
36520
36532
36528
36548
36553
36572
36580
36588
36596
36606
36620
36640
36644
36656
36664
36668
36685
36697
36708
36716
36740
36735
36742
36760
36768
36780
36788
36793
36812
36828
36829
36844
36849
36868
36868
36884
36896
36900
36928
36928
36932
36948
36960
36969
36980
36990
37000
37014
37014
37036
37044
37038
37056
37072
37072
37088
37100
37108
37118
37124
37142
37142
37149
37158
37164
37161
37180
37177
37197
37194
37192
37206
37208
37208
37217
37220
37228
37228
37236
37233
37231
37232
37242
37244
37229
37240
37236
37236
37236
37242
37233
37229
37225
37229
37225
37226
37220
37220
37214
37204
37208
37205
37204
37188
37196
37184
37188
37180
37174
37172
37168
37164
37164
37158
37164
37158
37152
37144
37132
37132
37132
37124
37140
37122
37118
37121
37112
37117
37104
37108
37104
37104
37104
37100
37096
37100
37096
37100
37094
37092
37094
37090
37100
37092
37102
37094
37096
37102
37102
37108
37112
37104
37109
37108
37118
37115
37125
37126
37128
37132
37132
37144
37148
37150
37156
37156
37168
37176
37176
37180
37186
37194
37194
37197
37212
37225
37220
37224
37236
37246
37256
37256
37269
37264
37272
37276
37288
37302
37306
37313
37330
37332
37336
37345
37340
37353
37352
37372
37374
37377
37390
37396
37404
37396
37412
37412
37424
37433
37428
37440
37444
37456
37464
37462
37476
37477
37480
37492
37503
37504
37516
37512
37528
37541
37528
37540
37552
37558
37560
37568
37569
37584
37584
37594
37600
37604
37604
37614
37628
37624
37634
37640
37646
37656
37663
37660
37664
37673
37672
37676
37689
37697
37708
37705
37708
37718
37728
37729
37733
37738
37748
37752
37760
37764
37764
37774
37780
37792
37788
37801
37812
37820
37818
37818
37836
37832
37840
37852
37844
37853
37856
37868
37870
37872
37881
37880
37880
37882
37892
37903
37912
37910
37919
37928
37920
37934
37929
37940
37944
37942
37948
37956
37960
37968
37974
37984
37980
37989
38000
38005
38004
38014
38020
38023
38024
38024
38036
38042
38044
38052
38054
38060
38072
38068
38076
38082
38092
38097
38094
38105
38112
38116
38126
38124
38140
38140
38144
38144
38152
38164
38168
38181
38178
38186
38184
38200
38200
38212
38212
38220
38232
38228
38231
38238
38237
38253
38260
38260
38260
38268
38268
38274
38278
38277
38292
38289
38295
38296
38300
38292
38294
38294
38308
38304
38296
38300
38304
38300
38304
38305
38305
38308
38308
38304
38298
38308
38302
38296
38294
38292
38292
38285
38292
38284
38280
38276
38276
38273
38272
38276
38264
38260
38260
38266
38256
38246
38244
38236
38234
38232
38221
38228
38216
38206
38204
38200
38192
38193
38182
38173
38172
38167
38161
38148
38140
38134
38132
38121
38120
38110
38098
38100
38092
38090
38072
38068
38060
38052
38040
38038
38028
38020
38006
38012
37996
37993
37976
37982
37958
37960
37932
37932
37926
37908
37900
37888
37876
37865
37856
37848
37828
37810
37801
37792
37770
37764
37752
37733
37724
37708
37693
37676
37661
37656
37640
37621
37608
37588
37569
37556
37544
37524
37516
37500
37485
37472
37446
37432
37412
37400
37384
37366
37360
37322
37312
37294
37272
37249
37236
37216
37205
37188
37164
37148
37136
37108
37096
37076
37060
37033
37020
37000
36977
36952
36933
36912
36900
36878
36852
36837
36816
36796
36782
36748
36736
36706
36686
36664
36648
36620
36596
36577
36562
36532
36502
36492
36476
36437
36415
36390
36372
36356
36326
36289
36272
36240
36224
36196
36172
36148
36126
36098
36064
36044
36018
35988
35960
35936
35917
35888
35860
35824
35809
35769
35748
35709
35686
35660
35629
35616
35573
35550
35518
35488
35457
35428
35406
35380
35344
35316
35294
35258
35230
35204
35173
35147
35122
35098
35060
35023
35000
34966
34936
34918
34884
34854
34826
34788
34760
34734
34712
34676
34652
34620
34596
34554
34532
34500
34468
34434
34416
34389
34360
34328
34308
34270
34252
34216
34188
34161
34138
34112
34087
34050
34024
33997
33966
33944
33916
33894
33860
33836
33809
33784
33753
33728
33708
33676
33644
33617
33596
33569
33534
33521
33484
33466
33432
33408
33381
33356
33340
33301
33277
33260
33220
33202
33173
33148
33122
33100
33076
33052
33018
32984
32970
32948
32916
32896
32873
32844
32821
32800
32768
32757
32724
32713
32684
32665
32640
32612
32601
32578
32544
32532
32508
32488
32460
32452
32428
32400
32380
32354
32336
32318
32292
32274
32252
32238
32220
32196
32167
32158
32132
32118
32096
32070
32064
32044
32026
31996
31989
31964
31943
31924
31904
31884
31876
31860
31828
31816
31806
31784
31772
31744
31733
31708
31696
31685
31652
31644
31624
31618
31598
31580
31552
31544
31524
31520
31501
31479
31468
31444
31432
31408
31410
31384
31376
31351
31340
31328
31312
31292
31276
31252
31250
31224
31204
31194
31180
31156
31150
31134
31114
31105
31076
31071
31060
31032
31022
31012
30992
30976
30964
30944
30936
30912
30912
30890
30874
30862
30848
30833
30821
30804
30791
30764
30754
30740
30720
30704
30696
30674
30652
30640
30628
30597
30580
30564
30544
30520
30508
30488
30470
30456
30428
30404
30397
30376
30357
30341
30326
30311
30287
30272
30252
30244
30216
30206
30180
30176
30152
30134
30129
30104
30092
30084
30062
30040
30036
30016
30000
29994
29968
29954
29940
29924
29912
29896
29887
29873
29856
29835
29825
29812
29796
29792
29770
29754
29740
29736
29716
29704
29692
29692
29668
29648
29640
29632
29616
29600
29592
29572
29552
29540
29524
29518
29500
29488
29470
29464
29446
29432
29420
29410
29396
29380
29378
29360
29343
29340
29332
29317
29301
29295
29289
29274
29260
29252
29236
29232
29221
29216
29205
29196
29183
29180
29157
29168
29148
29150
29142
29129
29122
29113
29102
29102
29090
29078
29076
29064
29063
29052
29045
29032
29028
29028
29009
29009
29002
28989
28980
28976
28964
28948
28936
28933
28920
28917
28908
28896
28884
28876
28857
28840
28840
28820
28812
28801
28784
28772
28756
28733
28726
28713
28692
28686
28660
28652
28625
28612
28596
28576
28564
28544
28518
28504
28489
28478
28452
28440
28414
28404
28382
28362
28338
28328
28308
28288
28264
28252
28228
28212
28196
28174
28154
28134
28101
28096
28072
28055
28037
28017
27996
27978
27966
27946
27920
27901
27880
27866
27848
27832
27812
27796
27772
27761
27736
27720
27704
27684
27672
27648
27636
27620
27612
27590
27584
27560
27546
27532
27518
27500
27492
27480
27465
27445
27430
27422
27406
27396
27386
27376
27360
27352
27350
27336
27326
27320
27314
27297
27290
27284
27284
27272
27272
27252
27254
27248
27236
27236
27233
27224
27213
27210
27209
27196
27192
27186
27189
27180
27175
27180
27172
27165
27168
27164
27156
27151
27144
27140
27150
27141
27138
27140
27136
27136
27126
27133
27129
27132
27132
27131
27124
27134
27116
27130
27120
27129
27134
27132
27132
27132
27126
27132
27135
27132
27132
27129
27129
27143
27134
27148
27146
27146
27146
27152
27156
27152
27166
27163
27168
27170
27165
27176
27181
27183
27184
27188
27196
27198
27203
27204
27204
27212
27218
27229
27231
27233
27244
27249
27253
27256
27261
27264
27264
27272
27274
27272
27280
27284
27278
27295
27292
27292
27296
27292
27296
27301
27301
27300
27304
27310
27306
27312
27308
27316
27312
27316
27316
27316
27320
27321
27320
27324
27328
27324
27324
27333
27326
27324
27326
27332
27338
27330
27332
27336
27344
27341
27348
27340
27344
27348
27348
27352
27360
27354
27358
27362
27367
27366
27380
27378
27382
27391
27385
27394
27405
27410
27414
27422
27418
27428
27440
27445
27453
27460
27468
27480
27485
27486
27493
27508
27517
27519
27528
27534
27540
27552
27564
27568
27588
27580
27594
27602
27602
27623
27632
27638
27644
27661
27662
27672
27682
27694
27695
27712
27712
27724
27732
27733
27744
27748
27762
27759
27772
27780
27776
27788
27797
27800
27812
27810
27813
27824
27829
27834
27838
27840
27842
27854
27868
27860
27866
27872
27876
27884
27884
27890
27900
27900
27907
27908
27908
27918
27916
27916
27925
27934
27924
27932
27940
27934
27945
27936
27938
27946
27950
27956
27956
27962
27948
27952
27952
27960
27960
27960
27960
27960
27972
27969
27967
27969
27970
27978
27970
27976
27974
27977
27970
27976
27974
27976
27983
27972
27982
27981
27980
27986
27980
27990
27993
27983
27982
27986
27977
27974
27988
27991
27976
27984
27986
27980
27985
27974
27983
27976
27976
27970
27974
27972
27966
27968
27961
27965
27952
27960
27950
27957
27944
27944
27941
27942
27940
27936
27946
27941
27934
27930
27928
27924
27938
27926
27922
27932
27924
27916
27919
27912
27914
27916
27908
27910
27908
27904
27900
27900
27900
27902
27900
27900
27901
27900
27892
27892
27892
27892
27888
27887
27889
27889
27884
27880
27888
27890
27892
27890
27884
27888
27887
27884
27880
27880
27884
27888
27882
27885
27886
27884
27884
27876
27888
27877
27888
27884
27878
27886
27882
27888
27882
27892
27884
27880
27893
27884
27880
27878
27886
27882
27880
27870
27878
27876
27877
27866
27862
27862
27857
27864
27860
27854
27868
27852
27852
27852
27842
27844
27840
27848
27845
27836
27838
27833
27828
27836
27831
27828
27830
27828
27823
27820
27817
27826
27822
27813
27812
27820
27816
27820
27813
27810
27812
27820
27820
27808
27809
27804
27812
27812
27804
27820
27816
27808
27812
27812
27812
27812
27808
27812
27815
27812
27818
27809
27812
27813
27820
27814
27814
27812
27832
27816
27823
27828
27818
27829
27824
27828
27833
27836
27842
27844
27836
27844
27842
27857
27854
27856
27860
27856
27868
27872
27868
27877
27879
27878
27884
27889
27892
27892
27900
27901
27910
27912
27916
27924
27921
27925
27940
27932
27945
27940
27956
27961
27956
27972
27972
27978
27981
27984
27988
27992
28000
28002
28004
28012
28016
28018
28028
28028
28036
28032
28037
28040
28049
28052
28057
28058
28067
28068
28072
28072
28078
28084
28089
28088
28100
28100
28100
28102
28108
28116
28113
28112
28116
28128
28132
28134
28135
28144
28151
28152
28164
28160
28169
28176
28180
28184
28192
28198
28204
28204
28208
28216
28220
28226
28228
28236
28250
28252
28256
28262
28268
28276
28284
28286
28292
28303
28304
28316
28318
28321
28332
28334
28343
28340
28348
28360
28358
28364
28377
28386
28384
28396
28404
28400
28406
28420
28422
28430
28429
28438
28444
28450
28456
28460
28464
28472
28474
28476
28480
28485
28492
28506
28497
28504
28516
28511
28520
28524
28533
28536
28537
28537
28542
28548
28546
28552
28564
28564
28570
28566
28583
28580
28588
28586
28593
28597
28596
28604
28608
28612
28608
28609
28608
28610
28609
28618
28616
28620
28622
28628
28636
28629
28632
28633
28638
28638
28644
28648
28654
28656
28662
28665
28670
28670
28677
28690
28684
28696
28708
28706
28717
28714
28728
28730
28734
28740
28732
28756
28746
28760
28760
28757
28761
28770
28764
28772
28769
28772
28769
28769
28772
28774
28774
28772
28772
28776
28780
28776
28782
28782
28785
28788
28794
28798
28800
28808
28812
28812
28815
28817
28824
28823
28835
28832
28832
28840
28838
28854
28847
28860
28852
28852
28862
28862
28860
28858
28866
28868
28860
28869
28876
28868
28871
28872
28870
28868
28870
28876
28872
28879
28874
28872
28880
28882
28886
28892
28885
28888
28895
28890
28895
28904
28906
28900
28910
28912
28916
28932
28928
28933
28944
28940
28938
28953
28960
28959
28964
28962
28968
28980
28988
28982
28980
28988
28990
28990
28991
28996
29001
28996
29000
29000
28992
28998
28994
28989
28996
28994
28992
28984
28991
28982
28972
28972
28968
28966
28956
28950
28946
28940
28933
28920
28917
28906
28896
28896
28888
28869
28864
28861
28842
28832
28817
28794
28794
28784
28768
28750
28750
28734
28716
28708
28701
28684
28662
28652
28632
28624
28614
28608
28582
28572
28564
28545
28544
28524
28519
28508
28484
28476
28468
28452
28442
28424
28422
28406
28392
28385
28370
28361
28358
28346
28346
28334
28321
28316
28308
28304
28295
28286
28280
28276
28269
28265
28264
28260
28252
28256
28250
28244
28252
28238
28238
28244
28242
28244
28240
28249
28244
28247
28248
28264
28255
28256
28257
28268
28270
28277
28279
28284
28292
28292
28293
28300
28304
28308
28324
28316
28326
28332
28348
28346
28352
28357
28376
28380
28388
28390
28400
28412
28410
28428
28438
28434
28448
28458
28468
28472
28484
28496
28506
28520
28522
28532
28543
28556
28558
28572
28580
28588
28598
28608
28616
28625
28646
28648
28661
28666
28684
28684
28706
28708
28722
28730
28740
28758
28767
28772
28776
28789
28800
28812
28816
28836
28844
28845
28855
28864
28872
28884
28888
28902
28912
28924
28932
28938
28946
28950
28964
28970
28977
28989
28996
29004
29012
29026
29025
29036
29046
29055
29061
29073
29076
29078
29092
29098
29111
29110
29120
29116
29136
29132
29142
29151
29153
29152
29160
29168
29172
29184
29184
29196
29199
29210
29212
29224
29224
29228
29238
29246
29254
29263
29262
29272
29284
29292
29292
29302
29308
29327
29332
29332
29352
29361
29366
29380
29390
29406
29420
29426
29432
29452
29466
29473
29496
29504
29508
29524
29536
29556
29572
29588
29586
29614
29606
29624
29646
29658
29664
29672
29694
29700
29708
29720
29734
29740
29764
29766
29773
29784
29800
29809
29813
29824
29837
29846
29856
29862
29878
29878
29892
29892
29895
29913
29917
29922
29924
29928
29946
29946
29950
29962
29960
29965
29964
29981
29982
29984
29999
30000
30004
30004
30006
30015
30018
30017
30020
30021
30029
30028
30044
30040
30036
30049
30053
30056
30058
30065
30062
30068
30068
30074
30076
30080
30080
30084
30077
30081
30090
30096
30100
30096
30102
30098
30116
30120
30116
30124
30124
30132
30128
30138
30144
30146
30152
30148
30152
30166
30170
30174
30182
30176
30184
30190
30197
30200
30196
30203
30200
30214
30215
30216
30216
30225
30234
30231
30231
30241
30244
30244
30252
30248
30248
30258
30253
30260
30260
30264
30260
30262
30265
30264
30268
30268
30272
30272
30268
30264
30268
30270
30276
30273
30272
30271
30274
30276
30282
30276
30284
30280
30286
30272
30286
30285
30284
30284
30296
30286
30284
30289
30296
30296
30298
30300
30300
30310
30308
30303
30306
30308
30312
30319
30312
30312
30320
30325
30320
30325
30332
30334
30340
30338
30340
30343
30348
30348
30348
30356
30364
30357
30368
30370
30372
30364
30376
30378
30384
30382
30396
30392
30397
30392
30404
30408
30404
30412
30412
30416
30417
30424
30428
30430
30432
30424
30444
30444
30446
30449
30446
30452
30464
30454
30460
30464
30456
30465
30464
30470
30474
30476
30476
30478
30482
30484
30481
30490
30485
30489
30490
30496
30492
30496
30500
30492
30496
30496
30508
30496
30498
30500
30504
30502
30514
30498
30504
30496
30508
30501
30506
30501
30508
30504
30505
30502
30500
30496
30502
30504
30500
30498
30492
30501
30500
30491
30500
30497
30494
30498
30498
30505
30500
30500
30488
30493
30490
30489
30490
30490
30481
30484
30484
30488
30486
30481
30479
30488
30481
30484
30480
30481
30479
30480
30472
30476
30472
30476
30474
30475
30472
30476
30460
30474
30472
30476
30472
30476
30468
30470
30476
30476
30480
30476
30472
30479
30476
30482
30481
30484
30480
30485
30494
30484
30489
30492
30496
30490
30500
30492
30500
30504
30514
30508
30512
30504
30513
30514
30513
30512
30512
30524
30516
30514
30518
30528
30528
30528
30524
30528
30533
30536
30536
30534
30538
30544
30541
30549
30540
30544
30552
30552
30550
30556
30549
30548
30554
30550
30558
30559
30563
30560
30564
30564
30564
30564
30566
30564
30560
30569
30569
30568
30564
30562
30564
30569
30566
30561
30567
30564
30572
30568
30564
30574
30576
30580
30565
30576
30572
30586
30584
30584
30585
30584
30584
30590
30584
30584
30582
30588
30593
30596
30597
30604
30598
30598
30602
30597
30612
30608
30610
30604
30608
30613
30616
30614
30616
30616
30614
30616
30618
30616
30616
30626
30625
30620
30620
30620
30620
30620
30626
30622
30624
30628
30622
30628
30628
30624
30628
30624
30636
30636
30636
30632
30636
30637
30637
30640
30645
30639
30644
30644
30634
30641
30644
30644
30653
30654
30647
30656
30652
30658
30660
30660
30662
30657
30660
30657
30670
30668
30665
30676
30671
30676
30682
30676
30682
30678
30677
30684
30682
30684
30690
30687
30684
30676
30680
30682
30686
30680
30676
30692
30686
30684
30690
30684
30692
30689
30688
30697
30692
30692
30700
30704
30700
30708
30712
30709
30715
30718
30718
30726
30740
30736
30736
30734
30736
30752
30750
30749
30754
30753
30753
30756
30755
30748
30755
30752
30752
30744
30741
30748
30750
30748
30745
30746
30740
30732
30742
30740
30736
30727
30740
30736
30740
30744
30748
30752
30740
30740
30748
30752
30748
30748
30760
30754
30748
30756
30760
30754
30764
30756
30762
30762
30756
30760
30767
30756
30756
30756
30756
30766
30756
30752
30752
30746
30756
30750
30754
30749
30752
30749
30752
30752
30752
30754
30745
30754
30748
30762
30756
30764
30760
30764
30766
30762
30768
30776
30776
30777
30788
30784
30789
30796
30800
30806
30804
30821
30814
30822
30826
30836
30842
30840
30834
30847
30849
30850
30854
30855
30854
30858
30858
30856
30864
30864
30860
30868
30868
30864
30862
30858
30866
30860
30856
30860
30846
30848
30852
30836
30831
30833
30822
30836
30818
30816
30809
30800
30792
30784
30772
30776
30760
30748
30744
30736
30720
30712
30708
30702
30689
30681
30668
30664
30652
30646
30636
30624
30612
30618
30604
30588
30596
30580
30566
30561
30558
30557
30535
30529
30516
30516
30508
30500
30497
30494
30484
30476
30464
30462
30460
30452
30446
30436
30436
30432
30434
30430
30424
30425
30426
30422
30412
30413
30410
30404
30412
30414
30412
30412
30408
30412
30412
30408
30412
30416
30420
30420
30425
30421
30430
30433
30436
30436
30444
30448
30444
30456
30462
30468
30480
30478
30484
30496
30500
30504
30509
30520
30522
30533
30543
30541
30556
30564
30580
30581
30590
30604
30606
30620
30630
30637
30652
30654
30678
30670
30684
30701
30708
30716
30734
30750
30760
30769
30786
30788
30807
30820
30831
30844
30860
30876
30887
30904
30914
30929
30944
30954
30978
30984
31004
31022
31036
31047
31064
31076
31094
31104
31118
31136
31148
31164
31180
31200
31216
31222
31246
31254
31268
31284
31301
31305
31320
31342
31353
31374
31384
31412
31421
31431
31456
31468
31480
31497
31516
31534
31548
31566
31584
31598
31604
31632
31638
31656
31680
31686
31706
31720
31736
31758
31764
31786
31789
31812
31832
31844
31856
31876
31889
31905
31918
31936
31944
31960
31982
31992
32008
32023
32037
32062
32072
32092
32099
32112
32128
32145
32164
32172
32185
32202
32228
32244
32263
32270
32288
32304
32317
32348
32352
32368
32392
32406
32422
32451
32456
32474
32490
32508
32524
32542
32557
32580
32601
32609
32629
32660
32673
32677
32698
32714
32736
32753
32774
32788
32800
32823
32836
32854
32870
32894
32906
32928
32944
32965
32972
32992
33012
33024
33034
33057
33077
33088
33106
33112
33132
33152
33166
33190
33200
33221
33236
33247
33268
33280
33288
33308
33324
33336
33352
33361
33376
33392
33404
33416
33440
33450
33460
33476
33486
33492
33511
33524
33535
33548
33556
33576
33584
33600
33608
33628
33636
33647
33668
33670
33694
33706
33722
33728
33748
33754
33776
33780
33796
33808
33821
33839
33852
33864
33869
33886
33896
33900
33922
33940
33942
33958
33976
33984
33998
34018
34017
34044
34048
34063
34076
34090
34100
34106
34124
34132
34148
34156
34172
34186
34190
34201
34214
34224
34238
34245
34260
34264
34274
34290
34295
34311
34320
34328
34338
34342
34353
34366
34376
34388
34397
34404
34404
34416
34430
34436
34452
34449
34460
34471
34476
34500
34506
34500
34518
34526
34536
34545
34546
34556
34576
34577
34592
34596
34606
34621
34618
34628
34646
34652
34664
34673
34681
34681
34695
34708
34712
34718
34730
34736
34750
34748
34752
34773
34788
34792
34801
34812
34817
34832
34841
34850
34856
34860
34880
34880
34880
34908
34904
34919
34928
34932
34950
34956
34965
34981
34984
34983
35004
35012
35024
35020
35029
35040
35046
35062
35068
35080
35084
35100
35096
35108
35114
35132
35135
35137
35148
35159
35166
35172
35182
35184
35198
35200
35208
35216
35228
35222
35241
35252
35252
35258
35269
35280
35295
35289
35296
35308
35324
35321
35328
35329
35352
35358
35362
35364
35372
35378
35386
35396
35415
35409
35418
35428
35432
35438
35449
35453
35456
35468
35468
35472
35493
35492
35508
35508
35510
35520
35534
35534
35546
35551
35560
35564
35575
35576
35588
35588
35597
35612
35620
35626
35628
35640
35641
35652
35660
35670
35676
35680
35692
35693
35704
35710
35727
35732
35728
35737
35744
35752
35764
35762
35764
35778
35788
35800
35808
35800
35816
35824
35825
35832
35836
35850
35852
35859
35863
35872
35884
35892
35894
35904
35916
35920
35934
35934
35932
35945
35952
35962
35968
35978
35984
36004
36008
36016
36020
36038
36038
36048
36053
36068
36074
36088
36092
36108
36112
36122
36128
36138
36142
36162
36168
36170
36188
36194
36192
36208
36208
36228
36236
36240
36256
36255
36272
36276
36284
36300
36296
36312
36316
36336
36336
36343
36352
36352
36368
36384
36385
36388
36394
36408
36425
36416
36424
36434
36448
36440
36456
36449
36462
36472
36488
36486
36488
36508
36500
36516
36516
36517
36528
36538
36548
36548
36550
36556
36567
36572
36568
36575
36574
36589
36590
36596
36592
36607
36608
36612
36614
36628
36624
36620
36648
36634
36653
36658
36656
36658
36674
36669
36684
36688
36692
36700
36708
36704
36712
36730
36728
36732
36740
36744
36756
36762
36776
36776
36784
36792
36800
36808
36812
36824
36832
36837
36842
36859
36868
36870
36872
36888
36900
36913
36901
36924
36929
36932
36945
36956
36961
36977
36974
36994
36992
37000
37012
37020
37028
37036
37034
37056
37057
37066
37068
37080
37081
37098
37108
37105
37120
37124
37130
37134
37145
37152
37157
37161
37172
37172
37185
37194
37194
37200
37208
37208
37228
37230
37229
37246
37244
37250
37260
37253
37272
37276
37285
37297
37300
37308
37308
37311
37320
37328
37328
37328
37348
37348
37348
37356
37365
37360
37368
37363
37382
37380
37382
37388
37388
37390
37396
37392
37404
37388
37396
37400
37404
37408
37408
37401
37408
37408
37421
37416
37423
37424
37424
37432
37436
37442
37448
37456
37454
37456
37468
37468
37484
37486
37480
37485
37495
37500
37502
37508
37518
37518
37519
37524
37526
37532
37540
37532
37541
37544
37544
37552
37553
37558
37566
37572
37580
37588
37596
37604
37604
37614
37621
37632
37644
37652
37652
37662
37672
37684
37685
37696
37708
37716
37722
37729
37734
37740
37753
37744
37764
37764
37774
37774
37790
37790
37800
37816
37818
37830
37830
37840
37846
37860
37862
37884
37888
37894
37894
37910
37924
37928
37936
37949
37961
37960
37964
37972
37980
37994
37996
37993
38008
38008
38024
38032
38033
38042
38048
38044
38045
38060
38076
38064
38078
38080
38084
38080
38080
38082
38090
38096
38094
38100
38096
38094
38100
38104
38100
38096
38096
38104
38094
38100
38088
38086
38086
38085
38085
38068
38064
38070
38068
38052
38040
38052
38037
38031
38016
38016
38016
38004
37996
37996
37988
37980
37968
37964
37961
37944
37940
37932
37924
37912
37896
37894
37892
37886
37872
37872
37852
37848
37844
37841
37820
37814
37812
37800
37796
37788
37780
37780
37768
37764
37757
37750
37734
37748
37732
37727
37728
37726
37716
37708
37717
37712
37704
37708
37708
37708
37696
37692
37702
37700
37698
37703
37703
37696
37704
37700
37712
37708
37716
37720
37730
37732
37728
37740
37748
37764
37752
37764
37772
37780
37786
37796
37805
37816
37817
37817
37829
37846
37856
37856
37864
37876
37892
37904
37910
37912
37936
37932
37945
37958
37959
37980
37980
37990
37996
38012
38022
38028
38044
38052
38052
38064
38074
38084
38080
38088
38096
38109
38124
38124
38136
38133
38152
38152
38160
38160
38168
38178
38174
38183
38200
38204
38214
38212
38217
38232
38232
38236
38244
38250
38253
38256
38264
38270
38272
38284
38290
38303
38304
38304
38312
38304
38316
38320
38320
38334
38332
38340
38352
38348
38356
38360
38366
38368
38368
38380
38380
38389
38396
38412
38408
38428
38420
38432
38436
38440
38452
38462
38476
38472
38484
38496
38488
38509
38510
38508
38524
38532
38524
38537
38536
38552
38550
38568
38564
38576
38580
38588
38600
38604
38610
38610
38616
38624
38632
38632
38648
38644
38648
38664
38664
38680
38684
38688
38689
38705
38704
38714
38720
38724
38725
38743
38752
38754
38764
38756
38772
38780
38788
38796
38806
38809
38826
38824
38831
38840
38844
38856
38868
38868
38884
38888
38895
38900
38900
38916
38917
38919
38936
38934
38933
38956
38956
38966
38968
38976
38980
38990
38999
38996
39008
39009
39023
39020
39040
39038
39044
39044
39060
39066
39068
39076
39084
39080
39089
39100
39093
39108
39114
39116
39120
39126
39129
39138
39140
39134
39140
39144
39146
39145
39148
39148
39148
39158
39152
39161
39156
39156
39160
39160
39144
39150
39158
39137
39148
39144
39144
39150
39134
39140
39126
39132
39117
39128
39118
39118
39116
39104
39104
39100
39084
39084
39077
39076
39068
39056
39060
39046
39040
39034
39020
39022
39022
39016
39008
39006
38988
38984
38976
38972
38972
38957
38948
38936
38940
38918
38904
38901
38885
38884
38870
38866
38852
38841
38824
38820
38805
38808
38780
38774
38764
38756
38742
38728
38706
38696
38692
38676
38660
38644
38624
38620
38604
38588
38580
38560
38533
38520
38509
38495
38484
38452
38444
38425
38416
38396
38376
38349
38340
38312
38301
38279
38272
38240
38224
38206
38188
38162
38152
38126
38112
38096
38068
38056
38030
37998
37980
37966
37950
37942
37908
37884
37864
37840
37824
37804
37781
37764
37746
37728
37700
37686
37648
37634
37617
37592
37566
37540
37524
37498
37474
37456
37416
37404
37375
37349
37328
37300
37272
37244
37216
37192
37175
37140
37118
37094
37062
37036
37014
36989
36966
36932
36908
36877
36840
36828
36796
36772
36740
36724
36688
36666
36632
36596
36580
36552
36524
36496
36468
36438
36408
36388
36354
36330
36302
36276
36244
36212
36184
36160
36138
36102
36078
36054
36024
35994
35964
35932
35912
35878
35858
35817
35804
35764
35740
35712
35686
35656
35630
35597
35572
35552
35520
35492
35460
35436
35404
35384
35356
35335
35307
35276
35252
35224
35204
35172
35148
35122
35100
35065
35041
35008
34988
34966
34940
34916
34896
34856
34842
34812
34797
34768
34746
34724
34695
34676
34640
34624
34602
34576
34552
34532
34504
34479
34472
34436
34412
34400
34368
34352
34316
34295
34277
34252
34223
34208
34180
34153
34128
34114
34092
34060
34046
34020
33988
33976
33944
33928
33908
33878
33853
33833
33807
33790
33750
33742
33718
33692
33669
33652
33616
33602
33572
33552
33518
33508
33476
33452
33433
33408
33380
33356
33340
33316
33288
33265
33236
33208
33188
33159
33146
33122
33088
33072
33049
33028
32992
32972
32953
32934
32904
32880
32864
32834
32812
32792
32776
32757
32728
32704
32684
32665
32644
32622
32601
32586
32557
32540
32520
32502
32476
32454
32439
32420
32394
32376
32356
32342
32318
32301
32282
32264
32246
32228
32208
32190
32159
32148
32134
32119
32109
32085
32062
32046
32030
32014
32006
31978
31962
31956
31936
31924
31906
31882
31873
31856
31844
31836
31818
31799
31794
31772
31760
31740
31732
31712
31692
31687
31676
31654
31644
31633
31617
31594
31588
31577
31558
31544
31532
31520
31521
31490
31479
31462
31456
31436
31420
31409
31398
31388
31368
31354
31342
31324
31312
31303
31280
31276
31255
31242
31229
31212
31209
31188
31178
31169
31158
31142
31131
31128
31116
31096
31084
31072
31062
31052
31032
31020
31009
31003
30980
30968
30958
30942
30924
30896
30896
30880
30868
30846
30825
30821
30794
30784
30766
30756
30729
30714
30709
30690
30670
30660
30636
30628
30620
30599
30584
30566
30562
30544
30528
30510
30501
30488
30472
30452
30439
30432
30420
30402
30396
30386
30368
30353
30344
30335
30321
30312
30308
30295
30272
30274
30252
30258
30242
30232
30233
30220
30220
30205
30193
30188
30176
30174
30166
30144
30147
30133
30132
30122
30108
30096
30082
30086
30076
30064
30053
30044
30033
30024
30020
30009
29992
29986
29970
29968
29946
29949
29942
29928
29924
29920
29908
29896
29888
29876
29876
29858
29862
29848
29842
29834
29824
29820
29824
29804
29800
29796
29786
29780
29780
29762
29762
29760
29744
29745
29732
29735
29720
29722
29708
29706
29698
29690
29688
29692
29676
29674
29664
29664
29653
29648
29652
29644
29636
29630
29618
29614
29608
29604
29594
29590
29580
29572
29568
29557
29560
29537
29529
29530
29516
29501
29502
29488
29478
29470
29464
29441
29444
29424
29412
29404
29390
29378
29362
29350
29342
29322
29310
29302
29286
29266
29260
29245
29232
29216
29192
29188
29165
29148
29142
29123
29117
29093
29068
29061
29046
29032
29012
28996
28984
28969
28960
28936
28924
28902
28888
28876
28860
28836
28836
28814
28796
28786
28767
28757
28729
28724
28710
28690
28680
28668
28649
28632
28620
28606
28598
28585
28568
28551
28544
28528
28510
28501
28489
28480
28470
28449
28442
28434
28424
28408
28394
28392
28380
28364
28357
28352
28346
28336
28324
28320
28311
28308
28300
28290
28289
28276
28273
28272
28266
28263
28257
28256
28240
28239
28240
28232
28230
28228
28230
28220
28216
28212
28206
28208
28202
28203
28208
28200
28196
28204
28192
28196
28194
28188
28192
28184
28189
28184
28197
28184
28182
28190
28184
28180
28186
28185
28190
28192
28188
28188
28192
28188
28190
28196
28190
28182
28184
28192
28196
28188
28192
28188
28188
28188
28192
28197
28198
28189
28197
28196
28188
28198
28198
28194
28196
28197
28204
28200
28208
28210
28201
28200
28214
28212
28218
28212
28212
28220
28222
28225
28232
28232
28236
28238
28232
28238
28246
28248
28258
28254
28256
28260
28261
28268
28270
28268
28264
28268
28273
28280
28272
28276
28288
28285
28292
28284
28282
28292
28285
28292
28292
28292
28300
28288
28297
28301
28301
28297
28300
28300
28303
28308
28300
28308
28304
28312
28306
28318
28320
28316
28320
28314
28321
28314
28322
28330
28329
28339
28332
28344
28341
28340
28348
28344
28356
28358
28361
28364
28376
28378
28378
28388
28390
28390
28398
28404
28408
28420
28429
28432
28434
28437
28434
28452
28455
28468
28464
28474
28476
28488
28490
28492
28500
28508
28512
28517
28522
28532
28538
28540
28552
28558
28557
28570
28568
28574
28576
28589
28582
28592
28592
28598
28610
28612
28608
28614
28612
28624
28616
28634
28628
28633
28633
28636
28633
28637
28640
28640
28642
28645
28648
28652
28650
28645
28652
28660
28654
28660
28658
28661
28664
28669
28668
28665
28668
28660
28673
28670
28679
28679
28672
28680
28682
28684
28684
28688
28685
28692
28694
28696
28697
28696
28704
28707
28700
28704
28709
28708
28706
28710
28712
28713
28717
28730
28722
28724
28724
28720
28724
28728
28727
28725
28733
28732
28736
28736
28737
28740
