ECG
33252
33144
33026
33063
32884
33017
33018
33188
33135
33178
33197
33192
33303
33273
33523
33493
33449
33294
33409
33532
33490
33588
33436
33428
33125
33061
32863
32852
32604
32565
32497
32478
32490
32514
32567
32707
32703
32758
32702
32663
32633
32449
32511
32325
32417
32237
32348
32367
32508
32588
32700
32851
32871
33013
33108
33037
33010
32987
32871
32737
32604
32425
32350
32293
32427
32495
32589
32623
32652
32612
32721
32612
32736
32615
32759
32759
32838
32898
32950
33149
33102
32945
32623
32568
32737
32596
32615
32486
32479
32389
32257
32082
32199
32138
32372
32338
32550
32551
32743
32595
32602
32499
32533
32646
32839
33031
33047
33201
33319
33417
33507
33343
33264
32927
32765
32549
32563
32444
32455
32252
32261
32082
31837
31719
31445
31370
31394
31396
31712
32063
32476
33127
33562
34122
34708
35230
35821
36325
36783
37097
37583
38060
38428
38967
39343
39638
40271
40783
41199
42013
42457
43063
43526
43783
44389
44581
44916
44801
44695
44420
43783
43503
42882
42669
42109
41799
41412
40700
40292
39460
38844
38110
37134
36154
35217
34391
33884
33351
33101
32732
32497
31922
31675
31381
31289
31028
30941
30811
30967
30910
31052
31109
31346
31223
31135
30925
30944
30931
30823
30824
30807
30726
30586
30348
30203
30041
30133
30170
30300
30407
30517
30673
30743
30796
30772
30749
30708
30783
30791
30823
30668
30683
30575
30607
30492
30595
30716
31016
31148
31345
31429
31542
31357
31380
31103
30933
30659
30631
30556
30619
30516
30571
30532
30597
30614
30687
30845
30885
31180
31253
31612
31846
32040
32182
32212
32191
32003
31935
31575
31303
31162
30845
30764
30553
30471
30455
30533
30727
30713
30928
30902
31022
30983
31132
31032
31079
31131
31113
31263
31172
31239
31095
31079
31070
31044
31191
31135
31172
31183
31270
31301
31367
31447
31524
31676
31676
31815
31691
31877
31751
31835
31740
31733
31687
31703
31854
31750
31924
31972
32228
32260
32282
32165
32132
32055
32046
32135
32087
32345
32479
32724
32812
32837
32651
32519
32354
32184
32135
32124
32335
32332
32470
32471
32617
32743
32746
32749
32862
32923
32788
32788
32607
32687
32535
32546
32403
32461
32348
32399
32317
32483
32423
32571
32479
32583
32542
32742
32758
32864
32775
32797
32678
32719
32799
32879
33023
33025
33141
33247
33476
33423
33375
33175
33096
32871
32925
33098
33403
33476
33508
33511
33590
33607
33542
33489
33383
33422
33431
33580
33677
33751
33706
33543
33513
33359
33375
33212
33196
33103
32957
32822
32698
32597
32439
32375
32239
32351
32423
32583
32606
32674
32708
32847
32842
32911
32775
32771
32667
32631
32620
32540
32492
32378
32327
32227
32141
31953
31947
32123
32116
32219
32143
32263
32263
32327
32383
32397
32490
32406
32519
32518
32513
32362
32258
32275
32104
32106
31893
31815
31887
31789
31971
32080
32140
32352
32354
32543
32508
32598
32547
32481
32416
32135
32023
31751
31713
31562
31632
31781
31783
31931
32060
32167
32399
32500
32602
32652
32509
32551
32375
32356
32051
31822
31527
31395
31381
31540
31912
32114
32370
32503
32775
32789
32847
32619
32403
31948
31688
31415
31375
31316
31309
31415
31462
31653
31640
31751
31708
31852
31834
31874
31854
31839
31901
31878
32015
31965
32114
32058
32146
32024
32101
31965
32059
31940
32004
31932
32097
32097
32308
32260
32315
32164
32173
32020
31989
31886
31823
31716
31727
31764
31839
31860
31849
31900
31879
32031
31891
31911
32031
32004
32074
31879
31861
31874
31975
32190
32222
32421
32253
32231
32095
32062
31881
31748
31692
31700
31844
31982
32263
32427
32707
32929
33226
33358
33505
33469
33402
33151
32939
32561
32381
32095
32061
31964
32095
32071
32233
32345
32489
32600
32599
32761
32757
32878
32855
32892
32823
32747
32820
32769
32775
32679
32500
32373
32207
32287
32448
32572
32831
32932
33105
33137
33175
33295
33310
33388
33205
33003
32731
32647
32590
32422
32335
32204
32095
32178
32187
32383
32593
32828
33095
33255
33436
33567
33654
33644
33512
33397
33316
33215
33052
32807
32782
32724
32857
32954
33223
33351
33441
33570
33668
33708
33671
33613
33356
33107
32847
32659
32529
32501
32460
32381
32416
32399
32455
32404
32439
32404
32485
32566
32679
32787
32901
32871
32822
32631
32527
32434
32430
32330
32335
32263
32311
32286
32352
32244
32253
32204
32278
32371
32291
32338
32367
32404
32486
32465
32531
32527
32611
32547
32534
32447
32543
32539
32479
32513
32551
32647
32596
32623
32478
32318
32255
32155
32185
32084
32055
32077
32020
32180
32251
32305
32213
32087
32060
31879
31946
32002
32174
32355
32453
32684
32679
32775
32847
32999
32932
32775
32639
32570
32587
32422
32284
32092
32098
31965
32052
32047
32159
32172
32318
32436
32526
32604
32631
32701
32719
32694
32476
32372
32189
32082
32110
32105
32199
32167
32283
32278
32380
32399
32561
32519
32615
32663
32784
32877
32828
32818
32750
32578
32445
32197
32181
32036
32017
31943
32046
32047
32231
32341
32580
32791
32818
32957
32982
32946
32795
32660
32519
32412
32357
32288
32351
32378
32453
32437
32564
32575
32751
32857
32865
32813
32676
32630
32538
32533
32431
32509
32447
32388
32351
32319
32439
32412
32446
32325
32284
32164
32247
32391
32519
32628
32669
32839
32870
33010
33093
33044
32950
32685
32420
32093
31751
31662
31557
31677
31713
31980
32166
32530
32775
33000
33111
33189
33189
33093
33124
33132
33077
33020
32855
32699
32593
32487
32492
32547
32605
32748
32916
33095
33357
33543
33695
33821
33853
33817
33743
33725
33761
33759
33775
33815
33788
33774
33863
33927
33927
33874
33867
33833
33799
33812
33811
33711
33705
33773
33759
33748
33636
33458
33223
33032
32844
32740
32589
32639
32695
32932
33073
33287
33463
33652
33727
33739
33591
33386
33174
33100
32961
32822
32740
32681
32753
32745
32735
32729
32711
32692
32592
32727
32842
32914
32932
32783
32695
32590
32341
32181
32070
32172
32212
32124
32069
32022
31923
31813
31683
31468
31383
31431
31443
31693
31887
31972
32188
32263
32495
32669
32785
32714
32580
32423
32196
32052
31908
31953
31994
31967
31989
31999
32195
32127
32135
32310
32442
32487
32476
32359
32244
32196
32034
31967
31953
31927
32033
32132
32222
32397
32492
32585
32567
32575
32571
32519
32575
32528
32468
32272
32103
31882
31733
31766
31669
31793
31846
31908
32017
32119
32388
32604
32731
32833
32795
32743
32556
32389
32373
32294
32285
32231
32103
32095
32123
32119
32253
32287
32206
32191
32127
32109
32114
32089
32049
32026
31888
31882
31711
31692
31652
31771
31869
32143
32420
32790
33180
33693
34311
35018
35647
36111
36583
36780
37405
37967
38844
39396
39678
40110
40296
40943
41351
41830
42364
42777
43216
43508
44036
44021
44353
44295
44183
43967
43351
43230
42540
42350
41908
41537
41183
40487
39893
38761
37976
36763
35573
34279
33251
32476
32007
31588
31430
31292
31399
31380
31571
31662
31772
31615
31471
31282
31023
30887
30785
30615
30621
30479
30556
30402
30386
30225
30318
30279
30323
30417
30396
30460
30454
30537
30455
30264
30212
30044
30074
30143
30068
30233
30311
30499
30676
30694
30929
31039
31269
31340
31339
31213
31100
31111
30933
30886
30847
30756
30720
30623
30588
30660
30785
30765
30726
30751
30719
30927
31082
31159
31356
31427
31407
31403
31279
31255
31283
31271
31255
31159
31214
31300
31266
31375
31395
31459
31473
31381
31381
31271
31157
31274
31445
31470
31435
31348
31174
31159
31085
31064
31109
31143
31325
31335
31407
31389
31345
31268
31143
31142
31229
31247
31382
31383
31527
31657
31836
31909
31960
31957
31839
31886
31867
31907
32019
32066
32191
32254
32287
32324
32252
32219
32222
32254
32310
32399
32478
32552
32606
32631
32654
32633
32615
32583
32613
32587
32549
32546
32559
32628
32686
32785
32950
33029
33049
33020
32855
32709
32562
32494
32448
32463
32540
32600
32742
32917
33070
33119
33140
33151
33119
33044
32942
32948
32970
32956
32941
32913
32860
32861
32863
32918
33030
33167
33207
33268
33351
33287
33255
33193
33167
33255
33251
33239
33381
33446
33428
33397
33391
33314
33295
33263
33252
33204
33199
33388
33653
33819
33878
33831
33834
33997
34039
34073
34066
33991
33983
33887
33837
33764
33708
33717
33671
33713
33607
33534
33468
33441
33511
33503
33479
33466
33373
33263
33144
33031
32924
32876
32894
32909
32981
33075
33143
33215
33277
33279
33255
33212
33180
33221
33107
33031
33063
33063
33039
33025
32983
32867
32726
32621
32543
32452
32414
32388
32287
32287
32404
32471
32519
32633
32708
32713
32711
32739
32669
32570
32453
32311
32143
31972
31934
31951
32007
32090
32227
32260
32338
32412
32463
32583
32715
32695
32557
32343
32149
32090
31978
31847
31751
31721
31681
31695
31777
31860
31943
32013
32149
32251
32275
32284
32220
32133
32071
31975
31915
31846
31871
31935
31942
31985
32030
32039
32007
32031
32165
32263
32263
32255
32309
32319
32259
32229
32164
32051
31929
31853
31772
31732
31608
31585
31581
31607
31587
31591
31667
31714
31749
31777
31871
32003
32108
32135
32161
32189
32124
32097
32026
31916
31797
31653
31631
31636
31659
31684
31772
31854
31851
31846
31801
31732
31727
31745
31762
31839
31828
31823
31790
31768
31791
31666
31570
31511
31479
31523
31611
31879
32038
32073
32143
32206
32244
32263
32226
32247
32223
32226
32134
32113
32212
32196
32199
32230
32261
32228
32179
32127
32091
32097
32119
32209
32263
32272
32244
32305
32465
32574
32550
32432
32260
32095
31815
31623
31619
31639
31692
31746
31847
31974
32060
32103
32246
32420
32453
32547
32655
32665
32652
32655
32670
32590
32588
32623
32623
32669
32670
32602
32573
32579
32678
32727
32783
32864
32809
32764
32736
32657
32571
32442
32396
32452
32477
32503
32616
32789
32929
33089
33084
33100
33132
33166
33287
33398
33295
33156
33084
33133
33211
33118
33101
33150
33077
33015
32934
32951
33036
33087
33324
33439
33525
33719
33668
33589
33400
33359
33347
33175
33088
32927
32805
32775
32667
32559
32615
32773
32999
33228
33279
33330
33335
33253
33220
33125
33095
33099
32981
32860
32765
32555
32367
32300
32241
32263
32407
32478
32527
32637
32628
32599
32556
32567
32575
32540
32431
32440
32389
32327
32261
32173
32218
32205
32159
32137
32081
32050
32063
32133
32236
32291
32351
32379
32372
32359
32327
32351
32375
32335
32307
32301
32236
32202
32214
32164
32214
32431
32607
32665
32643
32495
32278
32151
32040
31975
31956
31966
32006
32096
32121
32143
32207
32263
32283
32283
32358
32452
32508
32662
32782
32824
32863
32998
32971
32877
32889
32927
33010
33133
33127
33130
33092
33004
33067
33087
33005
33044
33031
33092
33111
33133
33273
33252
33287
33349
33434
33415
33255
33257
33170
33057
32964
32861
32855
32730
32607
32601
32645
32775
32949
32915
32956
33038
33116
33303
33317
33261
33227
33035
32892
32765
32655
32703
32586
32485
32559
32681
32954
33044
33158
33239
33316
33468
33431
33435
33396
33268
33177
33097
33015
32954
32855
32796
32751
32609
32567
32572
32571
32675
32798
32838
32894
32864
32958
33088
33085
33096
33044
33025
33069
32903
32820
32743
32763
32716
32794
33013
33134
33341
33447
33551
33580
33527
33521
33369
33183
33103
33159
33159
33255
33281
33279
33420
33435
33581
33637
33742
33685
33743
33912
33959
33948
34028
33883
33991
33953
34052
33954
34007
33889
33859
33604
33568
33584
33566
33647
33628
33709
33862
33802
33807
33743
33783
33991
34055
34055
33997
34010
33900
33905
33633
33436
33262
33126
32911
32722
32769
32893
33118
33285
33557
33586
33599
33458
33445
33428
33284
33217
33132
33226
33164
33071
32843
32673
32594
32498
32455
32431
32532
32516
32602
32626
32706
32708
32694
32796
32799
32786
32671
32459
32346
32303
32311
32235
32230
32399
32518
32613
32675
32663
32690
32757
32715
32759
32734
32732
32647
32548
32542
32500
32464
32527
32428
32330
32304
32335
32495
32526
32643
32668
32735
32884
32865
32927
32863
32759
32786
32791
32819
32807
32738
32682
32708
32684
32685
32685
32660
32838
32871
32918
32959
32906
32911
32838
32833
32805
32815
33028
33004
32906
32690
32741
32675
32658
32612
32623
32785
32857
32998
33153
33125
33215
33246
33219
33212
33073
33063
32882
32759
32583
32537
32372
32244
32109
32015
31883
31871
31959
32079
32231
32309
32465
32691
33031
33302
33615
34167
34509
35106
35515
36139
36580
36799
37415
37775
38527
38903
39772
40088
40767
41191
41583
42391
42668
43375
43806
44227
44807
44673
44597
44478
43997
43783
43345
42711
42300
41607
40948
40855
40693
40163
39898
39431
38663
37999
36779
35583
34716
33931
33430
33043
32647
32428
32149
31962
31991
32043
32069
32004
31831
31652
31362
31109
30958
30977
31063
31166
31186
31125
30919
30647
30506
30430
30463
30479
30617
30744
30801
30800
30796
30966
31099
31194
31215
31263
31304
31314
31278
31239
31195
31181
31201
31156
31183
31207
31265
31381
31471
31508
31634
31783
31773
31741
31700
31634
31513
31510
31516
31525
31472
31293
31188
31164
31133
31247
31391
31463
31619
31747
31782
31839
31813
31789
31701
31564
31553
31474
31405
31421
31473
31484
31421
31458
31484
31434
31343
31327
31439
31575
31614
31666
31699
31711
31825
31983
32015
32028
31962
31767
31694
31655
31669
31671
31613
31540
31511
31601
31811
32066
32171
32251
32231
32225
32329
32357
32506
32471
32388
32363
32208
32085
31951
31918
32087
32074
32215
32363
32556
32647
32759
32975
33047
32876
32792
32812
32627
32519
32582
32532
32599
32645
32571
32663
32908
33021
33156
33340
33297
33321
33261
33304
33343
33159
32981
33054
33111
33278
33375
33379
33423
33410
33293
33333
33265
33148
33243
33196
33343
33493
33551
33799
33853
34048
33919
33932
34032
33938
33911
33812
33607
33670
33591
33525
33663
33603
33823
33783
33711
33892
33873
34018
34016
33911
33988
33847
33925
34003
33846
33863
33662
33479
33500
33396
33480
33415
33583
33595
33667
33839
33860
33991
33932
34150
34063
34076
34135
33924
33863
33638
33524
33404
33191
33226
33094
32988
33044
32947
33025
33060
33332
33366
33383
33652
33690
33845
33646
33597
33541
33386
33275
32883
32636
32462
32431
32448
32492
32693
32758
32962
32924
33052
32979
32852
32839
32732
32690
32529
32510
32492
32324
32241
32150
32060
32095
32159
32296
32335
32374
32517
32551
32690
32771
32748
32870
32775
32716
32748
32607
32439
32403
32158
31942
31751
31628
31599
31575
31675
31733
31895
32102
32049
32018
32015
31996
32101
32135
32135
32202
32089
32078
31950
31870
31869
31779
31723
31599
31609
31626
31604
31686
31794
31775
31879
32004
32055
32151
32167
32141
32127
32031
31943
31945
31877
31701
31622
31535
31362
31366
31455
31589
31815
31935
31903
31940
32046
32031
31910
31789
31739
31719
31717
31670
31653
31705
31746
31735
31783
31843
31871
31899
32022
32028
31915
31863
31832
31770
31740
31681
31710
31751
31724
31652
31629
31593
31481
31463
31516
31549
31685
31775
31833
32031
32199
32229
32249
32140
32085
32029
31937
31887
31815
31814
31805
31796
31892
31935
32023
32167
32244
32172
32111
32253
32315
32287
32339
32367
32349
32319
32334
32375
32350
32327
32273
32348
32359
32383
32459
32481
32644
32645
32620
32607
32588
32508
32594
32787
32799
32823
32991
32969
33105
33157
33063
33140
33105
33096
33047
32941
32980
32903
32860
32967
32932
32899
33079
33095
32997
33087
32935
32841
32819
32743
32911
33014
32986
32996
33108
33159
33235
33275
33195
33268
33445
33327
33318
33383
33148
33031
32977
32947
32855
32644
32608
32478
32621
32759
32813
33031
33095
33258
33351
33490
33543
33495
33484
33159
33023
32918
32786
32703
32543
32580
32514
32607
32684
32595
32647
32551
32529
32700
32735
32938
32899
32963
33135
33159
33159
33156
33257
33140
32735
32391
32070
31958
31952
31961
32071
32042
32199
32391
32573
32820
32838
32876
32837
32770
32713
32569
32551
32327
32210
32188
32118
32113
32134
32296
32519
32682
33058
33103
33183
33223
33125
33231
33085
32950
32923
32757
32857
32881
32700
32655
32663
32607
32599
32487
32618
32716
32746
32775
32649
32711
32711
32770
32940
32789
32863
32854
32838
32874
32692
32628
32657
32500
32514
32629
32647
32851
32950
33102
33193
33086
33300
33178
33147
33069
32959
33124
33028
33042
32916
32561
32497
32430
32487
32526
32614
32874
32943
32996
33015
32858
32861
32868
32847
33005
32980
32910
32886
32687
32746
32842
32838
33029
33012
33012
33087
33015
32991
32996
32843
32934
32927
32994
33173
33095
33153
33200
33110
33004
32805
32554
32495
32568
32739
32938
32920
33004
33030
32861
32817
32824
32722
32767
32885
32783
32900
33027
32894
33004
33141
33166
33228
33262
33175
33151
33350
33403
33335
33377
33525
33621
33676
33751
33628
33489
33502
33449
33212
33175
33060
33039
33238
33247
33439
33510
33568
33709
33701
33811
33767
33639
33702
33599
33572
33788
33812
33743
33823
33894
33822
33963
33887
33962
34045
33908
34055
33951
34022
34076
33975
34043
33895
33710
33568
33392
33452
33360
33516
33396
33423
33383
33228
33153
33003
32989
32735
32734
32743
32814
33053
33068
33311
33350
33371
33487
33423
33503
33333
33349
33223
33021
33063
32824
32815
32661
32686
32741
32796
33039
33032
32912
32922
32769
32586
32621
32512
32401
32475
32404
32471
32406
32381
32277
32143
32235
32205
32297
32335
32364
32527
32455
32490
32480
32367
32391
32236
32180
32197
32218
32338
32263
32237
32263
32109
32134
32094
32095
32230
32204
32249
32239
32263
32423
32327
32397
32323
32310
32226
32055
32076
32040
31965
31882
31727
31765
31863
31976
32228
32316
32299
32443
32445
32575
32423
32406
32335
32212
32220
32255
32196
32289
32299
32191
32196
32263
32281
32351
32570
32619
32668
32775
32775
32699
32695
32539
32359
32364
32258
32135
32164
32213
32263
32367
32311
32325
32558
32643
32581
32589
32560
32340
32179
32046
31877
31868
31775
31783
31982
32119
32331
32420
32804
33021
33325
33713
34055
34746
35072
35636
36163
36519
36838
37351
37505
38036
38293
38794
39273
39523
40265
41033
41444
41670
42329
42566
42431
42564
42317
42175
42132
41855
41806
41108
40422
40012
39148
38711
38271
37652
37454
36997
36262
35391
34223
33531
32975
32873
32949
32741
32684
32359
32207
31915
31684
31655
31508
31391
31164
30921
30775
30681
30569
30535
30481
30508
30559
30492
30500
30519
30566
30615
30703
30916
31103
31032
30886
30746
30666
30589
30452
30278
30143
30093
30054
30071
30290
30471
30598
30782
31011
31282
31404
31462
31432
31399
31539
31351
31209
30981
30789
30672
30573
30522
30550
30575
30655
30855
31021
31213
31431
31426
31363
31239
31244
31418
31463
31595
31583
31471
31397
31196
31175
30983
30836
30760
30735
30847
30955
30978
31209
31361
31493
31719
31809
31946
31863
31860
31906
31687
31564
31330
31114
30951
30827
30869
30964
31033
31237
31319
31463
31514
31575
31639
31607
31751
31671
31729
31618
31537
31506
31447
31495
31575
31826
31899
32113
32191
32269
32332
32340
32408
32391
32479
32311
32431
32245
32093
32135
31930
31821
31852
31821
31789
31876
31877
32151
32382
32575
32971
33109
33049
33255
33112
33010
33037
32919
32846
32959
32931
32943
33043
32854
32835
32629
32502
32457
32450
32669
32671
32724
32876
32919
33333
33367
33481
33540
33415
33548
33343
33354
33266
33151
33131
32927
32954
32840
33050
33110
33344
33390
33431
33511
33549
33805
33820
33999
33916
34084
33907
33963
33788
33799
33671
33592
33623
33596
33698
33692
33903
33887
34005
33997
33852
34095
34109
33959
33978
33959
33885
33983
33683
33658
33395
33383
33318
33024
33001
32811
32996
32993
33135
33446
33478
33764
33615
33677
33433
33439
33223
33190
33031
32959
32917
32818
33061
32966
32980
32916
32884
32988
32883
33031
32857
32927
32811
32800
32793
32685
32726
32516
32587
32359
32321
32223
32037
32039
31924
32087
32231
32247
32519
32591
32845
32892
32808
32906
32733
32788
32580
32599
32481
32213
32170
31951
31845
31834
31693
31807
31847
31934
32038
31955
31932
32058
32007
32158
32084
31946
31914
31722
31686
31522
31585
31526
31532
31567
31540
31739
31815
31946
31806
31867
31942
31860
31804
31660
31765
31677
31591
31484
31477
31553
31418
31522
31492
31523
31539
31538
31670
31723
31822
31674
31623
31547
31428
31495
31452
31420
31468
31526
31434
31389
31375
31189
31151
31263
31257
31463
31550
31503
31512
31415
31564
31636
31563
31604
31572
31470
31457
31255
31239
31207
31174
31348
31425
31647
31865
31916
32129
32059
32056
31915
31798
31831
31493
31394
31366
31268
31420
31415
31444
31495
31429
31595
31855
31889
32012
32231
32247
32215
32403
32522
32463
32459
32412
32323
32484
32420
32383
32391
32223
32247
32212
32068
32188
32197
32315
32591
32633
32754
32839
32941
33014
32933
32823
32726
32756
32873
32894
32799
32901
32808
32959
33015
32861
32945
32957
32932
33113
33047
33013
33031
33159
33267
33175
33012
33135
33015
32899
32889
32684
32775
32749
32836
33116
33138
33396
33553
33551
33703
33652
33391
33321
33265
32947
32695
32646
32391
32188
32223
32181
32309
32601
32641
32759
32925
32839
32970
33064
32972
33092
32939
32735
32831
32815
32604
32689
32571
32591
32704
32540
32460
32428
32201
32255
32103
32213
32329
32303
32484
32485
32543
32775
32681
32567
32733
32669
32654
32753
32581
32354
32431
32279
32159
32317
32391
32482
32632
32840
32780
32756
32895
32775
32605
32631
32346
32199
32308
32175
32163
32359
32367
32256
32341
32314
32231
32228
32391
32366
32281
32487
32613
32708
32997
33055
32903
32933
32595
32484
32299
32142
32231
32220
32395
32508
32378
32601
32690
32731
32975
32961
32873
32847
32551
32540
32389
32423
32341
32098
32163
31987
32087
31983
31815
31925
31903
32212
32407
32561
32830
32748
32841
32741
32721
32726
32591
32683
32548
32629
32479
32292
32303
32230
32253
32501
32615
32679
32902
32787
32958
32921
32847
33066
33023
33006
33031
32842
32791
32770
32581
32647
32692
32589
32679
32764
32617
32815
32806
33005
32947
32945
33203
33151
33263
33131
32929
32884
32484
32257
32239
32090
32159
32180
32149
32419
32396
32713
32823
33062
33187
33090
33273
33198
33111
33279
33003
32870
32903
32675
32655
32652
32620
32783
32620
32731
32767
32775
33045
33007
33198
33202
33125
33061
33076
33208
33277
33175
33103
33083
33007
33153
33048
33191
33271
33076
33145
33280
33521
33767
33886
34247
34335
34262
34417
34561
34351
34279
34420
34471
34391
34109
33863
33911
33679
33540
33607
33663
33500
33455
33519
33668
33559
33654
33703
33501
33600
33638
33519
33453
33335
33041
32899
33039
32931
32867
33058
32895
32894
33148
33157
33223
33551
33557
33367
33456
33409
33231
33285
33057
32877
32911
32734
32586
32676
32786
32711
32797
32870
32679
32627
32725
32722
32577
32570
32791
32678
32584
32732
32487
32375
32423
32277
32389
32305
32300
32467
32391
32595
32818
32667
32753
32707
32519
32576
32583
32451
32599
32611
32621
32743
32655
32791
32747
32572
32679
32527
32551
32724
32645
32709
32820
32852
32837
32773
32791
32861
32703
32715
32732
32497
32382
32307
32199
32326
32396
32355
32526
32532
32399
32555
32467
32491
32617
32439
32580
32420
32423
32623
32505
32544
32631
32551
32303
32263
32202
32042
32111
32179
32200
32530
32666
32958
33063
33191
33469
33287
33284
33148
32652
32437
32243
31966
31971
31703
31620
31511
31564
31889
31995
32217
32364
32531
32967
33164
33369
33795
34055
34743
35179
35569
36287
36556
37169
37799
38306
38981
39303
39964
40103
40838
41286
41695
42423
42526
43140
43492
43655
44095
44004
43927
43895
43222
42996
42244
42071
41530
41118
40984
40405
40274
39769
39175
38710
37655
36748
35559
34423
33867
33119
32700
32229
31895
31623
31242
31220
31145
31157
31335
31239
31309
31359
31271
31367
31279
31182
31135
30886
30785
30635
30505
30580
30349
30271
30308
30327
30429
30428
30620
30629
30714
30836
30847
30948
31031
30869
30975
30884
30887
30943
30865
31015
30991
30950
30893
30788
30884
30727
30927
30956
31223
31173
31255
31167
31252
31271
31168
31173
31054
31127
30876
30681
30597
30544
30772
30823
31111
31122
31147
31373
31492
31738
32000
31885
31898
31604
31543
31477
31332
31269
31079
31111
30911
30946
30775
30753
30956
31026
31316
31351
31391
31552
31455
31562
31556
31663
31725
31597
31596
31371
31382
31103
31109
31063
31079
31207
31158
31402
31406
31466
31539
31522
31808
31858
31932
32038
32068
31854
31917
31815
31829
31879
31637
31733
31684
31605
31741
31676
31716
32023
32207
32679
32891
32951
33236
33181
32997
33060
32812
32541
32564
32297
32239
32058
32007
32294
32375
32502
32909
32941
32959
33133
33015
33030
33013
32859
33031
32901
32861
33031
32959
32853
33054
32933
32871
33036
32855
32802
32991
33038
33063
33260
33141
33243
33490
33372
33462
33421
33306
33383
33353
33150
33169
32922
32849
32935
32900
33054
33131
33156
33436
33423
33359
33532
33499
33351
33380
33539
33583
33503
33295
33343
33081
32911
33030
32818
32825
33018
32967
32966
33242
33196
33355
33323
33252
33455
33242
33230
32982
32605
32473
32180
31917
32022
31959
32145
32375
32516
33002
33190
33275
33591
33607
33474
33567
33228
33063
32879
32396
32349
32223
32109
32238
32111
32183
32303
32328
32543
32503
32709
32796
32775
32975
32742
32569
32550
32388
32305
32380
32119
32183
32221
32124
32180
32172
32135
32396
32333
32455
32387
32324
32515
32514
32671
32688
32572
32673
32510
32303
32352
32096
32005
32166
32020
31881
31944
31862
32020
32229
32199
32447
32479
32468
32623
32398
32240
32252
31975
31919
31959
31863
31963
32071
31869
31908
31894
31885
32134
32164
32151
32307
32243
32316
32335
32038
32091
31966
31887
32016
31878
32031
31851
31871
31814
31524
31663
31631
31845
31990
32055
32311
32180
32313
32396
32206
32224
31994
31858
31981
31789
31607
31616
31463
31343
31533
31503
31652
31791
31772
31982
31859
31813
31989
31925
31879
32044
31979
31930
32026
32055
31820
31868
31601
31356
31335
31253
31301
31604
31603
31773
32127
32094
32109
32175
31963
31828
31887
31802
31814
32015
31942
31927
32135
32117
32381
32252
32260
32444
32407
32439
32271
32173
32263
32279
32188
32226
32391
32285
32195
32280
32257
32231
32347
32554
32513
32507
32631
32591
32372
32493
32676
32646
32871
32959
32902
32967
32980
32768
32837
32625
32373
32364
32131
32057
32263
32234
32621
32794
32740
32950
32895
32836
32965
33155
33122
33340
33287
33191
33343
33111
33095
32854
32612
32733
32551
32655
32708
32750
33067
33047
33181
33343
33123
33146
33154
32981
33127
32890
32875
32991
32940
33118
33107
33071
33287
33164
33404
33332
33191
33202
33245
33007
32876
33011
32975
33249
33221
33287
33447
33199
33151
32830
32796
32884
32730
32862
32759
32959
32941
32978
33156
33088
33306
33383
33279
33338
33015
32982
33177
32981
32879
32998
32743
32628
32807
32667
32756
32975
32972
33118
33284
33140
33159
33375
33159
33015
33097
32809
32741
32615
32285
32196
32045
31824
31741
31890
31844
32099
32324
32363
32687
32715
32954
33519
33564
33799
33674
33540
33629
33205
32863
32647
32271
32119
31999
31751
31919
31879
32031
32348
32292
32543
32694
32622
32769
32607
32725
32775
32586
32578
32471
32313
32365
32167
32239
32263
32189
32379
32315
32631
32588
32689
32934
32827
33021
32884
32935
33042
32871
32950
32829
32681
32844
32775
32948
32927
32784
32924
32850
33079
33263
33182
33345
33519
33460
33684
33540
33550
33692
33564
33524
33557
33303
33243
33243
33023
33111
33007
32884
32858
32843
32687
32811
32801
32809
33007
32932
33199
33078
33284
33167
32999
33157
32967
32849
32863
32631
32711
32991
32972
33199
33335
33354
33399
33687
34026
33997
33999
34039
33727
33319
33169
32972
32732
32843
32903
32813
32927
33099
32995
33092
33084
32931
32973
33071
33036
33247
33175
33118
33185
33113
33007
32916
32923
32958
32763
32876
32830
32839
33069
33116
33131
33438
33695
33700
33913
34128
34098
33918
33870
33847
33564
33476
33490
33351
33335
33573
33751
33767
34175
34199
34197
34420
34244
34324
34375
34011
33783
33736
33298
33159
33121
32957
33049
33159
33115
33415
33495
33518
33728
33812
33647
33585
33660
33540
33669
33750
33560
33567
33574
33479
33275
33294
33476
33371
33425
33604
33510
33423
33633
33430
33552
33435
33182
33137
33007
32807
32855
32671
32487
32439
32292
32039
32005
32162
32075
32207
32367
32230
32335
32391
32279
32431
32452
32430
32643
32725
32685
32785
32700
32559
32561
32311
32079
32069
31780
31738
32006
32101
32425
32502
32423
32639
32511
32494
32490
32279
32346
32197
32007
32045
31663
31529
31517
31365
31558
31676
31727
31953
32039
32114
32391
32321
32542
32483
32402
32473
32289
32111
32124
31995
31814
31803
31717
31555
31594
31572
31495
31799
31996
32207
32570
32613
32693
33037
33143
33127
33127
33191
32999
32822
32791
32631
32367
32394
32282
32143
32315
32205
32297
32364
32191
32222
32215
32071
32127
31948
31784
31979
31849
31879
32077
32071
32383
32592
32876
33364
33617
34277
34642
35395
35774
36255
36821
37253
37970
38334
39224
39543
40158
40613
40805
41479
41691
42083
42679
42863
43223
43720
43861
44262
44192
44121
44135
43495
43111
42655
42149
41733
41598
41041
40623
40007
38871
38272
37341
36092
34996
34054
33111
32575
32387
31959
31715
31591
31310
31333
31412
31204
31035
30927
30639
30519
30485
30333
30375
30399
30230
30357
30268
30351
30471
30399
30527
30431
30341
30430
30267
30288
30148
30052
30256
30164
30023
30070
29996
30093
30361
30447
30773
30886
30978
31177
31070
31177
30983
30935
31061
30853
30837
30879
30655
30788
30825
30823
30949
30983
30791
30781
31077
31124
31196
31412
31439
31405
31509
31655
31543
31612
31495
31282
31376
31207
31125
31263
31103
31196
31385
31383
31654
31610
31671
31812
31730
31716
31801
31727
31495
31439
31447
31261
31173
31294
31111
31033
31202
31037
30949
31060
31116
31175
31442
31324
31297
31470
31373
31354
31471
31558
31367
31268
31211
31084
31134
31101
30911
30887
31127
31231
31378
31647
31871
31907
32084
32036
32226
32366
32263
32295
32357
32239
32393
32151
32201
32030
31909
32103
32287
32247
32384
32672
32732
32593
32549
32615
32727
32663
32797
33060
33116
32957
32893
32871
32711
32545
32524
32511
32455
32532
32687
32540
32631
32863
32885
33057
33226
33124
33195
33308
33383
33259
33343
33218
32980
32925
32871
32703
32670
32895
32910
32999
33250
33166
33455
33623
33459
33463
33541
33438
33178
33069
33023
32801
32738
32887
32853
32891
32964
33174
33183
33234
33367
33475
33559
33622
33799
33754
33572
33607
33606
33447
33197
33063
33121
32869
32823
33071
33129
33076
33319
33325
33137
33150
33272
33211
33109
33095
33065
32865
32790
32886
32647
32595
32708
32529
32301
32438
32535
32495
32669
32604
32385
32383
32508
32615
32551
32577
32717
32607
32730
32774
32614
32569
32539
32359
32068
31952
31973
31824
31923
32194
32263
32185
32244
32365
32230
32215
32362
32221
32191
32435
32382
32391
32431
32101
31903
32052
31940
32007
31887
32183
32062
32275
32277
32203
32305
32165
32111
32196
31952
32039
31823
31910
32094
31982
32133
32055
31989
32179
32084
32021
32135
32007
32082
31935
32079
31879
32012
31921
31897
31975
31828
31847
31519
31479
31463
31557
31811
31892
32212
32143
32308
32091
32087
32022
32095
32035
31972
31961
31733
31728
31503
31596
31468
31403
31500
31429
31608
31486
31668
31670
31698
31879
31827
32038
32015
32311
32180
32250
32229
31951
31891
31426
31133
31009
30979
30806
30988
30977
31167
31382
31444
31692
31725
31732
31901
31688
31533
31653
31588
31708
31564
31632
31412
31391
31378
31342
31495
31455
31735
31759
32039
32079
32109
32196
32108
32221
32047
31995
32002
31781
31765
31767
31573
31655
31575
31593
31893
32005
32364
32700
32751
32963
32791
32960
32951
32743
32671
32314
32214
32119
31983
32110
31940
31887
32098
32084
32317
32231
32437
32606
32669
32967
32772
32804
32849
32674
32737
32735
32601
32699
32517
32422
32579
32391
32380
32535
32491
32730
32699
32722
32995
32967
33190
33141
33183
33391
33204
33204
33241
32999
32990
32863
32460
32375
32063
32131
32028
31855
32064
32292
32428
32757
32847
33025
33375
33470
33501
33567
33466
33152
33095
33171
33017
32775
32897
33061
32905
32985
33199
33179
33181
33265
33244
33052
33031
33127
32942
32691
32727
32767
32723
32714
32811
32679
32579
32633
32807
32798
32775
32739
32911
33028
32961
32844
32977
32844
32775
32922
32860
32918
33100
33149
33011
32916
32829
32604
32611
32794
32639
32694
32771
32740
32943
32799
32628
32641
32437
32351
32437
32389
32252
32210
32234
32023
32163
32364
32470
32887
33071
32980
32898
32851
32879
32691
32420
32359
32201
32117
32292
32211
32152
32231
32074
32063
32223
32263
32295
32536
32548
32559
32735
32548
32601
32577
32362
32391
32506
32413
32426
32599
32422
32639
32658
32597
32620
32775
32646
32695
32854
32739
32773
32913
32737
32852
33094
32939
32924
32999
32763
32628
32653
32812
32711
32530
32628
32735
32583
32679
32750
32885
33039
33112
32920
33113
33098
32947
33119
33219
33039
33157
33398
33332
33457
33517
33304
33239
33246
33075
32895
33028
33092
32940
33007
33193
33199
33146
33186
33191
33126
32853
32759
32813
32746
32567
32702
32836
32767
32957
33077
32921
33007
33233
33247
33101
33154
33219
33141
33115
33141
32949
32815
32849
32586
32415
32452
32177
32279
32446
32343
32511
32809
32743
32839
33003
32903
32884
33031
33076
32884
32839
32885
32729
32548
32533
32655
32497
32679
32908
32929
32964
33199
33131
33109
33300
33145
33054
33060
32915
32907
32871
32812
32763
32756
32757
32806
33136
33463
33613
33975
34029
34151
34351
34271
34285
34388
34188
34252
34236
34084
34084
33828
33853
33819
33577
33663
33671
33427
33505
33686
33739
33719
33937
33959
33894
33943
33840
33703
33856
33849
33663
33743
33583
33359
33240
33341
33415
33239
33309
33481
33516
33358
33448
33618
33594
33645
33775
33654
33583
33577
33265
33210
33109
32861
32895
32821
32595
32661
32796
32751
32563
32615
32526
32320
32289
32365
32173
32212
32325
32072
32062
32052
31743
31665
31675
31453
31475
31687
31652
31863
32173
32163
32135
32355
32314
32263
32205
32172
31893
31893
31986
31950
32117
31955
31781
31914
31895
32066
32439
32423
32590
32660
32630
32664
32714
32711
32552
32426
32439
32103
32053
32103
31783
31771
31847
31995
32099
32119
32222
32348
32425
32613
32767
32775
32727
32881
32950
33031
32935
32807
32568
32390
32159
31967
31847
31622
31713
31861
32079
32126
32276
32427
32541
32455
32611
32802
32697
32628
32676
32582
32478
32476
32238
31901
31813
31777
31641
31814
32070
31975
31926
32101
32020
31948
32127
32099
32307
32564
32619
33039
33155
33451
34019
34359
34794
35373
35786
36142
36981
37732
38407
39332
39803
40610
41195
41309
41960
42285
42581
43205
43390
43804
44117
44129
44381
44455
44151
43718
43509
43154
42463
42423
41951
41309
41077
40492
39877
39287
38300
37721
36534
35389
34411
33410
32612
32189
31702
31442
31311
31076
31019
31092
31143
30955
30878
30945
31079
31007
30951
30973
30783
30567
30483
30204
30025
30158
30150
30159
30355
30445
30526
30774
30806
30671
30685
30797
30655
30563
30575
30255
30170
30157
29989
30081
30190
30210
30461
30529
30661
30997
31015
31079
31234
31250
31147
31146
31300
31167
31084
31223
31082
31009
30967
30983
30877
30933
31053
31306
31419
31425
31527
31663
31634
31628
31711
31805
31687
31629
31677
31676
31405
31271
31291
31050
31018
31111
30918
30919
30971
30875
30967
31223
31119
31118
31343
31298
31165
31191
31279
31111
31020
31082
30910
30918
31026
30885
30932
31189
31107
31135
31292
31215
31208
31429
31390
31487
31712
31637
31572
31641
31568
31400
31478
31405
31268
31382
31445
31415
31660
31996
32058
32329
32660
32837
32666
32711
32721
32519
32287
32196
32143
32031
32015
32127
32016
31965
32063
31963
32063
32364
32526
32596
32943
33012
33111
33246
33193
32871
32801
32802
32533
32427
32546
32542
32502
32383
32619
32547
32508
32619
32551
32791
32805
32853
33111
33055
33121
33285
33109
33165
33191
32903
32895
32804
32662
32789
32747
32681
32935
33118
33047
33250
33436
33267
33364
33366
33263
33325
33423
33506
33277
33241
33259
33007
33015
33067
32868
32878
32994
32948
33234
33383
33308
33595
33668
33484
33623
33466
33251
33287
33287
33091
32978
33031
32865
32821
32837
32655
32865
33004
32969
33047
32920
32965
33031
32881
32639
32687
32764
32620
32661
32807
32509
32468
32557
32491
32496
32652
32719
32671
32564
32647
32764
32631
32659
32901
33085
32972
32938
32751
32412
32327
32260
31932
31870
31943
31724
31667
31844
31815
32103
32063
32212
32477
32268
32379
32439
32270
32405
32300
32188
32191
31955
31726
31722
31735
31559
31520
31687
31745
31780
31972
31914
31883
32023
32103
31979
32107
32231
32108
32124
32176
31975
31707
31764
31734
31655
31740
31609
31358
31303
31349
31314
31568
31803
31742
31886
31968
32061
32044
32190
32295
31910
31708
31542
31367
31532
31492
31737
31911
31975
32085
31956
31909
31985
31790
31559
31516
31392
31287
31382
31327
31303
31375
31430
31207
31281
31461
31397
31665
31779
31711
31913
32004
31932
32098
32031
31789
31765
31852
31623
31615
31580
31300
31364
31383
31293
31494
31519
31637
31895
31796
31915
32111
32099
32136
31792
31854
31799
31706
31924
31831
31671
31635
31458
31623
31522
31699
31825
31733
31898
32102
32186
32447
32477
32495
32545
32249
32216
32169
31992
32086
31839
31916
31959
31905
32145
32156
32324
32543
32577
32775
32718
32605
32767
32844
32655
32570
32710
32913
32807
32802
32573
32271
32406
32510
32515
32727
32647
32963
33141
32967
33028
32919
32724
32870
32903
32765
32882
33004
33030
32900
32901
32867
32629
32463
32572
32563
32434
32614
32803
32852
33222
33045
33031
33130
33055
33116
33187
33081
32866
33015
33003
32829
32887
32751
32724
32967
33010
33135
33278
33177
33316
33460
33236
33347
33236
33191
33351
33100
33124
33215
32956
32865
32920
32717
32770
32908
32895
33189
33300
33129
33421
33391
33391
33435
33189
33095
33069
32875
32855
32871
32743
32547
32634
32647
32583
32775
32698
32870
32983
32878
33125
32966
32847
33055
32988
33108
33055
32709
32775
32519
32646
32413
32151
32102
32065
32318
32436
32691
33087
33141
33265
33394
33084
33069
32901
32708
32756
32619
32438
32508
32314
32290
32324
32117
32321
32189
32431
32227
32410
32418
32351
32567
32510
32817
32839
32641
32693
32679
32461
32653
32484
32465
32487
32132
32122
32034
31975
32063
31936
32007
32097
32140
32454
32495
32655
32742
32495
32578
32527
32284
32311
32272
32224
32399
32438
32605
32875
32796
33002
32998
32871
33018
32842
32903
32990
32775
32713
32751
32535
32679
32707
32629
32707
32549
32820
32863
32874
33017
32884
32871
32990
32927
33190
33201
33255
33407
33279
33077
33182
32870
32842
32972
32835
32839
32845
32671
32703
32877
32798
33123
33020
33062
33287
33304
33247
33379
33357
33283
33335
33109
32948
33097
32889
32981
33020
32889
32901
33028
32826
32951
32867
32957
33151
33115
33199
33287
33036
32719
32622
32412
32023
32093
32186
32103
32439
32607
32667
32938
33148
33415
33622
33660
33525
33308
33183
32990
32974
32923
32835
32767
32903
32829
32567
32564
32601
32467
32739
32799
32863
33075
33031
32915
33174
33167
33209
33252
32965
33086
32983
32832
32953
32877
32911
33084
33057
33052
33261
33303
33517
33775
33879
34071
33911
34031
34210
34028
34188
34037
33865
33951
33560
33542
33549
33580
33733
33591
33676
33799
33620
33799
33639
33720
33560
33334
33488
33444
33214
33351
33245
33240
33260
33069
33215
32858
33007
33020
33079
33303
33255
33343
33441
33197
33483
33383
33345
33327
33041
33125
32894
32775
32802
32527
32547
32615
32463
32356
32329
32311
32165
32357
32284
32156
32282
32477
32449
32554
32749
32679
32756
32738
32564
32488
32408
32101
31956
32025
31900
31927
32071
32213
32217
32292
32441
32231
32223
32359
32119
32263
32262
32067
32015
32112
31989
31935
32069
32063
32014
32135
32203
32261
32479
32420
32465
32612
32458
32647
32725
32711
32902
32818
32697
32695
32444
32501
32287
31945
31958
32039
32042
32404
32457
32340
32531
32543
32527
32685
32606
32730
32500
32572
32483
32371
32415
32246
32326
32436
32303
32527
32551
32599
32906
32827
32623
32775
32767
32717
32775
32479
32476
32358
32172
32124
31873
31953
32052
31892
31828
31833
31735
31599
31838
32038
32122
32514
32729
32791
33122
33420
33764
34175
34400
34991
35322
35719
36364
36827
37164
37850
38246
38869
39532
40030
40702
41541
42085
42389
43195
43525
43943
44404
44231
44203
44157
43627
43652
43195
42671
42260
41535
41162
40913
40471
40196
39886
39182
38948
37956
36626
35591
34434
33674
33085
32476
32355
32010
31805
31705
31583
31741
31691
31578
31486
31225
31239
31091
30994
31047
30879
30971
31095
30889
30790
30511
30382
30370
30259
30510
30572
30721
31047
31063
31142
31209
31150
31047
31083
31103
30975
30989
31191
31125
31031
31068
30884
30931
31071
31119
31099
31259
31301
31237
31385
31505
31409
31382
31455
31415
31206
30983
31071
31055
30921
30974
31124
31133
31298
31515
31357
31271
31303
31102
31290
31528
31485
31631
31495
31391
31515
31461
31255
31239
31340
31132
31023
31111
31079
31300
31519
31550
31525
31639
31578
31567
31684
31566
31620
31734
31623
31823
31777
31686
31570
31299
31290
31405
31289
31354
31548
31495
31763
31997
32007
32178
32007
31853
31821
31633
31751
31781
31932
32079
31887
32087
32100
32194
32468
32352
32439
32625
32634
32495
32700
32575
32671
32676
32647
32735
32476
32540
32382
32218
32251
32127
32273
32551
32527
32868
32925
33010
33065
32911
33121
33031
32835
32931
32807
32767
32958
32907
32646
32743
32916
32843
32876
33017
33019
33127
33287
33230
33468
33585
33511
33567
33629
33517
33631
33572
33518
33645
33437
33414
33447
33165
33375
33423
33479
33783
33737
33678
33851
33771
33604
33835
33820
33574
33721
33627
33519
33567
33338
33239
33332
33255
33417
33559
33667
33899
33750
34015
34007
33799
33940
33823
33900
34055
33853
33696
33679
33757
33549
33445
33413
33183
33187
33343
33383
33348
33539
33363
33263
33213
33015
33335
33175
33431
33303
33126
33172
32988
32878
33002
32999
32725
32859
32793
32597
32717
32718
32628
32693
32738
32711
32848
32959
33005
33203
33179
32950
33045
32942
32695
32729
32519
32467
32598
32353
32397
32375
32342
32351
32103
32183
32199
32254
32346
32170
32253
32479
32503
32499
32464
32302
32205
32175
31998
31922
31943
31803
31823
32102
32116
32085
32167
32039
32105
32247
32102
31927
31892
31719
31580
31621
31571
31519
31663
31837
31767
31759
31812
31692
31839
31970
32059
32028
32147
31959
32026
32206
32099
32036
32065
31871
31687
31823
31769
31818
31847
31799
31786
31794
31721
31680
31795
31618
31540
31735
31844
31618
31732
31594
31526
31609
31397
31312
31284
31169
31317
31300
31561
31542
31812
31804
31763
31953
31845
32102
32127
32053
32083
31874
31784
31729
31463
31234
31365
31365
31492
31674
31534
31685
31723
31750
31955
31994
31975
32101
32212
32061
32061
32091
31908
31751
31783
31567
31358
31405
31623
31549
31847
32162
32167
32297
32587
32629
32565
32662
32612
32407
32332
32171
31879
31700
31804
31802
31735
32084
32212
32429
32875
33133
33127
33236
33097
33005
33110
32943
32751
32764
32572
32372
32342
32439
32358
32279
32448
32553
32773
33012
33116
33303
33308
33031
32916
32879
32637
32618
32595
32484
32519
32332
32192
32380
32270
32218
32421
32437
32563
32820
32863
32821
32966
32935
32796
32876
33116
33167
32967
33071
32932
32771
32860
32738
32775
32734
32509
32679
32711
32713
32665
32671
32583
32444
32594
32722
32554
32708
32711
32634
32686
32460
32447
32533
32426
32375
32469
32359
32407
32646
32573
32557
32786
32635
32887
32916
32763
32874
32662
32591
32719
32709
32532
32477
32439
32263
32077
32118
32412
32532
32367
32431
32438
32263
32463
32368
32343
32476
32318
32380
32284
32124
32131
32071
31874
31613
31732
31710
31807
32171
32231
32399
32671
32645
32733
32694
32487
32404
32407
32225
32308
32204
31977
31911
31860
31679
31935
32015
31863
32123
32233
32291
32565
32573
32655
32807
32639
32775
32611
32421
32454
32187
32055
32274
32197
32244
32359
32433
32534
32492
32498
32672
32493
32439
32550
32551
32439
32506
32375
32375
32451
32303
32429
32546
32412
32580
32652
32673
32767
32717
32704
32751
32621
32616
32647
32583
32775
32762
32775
32824
32517
32514
32550
32380
32487
32286
32474
32597
32381
32367
32357
32278
32490
32381
32402
32558
32407
32522
32484
32519
32564
32303
32373
32225
32151
32148
31940
32189
32106
32171
32419
32344
32490
32594
32518
32611
32555
32455
32630
32440
32599
32595
32539
32616
32413
32287
32390
32476
32440
32493
32499
32583
32787
33029
33270
33287
33391
33438
33211
32938
32982
32848
32813
32945
32756
32982
33111
32935
33151
33282
33397
33735
33719
33991
33836
33775
33871
33703
33964
33809
33821
33799
33637
33791
33556
33748
33583
33698
33524
33443
33460
33255
33527
33472
33444
33287
33031
33212
33030
33137
33220
33038
33134
32854
32803
32559
32316
32460
32433
32603
32821
32798
33201
33159
33443
33113
33268
33005
32966
32939
32833
32765
32500
32674
32351
32202
32234
32124
32364
32396
32532
32725
32724
32690
32428
32511
32347
32257
32263
32068
32066
31847
31805
31735
31611
31663
31718
31939
31893
32164
32191
32341
32531
32596
32856
32863
32858
32885
32727
32885
32651
32518
32443
32247
32253
32291
32158
32381
32348
32475
32485
32495
32763
32612
32647
32595
32400
32511
32295
32191
32007
31911
31867
31780
31879
32007
32246
32183
32509
32492
32733
32684
32789
32850
32750
32657
32498
32516
32259
32245
32215
31988
32173
32020
32118
32287
32300
32519
32327
32366
32495
32514
32719
32637
32934
32871
32811
32767
32577
32565
32278
32294
32047
31955
31967
31743
31751
31884
31761
32038
31974
32024
32231
32299
32556
32743
32750
32839
32707
33013
33159
33566
34096
34467
35108
35446
36096
36476
36852
37207
37478
38076
38427
38855
39732
40210
41037
41661
41725
42503
42601
42905
42503
42214
42044
41479
41729
41412
41156
40582
40044
39481
39059
38696
38407
38439
37868
37143
36455
35221
34293
33455
32998
32886
32553
32303
31991
31684
31623
31528
31386
31510
31493
31365
31447
31271
31177
31151
30919
30677
30702
30605
30541
30537
30283
30068
30015
30083
30081
30365
30638
30672
30919
30948
30919
30971
30763
30828
30726
30485
30573
30478
30368
30396
30283
30412
30319
30538
30636
30697
30847
30932
31181
31135
31311
31414
31274
31445
31299
31269
31261
31004
30979
30887
30684
30705
30847
30746
30834
31017
30917
31124
31183
31284
31404
31438
31577
31342
31452
31300
31374
31335
31263
31349
31229
31284
31309
31017
31095
31095
31279
31520
31460
31603
31807
31675
31769
31618
31557
31545
31302
31369
31500
31457
31701
31655
31595
31647
31681
31841
31972
31791
31771
31863
31802
31711
31866
31884
31855
31864
31942
31964
31917
31948
31962
32055
31815
31807
31855
31799
32135
32277
32204
32449
32512
32559
32645
32479
32617
32430
32302
32315
32113
32117
32346
32271
32349
32527
32407
32801
32916
33083
33261
33287
33589
33372
33412
33284
33056
33124
33045
32750
32703
32702
32597
32647
32805
32793
32898
33159
33167
33510
33519
33411
33491
33344
33503
33415
33321
33446
33244
33212
33251
32946
32964
33079
33023
33263
33300
33335
33463
33440
33815
33979
33989
34278
34269
34190
34229
33878
33719
33607
33325
33388
33247
33116
33406
33461
33516
33679
33765
34119
34064
34092
34037
33791
33788
33855
33676
33674
33748
33559
33383
33460
33244
33071
33196
33286
33127
33119
33126
33031
33206
33237
33180
33495
33436
33352
33566
33426
33227
33340
33253
33031
33079
32857
32678
32891
32887
32879
33095
33167
33180
33090
32875
32559
32612
32351
32203
32183
31889
31847
31732
31590
31599
31506
31732
31775
31818
32231
32261
32388
32519
32380
32511
32310
32152
32170
31982
31823
31892
31719
31589
31596
31482
31609
31551
31530
31633
31447
31471
31447
31343
31663
31746
31796
31874
31773
31908
31809
31721
31734
31543
31509
31483
31345
31484
31403
31629
31727
31759
31919
31712
31916
31879
32013
32063
31990
32031
31868
31781
31749
31445
31462
31239
31208
31222
31145
31092
31300
31359
31595
31877
31879
32116
31933
32138
32057
31940
31909
31749
31823
31565
31433
31398
31145
31084
31055
31090
31343
31291
31581
31588
31684
31917
31924
32177
32000
31902
31843
31710
31772
31629
31647
31458
31253
31176
31055
31206
31381
31365
31617
31700
31693
31927
31913
32037
32167
32161
32398
32372
32311
32191
31812
31733
31648
31684
31915
31813
31991
32029
32070
32143
32127
32382
32316
32295
32352
32162
32437
32391
32471
32263
32197
32109
31906
31908
31966
31911
32201
32239
32189
32447
32679
32663
32793
32964
32837
33044
32804
32727
32676
32590
32722
32613
32599
32668
32462
32642
32538
32655
32660
32487
32620
32473
32351
32503
32435
32581
32861
32836
32914
32988
32697
32754
32809
32694
32877
32735
32903
32914
33009
33171
33124
33341
33198
33156
33046
32879
33083
32826
32708
32689
32561
32603
32500
32545
32699
32579
32660
32656
32588
32874
32903
32839
33062
32862
32775
32871
32725
32698
32732
32484
32263
32320
32335
32257
32404
32338
32095
32089
32101
32191
32567
32637
32711
32823
32687
32805
32943
32815
32811
32793
32495
32484
32477
32284
32283
32419
32309
32620
32675
32567
32597
32517
32495
32716
32549
32571
32479
32437
32683
32604
32647
32685
32332
32231
32135
32011
32274
32272
32332
32547
32434
32750
32591
32775
32667
32621
32733
32613
32639
32666
32519
32491
32469
32331
32505
32275
32405
32439
32374
32447
32367
32806
32879
33095
33234
33092
33217
33065
32820
32695
32327
32269
31877
31939
31738
31917
32013
32067
32359
32385
32533
32733
32717
32794
32917
32706
32767
32727
32575
32554
32532
32373
32519
32487
32585
32619
32629
32895
32727
33005
32791
32973
32839
32955
33146
33038
33216
33170
32727
32511
32324
32020
32211
32172
32043
32327
32487
32547
32647
32539
32679
32734
32569
32770
32732
32700
32780
32730
32549
32603
32324
32236
32297
32199
32223
32289
32189
32575
32667
32908
32996
32950
33188
33042
33173
33134
33048
32955
32817
32772
32477
32321
32353
32132
32198
32330
32455
32828
32885
33076
33111
33236
33471
33382
33405
33389
33148
33285
33125
32961
33074
32975
33085
33209
33273
33566
33513
33670
33837
33731
33982
33861
33741
34023
33963
33915
33839
33932
33799
33775
33493
33361
33236
33242
33227
32951
33191
33071
33183
33265
33250
33543
33538
33540
33591
33344
33319
33271
33025
33164
33087
33004
33101
32997
33057
33109
33055
33510
33407
33554
33214
33135
32919
32799
33050
32903
32759
32775
32663
32671
32462
32602
32475
32546
32583
32447
32706
32604
32703
32579
32505
32544
32308
32556
32326
32431
32206
32127
32270
32145
31917
32007
31818
31581
31722
31890
32049
32312
32263
32438
32612
32549
32718
32749
32621
32755
32639
32711
32651
32305
32309
32019
31930
31879
31863
31985
31911
32036
32131
32074
32279
32240
32257
32407
32365
32260
32404
32212
32149
32182
31975
31976
32115
32204
32375
32391
32519
32545
32388
32493
32525
32476
32663
32662
32749
32728
32746
32720
32625
32508
32336
32212
32175
32111
32475
32600
32675
32932
32935
33117
33037
32903
32713
32652
32503
32148
32127
32015
31795
31815
31765
31692
31855
31900
31796
31833
31957
31815
32041
32151
32302
32645
32642
33019
33287
33535
34097
34389
34919
35516
35759
36044
36925
37360
38111
38694
39143
39943
40324
40959
41590
41954
42959
43351
43751
44305
44308
44369
44476
44039
43846
43716
43015
42679
42327
41725
41735
41236
40952
40518
39908
39849
39155
38401
37503
36116
34851
33957
32966
32439
31919
31533
31575
31450
31493
31564
31471
31674
31559
31484
31404
31215
31019
30995
30961
30768
30807
30567
30411
30346
30208
30246
30370
30215
30204
30391
30367
30462
30679
30583
30764
30935
30911
31118
31010
30781
30801
30655
30615
30597
30466
30378
30513
30484
30460
30559
30488
30701
30837
30778
30943
31020
31039
31150
31500
31573
31460
31388
31326
31185
31159
31178
31094
31055
31207
31220
31142
31310
31412
31402
31671
31607
31401
31589
31654
31532
31567
31527
31292
31334
31228
30991
30983
31066
31075
30993
31255
31278
31340
31487
31415
31663
31633
31671
31773
31649
31727
31751
31535
31458
31385
31103
31247
31418
31316
31605
31586
31551
31803
31946
31964
32153
32151
32293
32374
32224
32039
32033
31851
31920
31707
31623
31729
31668
31858
31729
32063
32096
32377
32549
32479
32591
32364
32541
32431
32414
32461
32295
32340
32428
32333
32502
32463
32391
32460
32415
32519
32542
32505
32775
32767
32775
32827
32657
32665
32839
32710
32630
32788
32715
32759
32711
32419
32485
32483
32433
32634
32591
32615
32706
32719
32764
32999
32957
32747
32947
32876
32699
32975
32879
32804
32948
32919
32813
33063
33103
32924
33028
32935
32716
32935
32951
32954
33172
33106
32926
33149
33054
33090
32959
32814
32765
32541
32743
32661
33025
32947
33095
33253
33167
33476
33412
33251
33124
32923
32971
32767
32759
32794
32623
32735
32730
32599
32767
32663
32727
32753
32657
32949
32886
32983
33004
32835
33077
33011
32998
32999
32802
32689
32572
32391
32449
32263
32244
32364
32253
32544
32605
32647
32655
32603
32861
32768
32903
32844
32663
32728
32479
32591
32343
32207
32098
31904
31847
31775
31975
31834
32095
32068
32162
32306
32369
32666
32639
32685
32725
32413
32455
32229
31850
31876
31771
31903
32092
32017
32278
32244
32229
32152
32166
32181
32050
31986
32091
32125
32100
32142
32263
32196
32214
32287
32199
31941
31975
31839
31639
31663
31839
31844
32068
32263
32260
32335
32423
32486
32399
32289
32351
32111
31887
31750
31567
31378
31495
31623
31700
31975
32287
32435
32750
32968
32884
32639
32636
32377
32140
32069
32093
31924
31825
31719
31677
31430
31269
31238
31353
31440
31556
31818
31922
31844
32058
32231
32053
31963
32036
31879
31902
31964
31946
31829
31604
31689
31719
31578
31777
31743
31624
31919
31948
32049
32199
32236
32427
32438
32347
32463
32463
32324
32357
32127
32154
32189
32004
31927
32329
32493
32634
32895
32692
32749
32807
32749
33053
33012
32820
32962
32747
32580
32453
32207
32209
32030
32044
32208
32207
32508
32564
32556
32659
32639
32743
32754
32721
32938
32871
32877
32884
32583
32767
32495
32351
32335
32143
32277
32217
32419
32575
32695
33138
33199
33324
33391
33319
33413
33175
33099
32871
32775
32683
32508
32527
32605
32623
32748
32753
33005
33103
33214
33269
33056
33239
33105
33191
33236
33178
33414
33185
33090
32999
32806
32724
32684
32758
32623
32790
32980
33065
33269
33205
33375
33381
33287
33463
33342
33189
33255
33091
33198
33050
32936
32973
32807
32829
32767
32860
33049
33023
33191
32919
33031
32918
32826
32954
32821
33095
33031
32887
33111
33131
33173
33233
33051
33086
32845
32807
32759
32526
32617
32615
32404
32418
32412
32373
32580
32431
32501
32668
32634
32519
32284
32405
32207
32221
32067
32226
32294
32303
32475
32398
32644
32732
32636
32896
32750
32653
32553
32373
32391
32206
32324
32361
32207
32302
32180
32077
32245
32455
32630
32733
32797
32839
32855
32558
32555
32460
32311
32515
32469
32301
32250
32159
32181
32111
32057
32279
32255
32394
32578
32545
32647
32786
32721
32863
32943
32738
32715
32832
32687
32596
32486
32261
32462
32389
32419
32469
32396
32742
32869
32901
33212
33255
33341
33474
33322
33287
33308
33093
33067
32973
32677
32347
32356
32335
32199
32363
32543
32615
32718
32764
32687
32539
32767
32759
32602
32710
32775
32631
32645
32881
32843
32825
32807
32564
32708
32692
32594
32714
32588
32659
32678
32692
33000
32981
32975
33069
33050
33026
33079
32750
32852
32693
32675
32713
32673
32910
32886
33003
33260
33258
33183
33388
33284
33031
33055
32731
32492
32711
32707
32705
32837
32527
32484
32551
32449
32792
32806
32819
32999
32961
32998
33151
33036
33258
33398
33415
33585
33447
33365
33473
33236
33218
33351
33221
33268
33434
33444
33715
33903
33869
34143
33999
33747
33787
33503
33361
33327
33121
32940
32892
32870
32739
32648
32878
33007
33126
33360
33543
33516
33538
33470
33255
33167
33140
33074
32956
33167
33190
32943
33018
32911
32686
32573
32583
32437
32331
32495
32511
32527
32795
32883
33012
33131
33206
32981
32852
32782
32511
32223
32211
32109
31918
32012
31989
31839
31931
31935
31819
32055
32156
32148
32320
32351
32151
32262
32121
31967
32179
32137
31900
31957
31798
31705
31783
31665
31930
32100
32187
32244
32089
32263
32135
32142
32151
32149
32233
32015
32038
31911
31854
31813
31676
31779
31526
31708
31657
31853
32039
32055
32407
32369
32375
32446
32363
32151
32230
31989
31817
31719
31522
31728
31605
31583
31699
31799
32108
32213
32532
32728
32701
32911
32775
32767
32896
32772
32491
32447
32271
32303
32198
31903
31900
31775
31815
31967
31999
32124
32422
32420
32561
32668
32542
32567
32583
32343
32287
31895
31622
31412
31061
31175
31111
31328
31669
31782
32199
32741
33118
33905
34415
34927
35345
35765
36447
37028
37683
38438
38805
39495
39900
40453
41073
41652
42077
42741
43311
43385
44039
44173
44423
44484
44279
44420
43998
43351
43191
42551
42196
41757
40937
40439
39732
38882
38389
37468
36717
35921
34788
33783
33060
32613
32014
31797
31619
31280
31268
31145
30996
30911
30550
30444
30196
30063
30162
30106
30310
30408
30235
30256
30215
30062
30150
30154
30050
30096
29887
29919
29930
29924
30036
29779
29831
29798
29730
29655
29677
29831
30071
30251
30357
30569
30815
30885
31127
31173
30983
31015
30999
30803
30623
30421
30247
30295
30209
30375
30330
30539
30716
30852
31069
31031
31271
31383
31351
31514
31323
31324
31213
30966
30973
30817
30812
30956
30885
31103
31147
31284
31457
31491
31691
31705
31855
31853
31482
31359
31054
31001
31004
30852
30874
30740
30769
30770
30615
30625
30567
30719
30639
30630
30838
30830
31035
31135
31276
31391
31353
31527
31377
31573
31348
31322
31236
31099
31180
30945
31075
31135
31196
31471
31510
31649
31778
31822
32114
32075
32239
32141
31887
31897
31711
31735
31800
31879
32056
31999
32223
32263
32169
32465
32430
32569
32621
32622
32868
32825
32968
32850
32659
32607
32396
32455
32333
32212
32263
32166
32249
32423
32319
32570
32497
32497
32567
32535
32865
32775
32942
32943
32865
33004
32919
32912
32980
32844
32991
32849
32823
32842
32639
32658
32623
32877
32982
32997
33283
33210
33463
33506
33475
33449
33361
33487
33130
33212
33022
32958
32964
33007
33367
33372
33508
33559
33367
33530
33449
33346
33437
33254
33263
33156
33083
33108
33045
32967
33201
33122
33102
33325
33360
33463
33559
33411
33649
33692
33625
33785
33599
33644
33375
33063
33047
32758
32473
32470
32557
32518
32695
32890
32972
33202
33255
33155
33270
33051
33047
32868
32594
32404
32205
32391
32311
32358
32357
32245
32254
32089
32326
32271
32508
32703
32620
32900
32851
32806
32786
32620
32608
32516
32343
32341
32118
31892
32023
31917
31971
32113
32026
32125
32248
32142
32257
32487
32473
32459
32628
32855
32831
32919
32820
32634
32423
32058
32005
31719
31846
31605
31839
31793
31994
32043
32148
32150
32079
32164
32138
32419
32337
32337
32314
32107
32082
31770
31627
31650
31615
31846
31697
31672
31706
31551
31783
31766
31875
31865
31934
31979
31809
31866
31767
31569
31671
31442
31377
31422
31360
31497
31641
31670
31888
31967
31927
32045
32007
32183
32023
31919
31879
31770
31828
31669
31623
31586
31297
31311
31319
31173
31247
31279
31437
31647
31689
31939
31886
31751
31917
31828
31585
31683
31703
31631
31750
31837
31751
31877
32064
32044
32189
32212
32102
32105
32156
32052
32118
32203
32038
32072
32042
32047
32070
31967
31995
31822
32036
31953
31950
31835
31605
31822
31791
32167
32190
32306
32471
32302
32508
32374
32496
32541
32591
32661
32471
32439
32263
32284
32310
32343
32444
32487
32684
32549
32821
32654
32748
32831
32863
32909
32941
32954
32714
32907
32756
32620
32510
32288
32396
32297
32394
32611
32558
32805
32871
32830
32735
32879
32967
33056
32939
32977
32791
32660
32729
32631
32587
32402
32347
32364
32453
32447
32519
32596
32902
32958
33089
33276
33143
33327
33055
32964
32877
32590
32684
32567
32515
32436
32293
32567
32643
32882
33179
33198
33388
33340
33361
33380
33399
33519
33274
33194
33132
32976
33124
32871
32727
32627
32506
32673
32516
32679
32577
32668
32690
32704
32751
32719
32741
32690
32801
32554
32669
32399
32673
32551
32568
32555
32462
32718
32719
32874
32900
32885
32934
32751
32741
32535
32646
32549
32748
32549
32582
32592
32719
32807
32606
32637
32447
32483
32530
32441
32697
32636
32713
32775
32579
32639
32663
32511
32660
32622
32612
32711
32571
32645
32583
32407
32311
32246
32188
32495
32417
32627
32799
32754
33039
32991
32853
32826
32566
32581
32405
32335
32319
32183
32367
32354
32495
32722
32830
33095
33279
33175
33347
33117
33007
32843
32503
32335
32146
32342
32295
32337
32542
32299
32431
32367
32252
32478
32342
32356
32647
32746
32853
33115
33207
33323
33485
33428
33135
33167
32909
32508
32431
32294
32031
32151
32295
32141
32391
32391
32378
32753
32835
32863
33164
33307
33148
33287
33100
33125
33119
33062
33010
32792
32420
32321
32091
31999
32135
32332
32375
32591
32695
32614
32893
32889
32807
33015
32940
32773
32799
32593
32372
32519
32407
32211
32376
32300
32206
32527
32541
32676
32940
32903
32846
32972
33132
33023
32960
33009
32912
32699
32790
32775
32591
32676
32695
32455
32426
32437
32551
32599
32557
32588
32885
32933
32945
32895
33161
33162
32924
32979
32954
32788
32799
33005
32948
33242
33316
33268
33649
33787
33836
33978
34135
34102
34391
34316
33979
34052
33989
33813
33651
33555
33161
32828
32870
32846
32870
32940
33268
33500
33452
33521
33664
33551
33424
33611
33489
33287
33345
33212
32992
32829
32785
32602
32785
32744
32858
32863
32708
32955
32949
32903
33214
33227
33026
33085
32933
32773
32843
32727
32753
32765
32477
32437
32423
32346
32334
32482
32645
32569
32634
32732
32559
32397
32515
32519
32514
32404
32539
32511
32180
32084
32015
31836
31852
31813
31700
31810
31783
31655
31835
31907
31847
32065
32200
32106
32255
32391
32261
32287
32230
31998
32189
32042
32103
32196
32279
32518
32455
32575
32668
32527
32295
32172
31934
31927
32047
32079
32097
32134
32204
32108
32219
32260
32113
32073
32167
32103
32215
32471
32613
32543
32565
32686
32564
32556
32572
32420
32306
32286
31995
31670
31695
31701
31608
31751
31883
31919
31889
32221
32191
32252
32415
32522
32801
32867
32828
33076
32975
32727
32747
32403
32007
31861
31749
31575
31492
31631
31590
31450
31705
31769
31671
31823
31906
31901
32207
32567
32746
32975
33445
33756
34220
34986
35415
35913
36708
37117
37588
38527
38903
39453
40024
40268
40711
41436
41740
42343
43130
43495
43967
44620
44865
44682
44919
44671
44116
43795
43218
42545
42503
42111
41633
41535
40991
40295
39650
38616
37658
36535
35428
34121
33183
32510
31946
31712
31375
31271
31247
31163
31439
31460
31333
31170
30907
30636
30708
30642
30814
30639
30543
30439
30149
30092
29954
29953
29979
29907
29984
30128
30110
30004
30161
30281
30351
30591
30514
30469
30533
30495
30308
30365
30340
30186
30316
30497
30437
30647
30775
30719
30855
30930
30921
31151
31313
31239
31197
31263
31247
31132
31042
30977
30863
30623
30541
30665
30545
30663
30947
31000
30948
31183
31271
31254
31383
31330
31220
31287
31430
31399
31214
31177
31148
30943
31026
31114
31071
31131
31207
31159
31220
31465
31570
31516
31652
31591
31366
31435
31324
31119
31151
31015
30759
30815
30727
30607
30831
31083
31185
31275
31415
31519
31383
31532
31604
31551
31748
31833
31709
31812
31879
31672
31588
31646
31557
31621
31690
31407
31636
31921
31988
32252
32322
32351
32565
32583
32575
32650
32514
32283
32270
31967
32131
31997
32026
32179
32140
32292
32424
32452
32593
32698
32927
32847
32974
33077
32957
33219
33248
33214
33351
33165
33103
33159
33018
33059
32999
32903
33041
32750
32935
32892
32879
32983
33004
33188
33005
32969
33057
32814
32893
32891
32773
32866
32735
32790
32862
32858
32931
33167
33142
33327
33540
33637
33748
33938
33863
33888
33789
33652
33539
33287
33187
33100
33012
33283
33173
33134
33399
33511
33517
33847
33894
34120
34139
34001
34311
34163
33851
33882
33510
33254
33146
32850
32846
32880
32630
32770
32821
32879
33113
33077
33231
33292
33287
33527
33479
33364
33364
33171
33059
32999
32811
32863
32725
32359
32455
32399
32668
32855
33011
32951
32863
32814
32607
32730
32495
32818
32867
32804
32720
32564
32675
32581
32592
32612
32645
32713
32671
32728
32563
32679
32537
32465
32562
32423
32453
32263
32144
32220
32028
32125
31918
31668
31676
31759
31767
31846
31983
31929
32096
32362
32254
32406
32442
32350
32373
32337
32038
32143
32124
31902
31839
31680
31580
31674
31723
31741
31849
31807
31823
31871
31780
31812
31912
31895
31903
31919
31623
31684
31587
31535
31545
31316
31207
31175
31031
31294
31346
31551
31751
31789
32055
32058
31949
31947
32063
31996
31802
31751
31615
31371
31404
31436
31343
31287
31409
31334
31463
31648
31532
31495
31556
31391
31575
31543
31743
32066
32042
32139
32068
31950
31879
31607
31431
31353
31068
31140
31300
31339
31607
31623
31773
32013
31944
31914
32002
31940
31971
32010
31800
31719
31801
31596
31517
31495
31372
31228
31527
31655
31797
31996
31998
32215
32223
32129
32319
32212
32102
32108
31943
32023
32103
32099
32103
32023
32358
32413
32496
32753
32745
32654
32732
32601
32527
32695
32588
32577
32643
32599
32684
32575
32483
32485
32283
32429
32351
32263
32484
32604
32572
32766
32615
32742
32975
32940
33079
33260
33143
32948
33090
33031
32815
32871
32751
32638
32723
32551
32628
32828
32831
32884
33130
33111
32966
33244
33238
33164
33441
33415
33485
33425
33103
33183
32854
32845
32629
32595
32707
32551
32650
32863
32822
33108
33055
33135
33271
33130
33140
33075
32886
32932
32661
32687
32663
32435
32583
32727
32735
33004
32994
32889
32911
32791
32643
32562
32431
32686
32547
32367
32430
32297
32428
32615
32412
32578
32441
32503
32551
32599
32756
32855
33004
32812
33071
32899
32852
32798
32597
32552
32471
32164
32238
32035
32221
32294
32124
32330
32543
32567
32758
32671
32756
32905
32804
32810
32760
32635
32791
32916
32852
32801
32752
32601
32596
32572
32277
32495
32547
32479
32593
32532
32679
32715
32743
32891
32771
33003
32897
32855
32925
32527
32511
32329
32303
32472
32359
32400
32710
32830
33008
33283
33325
33151
33327
33268
33076
33135
32962
32769
32747
32565
32423
32421
32197
32365
32183
32493
32471
32861
32999
33103
33308
33263
33165
33398
33306
33204
33341
33171
32986
32943
32559
32563
32340
32407
32489
32457
32711
32724
33159
33223
33358
33271
33308
33397
33162
33275
33027
32927
32981
32848
32917
32859
32820
32887
32736
32903
32815
32994
33129
33025
33255
33247
33192
33383
33174
33275
33330
33111
33253
33003
32859
32944
32831
32924
32964
32717
32732
32855
32708
32995
33054
33003
33142
32974
33037
32931
32735
32887
32716
32692
32661
32568
32707
32603
32574
32610
32764
32876
32806
32933
32928
33100
33221
33107
33383
33407
33511
33420
33086
33071
32788
32739
32724
32572
32671
32844
32924
32983
33197
33206
33108
33317
33438
33349
33237
33203
33031
32949
33096
32966
32825
33011
33172
33166
33244
33309
33140
32949
33183
33351
33245
33317
33514
33516
33415
33719
33999
33930
33748
33927
33914
33687
33806
33869
33647
33663
33984
34111
34113
34489
34380
34471
34679
34535
34335
34343
34027
33818
33732
33437
33380
33439
33278
33523
33479
33647
33511
33485
33646
33421
33521
33510
33622
33783
33534
33531
33676
33458
33686
33447
33405
33343
33019
33061
32965
32763
32847
32807
33031
33314
33387
33339
33201
32980
33114
32895
33020
32839
32575
32394
32145
32248
31984
32164
32031
32047
32007
32101
32324
32247
32559
32575
32674
32847
32667
32775
32394
32580
32519
32388
32413
32143
32243
32129
32105
32247
32410
32449
32334
32485
32597
32553
32426
32492
32641
32711
32667
32660
32441
32575
32430
32332
32486
32422
32583
32570
32559
32645
32517
32487
32455
32365
32603
32579
32613
32693
32636
32719
32578
32533
32543
32296
32324
32036
32176
32098
32231
32371
32430
32511
32457
32681
32740
32847
33062
33055
33199
33215
32913
32892
32713
32356
32294
32134
32151
32151
32243
32495
32519
32602
32321
32519
32492
32543
32575
32439
32294
31847
31749
31645
31529
31813
31798
32147
32311
32461
32812
32982
33436
33724
34043
34846
35335
35704
36516
37049
37567
38595
38919
39277
39762
39807
40332
40829
41366
42143
42327
43411
43916
44481
44724
44675
44982
44789
44391
44090
43328
42663
42092
41246
40486
40404
39898
39311
38935
38579
37683
36799
35783
34623
33807
33303
32795
32428
32098
31894
31671
31567
31263
31235
31307
31253
31069
31100
30974
30738
30687
30722
30695
30663
30662
30700
30735
30601
30533
30543
30440
30451
30561
30453
30240
30111
30159
30343
30305
30300
30414
30417
30607
30718
30645
30763
30632
30700
30763
30676
30817
30994
30831
30745
30799
30618
30613
30767
30911
30798
30893
31079
31046
30871
31005
30975
30777
30875
30919
30990
31109
31002
31111
30869
30922
30941
30801
30871
30996
30854
30975
31035
30991
31167
31188
31204
31541
31380
31577
31495
31437
31487
31288
31431
31388
31377
31463
31332
31275
31286
31239
31503
31463
31537
31794
31893
32007
31996
31597
31695
31679
31495
31631
31519
31591
31564
31310
31278
31205
31483
31677
31847
32071
31951
31941
32052
31884
32039
32260
32135
32135
32255
32151
31954
32055
32039
31796
31982
32142
31947
32132
32079
32021
32245
32263
32175
32405
32709
32799
32823
32908
32905
32805
32668
32701
32614
32445
32223
32287
32196
32071
32284
32310
32391
32598
32569
32711
32935
32967
33031
33156
33023
32972
32972
32756
32631
32604
32583
32503
32764
32837
33066
33359
33303
33655
33623
33659
33663
33439
33575
33543
33420
33665
33598
33259
33287
33277
33188
33450
33439
33595
33927
33812
33932
33831
33900
34017
33824
33970
33917
33973
33991
33663
33911
33807
33734
33774
33658
33701
33429
33553
33503
33405
33707
33606
33437
33755
33821
33895
34037
33815
33967
33918
33671
33570
33287
33277
33373
33057
33236
33240
33332
33377
33391
33588
33407
33647
33553
33498
33530
33448
33327
33355
33319
33143
33018
32941
32707
32485
32556
32386
32438
32629
32659
33022
32937
32990
32926
32802
32924
32711
32675
32517
32189
32245
32191
32032
32127
32237
32177
32272
32491
32295
32305
32351
32288
32239
32070
32197
32263
32098
31825
31863
31967
31732
31593
31479
31349
31518
31355
31518
31588
31415
31595
31659
31599
31833
31887
31920
31985
31942
31852
32039
31915
31767
31735
31564
31626
31402
31345
31421
31358
31598
31558
31647
31732
31791
31847
31788
31599
31769
31911
31660
31566
31565
31311
31255
31351
31263
31310
31386
31588
31782
31785
31592
31658
31895
31820
31881
31919
31751
31832
31678
31668
31767
31398
31445
31463
31399
31425
31271
31465
31420
31457
31677
31674
31908
31791
32002
31943
31895
31911
31782
31783
31531
31404
31420
31237
31377
31540
31485
31693
31786
32049
32374
32325
32631
32591
32463
32415
32004
31814
31583
31552
31691
31636
31779
31639
31911
32047
32082
32346
32263
32447
32542
32385
32570
32742
32606
32687
32821
32570
32681
32359
32391
32254
32377
32402
32527
32775
32727
33148
33229
33229
33415
33287
33480
33333
33101
32948
32566
32500
32447
32342
32143
32184
32338
32324
32481
32612
32590
32799
32701
32967
32932
33022
33165
33015
33212
33039
32957
32956
32821
32991
32902
32886
32890
32627
32769
32717
32660
32830
32708
32882
33135
32994
33084
33093
33079
33240
33007
33214
32967
32775
32630
32462
32527
32367
32636
32647
32677
32791
32628
32935
32712
32870
32799
32717
32791
32710
32812
32838
32599
32764
32566
32620
32549
32588
32511
32263
32399
32364
32342
32451
32533
32390
32327
32404
32199
32324
32428
32271
32581
32668
32530
32458
32244
32171
32152
32007
32143
32394
32508
32594
32903
32994
32819
32866
32977
32828
32548
32397
32071
31963
32063
31860
31788
31916
31880
32295
32367
32279
32519
32704
32603
32645
32700
32642
32628
32659
32374
32417
32452
32396
32490
32346
32210
32372
32379
32395
32547
32470
32519
32743
32653
32791
32645
32705
32807
32568
32629
32476
32248
32463
32319
32276
32359
32286
32491
32373
32677
32805
32763
32925
32895
33101
32958
32908
33068
33191
33132
33231
33080
33031
32967
32775
33004
32911
32936
32957
32606
32480
32591
32554
32922
32916
32700
32866
32743
32668
32706
32528
32597
32539
32185
32169
32239
32153
32387
32332
32487
32701
32703
32708
32910
32844
32903
33061
32894
33117
33031
32887
32881
32623
32616
32330
32207
32279
32226
32395
32361
32775
32767
33082
33199
33335
33420
33273
33324
33158
33274
33103
32971
32769
32559
32727
32708
32909
32956
32943
32947
32796
32866
32820
32876
32813
33112
33003
33277
33187
33244
33348
32993
32950
32639
32457
32529
32503
32853
32988
33108
33281
33220
33287
33388
33351
33484
33383
33734
33788
33785
33987
33786
33943
33919
33841
33927
33681
33575
33564
33338
33590
33431
33642
33835
33716
33816
33541
33542
33598
33372
33455
33329
33126
33191
32871
32999
32945
32856
33078
33343
33322
33535
33607
33577
33666
33535
33524
33458
33040
32838
32797
32644
32609
32703
32495
32519
32637
32535
32681
32613
32450
32511
32324
32386
32374
32151
32215
32380
32166
32180
32271
32060
32090
32099
31859
31975
31880
31791
31962
31982
32021
32279
32405
32399
32495
32271
32132
32109
31883
31973
31851
31814
31847
31623
31786
31727
31733
31815
31686
31690
32007
31975
32131
32228
32144
32286
32271
32169
32381
32359
32260
32259
31959
31972
32054
31876
31987
32029
31832
32060
31965
32129
32362
32311
32361
32497
32377
32581
32583
32295
32305
32191
32090
32161
31991
32055
32159
32139
32340
32294
32375
32587
32466
32527
32509
32296
32263
32380
32202
32323
32289
32141
32087
32223
32289
32246
32135
32295
32504
32391
32526
32529
32362
32519
32469
32372
32476
32349
32247
32215
31980
32055
32057
32006
32278
32350
32453
32887
33275
33711
34418
35023
35362
35765
36359
36711
36866
37430
37709
37695
38245
38561
38817
39185
39833
40513
40810
41149
41806
42193
42333
42526
42585
42101
42286
41894
41644
41191
40361
40108
39426
38821
38788
38439
38017
37726
36975
35981
35076
33982
33284
33181
32999
32773
32594
32022
31765
31644
31393
31316
31401
31309
31135
31012
30967
30772
30471
30396
30489
30404
30580
30855
30867
30977
31127
31023
31025
31229
31114
31190
31181
31175
31175
31148
30889
30754
30699
30404
30327
30522
30604
30615
30791
30869
30702
30855
31140
31308
31297
31335
31503
31381
31228
31290
31175
30983
31022
31183
31036
31105
31231
31258
31415
31316
31255
31353
31166
31085
31207
31123
31182
31383
31294
31358
31669
31514
31391
31404
31149
31071
31158
30991
31063
31146
31117
31050
31179
31324
31291
31348
31389
31335
31230
31249
31341
31311
31195
31263
31367
31335
31407
31620
31980
32018
31879
31940
32007
32145
32079
32047
32134
32197
32066
32013
32023
31983
31775
31751
31922
31831
31815
31931
32071
31946
32012
32215
32153
32364
32567
32589
32445
32516
32611
32472
32390
32381
32145
31887
31806
31879
32085
32236
32262
32519
32535
32423
32699
32823
32789
33004
33050
32893
32971
32950
32683
32559
32609
32590
32519
32612
32973
33143
33304
33533
33566
33649
33757
33603
33529
33498
33416
33220
33315
33015
32828
32828
32569
32495
32742
32837
32866
33108
33166
33364
33777
33844
33765
34011
33951
33778
33785
33468
33552
33511
33407
33450
33253
33452
33287
33355
33636
33651
33902
33856
33916
34138
34175
34126
34311
34166
34036
33975
33619
33652
33549
33510
33702
33631
33466
33711
33455
33647
33553
33415
33490
33319
33422
33583
33492
33734
33605
33520
33409
33247
33276
33031
32974
33034
32930
33142
33239
33380
33524
33266
33415
33241
33114
33153
32910
32980
32959
32870
32903
32819
32707
32687
32707
32423
32429
32426
32151
32195
32135
31927
32108
32293
32468
32773
32925
32765
32727
32682
32306
32062
31957
31743
31641
31686
31629
31535
31476
31535
31563
31811
31941
31943
32101
32222
32031
32103
32066
31732
31767
31846
31585
31483
31478
31310
31430
31566
31507
31713
31619
31810
31830
31820
31945
31695
31729
31764
31639
31706
31557
31439
31475
31282
31274
31351
31237
31393
31567
31597
31839
31790
31639
31780
31842
31782
31796
31505
31375
31461
31281
31173
31295
31156
31245
31364
31279
31408
31444
31486
31709
31655
31719
31901
31773
31758
31908
31946
31783
31749
31798
31559
31319
31311
30993
30907
31082
31087
31268
31617
31579
31814
31831
31850
32002
31943
31814
31876
31868
31762
31807
31633
31721
31714
31621
31889
31853
32031
32239
32250
32421
32403
32663
32831
32789
32967
32644
32583
32433
32275
32379
32094
32067
31965
31849
31940
31916
31908
32135
32063
32277
32656
32655
32876
32918
32769
33025
32849
32817
32807
32607
32725
32519
32421
32534
32428
32599
32593
32631
32815
32740
32815
33004
32797
32988
33087
33007
33029
32657
32695
32518
32439
32509
32260
32290
32195
32173
32383
32343
32548
32719
32645
32822
32719
32868
32925
32894
33070
33058
32908
32989
32996
32743
32670
32612
32285
32237
32385
32387
32301
32408
32622
32500
32685
32624
32502
32610
32458
32543
32749
32621
32631
32550
32304
32359
32198
32367
32300
32357
32642
32647
32735
32843
32701
32770
32893
32896
32594
32556
32443
32208
32297
32228
32135
32159
32111
32087
32287
32509
32463
32522
32788
32679
32615
32672
32372
32405
32532
32291
32293
32299
32061
32053
32099
31917
31975
31868
32036
32391
32456
32655
32967
32895
32760
32847
32829
32575
32542
32541
32441
32180
32243
32403
32314
32298
32317
32024
32003
32161
32241
32143
32259
32458
32475
32368
32460
32604
32639
32484
32501
32505
32304
32231
32310
32202
32223
32391
32431
32417
32666
32839
32799
32879
33013
32923
32743
32732
32769
32681
32566
32412
32532
32501
32455
32524
32413
32383
32580
32575
32695
32903
32738
32751
32932
32910
33023
33145
33063
32906
32729
32863
32935
32719
32661
32655
32421
32273
32325
32177
32179
32474
32682
32719
32994
33097
33031
33175
33332
33251
33213
33263
33066
32707
32584
32446
32287
32039
32098
32326
32386
32326
32457
32708
32860
32848
32911
33187
33191
33174
33271
33347
33131
33262
33077
32691
32745
32816
32621
32741
32956
33099
33300
33667
33663
33653
33589
33253
33131
33103
32975
32804
32855
32951
32839
32679
32762
32694
32593
32741
32955
33071
33090
33301
33505
33531
33657
33855
33860
33703
33847
33927
33863
33589
33711
33831
33727
33834
34025
33962
33838
33943
34104
34168
34047
34006
34010
33915
33624
33403
33415
33229
32916
32726
32658
32593
32527
32647
32794
32789
32943
33350
33543
33538
33543
33631
33569
33478
33486
33460
33197
33015
33029
32932
32673
32610
32665
32531
32439
32679
32767
32647
32719
32878
32805
32962
33228
33159
33106
33041
32821
32546
32583
32655
32519
32368
32445
32550
32356
32177
32213
32195
32180
32108
32229
32417
32439
32334
32455
32545
32309
32331
32388
32178
31915
31883
32002
32095
32038
32043
32306
32505
32587
32629
32743
32863
32951
32962
32863
32919
32874
32610
32263
32028
31796
31647
31545
31741
32007
32111
32205
32423
32466
32276
32297
32348
32455
32507
32639
32765
32707
32459
32362
32381
32303
32036
32047
32148
32208
32221
32201
32385
32615
32599
32684
32815
32796
32635
32651
32657
32439
32211
32045
31879
31780
31714
31692
31890
32061
32263
32319
32391
32588
32821
32942
32730
32462
32339
32126
32135
31986
31924
32157
32386
32660
32692
32740
32991
33410
33799
34207
35024
35812
36313
36775
37298
37828
38260
38799
39427
40076
40327
40755
41060
41342
41932
42381
42713
42919
43266
43710
44270
44387
44310
44358
44191
43559
42948
42383
42079
41620
40967
40189
39852
39371
38638
37869
36957
36228
35236
34138
33222
32708
32281
31935
31677
31591
31580
31487
31421
31388
31370
31206
30974
30836
30786
30756
30766
30838
30792
30533
30495
30433
30407
30228
30116
30136
30262
30196
30263
30359
30466
30285
30188
30277
30373
30284
30164
30119
30113
30277
30312
30276
30287
30432
30463
30591
30868
30926
31078
31011
30855
30799
30737
30559
30460
30502
30655
30606
30743
31083
31239
31255
31477
31649
31687
31503
31427
31314
31001
30701
30636
30751
30660
30631
30636
30726
30747
30775
30905
31082
30935
31069
31238
31375
31381
31328
31423
31529
31417
31414
31375
31223
31116
31111
31146
31038
30962
31111
31327
31378
31543
31688
31660
31595
31679
31786
31701
31607
31641
31566
31439
31628
31709
31541
31621
31751
31597
31509
31455
31351
31374
31567
31828
31825
31879
31989
32092
32191
32340
32472
32426
32278
32337
32247
32037
31767
31780
31993
32171
32251
32244
32544
32786
32719
32764
32959
32810
32804
32911
32863
32645
32715
32830
32775
32629
32424
32179
32235
32358
32303
32404
32493
32749
32777
32683
32839
32929
32644
32657
32687
32558
32295
32444
32585
32561
32654
32847
32871
32815
33047
33263
33301
33175
33411
33415
33191
33327
33364
33164
33271
33325
33071
33116
33052
32815
32811
32919
32858
32975
33175
33102
33255
33463
33428
33351
33543
33439
33268
33308
33151
32956
32926
33065
33116
32959
32911
33105
33131
33063
33399
33468
33351
33465
33585
33484
33374
33601
33759
33591
33457
33143
33118
33105
32995
32869
32749
32876
32998
33111
33187
33357
33496
33634
33527
33378
33175
33175
33167
32845
32612
32537
32455
32254
32356
32487
32263
32318
32436
32344
32383
32492
32524
32568
32815
33013
33063
32965
33061
33167
33007
33006
32943
32702
32574
32554
32327
32285
32396
32277
32419
32400
32223
32412
32506
32454
32599
32647
32589
32665
32463
32375
32213
31909
31791
31762
31623
31557
31740
31883
31844
32054
32250
32031
32026
32275
32303
32317
32502
32626
32531
32460
32489
32344
31974
31877
31974
31970
31963
32119
32329
32359
32467
32617
32639
32452
32549
32599
32471
32335
32358
32239
32002
31907
31997
31955
31802
31751
31904
31915
31932
31953
32064
32121
32295
32495
32443
32193
32193
32127
31735
31703
31727
31552
31469
31621
31751
31699
31709
31801
31850
32150
32431
32412
32335
32495
32634
32618
32561
32663
32588
32375
32034
31964
31962
31777
31594
31734
31898
31792
31981
32117
31997
31922
32138
32342
32318
32428
32620
32519
32342
32359
32340
32293
32151
32127
32201
32105
32070
32278
32351
32404
32583
32792
32806
32813
32907
32789
32530
32565
32730
32659
32594
32657
32431
32643
32759
32606
32740
32692
32458
32511
32519
32445
32623
32843
32887
32775
32793
32823
32789
32635
32671
32489
32199
32263
32377
32385
32440
32503
32713
33020
33089
33043
32967
33013
33065
32983
32794
32945
33082
32975
32954
33005
32965
32861
32646
32703
32805
32765
32604
32689
32879
32895
32860
33011
33174
33076
33054
33135
32938
32919
32869
32722
32487
32540
32500
32419
32647
32629
32654
32869
33039
33038
33110
33325
33261
33111
33212
33083
32767
32535
32363
32383
32388
32199
32089
32191
32209
32281
32469
32701
32766
32651
32769
32759
32495
32486
32543
32390
32239
32439
32609
32584
32787
33045
32969
32807
32732
32711
32504
32288
32335
32364
32225
32210
32295
32391
32423
32603
32829
32885
32797
32631
32679
32647
32359
32075
32124
32179
32391
32374
32490
32687
32629
32567
32684
32663
32415
32433
32367
32000
31935
32084
31943
31788
31745
31719
31649
31951
32157
32277
32447
32653
32627
32576
32705
32831
32743
32772
32925
32831
32672
32637
32295
31900
31870
31862
31774
31844
32036
32107
32332
32564
32566
32607
32703
32544
32493
32511
32570
32374
32341
32484
32455
32430
32535
32619
32564
32399
32465
32622
32663
32561
32727
32709
32620
32671
32487
32133
32100
32060
31930
31982
32121
32095
32187
32365
32601
32679
32699
32847
32933
32815
32815
32943
32851
32754
32829
32805
32607
32583
32640
32471
32237
32263
32365
32238
32375
32485
32489
32352
32444
32610
32668
32556
32599
32738
32702
32575
32709
32676
32531
32516
32545
32487
32372
32359
32487
32548
32463
32753
32735
32614
32720
32793
32769
33031
33047
32911
32927
33046
32927
32911
32844
32534
32484
32645
32615
32580
32764
32775
32770
33009
33233
33269
33390
33575
33639
33606
33582
33685
33818
33822
33679
33610
33587
33497
33445
33743
33966
33870
33710
33831
33791
33659
33799
33893
33708
33426
33485
33423
33172
33040
33031
32924
32764
32692
32861
32985
33155
33532
33799
33743
33506
33625
33635
33429
33279
33380
33228
32874
32737
32806
32621
32391
32507
32526
32471
32713
32794
32845
33093
33060
33067
33170
32996
32707
32647
32485
32409
32471
32273
32079
32023
31749
31854
31870
31784
31941
31819
32027
32180
32082
32277
32497
32476
32399
32469
32430
32172
32119
32091
31829
31942
31829
31751
31870
31962
32031
32252
32183
32380
32527
32399
32460
32417
32100
32098
32174
32043
32188
32234
32083
32100
32280
32287
32319
32381
32350
32239
32242
32169
32126
32102
32258
32547
32587
32451
32491
32527
32402
32188
32303
32253
32047
32014
31978
31807
31813
32023
32348
32471
32503
32788
32805
32667
32617
32699
32647
32467
32397
32396
32285
32109
32199
32283
32182
32110
32324
32468
32383
32354
32467
32434
32189
31868
31795
31877
31945
31911
32099
32338
32367
32357
32724
33132
33461
34082
34861
35295
35815
36447
36999
37639
38532
39252
39572
40084
40535
41092
41503
41820
42223
42759
43198
43423
43686
44031
44239
44549
44636
44477
44139
43895
43444
42755
42631
42231
41542
40740
40044
39202
38365
37503
36484
35463
34579
33656
32893
32386
32259
32223
31951
31558
31250
31020
30881
30889
30956
30938
30727
30589
30554
30535
30490
30375
30210
30058
30049
29917
29895
30013
30081
29991
30041
30183
30209
30183
30115
30151
30275
30265
30163
30129
30164
30268
30195
30118
30237
30397
30529
30414
30451
30620
30513
30631
30823
30762
30687
30772
30825
30702
30615
30695
30821
30690
30533
30583
30591
30920
31212
31182
31391
31749
31814
31822
31751
31529
31352
31040
30693
30615
30647
30836
30820
30686
30807
30975
31135
31223
31263
31333
31385
31239
31001
30997
31067
30983
30932
31000
31084
30953
30997
30889
30842
30895
30947
31007
31203
31455
31527
31409
31380
31492
31452
31436
31524
31545
31350
31469
31569
31383
31359
31252
31008
31201
31318
31232
31468
31734
31708
31975
32084
31962
31951
32079
31966
32161
32103
31937
32110
32143
32111
32209
31982
32059
32110
32034
32263
32415
32452
32775
32701
32495
32526
32548
32729
32742
32799
32766
32752
32639
32486
32519
32460
32404
32308
32277
32197
32364
32567
32935
33160
33151
33028
33110
33079
33017
32629
32668
32670
32485
32578
32655
32555
32617
32737
32469
32591
32615
32463
32533
32479
32415
32561
32631
32923
33191
33100
33392
33341
33095
33172
32984
32957
33044
32807
32825
32999
33009
33166
33545
33614
33759
33908
33775
33963
33849
33486
33461
33359
33073
33177
33063
32806
32925
32928
32711
32844
32994
32846
32848
33066
33143
33255
33335
33537
33457
33220
33086
33237
33174
32931
32990
32990
33031
32901
32759
32714
32735
32598
32641
32849
32838
32935
33143
33108
33041
33194
33084
32865
32830
32489
32286
32183
31896
31997
31860
31895
32017
32029
32467
32703
32692
32903
32801
32660
32652
32507
32260
32143
32075
31781
31871
31943
31711
31817
31937
31832
32108
32175
32038
32244
32295
32239
32452
32543
32539
32698
32513
32276
32335
31991
32031
31820
31659
31639
31559
31533
31806
31868
31797
32007
32044
32031
31988
32151
32099
31919
32103
32290
32155
31949
31869
31905
31821
31665
31795
31919
31887
32039
32170
32105
32192
32273
32173
32073
32057
32108
32205
32218
32391
32388
32149
32151
31910
31487
31540
31494
31391
31676
31717
31791
32019
31980
31944
31990
31979
31847
32063
32024
31751
31674
31728
31551
31495
31552
31439
31435
31641
31732
31735
32031
32108
32099
32414
32463
32447
32451
32246
32082
32132
32002
31897
31981
31703
31788
32002
31945
31999
32339
32551
32421
32428
32655
32706
32533
32591
32550
32415
32565
32748
32706
32542
32692
32579
32356
32460
32519
32428
32582
32707
32654
32628
32807
32826
32746
32903
32938
32815
32949
32956
32677
32605
32591
32430
32366
32555
32679
32735
32861
33106
33189
33147
33375
33463
33340
33216
33086
32775
32589
32637
32527
32373
32447
32396
32471
32615
32553
32655
32839
32756
32996
33037
32929
33218
33311
33213
33254
33303
33114
32975
32863
32892
33017
32823
32547
32497
32297
32092
32291
32423
32526
33005
33246
33287
33229
33347
33269
33158
33199
33004
32958
32896
32658
32810
32855
32734
32839
33039
33036
33126
33135
32991
32982
33210
33252
33127
32895
32820
32692
32819
32983
32775
32739
32709
32580
32477
32678
32639
32557
32699
32652
32679
32827
32749
32855
33115
33079
33351
33337
33171
33087
32791
32486
32372
32132
32191
32416
32519
32611
32943
33083
33082
33263
33071
32663
32666
32591
32492
32701
32619
32591
32548
32386
32537
32519
32414
32564
32452
32299
32502
32574
32506
32769
32803
32717
32911
32805
32684
32647
32437
32589
32519
32505
32653
32573
32628
32736
32651
32941
32794
33106
33130
33031
33143
32884
32769
32724
32583
32651
32658
32565
32666
32420
32568
32423
32430
32545
32484
32641
32535
32711
32609
32692
32835
32727
32759
32775
32659
32805
32875
32886
33075
33013
33183
33220
33087
33092
32871
32964
32911
32821
32882
32719
32782
32736
32543
32604
32500
32633
32725
32565
32591
32559
32330
32506
32340
32672
32660
32737
32919
32865
32863
32979
32965
33223
33217
33079
33214
33005
32925
32870
32582
32647
32568
32406
32239
32394
32444
32554
32792
32735
32933
32798
32706
32679
32658
32823
32670
32948
32855
32785
32803
32742
32891
32737
32793
32758
32791
32863
32895
33112
33191
33049
32999
33119
32983
32775
32942
32766
32684
32680
32527
32445
32432
32220
32343
32316
32340
32503
32668
32622
32732
32670
32835
33060
33182
33275
33315
33677
33589
33715
33551
33386
33287
33214
33208
33319
33445
33422
33744
33697
33754
33919
33749
33748
33799
33671
33642
33799
33724
33565
33915
33860
33923
33927
33745
33799
33760
33487
33575
33287
33287
33301
33127
33196
33055
32983
33053
33109
33071
33287
33151
33074
33146
33052
33092
33207
33279
33510
33557
33764
33783
33684
33820
33710
33627
33710
33505
33369
33232
32903
32804
32679
32499
32611
32532
32391
32498
32495
32418
32583
32550
32511
32611
32511
32375
32399
32165
32124
32170
32107
32287
32175
32079
32065
31843
32110
32140
32075
32201
32081
32414
32496
32503
32630
32594
32391
32425
32127
32047
31879
31648
31799
31646
31869
31940
31967
32161
32153
32332
32403
32453
32557
32386
32571
32359
32319
32255
32263
32259
32015
32100
31946
31903
31866
31781
31902
31797
31825
31847
31806
32090
32180
32244
32517
32484
32647
32716
32495
32632
32507
32391
32271
32055
32206
32109
32159
32370
32401
32451
32683
32689
32740
32833
32658
32988
32966
32959
32844
32615
32496
32174
32159
31820
31788
31620
31655
31713
31563
31751
31772
31855
32114
32243
32614
32731
32746
32995
32956
33013
33245
33359
33878
34271
34954
35695
36197
36781
37206
37745
38732
39047
39493
40003
40311
41123
41595
41793
42726
43012
43384
43873
43938
44436
44333
44595
44243
43835
43527
42884
42619
42319
41700
41566
40852
40780
40023
39550
38614
37727
36767
35425
34465
33238
32490
31865
31537
31375
31183
31169
30935
31135
31052
31284
31215
31119
31023
30778
30819
30593
30444
30420
30068
30061
30042
29996
29953
29822
29846
29953
30001
30301
30423
30636
30871
30872
30911
30868
30637
30402
30439
30351
30289
30564
30573
30592
30719
30741
30948
30930
31011
31071
31065
31181
31001
31125
31060
30790
30781
30826
30672
30805
30716
30519
30600
30558
30463
30660
30677
31119
31293
31393
31487
31305
31514
31545
31484
31510
31149
30959
30900
30694
30754
30699
30645
30703
30685
30857
30999
31073
31349
31351
31523
31577
31561
31596
31316
31381
31103
31004
30903
30764
30796
30709
30983
30975
31124
31284
31280
31559
31541
31569
31626
31498
31804
31803
31838
31937
31806
31687
31667
31446
31381
31303
31159
31213
31479
31558
31823
32141
32259
32377
32556
32427
32270
32370
32186
32054
32039
31930
31876
31836
31751
31839
32031
32093
32228
32446
32372
32399
32620
32543
32486
32726
32594
32525
32717
32708
32645
32895
32938
32823
32891
32734
32596
32625
32463
32476
32513
32528
32580
32676
33031
32935
33027
33051
33015
33206
32972
32993
32671
32527
32290
32261
32299
32414
32743
32864
33087
33355
33431
33756
33652
33668
33573
33487
33663
33503
33447
33315
32999
33079
32905
32919
33009
32931
33132
33116
33258
33391
33399
33675
33652
33585
33777
33615
33853
33665
33650
33540
33407
33191
32971
33127
33071
33109
33255
33076
33097
33007
32924
33314
33439
33297
33411
33196
32951
33105
32991
32914
32930
32775
32694
32462
32367
32381
32439
32390
32458
32519
32637
32909
32812
32847
32831
32861
32848
32770
32789
32917
32827
32750
32703
32415
32287
32128
31995
31922
31810
31867
32072
32233
32252
32401
32594
32667
32775
32723
32601
32647
32426
32263
32324
32093
31922
31852
31659
31851
31962
31929
32169
32322
32378
32564
32603
32527
32757
32612
32436
32205
31974
31941
32077
31887
31775
31711
31604
31524
31724
31888
31922
31996
32005
31751
31710
31687
31453
31479
31254
31455
31426
31425
31580
31524
31651
31864
31895
32079
32263
32326
32284
32263
32197
32286
32357
32246
32162
32291
32127
31997
32087
31839
31796
31639
31386
31471
31566
31431
31463
31624
31576
31655
31775
31654
31751
31763
31689
31783
31848
31685
31559
31535
31379
31367
31311
31218
31303
31377
31404
31670
31673
31788
31868
31823
31972
31993
32148
32291
32222
32184
32428
32247
32039
31831
31564
31575
31617
31597
31972
32079
32028
32365
32399
32519
32705
32661
32734
32647
32532
32623
32293
32161
32081
32038
31999
32093
32191
32076
32091
32306
32376
32567
32663
32572
32583
32725
32711
32700
32615
32492
32506
32540
32458
32545
32399
32201
32180
31980
32191
32301
32295
32479
32564
32548
32691
32635
32872
32871
32803
32839
32607
32500
32693
32615
32610
32778
32623
32741
32742
32656
32868
32807
32762
32924
32837
32791
32815
32879
32761
32825
32949
32862
32715
32826
32645
32423
32431
32490
32500
32541
32721
32906
32935
33140
33316
33287
33365
33359
33079
33019
32943
32905
32767
32484
32541
32436
32324
32601
32631
32727
32876
32775
32660
32796
32951
32912
33054
32967
32818
32618
32381
32370
32200
32135
32241
32124
32300
32452
32467
32658
32629
32585
32609
32719
32614
32748
32852
32821
33169
33100
33230
33115
33055
33129
32796
32628
32583
32245
31982
31941
31737
31885
31902
32132
32167
32168
32415
32367
32508
32542
32519
32468
32207
32133
32084
32095
32359
32321
32332
32598
32615
32668
32866
32858
32886
33012
32884
32895
32893
32727
32821
32711
32596
32423
32237
32250
32181
32175
32393
32431
32557
32709
32675
32723
32942
32908
32850
32871
32499
32391
32287
32127
32167
32055
32037
32233
32171
32258
32413
32461
32667
32734
32837
32973
32853
32868
32623
32719
32573
32522
32423
32316
32367
32245
32391
32358
32454
32495
32295
32571
32528
32688
32759
32943
32975
32971
33301
33167
33305
33148
33098
32946
32807
32719
32630
32652
32292
32396
32294
32415
32436
32466
32774
32647
32970
32952
33121
33103
33221
33071
32877
32883
32764
32415
32411
32130
32155
32215
32381
32593
32597
32719
32831
32796
32772
32953
32931
33140
33207
33171
33294
33094
33007
32769
32561
32487
32190
32204
32193
32101
32383
32477
32631
32787
32987
33236
33139
33071
33055
32870
32809
32611
32326
32431
32357
32539
32330
32469
32388
32463
32644
32887
32981
32932
33164
33101
33028
33003
32943
33143
32962
32845
32830
32512
32567
32537
32386
32609
32648
32904
33143
33351
33796
33758
33676
33919
33862
33957
33889
33811
34018
33782
33550
33694
33644
33884
33914
33895
34207
34124
34151
34203
33921
34003
33925
33860
33685
33478
33455
33354
33479
33374
33389
33436
33362
33630
33487
33506
33481
33398
33601
33542
33508
33608
33482
33580
33503
33454
33298
33150
33308
33122
32983
32775
32714
32671
32675
32543
32657
32911
32886
32939
32972
32953
33053
32924
32739
32640
32295
32145
31999
31989
32089
31974
32095
32117
31966
32199
32133
32020
32146
32036
32062
32174
32302
32490
32383
32397
32421
32173
32383
32399
32324
32453
32305
32197
32348
32148
32222
32284
32447
32700
32631
32695
32631
32500
32593
32503
32463
32247
32231
32143
32087
32102
32312
32294
32323
32334
32454
32423
32501
32495
32551
32543
32593
32806
32638
32343
32375
32355
32343
32190
32251
32116
31987
32079
32213
32417
32564
32724
33045
32999
33146
33295
33217
33193
33093
32991
32770
32517
32545
32298
32049
31990
31878
31873
32214
32116
32073
32198
32148
32165
32151
32231
32289
32319
32171
32145
31951
31745
31857
32012
31957
32221
32625
33149
33924
34476
35165
35863
36285
36783
37559
38045
38655
39123
39597
40148
40455
40699
41588
42266
42785
43101
43485
44127
44335
44329
44678
44875
44639
44228
44028
43314
42846
42530
42004
41700
41158
40389
39415
39023
37980
37058
36087
34823
33766
33342
32788
32367
32441
32287
31958
31839
31719
31412
31263
31223
30977
30727
30553
30455
30360
30343
30378
30285
30111
30063
30093
30169
30292
30371
30191
30202
30277
30239
30421
30607
30516
30607
30644
30530
30289
30225
30223
30150
30061
30130
30151
30308
30487
30604
30572
30604
30813
30775
30831
30807
30554
30543
30423
30231
30233
30207
30076
30222
30351
30423
30577
30757
30756
30869
31050
30999
31077
31265
31332
31537
31519
31373
31415
31135
31021
30713
30538
30639
30551
30575
30792
30961
31283
31511
31556
31652
31479
31459
31492
31313
31167
31191
31207
31160
31111
30943
30877
30914
30967
31063
31141
31239
31477
31410
31294
31435
31495
31405
31508
31552
31533
31559
31435
31447
31476
31470
31425
31533
31647
31643
31601
31843
31932
32183
32307
32489
32466
32308
32412
32268
32204
32315
32108
31947
31767
31743
31948
31845
31894
32066
32135
32252
32169
32422
32388
32630
32581
32575
32552
32671
32748
32617
32510
32429
32427
32484
32303
32127
32390
32465
32659
32663
32927
33098
33097
33287
33306
33058
33031
33060
32837
32693
32707
32371
32229
32381
32372
32567
33087
33217
33315
33703
33663
33749
33898
33721
33831
33617
33566
33486
33517
33828
33595
33606
33482
33455
33441
33527
33387
33339
33655
33568
33755
33749
33669
33639
33647
33950
33711
33617
33596
33461
33423
33251
33023
33234
33263
33323
33468
33321
33415
33338
33354
33653
33594
33662
33887
33692
33668
33670
33524
33543
33359
33079
33182
32979
32828
32999
32932
32899
33110
33155
33287
33397
33215
33052
33262
33175
32959
33093
32926
32806
32719
32545
32519
32367
32203
32281
32111
32102
32263
32243
32335
32722
32673
32686
32533
32383
32510
32404
32164
32325
32163
31994
32139
32037
32189
32183
32172
32535
32574
32549
32508
32260
32159
31886
31630
31732
31710
31735
31722
31683
31837
31672
31679
31807
31640
31657
31799
31698
31775
31861
31846
31876
31812
31685
31841
31795
31887
31918
31967
32233
32188
32076
32053
31772
31519
31399
31156
31404
31437
31348
31559
31658
31689
31774
31854
31830
31829
31814
31681
31593
31543
31419
31461
31719
31665
31528
31502
31487
31549
31867
31921
31947
32124
32012
31876
32006
31840
31730
31783
31823
31609
31628
31548
31286
31231
31196
31110
31149
31180
31180
31453
31546
31709
31871
31828
31761
32071
32177
32228
32135
31964
31828
31611
31386
31316
31526
31615
31788
31878
32116
32599
32853
33020
33011
32860
33111
32807
32535
32170
32031
31862
31839
31637
31556
31638
31539
31654
31796
31919
32102
32019
32229
32581
32537
32557
32687
32479
32446
32317
32484
32577
32344
32366
32493
32660
32623
32503
32666
32671
32675
32821
32640
32427
32618
32692
32754
33076
32961
32718
32756
32586
32631
32735
32865
32646
32652
32819
32772
32764
32964
32815
32716
32737
32695
32771
32863
32999
32885
32967
33025
33273
33167
33127
32906
32893
32575
32455
32580
32421
32535
32542
32452
32397
32646
32684
32705
32807
32449
32295
32241
32263
31981
32062
32238
32516
32550
32625
32837
32906
32871
32607
32591
32481
32443
32548
32352
32383
32501
32454
32311
32122
32165
31879
31660
31590
31663
31621
31708
31948
32028
32280
32481
32588
32586
32674
32677
32585
32633
32461
32436
32444
32408
32341
32236
32313
32261
32215
32255
32193
32151
32389
32455
32303
32259
32495
32449
32543
32628
32795
33010
33108
32999
32811
32606
32303
32294
32134
31979
32038
31974
31975
31957
32144
32369
32682
32650
32718
32556
32471
32597
32326
32350
32463
32351
32316
32276
32399
32311
32326
32375
32542
32470
32500
32583
32764
32678
32612
32718
32797
32623
32548
32595
32599
32414
32256
32312
32266
32023
31911
32212
32181
32435
32767
33069
33153
33031
33159
33255
32996
32868
32900
32869
32927
33095
33343
33205
33220
33300
33367
33415
33551
33652
33440
33283
33060
33096
33020
33013
33232
33516
33391
33518
33549
33799
33681
33685
33767
33719
33820
33896
33863
33685
33579
33553
33432
33471
33525
33543
33826
33925
33830
33893
33943
33524
33332
33219
33319
33205
32975
33094
33100
33149
33351
33612
33506
33595
33691
33681
33717
33783
33737
33661
33463
33431
33125
32861
33063
33073
32951
33212
33095
32985
32868
32822
33073
33191
33317
33519
33351
33589
34095
33984
34023
34124
34020
34218
33902
33711
33301
33093
33096
32940
33140
33342
33588
34174
34369
34603
34700
34844
34905
34815
34821
35025
35115
35012
34996
34793
34557
34276
34266
34055
33796
34081
34258
34594
34951
34993
35051
35151
34887
34645
34250
33759
33524
33540
33679
34087
34398
34586
34655
35207
35239
35189
35583
35516
35553
35533
35431
35275
35165
34613
34361
34263
34338
34183
34168
34164
34331
34213
34095
34093
34071
34175
34215
34111
34038
33988
34245
34109
33983
34273
34127
34087
33986
33573
33332
33092
32954
32710
32407
32263
31927
31808
32079
32293
32516
33052
33389
33404
33524
33252
32936
32895
32458
32279
32263
32284
32400
32571
32892
33228
33287
33525
33611
33635
33769
33671
33687
33339
33237
32928
32804
32679
32675
32925
32917
33165
33455
33583
33854
34012
34204
34469
34607
34418
34349
34292
33878
33785
33791
33375
33186
33055
32767
32774
32406
32007
32167
32311
32348
32399
32064
31826
31844
31831
31922
32084
31909
31875
31591
31495
31633
31511
31609
31788
31850
32039
32367
32372
32263
32308
31822
31268
31002
30580
30343
30260
29964
29909
30097
30079
30207
30609
30724
30767
31047
31084
31068
30927
31053
31230
31371
31620
31948
32079
32263
32908
33112
33401
33737
34231
34616
34988
35388
35614
36061
36678
37063
37780
38618
39401
40081
40671
41516
42343
42630
42310
42747
42293
42220
41873
41025
40654
39776
39327
38687
38143
38066
37596
37260
36901
35772
34738
33671
32663
32151
31782
31564
31533
31153
30948
30694
30663
30516
30237
30162
30171
30006
29822
29735
29687
29763
29854
29782
29927
30086
30113
30213
30125
30012
30066
30025
29753
29625
29615
29343
29091
29009
29013
29276
29772
29989
30241
30311
30427
30585
30612
30503
30471
30332
30092
29950
29715
29742
29876
29813
29759
29783
29703
29845
29830
30014
30343
30356
30373
30526
30465
30388
30597
30573
30549
30661
30606
30626
30764
30847
31014
31195
31004
30852
31063
31031
31217
31668
31697
31583
31681
31534
31447
31319
31000
30884
30823
30718
30821
30796
30855
30955
30918
30925
31220
31282
31462
31482
31552
31807
31817
31925
31734
31533
31698
31655
31587
31864
31977
32007
32311
32220
32163
32243
32025
32030
31967
31815
31418
31386
31257
31135
31307
31194
31016
31133
31084
31060
31310
31585
31932
32263
32134
32145
31967
31810
31675
31629
31708
31821
31989
32047
32068
32111
31970
31774
31551
31359
31349
31353
31546
32052
32318
32723
33260
33292
33253
33499
33276
33189
33241
32853
32526
32597
32413
32255
32167
31897
31727
31727
31735
31937
32455
32694
32952
33389
33249
33216
33114
32926
33094
33031
33071
33070
33023
32995
32775
32639
32895
32789
32879
33180
33133
33201
33148
33214
33313
33225
33145
33193
33217
33403
33647
33740
33791
34085
34019
33872
33963
33719
33647
33703
33862
33608
33446
33469
33532
33494
33679
33799
33952
33980
34002
34145
34211
33829
33447
33356
33015
32886
33044
32932
32989
33219
33480
33479
33592
33885
33799
33984
33887
33584
33764
33548
33287
33274
32959
32803
32663
32727
32891
32775
32742
32775
32735
32839
32869
33061
33029
33098
33283
33147
32959
32764
32300
31877
31825
31620
31424
31361
31391
31420
31582
31647
31686
31927
32087
32097
32207
32209
32071
31951
31913
31631
31500
31375
31401
31463
31412
31614
31639
31681
31911
31997
32116
32068
31917
31910
31751
31669
31469
31445
31311
31134
30874
30844
30501
30297
30367
30381
30453
30758
30842
30893
31279
31426
31602
31862
31786
31661
31735
31534
31439
31647
31531
31405
31247
31182
31270
31441
31332
31356
31292
31340
31508
31388
31412
31473
31522
31723
31962
31943
31967
31996
31781
31823
32111
31893
31703
31628
31431
31481
31609
31542
31705
31792
31873
31957
31751
31649
31852
31772
31721
31999
31945
31941
32289
32345
32327
32220
32255
32537
32598
32829
32934
33005
33147
32937
32802
32666
32392
32061
31444
31015
30881
30646
30755
30831
30919
31017
30863
30869
30897
31095
31239
31279
31298
31286
31463
31367
31463
31647
31639
31612
31648
31597
31571
31355
31419
31591
31771
31730
32062
32469
32899
33003
33036
32965
33002
32814
32575
32703
32607
32476
32719
32639
32675
32670
32405
32188
31999
31907
31643
31716
31794
31913
31750
31639
31565
31706
31707
31838
31889
32195
32387
32198
32094
32031
31739
31751
31909
32028
32287
32538
32728
32879
32974
32797
32823
32805
32806
32638
32564
32832
32747
32639
32859
32900
32994
32991
32675
32277
32157
31815
31375
31317
31181
31131
31385
31436
31623
31760
31894
31898
31951
32213
32116
32042
31954
31973
31771
31652
31817
31807
31865
32070
32135
32135
32047
32191
32047
31964
31983
31909
31937
32159
32196
32237
32379
32353
32444
32709
32711
32793
33018
32775
32725
32911
32715
32671
32699
32471
32391
32425
32245
32071
32170
32111
32110
32324
32162
32181
32091
32158
32125
31868
31925
31972
32297
32239
32321
32475
32519
32423
32423
32309
32262
32175
31919
31947
32084
31961
32015
31983
32101
32364
32543
32901
33160
33453
33631
33745
33488
33151
33037
32451
31866
31683
31403
31433
31745
31847
31919
32060
32067
32134
32519
32501
32495
32711
32610
32567
32639
32552
32540
32581
32260
32039
32077
31964
32128
32487
32638
33007
33167
33221
33444
33230
33108
33001
32694
32303
32135
31945
31977
32103
32022
31801
31892
31799
31701
31729
31511
31394
31610
31689
31879
32364
32468
32647
32855
32828
32870
32754
32364
32317
32460
32336
32387
32559
32591
32726
32711
32806
32999
32871
32938
32714
32655
32492
32455
32484
32334
32427
32372
32357
32506
32340
32383
32340
32518
32583
32503
32822
32899
33075
33092
33196
33244
33124
32979
33168
33066
32940
33031
32823
32655
32636
32397
32367
32599
32484
32575
32853
33058
33287
33402
33375
33381
33493
33620
33550
33668
33842
34011
33819
33858
33684
33671
33716
33607
33278
32962
32970
32743
32821
33016
33028
33071
33223
33157
33200
33266
33357
33148
33085
32936
32858
32951
32817
32702
32841
32724
32743
33007
32787
32847
33079
32985
32993
33062
32743
32519
32644
32583
32708
32590
32606
32399
32261
32293
32225
32372
32310
32276
32284
32375
32263
32419
32689
32955
32818
32806
32855
32630
32436
32442
32111
31846
31399
31199
31031
30717
30668
30711
30749
30887
31077
31333
31655
32053
32299
32383
32501
32263
32149
32048
31959
31877
31751
31815
31716
31816
31895
32007
32066
31900
31998
31927
32046
31962
32012
32161
32102
32207
32127
32335
32226
32084
32198
32102
32141
32159
32228
31986
31755
31901
31751
31860
32054
32323
32387
32290
32340
32020
31947
31879
31829
31543
31429
31591
31647
31861
32055
32239
32458
32741
32949
33109
33106
32988
32671
32103
31873
31727
31326
31236
31075
31174
31228
31100
31263
31332
31655
31889
32171
32569
33001
33345
33752
34485
34863
35245
35827
36162
36543
36980
37604
38000
38601
39262
39699
40112
41044
41545
41927
42835
43068
43441
43943
43769
43632
43739
43381
42644
42503
42087
41533
41262
41071
40700
40521
40341
40031
39595
39260
38322
37260
36056
34756
33665
33043
32702
32439
32181
31996
31575
31213
30868
30681
30399
30276
30207
30300
30215
30436
30609
30791
30784
30615
30468
30295
29893
29684
29614
29527
29279
29220
29172
29319
29564
29631
29516
29647
29604
29655
29703
29934
29881
29927
29868
30015
29903
29898
29910
29905
29846
29919
29783
29817
29945
30003
30236
30490
30863
30912
30991
31079
30887
30862
30734
30794
30604
30609
30639
30558
30543
30534
30269
30175
30132
30246
30276
30415
30635
30912
31060
31159
31372
31511
31683
31828
31633
31487
31181
30783
30545
30420
30532
30572
30805
30931
31124
31426
31476
31458
31539
31431
31431
31776
31903
31975
32111
32002
31984
31804
31479
31205
30934
30609
30578
30836
30902
31109
31271
31485
31791
31721
31724
31735
31578
31516
31556
31433
31377
31466
31322
31342
31374
31183
31190
31252
31027
30935
31103
31233
31431
31751
31834
32092
32094
32222
32216
32213
32156
31961
31735
31606
31271
31093
30927
30703
30758
31009
31261
31517
31815
31895
32006
32396
32382
32472
32547
32395
32407
32150
32005
31927
31695
31604
31634
31672
31585
31588
31746
31732
31785
32047
31973
32143
32255
32441
32789
32903
33052
33287
33175
33139
33197
33347
33110
32935
33109
33023
33060
33119
33085
32969
33106
32966
33084
33325
33318
33494
33585
33791
33925
34001
33752
33661
33799
33564
33483
33757
33631
33766
34116
34127
34284
34373
34341
34521
34423
34342
34519
34195
33917
33963
33662
33519
33756
33695
33782
34151
34299
34541
34620
34759
34943
34905
34914
34913
34855
34778
34695
34519
34452
34359
34396
34093
33893
34007
33832
33972
34218
34417
34407
34503
34503
34206
34042
33827
33745
33404
33238
33009
32997
32980
32861
32848
33047
32940
33137
33355
33811
33927
33988
34265
34153
34095
33893
33287
32751
32372
31967
31756
31700
31606
31687
31915
32157
32359
32612
32837
32713
32717
32973
32815
32714
32919
32724
32657
32983
32847
32702
32685
32505
32540
32601
32474
32326
32209
32247
32212
32138
32297
32191
32116
32283
32385
32244
32321
32423
32550
32314
32239
32220
31971
31836
31983
31751
31734
31791
31751
31861
31999
31975
32103
32291
32286
32372
32441
32341
32375
32639
32670
32644
32685
32685
32858
32791
32951
32934
32965
33220
33106
33115
33097
33191
33340
33278
33317
33556
33481
33447
33439
33255
33173
33004
32821
32893
32898
32966
33275
33248
33348
33378
33423
33608
33498
33542
33486
33255
33321
33037
32877
32743
32656
32982
32985
33139
33499
33626
34042
34220
34324
34434
34026
33692
33343
33094
32903
32885
32695
32684
32742
32574
32507
32668
32524
32499
32679
32613
32719
32935
32977
33176
33431
33508
33437
33265
33447
33143
32973
32838
32871
32604
32535
32499
32625
32581
32719
33002
33093
33350
33652
33623
33670
33532
33646
33358
33087
33175
32926
32792
32881
32687
32629
32535
32425
32514
32447
32472
32759
32710
32711
32951
32871
33106
32990
32975
32887
32852
32924
32822
32804
32609
32507
32384
32199
32039
32092
32004
31908
32065
32007
32014
32209
32230
32328
32492
32558
32605
32431
32274
32389
32115
31955
31805
31601
31668
31749
32005
32349
32465
32573
32710
32796
32838
32644
32513
32343
32018
31791
31906
31750
31727
31734
31603
31516
31760
31742
31851
32105
32043
32197
32325
32543
32500
32637
32681
32702
32798
32687
32562
32390
32239
32034
31652
31646
31652
31559
31615
31777
32013
32053
32066
32253
32258
32231
32437
32364
32311
32367
32098
31951
31802
31575
31416
31333
31167
31024
31183
31188
31290
31569
31700
31887
32078
32099
32241
32427
32271
32228
32231
32070
31926
32047
31812
31765
31663
31669
31808
31719
31812
31962
31983
31971
31932
31951
31903
32003
31960
31996
31986
31804
31852
31791
31931
32071
32144
32323
32732
32663
32721
32903
32656
32519
32458
32280
32100
32023
31945
31620
31495
31412
31542
31697
31618
31687
31802
32005
31935
32006
32246
32454
32391
32375
32383
32185
32195
32151
32156
32200
32151
32079
32057
31871
31791
31825
31453
31237
31194
31095
31260
31342
31725
31859
31911
32237
32255
32199
32391
32254
32252
32181
32142
31887
31874
31872
31911
31815
31747
31957
32165
32191
32305
32567
32586
32733
32999
32943
32925
32996
32810
32603
32724
32545
32471
32602
32554
32689
32820
32790
32924
33282
33204
33271
33553
33540
33678
33991
34120
33954
33810
33655
33287
33148
32881
32695
32615
32556
32628
32807
33031
32879
32848
33011
33166
33135
33103
33444
33426
33394
33710
33493
33407
33287
33015
32837
32697
32637
32431
32486
32662
32571
32766
32935
33031
33052
33233
33287
33022
32871
32598
32516
32092
31847
31892
31797
31916
32254
32334
32582
33060
33121
33160
33454
33199
32995
33185
32979
32983
32943
32791
32768
32674
32579
32702
32775
32727
32597
32804
32647
32607
32608
32716
32694
32605
32805
32767
32700
32591
32762
32569
32569
32607
32652
32695
32661
32911
32779
32767
32815
32877
32786
32823
32826
32940
33142
33163
33188
33433
33279
33260
33343
33153
33069
33005
32715
32609
32652
32591
32741
32916
33063
32864
32788
32985
32799
32855
33062
32985
33070
33185
33107
33063
33027
32708
32468
32591
32403
32535
32798
33075
33178
33399
33429
33421
33527
33188
33095
33052
33092
32972
32775
32767
32934
32732
32763
32829
32660
32615
32614
32571
32789
33013
33468
34222
34770
35463
36380
36806
37271
38200
38630
39255
39904
40503
40796
41332
41658
41670
42493
43013
43334
43815
44527
44910
45559
46023
46215
46221
46001
45319
44591
43878
43168
42199
41679
41195
40570
40242
39980
39388
38877
38242
37060
35876
34811
33901
33066
32414
32029
31574
31365
31396
31270
31195
31261
31007
31048
31029
31167
31181
31158
31138
31043
30983
30766
30664
30695
30501
30423
30553
30453
30439
30400
30228
30127
30095
30162
30076
30037
30077
30072
30018
30033
30212
30257
30460
30636
30742
30581
30558
30460
30331
30002
29895
29863
29871
30101
30205
30449
30759
30910
31162
31375
31329
31253
31324
31143
31115
31103
31053
30834
30724
30718
30580
30557
30719
30621
30746
31007
31070
31126
31201
31261
31295
31278
31469
31380
31398
31577
31441
31388
31415
31316
31333
31439
31354
31420
31585
31855
31879
31905
32141
31985
31943
32126
31994
32038
32127
32074
32084
32132
31989
31893
31845
31663
31421
31377
31495
31607
31663
31917
31985
32135
32287
32580
32455
32330
32406
32340
32148
31957
31788
31647
31659
31622
31684
31897
31820
31838
32105
32084
32106
32129
32018
32047
32135
32145
32157
32182
32034
31909
32005
31799
31740
31861
31774
31772
32007
32020
32220
32503
32597
32863
32955
33023
32765
32597
32187
31859
31651
31520
31588
31782
31908
32149
32599
32663
32856
33050
33284
33268
33255
33399
33393
33575
33663
33628
33414
33269
33127
33094
32803
32638
32644
32449
32518
32679
32899
32861
32968
33235
33226
33277
33467
33396
33422
33578
33575
33711
33831
34008
33825
33839
33871
33673
33511
33669
33363
33300
33381
33263
33431
33639
33535
33614
33638
33591
33655
33548
33644
33745
33591
33632
33496
33405
33361
33357
33263
33287
33471
33409
33427
33516
33507
33537
33599
33492
33502
33636
33471
33472
33463
33252
33269
33404
33150
33178
33299
33423
33527
33487
33443
33087
32863
32751
32583
32615
32589
32813
32758
32791
32687
32679
32293
32119
31884
31772
31486
31383
31531
31512
31728
32007
32293
32319
32454
32519
32655
32444
32383
32263
32165
31925
31659
31655
31637
31489
31468
31687
31740
31983
32098
32414
32371
32357
32589
32460
32308
32370
32050
31822
31783
31558
31446
31509
31588
31452
31431
31590
31517
31661
31672
31780
32007
32068
32143
32263
32223
32281
32355
32159
31932
31903
31650
31507
31579
31511
31588
31814
31805
31879
32059
32015
32133
32303
32250
32335
32287
32162
32094
31850
31652
31556
31634
31663
31681
31884
32207
32311
32528
32802
33063
32981
32868
32911
32687
32508
32400
32081
31946
31980
31855
31734
31932
31929
32076
32277
32431
32333
32330
32252
32454
32358
32436
32518
32661
32439
32361
32438
32225
32202
32191
32006
31975
31937
31983
31933
32084
32256
32423
32646
32962
32988
32951
33064
32751
32484
32472
32135
31924
31916
31682
31705
31811
32044
32092
32219
32567
32593
32639
32676
32583
32555
32717
32664
32688
32759
32647
32737
32745
32647
32508
32627
32433
32414
32322
32366
32284
32223
32319
32173
32137
32134
32274
32253
32420
32572
32486
32481
32582
32575
32559
32597
32495
32383
32476
32487
32202
32084
32070
31935
31981
32231
32249
32277
32431
32311
32300
32455
32360
32262
32294
32124
31969
32018
31942
31924
32111
32049
32158
32356
32329
32284
32546
32417
32384
32556
32405
32247
32456
32291
32181
32278
32055
31985
32082
31922
31882
32049
31957
32079
32254
32511
32426
32507
32767
32769
32660
32359
32455
32219
32135
31959
32152
32078
32163
32260
32447
32366
32477
32596
32714
32582
32506
32576
32404
32405
32495
32692
32644
32647
32662
32846
32657
32525
32342
32258
31976
31887
32116
32295
32377
32455
32423
32684
32617
32457
32423
32471
32625
32483
32301
32318
32084
31932
32068
31915
31852
32037
31982
32111
32271
32456
32576
32791
33047
32876
32915
32857
32999
32786
32699
32575
32558
32355
32367
32335
32519
32665
32540
32599
32668
32797
32758
32749
32916
32790
32757
32814
32775
32630
32565
32551
32280
32176
32335
32207
32189
32412
32334
32309
32564
32451
32400
32675
32533
32545
32426
32355
32487
32340
32286
32527
32489
32606
32722
32791
32948
33015
33135
33031
33195
33021
33014
32887
32930
32591
32359
32348
32054
31942
31879
31804
31807
31697
31935
31857
32047
32341
32448
32500
32535
32785
32904
32905
32879
32937
33012
32846
32855
32862
32948
32773
32669
32815
32608
32556
32836
32834
33062
33343
33415
33515
33653
33884
33829
33783
34083
33960
33874
33991
33831
33741
33751
33742
33588
33506
33543
33596
33479
33415
33612
33719
33724
33623
33603
33636
33572
33598
33719
33407
33141
33218
32926
32797
32869
32667
32580
32913
32798
32791
33026
32869
32819
32975
32713
32547
32599
32447
32433
32287
32436
32222
32239
32111
32247
32152
32165
32213
32348
32340
32311
32473
32315
32311
32391
32436
32398
32375
32390
32182
32031
32100
31817
31743
31572
31472
31358
31578
31556
31737
31919
31884
32003
32042
32033
32244
32211
32219
32341
32433
32212
32151
32061
31857
31804
31780
31655
31783
31772
31999
32167
32163
32263
32436
32292
32224
32371
32180
32038
32185
32070
32107
32198
32244
32158
32261
32271
32241
32308
32212
32245
32596
32599
32559
32673
32541
32399
32435
32261
32159
32119
32167
32052
32100
32127
31999
32017
32127
32078
32176
32291
32087
32071
32143
32230
32378
32391
32322
32445
32458
32305
32105
32151
31959
31783
31933
31818
31767
31922
31892
31927
32007
31844
31833
31999
32036
32195
32565
32743
33045
33674
34023
34567
35247
35641
36100
36919
37579
38151
38727
39350
39975
40302
41159
41395
41927
42735
43175
43470
44308
44504
44922
45301
45220
45201
45082
44713
43927
43374
42791
42119
41871
41570
41095
40764
40016
39100
38644
37448
36198
35020
33836
32896
32388
31957
31509
31398
31127
30991
30923
31020
31172
31080
31085
30901
30743
30612
30542
30343
30294
29997
29797
29717
29557
29550
29595
29556
29632
29586
29644
29832
29862
29883
30001
30062
30010
30138
30292
30247
30173
30279
30094
29992
29977
29812
29766
29820
29681
29919
30104
30423
30460
30627
30650
30665
30709
30671
30567
30423
30596
30546
30452
30619
30567
30549
30682
30604
30567
30841
30983
31071
31227
31146
31037
31211
30973
30764
30801
30903
30869
30863
30918
30821
30788
30785
30605
30636
30628
30712
30903
31058
31014
31239
31293
31449
31588
31582
31665
31785
31732
31669
31709
31589
31508
31623
31465
31567
31491
31394
31626
31631
31775
32007
31972
32034
32098
31999
32050
32064
31933
31964
31999
31802
31717
31623
31469
31647
31605
31714
32071
32095
32073
32039
32031
32197
32133
32155
32439
32381
32407
32439
32365
32224
31937
31977
31687
31621
31652
31610
31727
31804
31943
31943
32039
31831
31903
32087
32027
32167
32429
32614
32492
32293
32415
32228
32221
32031
32080
32066
32156
32235
32303
32464
32487
32637
32692
32765
32841
32737
32628
32682
32415
32356
32402
32390
32195
32284
32415
32511
32871
33007
33111
33481
33492
33453
33682
33556
33482
33521
33304
33100
33255
32979
32771
32918
32843
32794
33133
33190
33292
33238
33359
33455
33588
33589
33676
33703
33913
34090
34073
34011
33955
33735
33551
33269
33188
32868
32865
32863
33114
33072
33220
33336
33310
33428
33647
33653
33660
33633
33429
33287
33117
32827
32639
32639
32543
32631
32806
33120
33071
33091
33159
32949
33006
32991
32976
32957
32878
32655
32557
32495
32349
32352
32237
32229
32519
32537
32589
32916
32819
32832
32788
32823
32915
32766
32636
32615
32404
32243
32413
32292
32115
32104
32007
32070
31994
31966
32172
32128
32147
32273
32111
32230
32173
32223
32358
32446
32356
32415
32402
32314
32227
32102
31892
31813
31716
31773
31724
31740
31962
31925
31939
32172
32086
32068
32398
32279
32361
32397
32141
31985
32004
31732
31582
31645
31595
31553
31589
31920
31949
31985
32157
32145
32242
32306
32203
32076
32169
32060
32020
32079
31951
31817
31814
31734
31815
31986
32074
32215
32143
32211
32405
32303
32346
32236
32202
32334
32129
32183
32189
32213
32183
32124
32260
32239
32206
32164
32211
32425
32445
32611
32801
32931
33007
33257
33157
33212
33156
32926
32797
32547
32269
32099
31901
31860
32007
32098
32339
32466
32677
32709
32923
32854
32822
32917
32682
32762
32608
32620
32844
32585
32378
32342
32125
32166
32276
32230
32292
32688
32751
32946
32967
32910
33111
32892
32636
32652
32475
32407
32335
32172
32092
32296
32255
32157
32142
32038
32013
32253
32247
32287
32422
32579
32557
32551
32647
32529
32580
32717
32693
32711
32894
32719
32660
32908
32759
32711
32785
32591
32556
32681
32565
32509
32643
32471
32558
32716
32709
32895
32951
32852
32839
32804
32463
32342
32151
31955
32073
32241
32135
32225
32480
32423
32369
32624
32561
32519
32583
32500
32677
32948
32891
32942
33124
32932
32743
32836
32581
32485
32303
32154
32206
31995
32086
32180
32253
32413
32316
32447
32471
32478
32457
32332
32439
32290
32241
32479
32422
32543
32614
32580
32885
32771
32868
32787
32867
32859
32769
32822
32735
32551
32668
32465
32396
32382
32324
32221
32430
32447
32423
32692
32524
32609
32543
32601
32641
32582
32675
32577
32711
32499
32473
32310
32126
32007
31876
31890
31855
31957
32169
32422
32431
32383
32561
32452
32413
32548
32599
32587
32679
32592
32420
32372
32194
31877
31946
31830
31732
31975
32038
32231
32559
32572
32647
32654
32621
32648
32388
32241
32453
32276
32140
32090
32017
32084
32275
32199
32250
32580
32574
32759
32891
32898
33191
32983
32901
32705
32549
32580
32355
32319
32375
32254
32316
32298
32318
32634
32551
32401
32519
32445
32463
32497
32391
32263
32455
32390
32471
32495
32625
32796
32679
32653
32510
32359
32538
32484
32559
32775
32807
32746
33012
33010
33069
33349
33346
33594
33579
33344
33423
33094
32956
32671
32383
32428
32497
32438
32647
32750
32911
33158
33222
33259
33599
33644
33766
33775
33653
33877
33620
33503
33309
33237
33616
33604
33716
33595
33560
33589
33641
33830
33902
33944
34005
33964
33652
33727
33398
33315
33145
33018
33239
33058
33031
33087
32871
32981
32868
32717
32884
32845
33132
33182
33209
33326
33439
33343
33383
33149
33061
32911
32721
32865
32645
32573
32527
32629
32754
32708
32618
32825
32696
32743
32925
32807
32679
32611
32275
32086
31908
31700
31692
31701
31606
31871
31927
31929
31909
31942
31991
31988
32038
32255
32176
32167
32319
32143
32135
32245
32147
31924
31926
31865
31903
32007
31919
31950
32151
32149
32324
32437
32471
32692
32503
32432
32495
32260
32239
32327
32399
32536
32509
32371
32235
32151
31945
31852
31684
31631
31919
31996
32113
32322
32299
32391
32582
32422
32343
32364
32177
32257
32191
32103
32193
32003
32007
31943
31916
31990
31767
31751
31812
31924
32284
32348
32375
32340
32231
32302
32263
32178
32182
32032
32181
32041
31881
31853
31751
31571
31655
31591
31583
31690
31713
31620
31837
31951
32015
32263
32452
32427
32592
33086
33311
33826
34409
34711
35366
35769
36394
36991
37916
38452
39028
39607
40129
40796
41040
41399
41886
42290
42532
42911
43206
43773
44156
44119
44220
44092
43570
43511
42663
42073
41288
40822
40359
40070
39744
39196
38721
38013
36871
35686
34660
33620
32950
32685
32263
31892
31759
31407
31329
31279
31239
31319
31332
31279
31135
30889
30698
30550
30342
30300
30501
30436
30396
30283
30193
30349
30332
30548
30612
30679
30829
30695
30684
30533
30514
30439
30446
30516
30505
30780
30693
30552
30480
30300
30449
30376
30438
30509
30599
30829
30802
30993
31043
31108
31275
31317
31573
31685
31623
31520
31385
31034
30811
30613
30512
30772
30943
31110
31116
31263
31335
31481
31676
31595
31660
31375
31262
31303
31101
31004
30818
30668
30727
30511
30700
30695
30884
30989
31151
31255
31385
31716
31714
31975
32091
32042
31919
31684
31812
31444
31239
31011
30871
30815
30941
31316
