ECG
33412
33296
33292
33219
33160
33178
33105
33063
33085
33031
33019
33071
33038
33062
33106
33060
33091
33103
33015
32935
32892
32852
32796
32764
32750
32709
32567
32519
32509
32462
32461
32516
32492
32436
32388
32357
32305
32228
32143
32033
31911
31838
31823
31850
31873
31973
32131
32318
32414
32519
32600
32597
32564
32574
32484
32426
32375
32242
32087
31873
31676
31569
31601
31772
31959
32190
32476
32605
32652
32732
32767
32737
32753
32881
32929
32891
32858
32773
32639
32628
32598
32527
32510
32511
32462
32487
32514
32532
32502
32519
32582
32610
32619
32665
32708
32647
32639
32641
32590
32607
32642
32630
32645
32675
32645
32640
32652
32663
32548
32427
32327
32187
32047
31924
31820
31765
31688
31660
31687
31702
31704
31708
31751
31828
31949
32109
32246
32460
32871
33428
34078
34791
35679
36565
37308
38045
38831
39514
39962
40368
41071
41559
41775
42199
42391
42175
41551
40829
40135
39078
37765
36655
35562
34321
33416
32687
32058
31611
31339
31186
31078
30930
30742
30586
30466
30325
30225
30215
30154
30193
30394
30566
30765
30934
31073
31164
31251
31287
31351
31404
31470
31516
31548
31573
31611
31664
31655
31660
31722
31810
31868
31924
31956
31972
32024
32033
32020
32074
32059
32048
32078
32076
32069
32111
32094
32078
32135
32128
32116
32165
32168
32187
32255
32242
32285
32278
32294
32346
32319
32359
32343
32323
32341
32364
32308
32338
32349
32335
32350
32426
32413
32452
32556
32615
32600
32605
32647
32698
32671
32655
32665
32671
32629
32631
32666
32683
32647
32634
32679
32739
32800
32736
32770
32837
32847
32815
32821
32881
32905
32811
32801
32848
32780
32762
32829
32755
32732
32775
32739
32748
32808
32869
32871
32866
32932
33007
33047
33007
33012
33063
33025
32924
32935
32991
32999
32948
32959
33072
33110
33135
33228
33300
33247
33345
33359
33282
33324
33334
33227
33274
33229
33327
33274
33303
33397
33325
33303
33415
33419
33429
33551
33606
33574
33668
33596
33591
33709
33756
33725
33842
33963
33894
33838
33827
33852
33828
33796
33917
33878
33898
34042
34047
34052
34217
34169
34147
34269
34221
34215
34311
34332
34212
34294
34429
34428
34362
34453
34502
34377
34495
34597
34533
34581
34679
34695
34596
34631
34761
34655
34637
34743
34726
34623
34743
34727
34590
34695
34751
34624
34786
34767
34642
34668
34714
34600
34461
34523
34534
34357
34279
34342
34220
34028
34030
33983
33747
33764
33638
33493
33463
33407
33249
33262
33257
33127
33060
33122
33111
33009
32927
32900
32753
32568
32503
32454
32326
32269
32207
32102
32062
32045
31974
31967
32007
31930
31953
31940
31836
31803
31787
31742
31693
31686
31636
31583
31558
31527
31495
31516
31535
31559
31623
31623
31674
31710
31671
31679
31708
31648
31596
31581
31591
31567
31572
31591
31544
31575
31562
31542
31590
31620
31644
31684
31743
31747
31778
31797
31725
31707
31760
31740
31784
31822
31821
31885
31874
31878
31892
31836
31809
31871
31881
31925
31963
31897
31935
31920
31894
31925
31862
31919
31894
31911
31919
31936
31927
31889
31925
31894
31957
31988
31942
31983
32004
32026
32023
31996
32054
31980
31997
31990
31959
32009
31974
31966
31972
31963
32012
32055
32063
32148
32143
32188
32255
32143
32195
32201
32154
32203
32133
32090
32150
32117
32037
32069
32134
32058
32100
32149
32126
32172
32235
32245
32279
32382
32443
32407
32473
32533
32434
32437
32471
32389
32404
32436
32359
32404
32325
32316
32399
32297
32405
32398
32390
32470
32379
32436
32502
32471
32578
32607
32519
32596
32564
32527
32570
32447
32423
32452
32401
32410
32468
32407
32489
32396
32436
32490
32441
32559
32500
32559
32578
32463
32492
32425
32362
32407
32353
32358
32429
32359
32436
32547
32508
32501
32603
32628
32552
32647
32540
32541
32582
32490
32476
32492
32391
32368
32364
32253
32274
32291
32246
32278
32347
32291
32372
32455
32380
32422
32343
32364
32415
32399
32519
32491
32502
32603
32551
32641
32720
32710
32865
32822
32973
32954
33010
33116
33077
33183
33091
33163
33188
33071
33125
33003
32972
33019
32943
32947
33029
32948
33005
33082
32997
33089
33103
33014
33053
33092
32959
32999
33018
32891
32964
32822
32775
32812
32655
32695
32636
32545
32631
32580
32596
32670
32544
32596
32629
32519
32551
32500
32408
32441
32337
32356
32372
32309
32375
32319
32287
32365
32311
32353
32420
32319
32380
32377
32351
32444
32429
32357
32428
32356
32337
32431
32483
32426
32500
32476
32423
32524
32455
32487
32551
32485
32413
32495
32549
32463
32470
32560
32590
32532
32582
32598
32456
32518
32599
32485
32482
32546
32474
32447
32514
32625
32615
32516
32580
32639
32573
32613
32677
32690
32605
32612
32660
32563
32551
32615
32655
32622
32684
32780
32692
32650
32650
32444
32259
32145
32005
31831
31806
31820
31719
31751
31794
31732
31876
31978
32092
32325
32391
32640
33027
33346
33964
34574
35230
36125
36715
37441
38334
38775
39542
40076
40316
40972
41319
41401
41927
41988
41636
41335
40532
39479
38599
37230
36127
34951
33660
32710
31983
31340
31013
30831
30715
30667
30566
30444
30373
30277
30153
30100
30041
30038
30103
30231
30396
30564
30679
30811
30959
31012
31137
31188
31225
31340
31428
31496
31677
31703
31802
31896
31870
32007
31973
32005
32135
32076
32169
32210
32164
32277
32201
32213
32271
32244
32203
32260
32313
32258
32342
32398
32311
32375
32471
32431
32378
32451
32471
32399
32460
32407
32359
32429
32440
32354
32444
32463
32420
32515
32558
32452
32526
32598
32479
32570
32647
32546
32644
32707
32628
32711
32759
32666
32655
32732
32767
32706
32833
32866
32767
32815
32914
32830
32827
32898
32852
32759
32817
32881
32795
32749
32804
32868
32749
32746
32805
32775
32751
32869
32811
32796
32959
32881
32871
32943
32863
32871
32964
32955
32885
32999
33087
33063
32999
33075
33134
33037
33080
33174
33116
33100
33181
33209
33143
33238
33199
33164
33322
33180
33193
33325
33211
33244
33364
33252
33299
33435
33447
33364
33489
33535
33450
33610
33711
33573
33654
33696
33544
33628
33708
33635
33635
33767
33718
33671
33777
33887
33824
33879
33924
34055
34015
33911
33999
34097
34079
34035
34128
34282
34220
34209
34379
34311
34260
34417
34329
34311
34442
34503
34393
34444
34604
34541
34484
34615
34636
34495
34621
34711
34594
34590
34750
34579
34596
34725
34543
34640
34627
34569
34759
34664
34652
34791
34716
34634
34780
34599
34731
34565
34464
34547
34321
34351
34308
34079
34092
34088
33871
33831
33885
33759
33580
33589
33564
33324
33356
33219
33124
33090
32980
32762
32784
32788
32645
32679
32573
32447
32462
32461
32316
32351
32410
32260
32292
32373
32235
32263
32215
32055
32080
32098
31911
31871
31793
31661
31676
31647
31521
31524
31551
31431
31468
31511
31521
31596
31681
31591
31568
31636
31522
31559
31546
31385
31415
31332
31277
31317
31356
31329
31431
31547
31521
31639
31572
31612
31716
31686
31735
31820
31739
31695
31702
31685
31612
31689
31729
31687
31812
31927
31772
31796
31841
31719
31791
31814
31727
31783
31788
31687
31690
31769
31758
31670
31684
31742
31782
31695
31724
31821
31847
31812
31868
31872
31774
31844
31903
31885
31861
31878
31943
31998
31951
31927
31923
31897
31975
31919
32060
31980
31956
32079
32033
32055
32084
32007
32102
32088
32015
32099
32020
32076
32127
31999
32103
32042
32073
32099
32030
32159
32059
32191
32124
32236
32233
32279
32173
32262
32319
32203
32237
32300
32182
32288
32278
32158
32241
32199
32245
32316
32254
32386
32290
32279
32359
32284
32418
32433
32330
32422
32358
32308
32387
32309
32230
32287
32215
32191
32323
32258
32132
32199
32244
32231
32373
32236
32164
32183
32036
31993
31942
31782
31919
32007
32188
32540
32629
32805
33063
33021
33023
33084
32975
32866
32949
32775
32739
32775
32533
32552
32627
32505
32615
32715
32604
32757
32822
32815
32984
33048
33018
33150
33282
33199
33167
33287
33381
33268
33287
33420
33335
33268
33306
33317
33148
33119
33206
33087
33108
33237
33140
33135
33245
33318
33182
33157
33269
33148
33147
33218
33029
33124
33144
32956
32869
32931
32942
32764
32751
32807
32791
32714
32740
32820
32806
32660
32587
32579
32516
32396
32380
32436
32554
32539
32439
32543
32599
32450
32449
32503
32542
32532
32470
32452
32470
32526
32460
32316
32310
32401
32455
32379
32383
32494
32580
32518
32551
32645
32707
32612
32586
32660
32730
32589
32599
32673
32696
32525
32634
32707
32550
32541
32617
32477
32533
32569
32410
32514
32582
32477
32591
32500
32533
32621
32621
32533
32627
32492
32510
32638
32564
32511
32575
32579
32452
32606
32655
32551
32600
32668
32650
32527
32583
32647
32577
32391
32348
32259
31978
31911
31920
31783
31709
31772
31825
31751
31850
32055
32091
32255
32639
32765
32956
33311
33866
34444
34900
35574
36358
37136
37686
38170
38911
39423
39740
40076
40752
41159
41223
41420
41519
41223
40527
39922
38959
37678
36623
35500
34124
33040
32228
31413
30790
30453
30311
30179
30109
30096
30076
29958
29884
29860
29792
29727
29765
29881
30031
30171
30376
30628
30779
30854
30996
31150
31239
31252
31354
31470
31587
31572
31686
31843
31897
31866
31919
32084
32083
32061
32084
32191
32263
32219
32113
32150
32227
32263
32166
32193
32254
32372
32292
32284
32323
32407
32463
32364
32392
32495
32533
32397
32433
32519
32547
32426
32356
32420
32546
32541
32442
32492
32568
32679
32715
32626
32621
32660
32745
32792
32773
32671
32631
32679
32698
32573
32612
32710
32743
32642
32651
32749
32844
32797
32790
32887
32959
32886
32814
32901
32967
32829
32891
32951
32806
32828
32916
32956
32807
32823
32935
32968
32884
32991
33087
33031
32983
33115
33167
33013
33098
33165
33012
32983
33099
33116
32968
32995
33108
33205
33154
33129
33221
33287
33372
33324
33248
33283
33417
33377
33286
33413
33476
33335
33286
33348
33406
33300
33292
33431
33455
33371
33444
33588
33567
33516
33634
33764
33711
33660
33687
33788
33861
33730
33679
33766
33854
33752
33743
33858
33962
34028
33979
33945
33999
34123
34223
34082
34148
34294
34357
34201
34239
34377
34319
34222
34347
34418
34367
34347
34447
34542
34567
34438
34487
34682
34724
34609
34617
34751
34780
34630
34655
34794
34836
34670
34730
34799
34798
34652
34675
34799
34922
34765
34750
34888
34951
34785
34727
34708
34833
34687
34560
34527
34630
34385
34362
34324
34127
34151
34204
34086
33948
33936
33946
33775
33591
33607
33570
33410
33213
33183
33212
32974
32860
32868
32820
32574
32532
32550
32506
32385
32327
32371
32373
32283
32095
32091
32167
32103
31893
31890
31895
31785
31695
31716
31730
31599
31527
31526
31524
31589
31591
31515
31546
31607
31641
31503
31473
31540
31572
31463
31435
31494
31495
31334
31364
31430
31343
31290
31356
31455
31379
31440
31535
31437
31439
31511
31563
31460
31519
31554
31463
31407
31484
31515
31457
31373
31439
31495
31439
31463
31556
31638
31559
31646
31700
31567
31554
31623
31648
31525
31524
31621
31609
31493
31507
31603
31511
31507
31567
31679
31639
31541
31594
31687
31697
31614
31711
31761
31700
31666
31721
31777
31649
31692
31758
31649
31687
31812
31780
31764
31865
31975
31886
31855
31966
31993
31895
31936
31983
31861
31860
31959
31845
31839
31932
31850
31840
31941
31914
31872
32045
31963
31998
32108
31996
32134
32012
32135
32073
31964
32074
32132
31998
32004
32082
32015
31916
31997
32077
31975
32038
32190
32202
32135
32259
32226
32243
32191
32252
32242
32354
32229
32320
32228
32119
32168
32239
32148
32135
32241
32349
32279
32297
32391
32443
32308
32311
32394
32334
32260
32311
32428
32340
32298
32388
32399
32224
32239
32321
32326
32262
32353
32456
32540
32614
32518
32583
32762
32791
32769
32906
32990
32867
32916
33049
33068
32969
33091
33201
33102
33111
33215
33253
33077
33038
33175
33009
33004
33127
33094
32963
32967
33044
32894
32852
32971
32835
32892
32871
32911
32871
32879
32940
32831
32871
32916
32825
32739
32799
32759
32658
32742
32644
32484
32426
32434
32431
32263
32239
32287
32349
32254
32218
32263
32341
32380
32248
32185
32213
32255
32174
32103
32157
32189
32052
32021
32084
32135
32042
32103
32255
32146
32134
32222
32277
32182
32182
32293
32286
32159
32222
32255
32168
32108
32164
32246
32143
32132
32218
32236
32177
32323
32212
32300
32356
32302
32431
32277
32340
32302
32215
32327
32281
32214
32324
32167
32243
32330
32295
32278
32390
32451
32373
32446
32466
32461
32466
32615
32478
32492
32587
32391
32447
32455
32223
32100
32044
31943
31698
31607
31615
31574
31508
31551
31590
31502
31609
31839
31951
32118
32389
32484
32703
33273
33799
34376
35294
36027
36780
37772
38541
38991
39802
40455
40830
41453
42051
42487
42595
42868
43046
42708
42063
41455
40572
39332
37947
36886
35700
34413
33287
32436
31848
31175
30863
30695
30478
30239
30039
29909
29780
29563
29463
29491
29520
29604
29764
29944
30169
30261
30431
30610
30667
30805
30999
31157
31167
31206
31291
31431
31452
31405
31569
31558
31527
31672
31660
31623
31770
31721
31751
31899
31828
31815
31921
31967
31917
32039
32087
31949
32027
32062
31893
31983
32062
31942
32010
32135
32086
32039
32167
32187
32142
32292
32194
32329
32221
32247
32362
32314
32263
32391
32220
32227
32315
32316
32218
32250
32356
32414
32302
32353
32439
32514
32507
32430
32470
32566
32639
32516
32486
32590
32499
32405
32420
32502
32575
32430
32458
32567
32650
32639
32575
32693
32798
32666
32679
32775
32827
32711
32703
32755
32775
32623
32679
32807
32671
32679
32775
32870
32787
32793
32862
32988
32993
32897
32947
33039
33094
32936
32879
32957
33012
32863
32883
32929
33007
32916
32901
33003
33094
32979
33100
33117
33095
33184
33106
33120
33249
33178
33151
33233
33321
33190
33196
33310
33237
33198
33328
33447
33335
33475
33575
33468
33492
33668
33639
33534
33566
33699
33572
33583
33684
33793
33667
33663
33797
33914
33858
33844
33991
33927
33936
34170
34085
34055
34212
34244
34103
34111
34282
34214
34135
34213
34306
34119
34116
34279
34384
34269
34276
34422
34501
34368
34496
34511
34426
34623
34573
34438
34566
34567
34361
34439
34407
34311
34455
34354
34309
34429
34349
34167
34203
34258
34070
33965
34031
34067
33779
33796
33666
33505
33556
33497
33235
33151
33187
33075
32935
32992
32958
32740
32787
32844
32668
32583
32645
32462
32373
32431
32340
32186
32160
32166
32015
31904
31886
31962
31918
31778
31814
31871
31751
31770
31845
31895
31779
31766
31846
31743
31657
31676
31751
31729
31574
31601
31680
31591
31567
31663
31764
31662
31697
31828
31728
31799
31935
31923
31726
31671
31719
31577
31596
31655
31595
31578
31716
31604
31615
31740
31725
31695
31820
31890
31762
31791
31891
31872
31815
31895
31901
31750
31807
31834
31735
31836
31827
31797
31943
31838
31991
31880
31943
32093
31991
32005
32133
31967
32069
32116
31960
32039
32109
31930
31936
32000
31879
31999
31999
31991
32148
32105
32023
32101
32158
32020
32070
32215
32091
32070
32158
32116
31991
32078
31991
31919
32030
32080
31943
32039
32210
32118
32133
32252
32247
32151
32207
32294
32231
32158
32263
32234
32144
32234
32298
32167
32151
32231
32291
32174
32217
32389
32301
32309
32462
32327
32344
32482
32340
32316
32422
32326
32323
32399
32415
32285
32335
32445
32342
32335
32439
32478
32358
32465
32559
32438
32464
32580
32534
32428
32519
32404
32363
32487
32444
32342
32451
32303
32308
32460
32364
32462
32543
32389
32555
32383
32506
32433
32423
32562
32401
32429
32507
32328
32420
32458
32339
32486
32475
32508
32701
32615
32775
32895
32837
32980
33127
33031
33090
33274
33135
33207
33305
33157
33249
33279
33170
33308
33316
33143
33220
33303
33166
33285
33375
33217
33407
33255
33348
33308
33161
33212
33261
33087
33020
33130
32990
32935
33062
32948
32938
33085
32988
32920
33015
33001
32870
32900
32927
32751
32814
32726
32607
32683
32487
32476
32562
32399
32423
32581
32522
32487
32580
32652
32495
32586
32662
32486
32537
32634
32475
32533
32577
32485
32428
32517
32563
32423
32403
32508
32580
32455
32511
32610
32455
32492
32626
32439
32516
32455
32486
32403
32398
32492
32433
32398
32518
32443
32364
32480
32423
32471
32596
32591
32503
32662
32562
32552
32666
32573
32491
32599
32573
32533
32639
32641
32520
32605
32668
32564
32697
32756
32630
32681
32806
32668
32728
32854
32647
32679
32663
32373
32317
32205
31867
31812
31661
31560
31650
31546
31560
31684
31615
31740
31998
32037
32343
32557
32732
33216
33773
34230
35042
35956
36646
37526
38495
39121
39821
40607
41093
41691
42436
42606
43367
43575
43542
43698
43096
42567
41763
40397
39398
38036
36714
35538
34177
33311
32364
31806
31445
31023
30943
30642
30509
30327
30106
30031
29863
29797
29859
29822
29985
30157
30206
30415
30559
30583
30812
30843
31103
31180
31374
31388
31553
31571
31527
31699
31596
31647
31751
31718
31674
31790
31767
31747
31862
31843
31780
31876
31789
31871
31975
31914
32041
31997
32006
32135
32068
32023
32133
31958
32055
32100
31961
31991
32111
31972
32072
32175
32085
32234
32155
32227
32287
32199
32365
32245
32254
32357
32192
32220
32312
32143
32240
32193
32171
32298
32263
32246
32387
32352
32420
32431
32508
32478
32543
32591
32447
32564
32535
32423
32495
32576
32412
32487
32567
32455
32483
32610
32676
32538
32597
32740
32647
32606
32758
32719
32647
32775
32636
32738
32810
32612
32708
32764
32627
32679
32844
32711
32734
32895
32928
32783
32812
32958
32911
32835
32967
32995
32895
32977
33031
32908
32917
33058
32989
32920
33063
32965
33165
33143
33082
33195
33287
33162
33191
33332
33276
33231
33346
33427
33244
33342
33402
33309
33486
33431
33396
33557
33511
33524
33661
33767
33611
33609
33767
33692
33627
33670
33781
33817
33687
33823
33865
33751
33838
33959
33974
33908
34066
34063
34037
34215
34114
34103
34302
34167
34213
34383
34217
34247
34389
34206
34269
34374
34246
34231
34391
34420
34296
34343
34519
34436
34367
34511
34519
34372
34371
34453
34481
34470
34343
34240
34177
34149
34220
34271
34138
34044
33978
34047
34085
34008
33796
33733
33715
33671
33613
33493
33279
33194
33116
33140
33118
32935
32766
32711
32784
32731
32557
32531
32498
32541
32542
32488
32315
32214
32175
32151
32135
32116
32032
31869
31850
31884
31922
31786
31691
31701
31783
31751
31724
31831
31685
31700
31764
31626
31559
31622
31652
31530
31511
31550
31596
31518
31431
31473
31566
31605
31471
31508
31594
31665
31551
31671
31679
31567
31676
31730
31641
31524
31530
31636
31634
31527
31525
31646
31700
31640
31660
31764
31834
31787
31701
31791
31876
31795
31792
31893
31913
31822
31815
31908
31863
31707
31733
31862
31765
31775
31900
31882
31861
31951
32001
31855
31936
31998
31886
31845
31900
31972
31805
31834
31900
31897
31812
31912
32001
31887
31895
32016
32079
31935
31957
32047
31999
31948
32097
31979
31975
32029
31973
31885
32013
31946
31923
32041
31999
31991
32137
32056
32030
32172
32079
32083
32183
32043
32138
32162
32053
32164
32186
32064
32199
32062
32126
32120
32058
32206
32119
32164
32331
32214
32218
32346
32216
32227
32347
32238
32199
32285
32314
32207
32311
32252
32194
32319
32316
32287
32431
32295
32407
32411
32343
32489
32399
32369
32474
32323
32424
32342
32324
32438
32263
32359
32391
32295
32422
32341
32327
32483
32373
32366
32507
32375
32391
32518
32343
32426
32485
32375
32362
32472
32362
32324
32439
32381
32327
32420
32508
32409
32458
32602
32439
32518
32469
32441
32563
32388
32492
32479
32469
32592
32486
32650
32574
32645
32855
32774
32918
33113
33013
33048
33231
33156
33159
33339
33205
33244
33357
33167
33238
33156
33031
33113
33146
32991
33071
33172
33015
33063
33223
33079
33175
33229
33022
33093
33116
33003
33126
33006
32959
33087
32950
32903
32982
32966
32803
32856
32917
32742
32852
32887
32708
32753
32760
32558
32621
32679
32484
32490
32591
32420
32474
32487
32335
32405
32473
32316
32371
32516
32446
32441
32554
32543
32421
32519
32486
32368
32462
32508
32332
32367
32461
32342
32451
32484
32362
32517
32457
32476
32628
32458
32591
32519
32513
32647
32503
32558
32652
32476
32487
32582
32438
32428
32556
32423
32480
32644
32547
32516
32529
32628
32641
32537
32657
32660
32551
32632
32687
32543
32630
32703
32542
32572
32655
32573
32518
32625
32672
32503
32589
32605
32400
32238
32173
32012
31743
31719
31641
31463
31495
31518
31351
31362
31532
31528
31719
32002
32235
32358
32804
33399
33855
34689
35546
36303
37287
38255
39016
39543
40383
41127
41566
42148
42820
43271
43500
43917
44100
43804
43132
42565
41692
40380
39095
37921
36501
35156
34162
33194
32205
31639
31327
30991
30680
30511
30333
30102
29863
29764
29771
29797
29831
29959
30171
30324
30342
30459
30599
30751
30740
30820
30959
31095
31048
31156
31345
31348
31363
31516
31628
31556
31575
31673
31765
31685
31687
31751
31798
31841
31725
31729
31821
31852
31716
31780
31877
31766
31831
31998
31878
31946
32093
31979
32127
32141
31999
31985
32084
32145
31974
31975
32047
32020
31900
31940
32065
32001
31988
32066
32197
32135
32081
32199
32236
32134
32127
32180
32263
32151
32149
32243
32241
32089
32129
32254
32194
32129
32263
32337
32226
32327
32399
32269
32309
32383
32369
32297
32431
32441
32323
32408
32449
32303
32329
32452
32412
32405
32535
32612
32538
32537
32613
32669
32531
32596
32714
32535
32607
32678
32582
32532
32610
32685
32537
32543
32612
32718
32785
32805
32700
32735
32783
32950
32892
32853
32871
32935
32991
32932
32860
32879
32967
33018
33007
32906
32867
32906
32952
33105
33194
33104
33094
33197
33292
33238
33216
33319
33433
33311
33263
33310
33407
33429
33344
33336
33434
33529
33594
33511
33559
33701
33822
33742
33717
33748
33873
33982
33921
33843
33922
34007
34014
33901
33893
34079
34055
34009
34183
34293
34175
34204
34324
34392
34311
34293
34391
34498
34362
34327
34463
34532
34383
34342
34427
34490
34337
34452
34567
34452
34407
34532
34487
34422
34494
34598
34452
34327
34375
34396
34225
34104
34118
34127
33927
33866
33908
33911
33761
33620
33618
33671
33671
33600
33343
33287
33327
33055
32999
33025
32772
32715
32788
32609
32548
32611
32459
32294
32310
32340
32155
32233
32286
32116
32195
32003
32053
32029
31907
31994
31855
31716
31732
31735
31556
31583
31687
31535
31692
31694
31657
31775
31678
31683
31765
31793
31639
31665
31751
31618
31580
31687
31564
31634
31636
31557
31685
31650
31607
31751
31647
31703
31845
31750
31710
31809
31809
31679
31703
31802
31713
31684
31751
31783
31653
31691
31791
31710
31678
31814
31912
31799
31813
31965
31928
31805
31824
31940
31833
31781
31843
31876
31706
31807
31775
31758
31898
31876
31802
31891
31993
31956
31876
32046
31911
32017
31896
32035
31900
31866
31903
31864
31918
31823
31786
31892
31923
31841
31973
31884
31917
32042
31918
32028
32127
31990
32099
32080
32019
32131
31985
32062
32090
31938
32059
32021
31977
32085
32007
32054
32215
32095
32231
32196
32103
32196
32183
32126
32263
32153
32107
32227
32157
32094
32217
32127
32106
32248
32215
32190
32309
32311
32207
32308
32332
32191
32287
32287
32196
32286
32231
32196
32305
32135
32135
32273
32196
32198
32310
32234
32263
32413
32353
32312
32430
32375
32334
32413
32430
32285
32314
32403
32380
32263
32377
32446
32343
32309
32430
32446
32324
32380
32519
32503
32405
32447
32515
32504
32358
32340
32415
32447
32316
32312
32426
32288
32321
32446
32367
32367
32519
32457
32428
32527
32548
32410
32518
32587
32430
32431
32527
32461
32381
32494
32541
32378
32494
32590
32468
32439
32580
32644
32492
32519
32640
32514
32627
32523
32615
32659
32495
32503
32629
32574
32518
32595
32558
32496
32559
32711
32598
32588
32748
32693
32668
32791
32661
32657
32772
32629
32589
32718
32531
32623
32715
32599
32660
32867
32773
32806
32958
33013
32946
33023
33219
33166
33146
33186
33332
33261
33228
33335
33357
33167
33175
33310
33191
33179
33350
33201
33228
33376
33239
33198
33343
33191
33148
33271
33140
33103
33153
33145
32993
33066
33074
32894
32920
33039
32961
32895
32981
32986
32807
32864
32919
32743
32729
32775
32813
32630
32687
32740
32577
32494
32555
32628
32471
32476
32609
32621
32495
32572
32628
32479
32573
32709
32581
32561
32694
32490
32585
32631
32482
32594
32576
32503
32647
32647
32527
32566
32711
32619
32615
32759
32652
32595
32708
32550
32530
32627
32678
32504
32541
32642
32647
32549
32619
32705
32625
32619
32754
32671
32647
32772
32823
32676
32744
32822
32709
32711
32787
32839
32673
32626
32753
32747
32679
32790
32860
32813
32775
32837
32957
32775
32757
32809
32568
32445
32391
32080
31916
31884
31615
31662
31546
31540
31643
31530
31679
31820
31914
32241
32398
32595
33023
33609
34075
34772
35765
36604
37414
38459
39276
39829
40467
41278
41782
42345
43113
43428
43928
44328
44403
43969
43625
43086
41945
40813
39708
38244
36962
35776
34449
33585
32575
31971
31654
31255
30934
30786
30660
30342
30162
30056
29908
29916
30018
30174
30214
30343
30496
30575
30584
30751
30844
30914
31084
31263
31218
31302
31486
31409
31487
31607
31549
31543
31703
31744
31655
31654
31680
31810
31760
31670
31740
31844
31740
31786
31900
31836
31803
31855
32005
32010
31912
32023
32123
31985
32086
32143
32004
32084
32132
31997
32092
32038
32020
32161
32107
32120
32300
32203
32234
32362
32308
32228
32263
32373
32263
32231
32315
32358
32201
32223
32296
32363
32217
32332
32451
32338
32471
32460
32419
32527
32555
32455
32548
32551
32439
32519
32582
32383
32475
32548
32412
32423
32560
32433
32590
32620
32530
32708
32630
32602
32735
32703
32615
32707
32740
32647
32739
32743
32565
32686
32616
32608
32769
32706
32724
32871
32716
32817
32934
32788
32891
32966
32842
32971
32894
32834
32967
32987
32870
32958
33038
32887
32903
33078
32947
33068
33207
33037
33164
33239
33084
33156
33287
33171
33143
33270
33311
33148
33255
33356
33197
33255
33381
33466
33358
33519
33564
33453
33470
33564
33683
33559
33540
33684
33775
33655
33624
33759
33670
33639
33799
33842
33747
33871
33989
33890
33925
34132
33993
34006
34161
34004
34091
34165
33972
33998
34191
34029
34119
34187
34019
34047
34231
34107
34311
34183
34326
34444
34306
34407
34503
34341
34430
34468
34278
34199
34291
34300
34072
34034
34104
34094
33879
33862
33956
33966
33751
33700
33775
33734
33543
33515
33554
33499
33300
33191
33175
33147
33039
32830
32763
32758
32745
32679
32558
32492
32527
32532
32451
32302
32263
32258
32281
32180
32032
32007
32027
32038
31955
31791
31727
31719
31741
31813
31828
31790
31721
31655
31663
31679
31723
31719
31629
31548
31541
31601
31628
31470
31481
31581
31519
31450
31473
31572
31680
31580
31564
31601
31685
31759
31751
31649
31648
31742
31726
31599
31612
31698
31604
31590
31679
31538
31582
31698
31668
31614
31738
31843
31719
31887
31814
31782
31823
31878
31815
31829
31890
31908
31781
31902
31804
31799
31934
31866
31892
32012
31957
32054
31947
31914
32021
31966
31948
32063
32036
31919
31983
32025
31887
31929
32026
31934
31911
32044
32071
31983
32079
32159
32024
32053
32199
32102
32027
32101
32169
32026
32063
32175
32102
31998
32056
32100
32031
32007
32109
32171
32039
32164
32235
32157
32191
32316
32225
32171
32287
32143
32230
32054
32135
31990
32111
32218
32108
32199
32309
32180
32247
32365
32291
32212
32321
32372
32216
32263
32384
32302
32263
32311
32319
32183
32175
32295
32231
32212
32343
32340
32326
32442
32361
32347
32414
32423
32322
32433
32479
32324
32311
32399
32452
32325
32303
32423
32445
32343
32431
32527
32402
32443
32543
32526
32430
32542
32488
32372
32442
32508
32385
32402
32532
32431
32361
32476
32446
32318
32404
32508
32414
32445
32587
32541
32518
32624
32645
32494
32575
32631
32484
32455
32551
32518
32402
32505
32610
32488
32502
32678
32575
32535
32609
32698
32573
32550
32550
32611
32556
32494
32601
32556
32428
32508
32441
32398
32528
32629
32501
32534
32679
32604
32546
32634
32694
32575
32743
32694
32600
32615
32676
32591
32495
32599
32697
32663
32639
32763
32893
32866
32831
32951
33072
32983
33001
33142
33186
33083
33268
33211
33217
33350
33161
33255
33205
33099
33200
33223
33091
33218
33287
33126
33247
33324
33153
33167
33260
33165
33038
33060
33076
32861
32879
32973
32941
32806
32897
32967
32775
32775
32885
32828
32744
32825
32847
32647
32592
32653
32663
32476
32525
32565
32431
32444
32503
32378
32478
32513
32340
32402
32566
32486
32437
32515
32559
32401
32449
32584
32486
32445
32502
32583
32394
32406
32506
32418
32414
32550
32502
32455
32569
32672
32603
32539
32596
32682
32631
32477
32562
32617
32486
32458
32551
32567
32367
32388
32527
32487
32412
32457
32612
32508
32501
32615
32686
32524
32568
32687
32647
32508
32584
32625
32622
32492
32511
32605
32703
32639
32587
32639
32759
32828
32723
32695
32711
32783
32790
32572
32394
32293
32132
31839
31740
31717
31689
31562
31580
31646
31797
31789
31810
32004
32276
32368
32519
32954
33402
33743
34402
35351
36102
36836
37738
38567
39205
39711
40364
41084
41545
41844
42522
42955
42991
42927
42717
42073
41143
40188
39202
37935
36586
35311
34324
33269
32367
31736
31310
30965
30848
30754
30539
30317
30208
30148
29988
29896
29983
30098
30148
30330
30509
30594
30711
30886
30861
31013
31164
31135
31244
31405
31550
31524
31543
31652
31766
31709
31756
31872
31956
31975
31879
31884
31999
31972
31911
31948
32050
32071
31995
32007
32076
32213
32164
32114
32181
32312
32221
32164
32218
32286
32127
32207
32243
32109
32146
32244
32305
32224
32236
32340
32433
32357
32302
32378
32519
32407
32373
32482
32472
32344
32347
32463
32357
32340
32431
32484
32356
32428
32556
32472
32479
32591
32655
32534
32564
32671
32580
32503
32599
32693
32551
32551
32671
32575
32497
32593
32684
32611
32559
32706
32821
32711
32679
32796
32867
32788
32751
32860
32932
32798
32759
32853
32911
32756
32768
32895
32942
32807
32854
33013
32999
32927
33042
33112
32930
32967
33132
33055
32986
33082
33119
32952
33031
33068
32935
33093
33141
33063
33135
33331
33204
33245
33434
33358
33338
33513
33543
33370
33372
33475
33356
33339
33382
33543
33495
33422
33463
33644
33556
33537
33642
33771
33716
33695
33831
33940
33828
33788
33919
33905
33799
33850
33958
33902
33839
33975
34066
33935
33983
34181
34172
34132
34271
34343
34255
34370
34439
34257
34265
34385
34359
34247
34308
34499
34380
34567
34404
34548
34375
34503
34441
34444
34602
34657
34507
34606
34693
34529
34465
34511
34545
34425
34300
34270
34343
34333
34181
34183
34283
34212
34036
34021
34119
34088
33839
33780
33852
33692
33470
33386
33391
33367
33105
33055
33093
32994
32813
32791
32827
32871
32693
32605
32640
32624
32482
32390
32444
32326
32206
32228
32207
31998
32050
31893
31860
31964
31830
31807
31887
31908
31798
31854
31868
31694
31751
31831
31703
31780
31798
31631
31684
31669
31572
31652
31607
31484
31567
31623
31564
31668
31745
31631
31623
31704
31646
31623
31719
31751
31601
31652
31718
31623
31571
31628
31658
31559
31644
31716
31631
31676
31819
31772
31748
31825
31882
31812
31748
31847
31721
31657
31721
31767
31684
31588
31686
31758
31669
31716
31814
31676
31802
31879
31815
31964
31895
31926
32004
31887
31928
32043
32083
31935
31914
31979
32026
31985
31905
31940
32059
32033
31970
32085
32156
32066
32051
32098
32118
32006
31979
32079
32113
31988
31943
32014
32083
32059
31975
31994
32087
32188
32077
32104
32218
32246
32129
32183
32253
32243
32148
32139
32196
32259
32094
32069
32159
32253
32250
32146
32164
32288
32309
32216
32237
32329
32370
32332
32191
32207
32319
32379
32239
32215
32253
32327
32245
32199
32198
32255
32327
32389
32301
32276
32347
32471
32295
32316
32421
32449
32364
32307
32373
32421
32297
32239
32260
32353
32415
32327
32351
32488
32479
32389
32415
32498
32565
32451
32439
32514
32557
32554
32438
32431
32431
32503
32548
32406
32357
32421
32531
32566
32542
32461
32500
32599
32631
32475
32493
32572
32652
32538
32456
32495
32594
32564
32423
32468
32585
32532
32439
32486
32597
32676
32551
32528
32614
32684
32547
32551
32655
32683
32532
32502
32572
32623
32529
32395
32471
32621
32710
32639
32701
32775
32925
32951
32884
32962
33099
33192
33114
33075
33092
33249
33191
33159
33287
33332
33159
33194
33317
33148
33153
33319
33170
33316
33299
33172
33225
33279
33111
33143
33147
32943
32924
33042
33073
32938
32879
32985
32980
32814
32933
32797
32759
32817
32729
32596
32587
32629
32636
32455
32412
32487
32389
32300
32367
32407
32263
32368
32469
32358
32484
32575
32437
32459
32534
32551
32420
32427
32474
32511
32397
32326
32327
32447
32326
32319
32442
32511
32396
32524
32529
32483
32638
32519
32511
32572
32422
32435
32532
32525
32366
32417
32519
32404
32431
32542
32454
32388
32446
32590
32422
32510
32580
32454
32592
32645
32518
32618
32661
32505
32613
32634
32476
32519
32619
32588
32543
32683
32654
32615
32764
32793
32711
32817
32878
32780
32722
32812
32719
32517
32526
32346
32089
32014
31940
31717
31724
31727
31679
31803
31899
31811
31884
32079
32191
32263
32485
32884
33342
33679
34438
35302
35964
36863
37812
38564
39145
39962
40719
41178
41583
42310
42979
43265
43383
43435
43301
42606
41599
40924
39884
38572
37199
35895
34871
33793
32821
32166
31780
31510
31180
31019
30896
30759
30517
30327
30280
30320
30249
30414
30467
30599
30766
30882
30918
31037
31234
31308
31310
31483
31620
31613
31604
31736
31845
31794
31791
31939
31993
31886
31931
32031
32034
31894
31940
32057
32039
31999
32075
32194
32135
32111
32223
32263
32171
32257
32318
32178
32252
32308
32167
32176
32247
32210
32075
32166
32212
32123
32295
32225
32290
32436
32327
32364
32479
32329
32428
32478
32308
32417
32388
32325
32396
32367
32292
32419
32415
32338
32391
32503
32560
32466
32469
32580
32668
32542
32601
32639
32465
32495
32591
32468
32397
32495
32533
32389
32498
32621
32620
32519
32602
32740
32641
32629
32769
32772
32662
32699
32815
32745
32641
32724
32770
32671
32631
32695
32837
32845
32806
32958
32888
32895
33067
32963
33045
33103
32995
33077
33021
32932
33066
32943
32884
33028
32901
32917
33071
33094
32957
33015
33164
33223
33099
33208
33252
33143
33247
33335
33162
33167
33311
33333
33215
33274
33332
33219
33251
33402
33364
33341
33518
33503
33441
33580
33670
33559
33703
33779
33569
33583
33719
33643
33580
33720
33820
33711
33735
33906
33836
33833
34042
34001
33980
34138
34239
34116
34119
34261
34333
34141
34245
34329
34183
34300
34321
34204
34320
34436
34293
34434
34567
34431
34517
34625
34470
34540
34638
34439
34532
34453
34343
34471
34274
34372
34199
34334
34172
34307
34109
34073
34225
34011
33994
34094
33852
33872
33837
33599
33589
33607
33359
33255
33307
33049
33046
33054
32803
32838
32855
32673
32674
32737
32530
32583
32595
32388
32403
32439
32210
32224
32236
32018
31944
31955
31964
31799
31782
31829
31885
31770
31773
31891
31758
31841
31705
31804
31652
31769
31637
31732
31575
31596
31472
31568
31441
31582
31492
31606
31599
31665
31612
31690
31744
31615
31680
31775
31647
31700
31725
31622
31709
31687
31535
31581
31692
31596
31616
31743
31831
31762
31751
31794
31891
31939
31814
31861
31951
31975
31830
31833
31879
31924
31806
31781
31887
31941
31860
31855
32020
31953
32068
32007
32067
32129
32101
32050
32110
32102
31957
31973
32069
31955
31911
32049
31929
31954
32039
32103
32031
32045
32175
32138
32114
32208
32301
32236
32132
32181
32295
32233
32083
32100
32191
32223
32098
32044
32085
32198
32260
32142
32185
32279
32351
32212
32228
32360
32225
32199
32294
32373
32255
32182
32219
32288
32316
32244
32143
32199
32343
32388
32281
32339
32467
32456
32364
32412
32518
32476
32408
32459
32471
32301
32423
32474
32335
32295
32399
32468
32455
32367
32420
32510
32599
32586
32463
32451
32558
32625
32567
32459
32495
32606
32497
32401
32484
32551
32515
32455
32521
32676
32699
32563
32606
32666
32756
32695
32614
32652
32735
32772
32631
32532
32535
32615
32527
32483
32608
32536
32527
32631
32743
32636
32671
32780
32628
32650
32732
32724
32583
32599
32698
32548
32547
32652
32538
32559
32692
32682
32556
32564
32679
32773
32678
32627
32722
32804
32706
32644
32699
32715
32549
32535
32607
32572
32417
32439
32594
32537
32535
32672
32807
32695
32772
32966
32966
32917
33071
33194
33156
33138
33242
33293
33236
33200
33325
33350
33241
33301
33357
33189
33229
33361
33354
33238
33255
33398
33426
33230
33209
33268
33259
33025
32999
33044
33102
32978
32944
33016
33055
32939
33004
33109
32994
32903
32938
33003
32934
32732
32692
32696
32701
32647
32527
32425
32409
32431
32517
32564
32479
32375
32428
32509
32627
32645
32504
32619
32443
32546
32408
32479
32519
32372
32330
32379
32423
32381
32315
32359
32509
32397
32391
32509
32564
32460
32516
32618
32611
32516
32631
32476
32484
32543
32567
32412
32430
32559
32428
32448
32583
32510
32514
32666
32526
32570
32740
32610
32575
32658
32687
32515
32527
32595
32496
32464
32543
32598
32487
32516
32591
32668
32543
32690
32749
32644
32774
32727
32608
32614
32589
32379
32190
32065
31950
31661
31588
31570
31500
31381
31394
31519
31525
31468
31621
31778
31805
32079
32405
32734
33156
33830
34703
35543
36314
37127
38185
39050
39577
40334
41089
41703
42247
43031
43302
43667
43895
43588
42924
42575
41546
40327
39378
38007
36754
35588
34287
33396
32688
31966
31623
31465
31130
31040
30759
30488
30386
30287
30151
30180
30300
30413
30452
30548
30684
30717
30756
30921
31083
31117
31108
31239
31385
31463
31390
31461
31572
31537
31515
31578
31719
31624
31615
31751
31751
31629
31716
31775
31701
31697
31804
31884
31798
31806
31923
31956
31868
31918
32018
32062
31925
31931
32012
32055
31972
31918
31926
31957
32075
32109
32044
32100
32254
32167
32169
32318
32279
32186
32196
32260
32299
32228
32164
32234
32317
32239
32209
32308
32375
32310
32281
32337
32444
32492
32372
32410
32540
32453
32423
32489
32543
32412
32421
32529
32386
32340
32410
32495
32385
32414
32538
32588
32477
32543
32686
32608
32597
32699
32772
32636
32644
32686
32743
32580
32671
32754
32638
32619
32646
32775
32700
32652
32708
32835
32871
32769
32798
32871
32884
32748
32812
32903
32884
32763
32879
32962
32785
32879
32970
32863
32876
32975
33095
33037
33046
33129
33197
33071
33106
33228
33129
33030
33111
33182
33026
33055
33214
33135
33116
33284
33297
33271
33355
33495
33539
33438
33500
33655
33484
33565
33647
33507
33600
33671
33662
33571
33604
33749
33620
33692
33844
33884
33860
34017
34118
33997
34002
34156
34016
34020
34135
34184
34030
34055
34198
34119
34069
34239
34125
34183
34383
34270
34293
34473
34369
34469
34378
34551
34382
34535
34359
34431
34376
34247
34320
34358
34161
34145
34247
34055
34043
34147
33946
34044
33965
33851
33951
33780
33658
33695
33590
33418
33447
33351
33123
33141
33088
32847
32903
32913
32690
32711
32815
32625
32639
32626
32436
32423
32478
32260
32263
32247
32063
32089
32029
31883
31943
31903
31786
31751
31813
31866
31864
31775
31775
31791
31855
31791
31655
31639
31655
31679
31584
31518
31463
31492
31567
31557
31469
31535
31614
31606
31538
31672
31707
31621
31685
31737
31646
31601
31706
31670
31591
31647
31655
31479
31547
31548
31508
31650
31572
31622
31737
31695
31703
31843
31863
31751
31854
31830
31751
31823
31852
31710
31751
31780
31657
31813
31741
31742
31827
31935
31847
31916
32037
31956
31962
32010
32061
31951
31934
31986
31975
31859
31909
31956
31845
31846
31924
31968
31892
31887
31980
32079
31970
32023
32116
32031
31977
32015
32113
32072
31910
31928
32002
31910
31911
32005
32045
31934
32055
31948
32007
32135
32060
32079
32180
32079
32090
32015
32073
32132
31985
31982
32044
31960
31937
32054
31908
32034
31932
31981
32135
32076
32096
32197
32092
32116
32220
32135
32071
32143
32166
32007
32087
32105
32054
31952
32062
32076
31998
32101
32207
32083
32143
32260
32194
32199
32301
32175
32279
32192
32153
32263
32148
32158
32234
32087
32127
32260
32164
32231
32364
32372
32316
32407
32483
32393
32387
32419
32475
32436
32314
32401
32375
32295
32428
32261
32279
32387
32287
32328
32471
32465
32391
32444
32550
32532
32423
32469
32516
32547
32399
32332
32362
32457
32461
32316
32376
32473
32548
32437
32451
32549
32622
32532
32534
32654
32706
32658
32687
32775
32876
32732
32707
32807
32861
32793
32878
33015
33118
33070
33220
33276
33167
33287
33391
33244
33220
33296
33255
33087
33189
33225
33060
33143
33179
33027
33063
33198
33040
33072
33221
33087
33071
33190
33172
33020
33014
33133
33087
32903
32862
32943
32811
32664
32631
32701
32573
32518
32627
32591
32490
32515
32626
32595
32484
32534
32583
32514
32442
32487
32501
32322
32295
32399
32305
32277
32383
32463
32390
32391
32515
32575
32519
32463
32551
32636
32487
32519
32634
32517
32447
32495
32547
32482
32437
32516
32543
32506
32483
32561
32647
32661
32575
32588
32710
32623
32565
32676
32698
32533
32559
32612
32436
32479
32567
32532
32482
32591
32634
32497
32537
32671
32695
32571
32660
32760
32599
32618
32721
32733
32629
32604
32735
32615
32719
32605
32735
32520
32430
32458
32276
32068
31979
31968
31789
31758
31782
31815
31719
31691
31771
31862
31974
32012
32188
32396
32751
33247
33630
34287
35142
36083
36820
37565
38407
39165
39679
40071
40886
41452
41751
42244
42594
42900
42703
42183
41631
40934
39959
38704
37479
36359
35181
34030
32991
32288
31727
31276
31037
30936
30839
30572
30393
30256
30043
29918
29946
30023
30090
30277
30526
30721
30826
30964
31154
31151
31239
31372
31474
31426
31412
31495
31622
31571
31566
31711
31818
31786
31863
32007
31913
31945
32063
32134
32001
32102
32183
32075
32044
32135
32134
31990
32012
32098
32069
31941
31985
32117
32127
32040
32116
32235
32131
32150
32243
32292
32285
32214
32174
32231
32274
32135
32114
32183
32263
32236
32186
32284
32362
32252
32218
32276
32395
32404
32315
32356
32456
32487
32372
32395
32478
32294
32356
32399
32263
32302
32423
32359
32340
32460
32527
32414
32494
32647
32564
32558
32649
32687
32533
32542
32644
32580
32463
32530
32604
32460
32527
32673
32508
32564
32719
32602
32613
32755
32679
32690
32711
32809
32699
32628
32718
32807
32763
32672
32685
32794
32734
32724
32825
32922
32804
32839
32941
33030
32959
32940
33096
32971
33100
33159
33030
33030
33142
33039
33005
33159
33194
33134
33269
33358
33229
33375
33280
33348
33509
33396
33407
33522
33494
33441
33539
33633
33508
33526
33641
33745
33607
33729
33847
33727
33763
33927
34015
33844
33916
34114
34065
34018
34095
34162
34001
34046
34228
34028
34055
34182
34191
34114
34193
34414
34469
34365
34370
34502
34593
34671
34543
34479
34612
34516
34486
34607
34435
34562
34599
34431
34458
34627
34518
34441
34577
34492
34424
34586
34439
34321
34398
34252
34094
34078
34126
34011
33845
33921
33865
33669
33564
33583
33589
33412
33348
33447
33257
33185
33238
33077
32928
32923
32916
32665
32691
32542
32460
32479
32452
32253
32236
32263
32226
32090
32134
32211
32151
32015
32007
32049
31992
31824
31799
31820
31811
31686
31629
31665
31652
31529
31598
31619
31506
31542
31633
31678
31557
31604
31659
31558
31502
31541
31595
31615
31498
31494
31547
31558
31428
31495
31615
31614
31527
31557
31631
31696
31591
31630
31724
31716
31668
31695
31782
31773
31624
31631
31733
31738
31641
31646
31751
31799
31723
31820
31887
31878
31820
31913
31990
31888
31933
32020
31892
31906
31998
31856
31852
31948
31855
31795
31898
31921
31876
31994
32079
31983
32037
32175
32086
32047
32139
32161
32007
32071
32082
31913
31975
32089
31982
32100
32119
32004
32050
32140
32228
32199
32220
32254
32298
32311
32205
32225
32263
32311
32188
32120
32175
32212
32062
32135
32263
32231
32207
32365
32469
32434
32397
32404
32468
32519
32526
32402
32383
32434
32474
32423
32321
32389
32452
32450
32344
32347
32493
32487
32430
32548
32543
32436
32515
32495
32407
32495
32424
32360
32439
32463
32303
32376
32446
32335
32287
32381
32471
32372
32419
32596
32526
32505
32538
32611
32453
32462
32602
32578
32436
32444
32510
32481
32357
32446
32519
32538
32438
32463
32551
32610
32493
32532
32613
32557
32532
32614
32661
32495
32439
32505
32535
32417
32415
32558
32679
32683
32612
32722
32831
32743
32860
33067
33058
33068
33140
33296
33353
33236
33235
33347
33324
33151
33224
33303
33140
33244
33287
33162
33303
33415
33283
33258
33351
33439
33245
33351
33188
33311
33148
33228
33030
33122
32967
33076
33036
32909
32988
33076
32901
32922
32996
32958
32831
32932
32738
32801
32695
32603
32612
32686
32631
32544
32620
32673
32493
32615
32596
32468
32487
32607
32692
32634
32533
32516
32631
32681
32632
32515
32543
32626
32505
32481
32561
32606
32485
32421
32462
32587
32640
32496
32549
32634
32683
32545
32556
32644
32642
32471
32529
32540
32384
32462
32500
32394
32447
32582
32559
32567
32727
32679
32602
32693
32711
32636
32787
32699
32612
32676
32724
32568
32566
32647
32552
32543
32653
32706
32628
32665
32795
32839
32751
32788
32934
32959
32752
32597
32518
32436
32182
32007
31967
31919
31760
31764
31882
31965
31921
32071
32273
32369
32487
32775
33049
33194
33615
34229
34916
35512
36268
37157
37951
38487
38964
39764
40444
40991
41367
41674
42244
42631
42837
42620
42090
41277
40655
39682
38438
37092
35760
34590
33564
32596
31747
31228
31007
30830
30662
30595
30532
30367
30199
30112
29993
30055
30087
30188
30366
30573
30599
30727
30895
31046
31073
31088
31239
31401
31397
31495
31630
31751
31711
31720
31801
31943
31884
31956
32007
31948
32015
32039
31935
31916
32028
32102
32041
32015
32076
32214
32112
32143
32188
32149
32103
32153
32242
32309
32246
32212
32316
32189
32212
32311
32216
32219
32294
32391
32421
32335
32321
32391
32500
32562
32501
32465
32564
32583
32415
32362
32399
32447
32548
32546
32420
32387
32422
32536
32591
32495
32567
32708
32708
32593
32604
32670
32727
32621
32604
32651
32678
32506
32465
32505
32615
32610
32473
32493
32601
32691
32650
32603
32657
32796
32767
32663
32626
32662
32721
32788
32652
32652
32738
32775
32652
32653
32745
32836
32878
32772
32775
32881
32975
32967
32809
32823
32908
32971
32833
32818
32911
32943
32823
32852
32941
32965
32831
32959
33069
32934
33010
33172
33160
33102
33148
33287
33268
33175
33148
33286
33327
33210
33205
33306
33242
33229
33383
33477
33376
33372
33422
33574
33549
33532
33578
33695
33607
33583
33724
33793
33631
33647
33790
33739
33679
33860
33943
33817
33847
33996
34087
33935
33971
34151
34119
34067
34087
34178
34263
34084
34092
34236
34287
34170
34164
34282
34335
34161
34175
34346
34375
34272
34296
34387
34475
34369
34269
34271
34335
34398
34321
34158
34193
34246
34084
33958
33983
34011
33870
33780
33743
33830
33772
33639
33492
33487
33489
33284
33147
33072
33079
33015
32823
32690
32644
32680
32498
32411
32399
32474
32428
32259
32241
32286
32225
32057
32052
32046
31991
31920
31779
31730
31732
31716
31605
31579
31630
31653
31638
31517
31596
31679
31567
31537
31565
31628
31622
31491
31474
31519
31564
31433
31444
31495
31490
31438
31445
31543
31623
31611
31628
31768
31699
31661
31705
31632
31586
31657
31695
31583
31662
31597
31565
31629
31524
31620
31628
31604
31711
31799
31718
31688
31780
31806
31685
31726
31825
31743
31679
31748
31724
31660
31774
31695
31642
31748
31741
31720
31858
31773
31831
31946
31831
31909
31982
31847
31948
31951
31844
31942
31978
31834
31820
31887
31932
31815
31863
31982
31898
31887
32038
32095
31983
32079
32158
32043
32068
32134
31996
31977
32070
32052
31959
32059
32094
31973
32033
32133
32057
32047
32142
32202
32139
32088
32102
32173
32205
32228
32134
32099
32132
32223
32180
32061
32082
32169
32204
32175
32124
32215
32353
32276
32285
32385
32431
32374
32286
32327
32359
32385
32367
32241
32223
32303
32342
32244
32203
32311
32416
32354
32296
32383
32529
32543
32500
32435
32431
32519
32577
32449
32430
32471
32519
32455
32396
32462
32508
32447
32375
32404
32543
32570
32500
32535
32667
32707
32600
32492
32508
32580
32510
32407
32416
32527
32605
32601
32548
32591
32679
32826
32964
32941
32983
33136
33225
33199
33151
33223
33340
33348
33210
33300
33282
33132
33189
33222
33172
33092
33188
33260
33095
33099
33238
33162
33113
33195
33197
33029
33092
33157
32988
32942
32996
33042
32895
32892
32995
33067
32902
32951
33080
32897
32904
33039
32935
32823
32862
32883
32787
32612
32670
32718
32606
32537
32542
32622
32612
32519
32516
32632
32678
32571
32574
32655
32663
32538
32580
32676
32575
32519
32584
32602
32540
32431
32512
32567
32510
32474
32608
32615
32516
32565
32647
32711
32680
32588
32663
32789
32687
32648
32684
32754
32603
32620
32707
32639
32549
32647
32759
32630
32652
32790
32775
32654
32762
32839
32689
32647
32708
32779
32622
32709
32720
32547
32647
32726
32630
32636
32775
32826
32734
32743
32844
32839
32643
32565
32511
32287
31979
31894
31860
31645
31604
31678
31559
31627
31751
31750
31813
32066
32183
32467
32574
32962
33514
34142
34750
35487
36428
37341
37950
38570
39431
40151
40594
41006
41739
42390
42631
42879
43009
42951
42481
41674
40668
39851
38714
37254
36119
34991
33708
32744
32071
31492
31069
30894
30755
30484
30287
30173
30087
29951
29892
30012
30178
30295
30375
30529
30669
30841
30943
30945
31050
31175
31288
31281
31270
31347
31484
31556
31501
31614
31799
31746
31809
31934
31974
31853
31860
31978
31852
31821
31924
31927
31855
31911
32031
32063
31965
31952
31999
32070
32158
32103
32085
32175
32239
32124
32132
32224
32208
32089
32103
32175
32204
32070
32098
32199
32284
32226
32196
32300
32404
32286
32263
32302
32415
32436
32309
32300
32374
32349
32253
32263
32332
32399
32260
32290
32415
32447
32383
32482
32592
32545
32509
32660
32665
32527
32644
32661
32490
32500
32570
32588
32452
32533
32541
32457
32551
32654
32578
32580
32726
32676
32643
32748
32746
32597
32648
32775
32650
32684
32794
32621
32773
32637
32675
32803
32742
32711
32861
32822
32790
32957
32899
32873
33004
33006
32913
33022
32922
32885
33025
32932
32966
33100
32983
33007
33173
33068
33095
33246
33192
33143
33255
33338
33207
33343
33268
33367
33393
33296
33390
33479
33422
33346
33476
33567
33446
33503
33655
33767
33630
33692
33873
33809
33816
33996
33832
33935
34011
33866
33958
34060
33932
34099
33976
34017
34238
34107
34159
34348
34196
34330
34398
34278
34383
34471
34311
34418
34491
34311
34394
34455
34279
34395
34519
34408
34388
34500
34557
34398
34447
34615
34455
34426
34557
34401
34335
34423
34327
34161
34199
34198
33966
33913
33964
33893
33717
33701
33771
33750
33537
33482
33510
33507
33259
33272
33263
33036
32940
32940
32880
32661
32556
32625
32410
32437
32479
32367
32310
32350
32311
32121
32159
32127
31934
31919
31958
31910
31759
31814
31828
31655
31714
31751
31613
31615
31691
31631
31583
31716
31700
31648
31679
31750
31687
31617
31668
31612
31556
31589
31564
31456
31512
31554
31462
31509
31616
31535
31586
31710
31599
31636
31738
31629
31696
31725
31612
31614
31708
31676
31599
31669
31645
31572
31613
31724
31672
31647
31767
31803
31748
31846
31924
31804
31906
31892
31815
31917
31811
31876
31927
31791
31870
31884
31806
31903
31988
31892
31939
32097
31983
31991
32100
31995
31972
32060
31999
31977
32067
32055
31939
32028
31980
31921
31988
32023
31934
31979
32075
32142
32050
32066
32187
32174
32050
32095
32156
32042
32045
32147
32078
31999
32079
32147
32055
32044
32149
32178
32095
32162
32263
32191
32179
32292
32261
32175
32243
32255
32137
32218
32273
32128
32201
32240
32106
32172
32287
32295
32247
32294
32435
32326
32324
32423
32412
32327
32422
32367
32282
32307
32394
32294
32305
32396
32301
32294
32436
32482
32358
32476
32519
32394
32455
32590
32466
32599
32442
32519
32567
32484
32380
32407
32455
32382
32337
32431
32526
32394
32483
32551
32423
32525
32591
32479
32420
32500
32538
32409
32455
32540
32428
32351
32406
32492
32354
32338
32460
32559
32459
32425
32546
32621
32519
32519
32655
32567
32551
32655
32495
32465
32516
32462
32402
32519
32560
32489
32526
32710
32669
32663
32823
32951
32881
32964
33119
33072
33026
33172
33221
33108
33204
33223
33079
33060
33159
33047
33021
33142
33178
33066
33109
33247
33090
33114
33223
33114
33055
33116
33054
32874
32932
32983
32854
32812
32871
32935
32802
32831
32943
32847
32782
32842
32876
32701
32751
32759
32575
32657
32670
32485
32487
32566
32385
32383
32477
32407
32349
32488
32405
32383
32461
32545
32451
32543
32473
32436
32539
32550
32399
32437
32497
32367
32362
32476
32407
32384
32532
32487
32504
32669
32605
32594
32726
32628
32556
32648
32486
32612
32484
32566
32507
32446
32567
32606
32494
32533
32663
32645
32606
32758
32621
32637
32753
32740
32626
32703
32753
32577
32647
32665
32545
32669
32553
32633
32636
32612
32735
32606
32729
32815
32731
32873
32722
32690
32740
32476
32421
32263
32007
31915
31767
31606
31620
31495
31543
31556
31503
31614
31830
31869
32099
32402
32485
32949
33346
33863
34770
35517
36286
37332
38257
38911
39735
40497
41084
41500
42415
42952
43287
43852
44268
44127
43775
43526
42713
41495
40537
39303
37798
36636
35391
34129
33287
32549
31823
31543
31303
30981
30712
30552
30300
30122
30078
30012
30047
30215
30263
30382
30558
30617
30657
30791
30856
30935
31134
31200
31271
31426
31482
31445
31551
31654
31609
31584
31695
31767
31679
31769
31815
31719
31677
31727
31650
31660
31802
31698
31803
31891
31785
31930
31958
31909
32007
31974
31935
32036
32074
31924
32001
32068
31955
31924
32007
32060
32047
31974
32051
32199
32159
32164
32284
32322
32211
32231
32350
32246
32244
32332
32365
32210
32210
32263
32195
32143
32229
32340
32249
32310
32442
32372
32372
32519
32463
32440
32551
32455
32410
32535
32406
32422
32533
32391
32503
32396
32519
32429
32532
32526
32484
32644
32643
32552
32645
32697
32554
32565
32676
32663
32516
32588
32674
32543
32559
32671
32556
32575
32716
32671
32682
32775
32860
32727
32738
32830
32799
32687
32798
32873
32705
32810
32868
32748
32870
32799
32771
32931
32844
32853
33010
32939
32967
33127
33019
33155
33102
33067
33191
33204
33063
33159
33242
33108
33133
33263
33162
33167
33318
33391
33294
33438
33549
33441
33569
33679
33521
33655
33732
33600
33620
33707
33791
33671
33636
33758
33855
33812
33758
33813
33995
34043
33911
33945
34124
34052
34018
34196
34098
34010
34095
34174
34004
34023
34175
34103
34031
34181
34167
34109
34278
34290
34149
34183
34335
34239
34154
34242
34292
34103
34042
34114
34129
33958
33871
33965
33783
33726
33814
33669
33571
33550
33622
33405
33375
33427
33255
33139
33175
33048
32846
32885
32858
32636
32686
32477
32495
32500
32316
32410
32282
32231
32244
32247
32068
32117
32127
32014
32079
31964
31853
31860
31870
31751
31701
31759
31718
31591
31634
31743
31650
31647
31751
31724
31620
31646
31716
31629
31557
31627
31650
31542
31601
31618
31472
31556
31609
31520
31633
31711
31635
31742
31688
31659
31749
31703
31614
31743
31803
31655
31722
31713
31594
31676
31570
31599
31692
31605
31631
31743
31823
31740
31804
31935
31828
31802
31869
31911
31799
31790
31868
31811
31762
31852
31859
31769
31814
31919
31847
31868
32006
31964
31966
32079
31997
32003
32090
31997
32070
32113
31959
32001
32046
31907
32001
32071
31948
31952
32116
32093
32061
32182
32256
32134
32238
32319
32186
32154
32282
32207
32099
32127
32175
32031
32156
32147
32021
32127
32183
32079
32150
32278
32148
32204
32319
32295
32170
32228
32325
32223
32161
32247
32280
32151
32204
32263
32143
32253
32228
32212
32343
32255
32258
32383
32263
32292
32423
32289
32311
32422
32252
32307
32329
32196
32226
32311
32153
32236
32327
32222
32311
32414
32294
32359
32487
32393
32362
32471
32465
32335
32404
32423
32263
32378
32284
32277
32429
32321
32311
32449
32411
32374
32543
32459
32443
32519
32512
32402
32519
32541
32386
32423
32524
32397
32375
32484
32485
32380
32443
32582
32456
32476
32583
32667
32540
32572
32669
32574
32558
32652
32623
32514
32551
32583
32394
32490
32551
32444
32492
32583
32596
32534
32651
32591
32565
32682
32591
32527
32628
32609
32565
32711
32557
32592
32625
32475
32535
32609
32493
32676
32804
32709
32876
33013
32906
32951
33085
33023
33055
33174
33249
33117
33253
33313
33231
33359
33367
33277
33415
33469
33332
33418
33452
33293
33397
33431
33250
33281
33391
33276
33244
33327
33224
33049
33039
33135
32972
33015
33173
33047
33158
33167
33057
33154
33152
33018
33109
32903
32866
32934
32764
32716
32775
32701
32647
32740
32644
32565
32629
32710
32607
32566
32668
32735
32590
32551
32665
32639
32527
32639
32596
32472
32549
32592
32484
32486
32583
32559
32468
32550
32642
32597
32547
32617
32740
32620
32660
32774
32647
32613
32740
32610
32596
32656
32613
32519
32599
32635
32531
32658
32655
32589
32688
32742
32612
32700
32747
32628
32759
32620
32646
32751
32589
32654
32724
32589
32647
32702
32625
32775
32650
32774
32879
32743
32821
32903
32774
32766
32852
32775
32665
32703
32507
32308
32229
32052
31761
31748
31692
31530
31623
31527
31658
31716
31644
31804
31812
31916
32182
32298
32636
33185
33595
34407
35314
36076
37095
38117
38791
39500
40439
40964
41601
42407
42806
43336
43750
43973
43703
43373
42879
41812
41000
39662
38487
37238
35815
34881
33719
33044
32313
31919
31743
31398
31246
30932
30665
30528
30359
30253
30318
30346
30481
30655
30684
30786
30967
30983
31124
31280
31260
31340
31490
31412
31479
31600
31636
31532
31571
31630
31688
31613
31616
31706
31775
31726
31664
31692
31815
31892
31855
31830
31930
32022
32054
31940
32032
31916
31916
32013
32028
31975
31887
31937
32004
32043
31974
31964
32091
32157
32127
32042
32087
32141
32212
32220
32129
32159
32263
32252
32156
32084
32122
32173
32247
32221
32143
32199
32236
32316
32326
32211
32251
32349
32396
32284
32279
32311
32404
32426
32316
32253
32263
32354
32375
32252
32287
32383
32407
32328
32423
32540
32591
32596
32481
32511
32562
32638
32584
32480
32519
32540
32597
32621
32530
32491
32530
32628
32627
32558
32591
32654
32762
32783
32671
32711
32806
32900
32869
32745
32782
32886
32861
32751
32795
32890
32955
32836
32903
33063
33046
33004
33140
33223
33127
33129
33244
33319
33196
33180
33263
33317
33212
33172
33260
33339
33254
33224
33287
33419
33500
33562
33524
33454
33511
33607
33695
33639
33615
33607
33647
33757
33826
33834
33702
33668
33677
33763
33799
33863
33964
34047
34126
34124
34076
34039
34069
34163
34229
34279
34295
34183
34164
34191
34311
34367
34228
34284
34464
34365
34381
34546
34555
34471
34608
34613
34479
34567
34645
34512
34444
34428
34548
34422
34306
34404
34462
34311
34224
34335
34357
34178
34127
34222
34080
33927
33939
33865
33711
33738
33656
33421
33494
33324
33150
33177
33142
32922
32860
32935
32813
32731
32764
32671
32525
32610
32444
32402
32442
32219
32171
32197
32036
31919
31918
31963
31800
31790
31886
31812
31750
31815
31815
31669
31748
31783
31609
31650
31701
31545
31549
31639
31503
31474
31558
31484
31493
31638
31565
31547
31653
31556
31556
31650
31615
31535
31636
31639
31551
31662
31562
31556
31638
31487
31580
31489
31650
31564
31623
31749
31670
31825
31693
31777
31778
31745
31863
31711
31813
31751
31708
31825
31678
31765
31822
31684
31764
31805
31722
31821
31935
31864
31919
32028
32010
31967
32064
31925
31909
32018
31879
31882
31993
31869
31825
31929
31932
31906
32007
31980
31977
32108
32037
32007
32132
32068
32040
32148
32032
32042
32094
31970
32093
31965
31971
32086
32006
32124
32050
32135
32135
32182
32207
32107
32215
32222
32152
32263
32136
32123
32228
32055
32115
32172
32041
32116
32207
32085
32122
32230
32158
32318
32276
32257
32391
32261
32263
32334
32233
32263
32287
32199
32287
32159
32280
32125
32231
32159
32278
32238
32290
32316
32455
32331
32441
32551
32457
32483
32546
32369
32462
32332
32479
32359
32326
32437
32430
32334
32398
32519
32449
32490
32625
32474
32605
32654
32527
32607
32615
32516
32596
32583
32470
32583
32471
32443
32581
32440
32560
32660
32542
32653
32594
32628
32628
32534
32652
32677
32533
32627
32652
32487
32557
32575
32438
32524
32589
32460
32502
32647
32501
32597
32619
32532
32660
32575
32551
32671
32519
32511
32645
32455
32511
32487
32397
32535
32409
32438
32540
32402
32470
32622
32535
32647
32662
32569
32686
32660
32551
32605
32508
32519
32720
32606
32652
32803
32695
32775
32911
32803
33002
33139
33047
33225
33310
33205
33271
33420
33397
33295
33382
33382
33176
33231
33307
33160
33149
33262
33172
33150
33287
33175
33153
33278
33147
33064
33191
33095
33042
33108
33080
32935
33038
32999
32849
32964
32852
32885
32903
32789
32919
32799
32751
32865
32785
32684
32738
32757
32580
32674
32597
32495
32591
32511
32430
32509
32599
32423
32468
32577
32445
32511
32614
32455
32594
32640
32519
32607
32607
32495
32586
32628
32464
32548
32551
32462
32542
32540
32471
32633
32647
32599
32712
32611
32601
32740
32742
32644
32623
32703
32516
32518
32629
32591
32523
32593
32595
32577
32753
32599
32703
32791
32702
32683
32786
32666
32654
32755
32614
32639
32772
32620
32627
32727
32705
32631
32734
32755
32663
32786
32875
32740
32825
32847
32628
32636
32427
32157
32085
31890
31751
31816
31627
31711
31735
31652
31782
31943
31942
32089
32368
32623
32799
33183
33790
34528
35169
36084
36999
37796
38484
39172
39959
40423
40844
41653
42252
42575
42792
43172
43263
42772
41991
41317
40378
39036
37998
36735
35311
34311
33253
32454
31939
31407
31239
31092
30897
30804
30577
30403
30320
30292
30162
30230
30396
30465
30605
30831
30858
30978
31135
31103
31199
31298
31239
31360
31462
31380
31449
31607
31650
31648
31748
31878
31901
31831
31910
32004
31975
31915
31940
31967
31783
31860
31911
31822
31823
31949
31993
31918
32070
32111
32023
32127
32108
32039
32132
32166
32038
32142
32191
32059
32024
32126
32133
32025
32103
32198
32140
32165
32293
32290
32239
32326
32386
32251
32354
32462
32309
32382
32429
32263
32358
32423
32300
32388
32452
32348
32479
32563
32447
32479
32591
32500
32493
32595
32620
32474
32535
32660
32576
32519
32588
32590
32437
32493
32646
32551
32596
32734
32654
32607
32685
32767
32639
32695
32814
32668
32719
32838
32688
32750
32835
32640
32668
32807
32789
32697
32738
32857
32943
32785
32792
32911
32935
32849
32919
33015
32887
32853
32982
32978
32869
32927
33077
32964
32967
33092
33141
33069
33209
33311
33231
33191
33275
33396
33276
33305
33486
33329
33340
33434
33354
33284
33415
33506
33404
33447
33662
33670
33644
33759
33894
33861
33860
33970
34039
33919
33889
34007
33975
33883
33972
34044
33906
34042
34183
34074
34100
34231
34331
34202
34358
34252
34374
34464
34506
34371
34362
34519
34344
34334
34470
34461
34359
34448
34511
34397
34561
34425
34585
34468
34463
34655
34486
34452
34542
34500
34342
34409
34391
34155
34135
34174
33943
33947
33934
33703
33740
33785
33595
33558
33601
33594
33343
33284
33301
33171
32994
32943
32967
32814
32612
32587
32581
32397
32343
32397
32399
32295
32230
32229
32251
32167
32040
32007
32047
32030
31983
31904
31793
31727
31741
31719
31567
31583
31665
31521
31572
31641
31554
31654
31709
31569
31556
31628
31588
31495
31487
31595
31556
31445
31489
31519
31394
31420
31508
31437
31415
31532
31604
31519
31559
31659
31545
31551
31644
31510
31615
31598
31487
31560
31508
31467
31556
31556
31444
31549
31532
31573
31693
31623
31593
31691
31668
31622
31713
31692
31668
31741
31770
31621
31631
31719
31599
31595
31700
31660
31607
31768
31751
31804
31963
31864
31844
31916
31963
31823
31895
31895
31751
31806
31815
31675
31777
31835
31721
31815
31871
31759
31866
31946
31824
31945
32019
31881
31870
31933
31955
31849
31855
31983
31879
31887
31946
31797
31810
31923
31816
31903
32037
31919
32035
32107
32017
32175
32015
32108
32070
32007
32082
32027
31955
32050
31906
31978
32110
32038
32039
32164
32307
32187
32162
32295
32190
32154
32263
32229
32194
32330
32220
32159
32258
32206
32175
32262
32320
32188
32310
32436
32323
32361
32492
32455
32359
32430
32436
32289
32374
32351
32312
32427
32444
32286
32370
32399
32339
32495
32394
32485
32550
32447
32591
32494
32519
32620
32452
32485
32532
32447
32566
32454
32476
32579
32463
32527
32582
32414
32517
32535
32538
32639
32533
32535
32704
32582
32603
32676
32518
32667
32616
32629
32640
32527
32623
32436
32536
32548
32579
32757
32647
32851
32863
32869
33067
33003
33008
33167
33151
33151
33303
33239
33241
33391
33239
33364
33359
33310
33456
33367
33325
33474
33446
33352
33444
33466
33303
33399
33333
33287
33327
33362
33143
33209
33247
33103
33121
33238
33064
33239
33055
33197
33040
33161
33055
33039
33087
32884
32990
32803
32809
32820
32615
32679
32613
32580
32683
32545
32690
32551
32588
32718
32547
32695
32620
32573
32679
32498
32651
32598
32571
32651
32502
32583
32620
32450
32518
32557
32490
32670
32562
32702
32602
32664
32717
32612
32735
32581
32559
32686
32571
32679
32573
32530
32623
32481
32612
32641
32567
32706
32707
32644
32807
32670
32715
32839
32687
32783
32698
32773
32710
32794
32743
32663
32813
32663
32798
32661
32794
32799
32762
32929
32809
32905
32959
32835
32948
32807
32894
32839
32719
32711
32431
32388
32148
31979
31996
31796
31887
31917
31876
32060
32000
32195
32167
32428
32431
32751
32839
33287
33573
34167
34842
35436
36338
37129
37703
38666
39175
39844
40501
40776
41645
42068
42258
42863
42754
42621
42291
41559
40832
39633
38517
37368
35937
34778
33744
32716
32085
31430
31196
30935
30885
30694
30575
30543
30331
30235
30190
30105
30148
30292
30333
30566
30639
30855
31071
31079
31255
31363
31491
31691
31631
31805
31890
31831
31962
31845
31998
31906
32031
32113
31993
32079
32129
32054
32211
32143
32215
32237
32239
32383
32247
32375
32377
32308
32459
32305
32425
32365
32333
32451
32283
32313
32441
32318
32484
32418
32422
32561
32550
32495
32606
32702
32593
32615
32728
32723
32607
32711
32715
32530
32561
32692
32623
32551
32683
32682
32594
32638
32799
32846
32733
32799
32931
32800
32797
32918
32756
32741
32880
32691
32775
32769
32675
32732
32638
32675
32856
32728
32764
32858
32687
32831
32858
32837
32989
32817
32898
32956
32807
32913
32742
32901
32775
32834
32868
32738
32795
32958
32838
32903
33044
33030
32884
32914
33051
32996
32956
33052
33026
32855
32970
33003
32836
32922
33075
32943
33086
33167
33069
33247
33207
33165
33287
33348
33228
33369
33447
33259
33343
33436
33287
33327
33506
33356
33383
33539
33431
33473
33682
33644
33607
33764
33765
33716
33868
33838
33756
33860
33962
33822
33934
34015
33893
33935
34122
34039
34039
34227
34122
34263
34372
34180
34218
34377
34278
34270
34413
34445
34289
34296
34396
34417
34274
34306
34439
34383
34332
34477
34566
34463
34503
34674
34517
34519
34623
34577
34466
34498
34538
34415
34338
34410
34292
34193
34325
34247
34112
34190
34232
34015
33954
34020
33815
33707
33762
33567
33432
33509
33365
33151
33128
33076
32830
32845
32829
32610
32663
32527
32484
32580
32429
32398
32430
32219
32231
32238
32043
31983
32014
31835
31784
31807
31667
31695
31716
31585
31644
31697
31572
31572
31678
31603
31566
31639
31509
31479
31534
31414
31445
31495
31332
31308
31390
31302
31319
31430
31356
31388
31525
31438
31539
31652
31564
31514
31572
31620
31487
31471
31559
31559
31441
31468
31538
31435
31454
31572
31486
31553
31682
31629
31590
31681
31734
31640
31694
31719
31596
31667
31693
31552
31596
31655
31564
31597
31713
31709
31643
31685
31789
31721
31743
31845
31839
31815
31844
31800
31915
31786
31766
31831
31721
31727
31801
31845
31727
31737
31851
31767
31824
31895
31922
31982
31877
31981
31996
31868
31924
31977
31870
31903
32004
31855
31839
31922
31847
31922
32057
31942
32044
32076
31967
32071
32105
31983
32103
32031
32046
32115
31980
32063
32125
31983
32082
32043
32022
32125
32089
32060
32174
32185
32155
32263
32159
32148
32247
32082
32221
32094
32220
32094
32199
32081
32114
32183
32102
32149
32263
32195
32196
32340
32351
32297
32398
32459
32295
32346
32308
32225
32343
32165
32231
32263
32207
32285
32235
32161
32308
32295
32307
32396
32448
32343
32500
32377
32499
32390
32370
32487
32332
32439
32514
32332
32407
32476
32351
32391
32518
32532
32445
32527
32582
32443
32529
32572
32495
32638
32457
32526
32561
32404
32513
32437
32430
32559
32442
32548
32652
32571
32775
32671
32838
32950
32891
33083
32999
33133
33157
33054
33151
33177
33082
33164
33187
32988
32975
33087
32948
33076
33143
33024
33138
33099
33020
33151
33134
33022
33108
33031
32893
32975
32942
32828
32935
32775
32797
32887
32769
32899
32703
32772
32775
32700
32820
32655
32588
32679
32500
32583
32367
32436
32330
32330
32404
32215
32316
32383
32231
32318
32271
32280
32447
32327
32436
32431
32397
32464
32327
32467
32383
32338
32439
32303
32295
32432
32302
32310
32428
32401
32383
32559
32439
32546
32616
32486
32503
32623
32463
32558
32582
32411
32475
32548
32375
32421
32564
32568
32481
32647
32514
32620
32685
32563
32607
32722
32573
32668
32647
32615
32767
32595
32608
32722
32553
32555
32671
32600
32599
32735
32708
32670
32826
32775
32716
32802
32564
32557
32294
32191
32100
31871
31903
31887
31706
31787
31847
31796
31975
32033
32134
32435
32646
32795
33257
33578
34028
34823
35556
36231
37183
37900
38463
39172
39854
40268
40804
41444
41768
42244
42743
42705
42613
42426
41743
40727
40062
38969
37615
36521
35239
33952
33019
32209
31396
31053
30769
30556
30499
30305
30182
30121
29943
29938
29980
30038
30251
30285
30455
30567
30670
30863
30833
30939
31151
31180
31291
31471
31446
31528
31698
31759
31723
31887
31967
31900
32047
31985
32007
32111
32032
32155
32160
32018
32119
32116
32037
32150
32199
32125
32247
32331
32196
32308
32383
32330
32449
32340
32295
32391
32228
32314
32359
32231
32304
32327
32255
32404
32297
32423
32490
32383
32503
32543
32453
32567
32439
32489
32566
32415
32527
32498
32335
32405
32412
32307
32447
32412
32426
32595
32494
32503
32668
32517
32584
32658
32525
32628
32683
32508
32602
32647
32488
32591
32663
32500
32549
32659
32514
32620
32692
32610
32748
32663
32644
32759
32770
32663
32769
32695
32645
32766
32811
32653
32736
32789
32668
32700
32847
32795
32775
32948
32878
32887
33062
32895
32974
33002
32930
33045
32938
32999
33079
32927
33047
33014
32974
33166
33051
33193
33272
33230
33390
33255
33398
33476
33333
33488
33445
33372
33511
33361
33505
33383
33399
33535
33619
33480
33646
33740
33663
33809
33787
33756
33890
33927
33834
33963
33991
33900
34024
33894
33973
34119
33990
33974
34143
34018
34055
34282
34183
34175
34344
34236
34332
34439
34254
34372
34383
34242
34410
34327
34362
34450
34284
34392
34502
34360
34492
34556
34438
34548
34596
34444
34547
34598
34388
34447
34492
34305
34415
34278
34180
34238
34207
33951
33913
34031
33796
33694
33813
33626
33564
33632
33365
33375
33332
33112
33106
33052
32848
32886
32660
32565
32583
32393
32406
32343
32244
32322
32276
32130
32212
32166
31986
32043
31959
31839
31871
31772
31652
31716
31588
31532
31614
31444
31541
31578
31487
31595
31516
31644
31500
31614
31582
31529
31593
31474
31444
31540
31402
31457
31468
31318
31431
31358
31381
31486
31380
31533
31448
31534
31591
31500
31661
31537
31580
31582
31479
31554
31439
31515
31446
31403
31482
31391
31513
31491
31495
31630
31511
31646
31622
31598
31719
31602
31668
31640
31588
31697
31582
31692
31644
31567
31628
31610
31556
31684
31624
31664
31804
31702
31743
31860
31767
31764
31911
31799
31814
31886
31727
31780
31898
31729
31813
31818
31735
31860
31838
31796
31948
31849
31973
31967
31908
32023
31903
31897
32039
31908
31975
31973
31849
31943
31804
31924
31932
31897
32019
31972
31930
32094
32005
32034
32157
32030
32033
32124
32001
32017
32127
32003
32101
31994
32029
32141
32001
32151
32038
32148
32257
32179
32289
32383
32237
32332
32413
32255
32319
32390
32228
32252
32349
32192
32291
32391
32251
32358
32391
32303
32458
32407
32420
32564
32415
32524
32515
32454
32559
32392
32516
32327
32415
32431
32352
32497
32325
32451
32484
32429
32559
32487
32454
32615
32486
32636
32527
32530
32640
32535
32654
32487
32579
32518
32423
32567
32469
32530
32572
32518
32655
32599
32579
32724
32553
32636
32693
32551
32637
32629
32493
32607
32545
32474
32597
32483
32470
32618
32501
32584
32793
32678
32847
32810
32795
32987
32902
32909
33117
33064
33106
33261
33141
33168
33350
33199
33383
33350
33324
33504
33359
33503
33375
33415
33509
33332
33423
33374
33271
33404
33253
33350
33222
33135
33257
33069
33139
33181
33067
33212
33179
33111
33231
33086
33191
33061
33087
33019
32985
32938
32879
32867
32650
32743
32559
32671
32558
32594
32646
32556
32732
32581
32669
32675
32584
32684
32542
32615
32545
32500
32653
32491
32639
32490
32647
32470
32534
32581
32458
32582
32641
32582
32735
32606
32675
32742
32583
32674
32727
32599
32719
32505
32577
32637
32511
32623
32647
32519
32614
32626
32554
32695
32707
32628
32709
32764
32614
32725
32628
32599
32702
32538
32516
32640
32460
32568
32622
32540
32665
32775
32637
32766
32884
32731
32764
32895
32730
32892
32735
32693
32700
32476
32438
32256
32035
32010
31797
31740
31780
31582
31597
31731
31611
31736
31903
31921
32221
32401
32527
32908
33222
33711
34537
35178
35967
37079
37844
38654
39527
39941
40737
41406
41732
42502
42948
43104
43759
43591
43452
43187
42321
41345
40382
38982
37727
36509
35079
34050
33098
32190
31687
31204
30871
30756
30429
30288
30026
29814
29766
29612
29694
29767
29858
30077
30111
30313
30359
30511
30666
30744
31039
31044
31239
31265
31365
31510
31419
31554
31477
31612
31663
31601
31639
31759
31610
31652
31748
31669
31775
31830
31743
31839
31983
31879
31903
32006
31899
31864
31991
31914
31893
31972
31910
31899
32042
31895
32020
32135
31998
32108
32227
32079
32198
32286
32137
32271
32321
32183
32250
32318
32166
32273
32324
32180
32295
32320
32263
32402
32263
32391
32444
32373
32506
32408
32447
32553
32434
32554
32509
32455
32587
32388
32478
32516
32409
32569
32439
32525
32628
32519
32692
32647
32631
32766
32660
32677
32806
32646
32716
32799
32641
32727
32705
32610
32743
32639
32729
32780
32680
32895
32806
32927
33015
32875
33012
32876
32959
33060
32903
32991
32999
32853
33016
32911
32871
32984
33039
32949
33038
33142
33015
33069
33215
33158
33150
33259
33316
33166
33267
33309
33159
33259
33228
33154
33311
33191
33335
33391
33275
33449
33471
33423
33551
33575
33548
33722
33743
33635
33722
33799
33641
33743
33739
33639
33799
33751
33756
33951
33907
33895
34055
34031
33996
34124
34129
34042
34223
34082
34198
34276
34127
34268
34188
34132
34307
34183
34180
34402
34231
34333
34369
34286
34464
34423
34369
34543
34503
34338
34408
34475
34278
34337
34382
34172
34257
34311
34111
34166
34239
34015
34039
34107
33875
33799
33862
33684
33575
33635
33409
33317
33415
33135
33110
33111
32870
32872
32853
32691
32716
32741
32516
32558
32517
32339
32415
32255
32187
32262
32032
32091
32028
31877
31909
31718
31804
31669
31639
31730
31597
31702
31604
31615
31636
31574
31708
31537
31666
31513
31578
31478
31409
31519
31373
31423
31457
31357
31484
31421
31503
31591
31479
31572
31604
31444
31522
31604
31495
31564
31607
31520
31628
31495
31598
31432
31463
31596
31471
31594
31506
31547
31702
31607
31691
31727
31658
31788
31660
31774
31751
31678
31732
31594
31687
31582
31700
31628
31679
31750
31614
31773
31667
31775
31847
31775
31907
31827
31789
31902
31794
31805
31919
31740
31822
31852
31774
31862
31796
31816
31916
31820
31959
31970
31911
32007
32007
31950
32085
31991
31972
32103
31944
31981
32061
31906
32024
31918
31950
31983
31915
31932
32103
31955
32055
32097
32020
32183
32039
32119
32154
32031
32145
32036
32047
32126
31999
32109
31956
31996
32130
32021
32047
32167
32078
32050
32165
32047
32110
32119
32039
32144
31995
32098
31986
32100
31922
31903
32041
31950
32007
32007
32159
32047
32191
32050
32186
32092
32087
32166
32099
32183
32033
32164
32007
32098
32135
32058
32188
32071
32201
32081
32237
32214
32317
32265
32294
32315
32181
32301
32137
32263
32176
32223
32260
32175
32311
32132
32263
32278
32239
32372
32359
32292
32446
32383
32351
32445
32391
32306
32400
32296
32367
32381
32245
32380
32304
32252
32354
32360
32328
32464
32367
32518
32455
32426
32588
32436
32452
32575
32388
32455
32518
32318
32405
32431
32325
32460
32303
32403
32491
32376
32540
32399
32563
32500
32464
32615
32508
32478
32597
32519
32463
32580
32516
32439
32516
32534
32390
32519
32587
32504
32672
32786
32652
32788
32781
32766
32975
32867
32900
33095
33020
33046
33207
33066
33202
33213
33132
33299
33338
33186
33265
33303
33185
33287
33197
33143
33252
33132
33101
33253
33067
33106
33136
32927
33052
32894
32990
32999
32942
33078
32972
33018
33088
32924
33020
33023
32839
32886
32860
32671
32726
32660
32543
32652
32551
32508
32590
32579
32463
32596
32583
32518
32676
32532
32646
32574
32509
32631
32621
32472
32544
32567
32419
32478
32510
32378
32419
32581
32448
32535
32609
32518
32667
32615
32566
32677
32598
32564
32686
32547
32534
32646
32480
32589
32484
32487
32601
32465
32582
32637
32527
32618
32695
32597
32723
32570
32551
32693
32534
32551
32694
32500
32631
32576
32511
32609
32532
32548
32700
32576
32742
32762
32655
32802
32775
32700
32807
32760
32687
32788
32643
32566
32559
32244
32122
32080
31831
31716
31751
31623
31599
31723
31655
31751
31879
31783
32007
32205
32231
32502
32943
33246
33754
34624
35306
36265
37271
37979
38841
39646
40349
40766
41628
42267
42583
43215
43614
43476
43500
43143
42231
41625
40542
39334
38215
36740
35636
34437
33394
32684
32110
31598
31415
31252
30982
30843
30563
30369
30290
30143
30156
30324
30370
30448
30647
30604
30795
30948
30950
31175
31175
31361
31349
31364
31543
31507
31630
31553
31654
31697
31669
31822
31706
31857
31740
31843
31775
31878
31907
31893
32039
31943
32058
32122
32020
32132
31976
32111
32058
31981
32106
32001
32130
31981
32058
32119
32023
32153
32156
32187
32334
32219
32284
32411
32322
32296
32412
32332
32282
32382
32278
32197
32305
32327
32180
32222
32372
32319
32263
32391
32434
32349
32497
32470
32436
32564
32410
32444
32555
32476
32455
32570
32535
32416
32486
32556
32432
32513
32668
32570
32597
32741
32661
32632
32791
32708
32722
32863
32738
32734
32857
32722
32700
32834
32722
32879
32714
32839
32938
32790
32896
32970
32924
33118
32957
33076
32991
32970
33093
32917
33017
33095
32944
33027
33110
32967
33119
33117
33084
33229
33111
33239
33268
33196
33335
33343
33262
33380
33329
33287
33420
33373
33284
33363
33363
33324
33471
33438
33380
33559
33485
33499
33719
33580
33743
33799
33679
33767
33830
33706
33850
33796
33761
33959
33792
33906
34012
33895
34052
34076
34022
34209
34140
34146
34350
34191
34287
34397
34275
34258
34405
34372
34284
34406
34428
34311
34471
34401
34386
34597
34449
34618
34575
34622
34610
34690
34567
34735
34575
34692
34599
34535
34420
34572
34350
34452
34377
34278
34412
34223
34350
34242
34151
34255
34023
33975
34052
33795
33830
33588
33671
33415
33437
33294
33190
33156
32957
33083
32863
32920
32831
32707
32762
32699
32506
32519
32503
32306
32370
32195
32143
32215
31964
32007
31936
31831
31887
31750
31740
31828
31668
31711
31794
31654
31709
31763
31588
31660
31522
31500
31588
31394
31404
31461
31337
31436
31451
31406
31531
31407
31519
31572
31511
31622
31455
31562
31489
31517
31548
31491
31602
31495
31500
31601
31482
31543
31538
31468
31607
31562
31543
31663
31639
31644
31751
31639
31621
31725
31639
31610
31709
31551
31573
31654
31534
31540
31655
31708
31609
31705
31803
31671
31770
31836
31711
31820
31855
31751
31840
31830
31722
31807
31669
31751
31747
31691
31839
31812
31791
31945
31826
31870
32001
31880
32038
31901
32017
31887
31934
31872
31997
31873
31948
31868
31854
31996
31868
31937
32072
31947
32052
32140
32034
32156
32102
32103
32223
32069
32059
32165
32006
32049
32110
31975
32124
32004
32004
32134
32047
32151
32054
32204
32098
32123
32228
32249
32149
32249
32314
32179
32280
32217
32190
32308
32196
32242
32337
32231
32343
32319
32295
32430
32348
32374
32519
32384
32410
32542
32391
32456
32460
32350
32422
32476
32316
32416
32478
32383
32540
32462
32447
32582
32447
32575
32597
32475
32613
32502
32550
32550
32407
32485
32535
32387
32471
32542
32391
32481
32557
32433
32508
32644
32564
32591
32733
32623
32655
32817
32668
32764
32710
32644
32757
32635
32559
32676
32663
32614
32775
32753
32707
32849
32699
32715
32852
32839
32740
32836
32919
32731
32839
32805
32698
32814
32671
32690
32822
32690
32743
32847
32799
32908
32847
32942
32871
32986
32852
32937
32807
32956
32807
32800
32911
32767
32804
32901
32729
32822
32903
32767
32886
32951
32839
32990
32892
32943
32927
32823
32935
32902
32809
32892
32862
32742
32873
32857
32811
33001
32949
32950
33095
33084
33087
33226
33323
33202
33326
33422
33309
33470
33444
33394
33564
33502
33423
33531
33510
33407
33527
33444
33439
33593
33542
33428
33551
33511
33412
33550
33379
33359
33490
33338
33281
33398
33223
33249
33391
33333
33233
33330
33360
33215
33260
33216
33060
33135
33159
32959
32942
33027
32820
32884
32842
32747
32850
32759
32702
32812
32770
32718
32827
32873
32727
32815
32858
32698
32775
32833
32660
32731
32803
32628
32728
32767
32647
32794
32772
32623
32708
32775
32669
32775
32846
32738
32718
32842
32650
32804
32695
32652
32729
32775
32604
32628
32725
32767
32612
32644
32783
32677
32720
32828
32793
32724
32838
32710
32724
32847
32685
32791
32641
32731
32807
32628
32678
32764
32686
32691
32818
32821
32775
32849
32924
32844
32823
32897
32943
32765
32697
32677
32502
32175
32028
31904
31663
31604
31626
31444
31511
31642
31558
31596
31768
31742
31936
32183
32247
32632
33089
33471
34217
35247
36032
36831
37884
38727
39348
40263
40996
41372
42231
42967
43319
43587
44012
43943
43347
42861
42177
41063
39723
38788
37407
36032
34994
34031
33048
32398
32044
31811
31460
31273
31126
30780
30636
30517
30340
30337
30463
30575
30571
30677
30867
30942
30935
31111
31143
31234
31388
31430
31383
31485
31609
31578
31535
31604
31723
31780
31658
31751
31863
31764
31740
31831
31877
31763
31833
31977
31967
31903
32056
31968
31988
32092
31991
32130
32019
32023
32154
32047
32030
32106
32052
31986
32087
32023
31982
32119
32180
32118
32196
32316
32295
32223
32309
32378
32224
32296
32320
32192
32303
32314
32156
32207
32293
32157
32263
32350
32224
32330
32415
32332
32327
32458
32351
32367
32487
32349
32353
32452
32303
32348
32439
32316
32353
32462
32356
32416
32565
32464
32497
32639
32519
32514
32666
32577
32633
32660
32559
32646
32706
32547
32542
32649
32579
32610
32740
32621
32677
32817
32689
32842
32921
32802
32910
32995
32839
32931
32964
32808
32904
32950
32817
32909
32980
32868
32886
33029
32927
33063
33159
33031
33034
33153
33100
33112
33255
33151
33145
33311
33150
33166
33284
33141
33255
33355
33214
33350
33460
33375
33534
33588
33498
33583
33740
33727
33645
33733
33820
33695
33700
33830
33831
33721
33895
33831
33847
34021
33916
34055
34171
34045
34191
34191
34155
34340
34277
34207
34378
34225
34225
34407
34263
34289
34443
34295
34305
34439
34503
34407
34470
34627
34470
34595
34626
34496
34518
34650
34529
34493
34631
34446
34380
34514
34340
34279
34430
34231
34308
34311
34177
34247
34159
33999
34090
33900
33905
33899
33599
33622
33575
33316
33273
33327
33110
33045
33066
32891
32855
32937
32761
32706
32757
32657
32535
32543
32462
32354
32398
32335
32237
32108
32152
31975
32074
31909
31996
31871
31884
31958
31854
31862
31991
31835
31865
31911
31781
31816
31834
31687
31730
31760
31636
31711
31758
31639
31695
31765
31664
31783
31703
31732
31820
31686
31742
31867
31751
31783
31796
31674
31762
31623
31706
31727
31598
31690
31743
31668
31777
31724
31797
31883
31809
31820
31895
31798
31914
31770
31889
31768
31785
31846
31671
31734
31805
31707
31778
31895
31791
31894
31940
31949
32069
32045
31964
32029
32047
31915
31959
32031
31914
31928
32007
31879
31910
32007
31885
31996
32012
31972
32124
32067
32058
32153
32004
32125
32108
32070
32199
32016
32089
32068
31984
32097
31987
31958
32074
31951
32108
32080
32087
32206
32079
32170
32146
32102
32224
32072
32188
32064
32131
32105
32070
32201
32023
32124
32024
32047
32183
32086
32213
32096
32155
32285
32167
32303
32327
32180
32287
32271
32172
32257
32162
32252
32117
32230
32247
32212
32308
32290
32253
32413
32308
32378
32490
32349
32380
32487
32377
32430
32483
32348
32420
32295
32287
32384
32251
32300
32431
32340
32466
32455
32468
32583
32444
32519
32431
32377
32463
32353
32421
32495
32340
32433
32322
32432
32514
32396
32530
32401
32533
32477
32509
32623
32502
32630
32467
32552
32423
32500
32436
32410
32549
32385
32463
32404
32503
32476
32468
32592
32455
32541
32566
32500
32640
32532
32566
32515
32498
32582
32490
32511
32497
32425
32476
32498
32446
32594
32461
32603
32450
32606
32498
32599
32524
32554
32552
32490
32614
32454
32579
32491
32495
32556
32413
32544
32415
32543
32420
32563
32518
32534
32678
32548
32666
32535
32652
32551
32509
32612
32451
32607
32463
32632
32532
32703
32613
32793
32703
32892
32833
32991
32991
33100
33084
33198
33209
33303
33350
33263
33375
33193
33287
33110
33151
33108
33095
33130
33263
33206
33362
33244
33374
33220
33319
33156
33252
33144
33068
33159
32977
33088
32919
32980
32967
32862
33031
32870
32988
32837
32831
32949
32802
32811
32790
32668
32781
32601
32679
32668
32539
32647
32549
32503
32595
32435
32567
32484
32517
32629
32500
32622
32610
32582
32679
32564
32703
32543
32554
32633
32492
32576
32612
32431
32511
32535
32471
32621
32516
32655
32559
32719
32583
32743
32623
32730
32696
32647
32763
32575
32668
32685
32537
32631
32551
32550
32668
32551
32713
32589
32727
32695
32688
32788
32600
32718
32639
32685
32819
32631
32743
32604
32748
32690
32599
32713
32700
32791
32790
32743
32909
32801
32923
32711
32707
32532
32288
32255
31973
31988
31751
31813
31723
31693
31813
31695
31854
31920
32018
32305
32333
32624
33015
33319
34014
34612
35372
36418
37087
38079
38685
39430
39990
40628
41172
41703
42319
42637
43111
43124
43074
42385
41991
40924
39948
38855
37462
36343
35149
33932
33105
32418
31701
31469
31260
31103
31053
30751
30708
30507
30369
30367
30260
30416
30420
30628
30787
30914
31129
31141
31325
31265
31430
31367
31513
31516
31678
31660
31764
31782
31978
31912
31993
32108
32022
32140
32065
32192
32086
32167
32183
32102
32218
32065
32143
32211
32134
32277
32218
32239
32399
32263
32336
32408
32330
32463
32351
32431
32460
32338
32442
32287
32439
32276
32427
32360
32415
32532
32423
32551
32551
32550
32654
32527
32674
32517
32638
32476
32585
32447
32583
32457
32550
32439
32551
32470
32575
32583
32527
32589
32693
32671
32722
32775
32704
32820
32683
32817
32647
32775
32620
32741
32578
32737
32658
32786
32723
32819
32715
32871
32759
32911
32841
32868
33007
32858
32887
32997
32812
32917
32972
32849
32949
32799
32797
32940
32840
32972
33019
32935
33079
32999
33021
33185
32999
33094
33028
33173
33055
33093
33183
33074
33227
33177
33093
33261
33126
33317
33212
33410
33254
33287
33444
33300
33436
33389
33380
33532
33386
33487
33471
33425
33626
33471
33591
33515
33535
33717
33580
33731
33753
33729
33918
33847
33849
34061
33959
34052
34119
33982
34055
34063
33937
34110
33983
34212
34098
34223
34343
34232
34406
34340
34382
34464
34343
34543
34383
34477
34497
34382
34565
34388
34532
34516
34407
34541
34575
34519
34714
34554
34687
34633
34543
34695
34535
34668
34552
34444
34526
34371
34355
34363
34095
34173
34015
33989
33996
33814
33927
33687
33740
33697
33550
33607
33364
33375
33172
33136
33142
32919
32961
32757
32748
32676
32471
32546
32371
32301
32373
32216
32306
32118
32078
32143
31962
32057
31903
31833
31898
31708
31711
31700
31593
31695
31495
31550
31404
31504
31436
31530
31580
31469
31570
31459
31553
31409
31514
31446
31463
31508
31367
31447
31348
31479
31333
31442
31324
31357
31503
31383
31526
31454
31527
31470
31483
31569
31508
31631
31495
31559
31513
31489
31545
31449
31522
31471
31549
31511
31687
31559
31629
31580
31564
31686
31601
31699
31590
31663
31661
31575
31679
31525
31623
31555
31550
31641
31532
31663
31647
31694
31663
31828
31769
31758
31890
31767
31866
31717
31839
31707
31772
31711
31705
31790
31735
31882
31750
31830
31833
31892
31894
31878
31995
31881
32013
31858
31964
31842
31940
31844
31918
31932
31909
31972
31876
32058
31907
32014
31943
32039
32022
32084
32076
32051
32207
32063
32143
32126
32011
32119
31980
32087
32043
31999
32106
32061
32154
32231
32200
32117
32316
32236
32270
32255
32359
32281
32383
32246
32356
32231
32267
32372
32223
32316
32284
32177
32236
32326
32223
32275
32415
32372
32355
32482
32495
32369
32453
32511
32348
32430
32471
32337
32431
32449
32321
32486
32445
32422
32550
32441
32601
32458
32613
32532
32639
32514
32608
32417
32508
32479
32444
32561
32487
32426
32550
32393
32474
32540
32381
32519
32476
32465
32594
32455
32553
32605
32435
32519
32544
32379
32439
32406
32337
32453
32340
32419
32464
32389
32517
32396
32535
32426
32606
32508
32587
32647
32481
32586
32606
32542
32674
32588
32668
32759
32647
32802
32805
32834
33018
32999
33053
33211
33094
33263
33183
33331
33238
33131
33266
33175
33167
33189
33027
33167
33006
33085
33042
33019
33172
33060
33188
33075
33158
33214
33064
33143
33166
33050
33159
32981
33051
33031
32895
33020
32881
32927
32916
32790
32904
32798
32862
32768
32683
32755
32692
32626
32732
32551
32604
32607
32452
32543
32437
32404
32481
32359
32475
32499
32468
32614
32508
32635
32575
32540
32582
32455
32583
32452
32483
32621
32452
32516
32564
32436
32473
32589
32452
32567
32615
32540
32627
32677
32527
32594
32708
32580
32637
32679
32513
32624
32659
32495
32611
32503
32482
32601
32575
32565
32722
32602
32694
32786
32660
32814
32689
32775
32687
32700
32754
32620
32743
32591
32743
32583
32723
32639
32644
32701
32639
32783
32575
32609
32413
32359
32115
32001
31996
31819
31750
31815
31668
31775
31717
31840
32002
32055
32374
32431
32791
33187
33527
34220
34815
35564
36516
37169
37831
38706
39294
39777
40430
40754
41308
41885
42071
42370
42551
42074
41829
41053
40032
39287
37906
36842
35508
34228
33287
32364
31533
31083
30734
30530
30440
30207
30093
30011
29854
29797
29671
29751
29862
30016
30263
30364
30598
30671
30761
30940
30927
31117
31108
31280
31315
31351
31510
31444
31552
31655
31595
31778
31823
31839
32019
31964
32100
31998
32133
32046
32111
32185
32069
32182
32132
32106
32212
32119
32126
32255
32175
32326
32213
32375
32253
32357
32345
32315
32426
32322
32443
32300
32388
32437
32263
32359
32292
32308
32458
32326
32459
32486
32386
32484
32615
32537
32533
32607
32658
32498
32608
32578
32470
32559
32607
32477
32599
32588
32532
32689
32597
32628
32802
32654
32755
32830
32730
32863
32697
32798
32757
32683
32793
32657
32741
32743
32647
32758
32663
32713
32866
32728
32857
32886
32762
32919
32807
32887
32910
32822
32959
32775
32898
32923
32788
32943
32799
32939
33034
32925
33055
33029
32999
33158
33119
33076
33236
33077
33197
33097
33103
33238
33060
33119
33151
33017
33169
33089
33204
33267
33255
33365
33259
33431
33287
33423
33438
33427
33444
33462
33487
33410
33579
33447
33636
33508
33679
33535
33693
33583
33812
33726
33884
33787
33868
33879
33855
34030
33881
34015
33958
33982
34133
33966
34110
34061
34008
34197
34065
34244
34207
34268
34399
34261
34373
34435
34337
34495
34481
34328
34420
34381
34317
34495
34322
34424
34461
34366
34554
34466
34413
34580
34423
34495
34580
34395
34488
34368
34311
34392
34131
34191
33991
33955
34005
33747
33781
33687
33543
33629
33411
33407
33517
33319
33287
33283
33069
33159
32971
32844
32871
32724
32619
32637
32493
32365
32455
32250
32309
32220
32125
32198
32100
32053
32124
31941
32011
31975
31814
31871
31759
31727
31783
31647
31611
31700
31567
31534
31625
31517
31545
31636
31605
31592
31719
31678
31646
31705
31719
31599
31660
31591
31546
31590
31541
31668
31514
31588
31575
31565
31700
31615
31668
31798
31663
31748
31807
31686
31801
31735
31722
31798
31675
31726
31689
31607
31727
31668
31668
31787
31759
31799
31943
31839
31901
32018
31901
31927
31974
31801
31863
31890
31724
31751
31853
31705
31798
31782
31703
31810
31890
31772
31862
31927
31823
31926
31968
31857
31914
31973
31847
31919
31974
31812
31822
31908
31793
31876
31955
31825
31846
31994
31895
31953
32095
31984
32051
32095
31982
32100
31962
31983
32063
31941
32014
32019
31923
32059
32113
32004
32119
32228
32119
32143
32278
32198
32214
32342
32206
32312
32356
32177
32172
32285
32215
32148
32237
32301
32153
32293
32346
32255
32370
32471
32360
32367
32450
32382
32310
32399
32300
32239
32319
32340
32239
32350
32239
32257
32388
32324
32281
32391
32487
32351
32500
32446
32367
32453
32508
32378
32486
32411
32389
32468
32336
32407
32402
32354
32477
32350
32465
32558
32393
32490
32529
32419
32482
32542
32412
32527
32444
32372
32459
32339
32324
32455
32386
32451
32413
32509
32532
32431
32519
32549
32436
32526
32519
32476
32642
32502
32615
32623
32604
32775
32667
32825
32863
32895
33105
32983
33134
33209
33195
33339
33311
33273
33406
33227
33217
33331
33140
33196
33250
33065
33130
33198
33031
33095
33226
33159
33132
33188
33176
33045
33142
33101
33061
33210
33115
33000
33117
32932
33032
32820
32787
32829
32647
32655
32788
32685
32636
32755
32586
32694
32608
32557
32679
32597
32527
32629
32496
32447
32561
32383
32403
32487
32334
32450
32509
32442
32589
32519
32507
32647
32533
32567
32670
32607
32495
32591
32615
32459
32555
32620
32446
32447
32551
32535
32453
32566
32678
32563
32590
32703
32589
32607
32737
32727
32604
32652
32739
32580
32620
32675
32526
32519
32641
32535
32534
32676
32570
32583
32711
32591
32632
32772
32716
32685
32791
32798
32679
32743
32810
32615
32719
32775
32638
32719
32710
32474
32380
32375
32103
32071
32044
31831
31853
31909
31771
31823
31964
31927
32023
32292
32263
32577
32846
33105
33679
34263
34823
35593
36534
37402
38006
38903
39526
39886
40732
41278
41594
42196
42711
42759
42844
42786
42215
41499
40743
39646
38498
37452
35994
34944
33764
32826
32163
31527
31127
30940
30683
30486
30336
30082
29895
29855
29779
29820
30006
30145
30281
30495
30661
30748
30928
31078
31070
31231
31361
31279
31414
31511
31442
31551
31643
31556
31703
31839
31798
31948
32029
31943
32077
32169
32039
32119
32007
32139
32009
32064
32108
31967
32090
31983
31929
32071
31935
32070
31976
32125
32112
32207
32276
32162
32327
32228
32316
32228
32303
32239
32276
32241
32212
32341
32188
32278
32230
32241
32315
32263
32429
32277
32446
32343
32427
32455
32370
32500
32373
32395
32484
32318
32439
32274
32381
32430
32324
32431
32422
32399
32537
32540
32508
32685
32544
32649
32686
32643
32762
32599
32617
32730
32607
32731
32564
32606
32647
32611
32738
32606
32765
32647
32735
32820
32670
32792
32870
32723
32846
32876
32741
32853
32869
32726
32823
32887
32748
32879
32767
32811
32967
32854
32980
33038
32900
33027
33054
32956
33057
33124
32957
32966
33127
32982
33031
33150
33007
33159
33156
33083
33249
33124
33190
33345
33211
33310
33413
33278
33362
33364
33303
33439
33404
33335
33486
33425
33437
33602
33446
33615
33614
33649
33823
33705
33905
33785
34004
33876
34021
33893
34085
33943
34051
33962
34093
34077
34022
34159
34006
34199
34111
34220
34372
34236
34372
34447
34324
34464
34557
34414
34495
34551
34367
34343
34500
34361
34439
34530
34351
34451
34507
34338
34423
34469
34255
34295
34276
34074
34175
33983
33918
33991
33741
33735
33702
33478
33519
33433
33333
33454
33230
33250
33166
32967
33041
32895
32796
32860
32695
32587
32647
32455
32388
32418
32190
32140
32182
32159
31986
32045
32031
31935
32007
31986
31856
31955
31951
31839
31876
31876
31704
31764
31787
31610
31628
31700
31557
31626
31603
31521
31601
31674
31588
31621
31726
31689
31598
31665
31743
31603
31675
31674
31572
31633
31693
31567
31557
31687
31668
31661
31775
31793
31699
31746
31811
31713
31769
31879
31711
31751
31859
31729
31820
31890
31711
31815
31879
31741
31836
31914
31819
31895
31931
31978
31879
32047
31941
31943
31937
32068
31888
31922
32029
31875
31988
31830
31862
31996
31844
31963
32038
31972
32094
32075
32015
32165
32059
32095
32197
32026
32087
32139
31976
32056
32089
31941
32043
32126
31990
32103
32127
32100
32260
32127
32228
32263
32151
32298
32155
32263
32141
32177
32183
32065
32154
32036
32125
32106
32103
32248
32148
32326
32207
32277
32404
32213
32303
32234
32228
32366
32188
32294
32263
32185
32296
32127
32255
32173
32183
32323
32190
32356
32308
32331
32469
32321
32372
32486
32345
32462
32514
32326
32399
32403
32295
32391
32431
32321
32426
32533
32415
32512
32518
32537
32577
32482
32661
32487
32580
32511
32455
32585
32447
32465
32519
32397
32522
32415
32486
32527
32455
32596
32644
32571
32691
32663
32543
32681
32516
32581
32639
32484
32567
32423
32478
32565
32385
32495
32533
32439
32561
32478
32527
32666
32511
32592
32636
32507
32586
32684
32562
32598
32708
32671
32587
32644
32825
32781
32893
33066
33190
33114
33198
33379
33295
33333
33502
33348
33359
33477
33301
33225
33327
33105
33183
33095
33172
33114
33148
33158
33122
33247
33077
33191
33159
33060
33181
33062
33012
33124
32999
32930
33055
32887
32849
32933
32741
32775
32820
32669
32812
32716
32634
32719
32551
32570
32689
32503
32519
32639
32441
32510
32551
32369
32423
32481
32301
32370
32463
32359
32507
32452
32477
32628
32486
32630
32495
32559
32589
32430
32548
32445
32493
32560
32421
32439
32564
32500
32487
32611
32574
32564
32711
32665
32621
32727
32775
32599
32689
32793
32638
32644
32764
32573
32564
32679
32612
32567
32660
32597
32599
32796
32676
32743
32892
32737
32870
32862
32775
32879
32829
32764
32876
32822
32733
32874
32711
32797
32803
32771
32898
32647
32647
32559
32277
32235
31976
31995
31823
31814
31751
31716
31823
31703
31853
31843
31952
32247
32322
32724
33015
33503
34281
34911
35844
36854
37517
38380
39290
39855
40484
41223
41812
42100
42829
43293
43500
43751
43263
42849
42180
41216
40322
38916
37846
36524
35169
34226
33199
32375
31936
31495
31182
31070
30737
30567
30388
30174
30191
30079
30247
30343
30477
30708
30717
30903
31016
31052
31239
31228
31356
31455
31393
31473
31535
31431
31550
31631
31537
31647
31835
31724
31830
31930
31804
31906
31961
31871
31975
31962
31851
31932
31976
31832
31887
31986
31847
31908
32018
31932
32076
31997
32034
32143
32045
32073
32171
32082
32197
32133
32127
32212
32078
32188
32083
32083
32240
32082
32111
32236
32127
32220
32328
32182
32295
32180
32260
32303
32212
32328
32294
32189
32300
32151
32287
32308
32192
32347
32222
32390
32244
32385
32309
32436
32390
32386
32517
32355
32467
32372
32486
32393
32401
32517
32359
32455
32517
32373
32519
32359
32479
32533
32531
32735
32575
32646
32737
32576
32684
32591
32655
32740
32631
32758
32582
32658
32647
32601
32786
32677
32855
32730
32911
32807
32887
32884
32822
32972
32838
32967
32837
32907
32956
32819
32959
32839
32982
32887
32955
32987
32970
33153
33095
33057
33186
33237
33143
33286
33167
33191
33326
33221
33157
33327
33181
33230
33431
33300
33503
33367
33592
33481
33623
33649
33593
33791
33639
33794
33692
33772
33885
33743
33799
33921
33780
33791
33978
33854
33880
34086
33956
34102
34247
34100
34146
34311
34158
34263
34349
34215
34311
34382
34218
34342
34369
34219
34310
34372
34263
34380
34407
34292
34495
34321
34388
34451
34236
34306
34334
34121
34160
34033
33862
33925
33782
33655
33719
33591
33468
33568
33391
33287
33397
33151
33191
33031
32931
32996
32787
32676
32746
32503
32525
32529
32304
32247
32316
32151
32115
32235
32039
32031
32126
31912
32016
31903
31850
31957
31764
31845
31677
31733
31620
31565
31660
31545
31531
31591
31457
31551
31551
31537
31646
31542
31691
31556
31612
31514
31575
31623
31463
31546
31454
31513
31581
31421
31499
31584
31449
31544
31615
31495
31623
31631
31554
31614
31750
31588
31673
31719
31591
31562
31615
31693
31557
31640
31735
31594
31731
31751
31706
31826
31718
31713
31772
31810
31732
31787
31876
31823
31717
31765
31795
31653
31687
31802
31724
31701
31796
31864
31760
31857
31979
31872
31879
31970
31956
31911
31996
31928
31855
31986
31833
31930
31823
31939
31903
31857
32012
31873
31992
32034
31972
32053
32151
31974
31997
32131
32021
31981
32110
32085
31981
32084
31913
31924
32071
31926
31988
32147
32039
32071
32229
32102
32183
32278
32143
32143
32279
32127
32141
32244
32085
32194
32080
32173
32092
32172
32213
32156
32332
32198
32322
32241
32263
32405
32278
32372
32326
32247
32348
32228
32210
32352
32188
32285
32284
32198
32340
32318
32284
32460
32359
32445
32429
32382
32510
32366
32500
32306
32379
32311
32365
32419
32306
32374
32437
32291
32375
32502
32406
32519
32587
32439
32444
32591
32598
32490
32583
32497
32461
32505
32537
32390
32441
32519
32396
32508
32631
32503
32553
32707
32665
32570
32727
32582
32566
32670
32583
32518
32631
32498
32432
32559
32457
32447
32577
32463
32613
32477
32583
32511
32487
32677
32572
32707
32661
32739
32733
32711
32910
32819
32854
33060
32940
33079
33082
33060
33087
33282
33191
33418
33278
33423
33324
33308
33383
33214
33353
33219
33266
33287
33127
33227
33062
33151
33028
33031
33200
33031
33176
33108
33058
33222
33030
33119
33031
32972
33089
32895
32991
32796
32862
32726
32673
32682
32550
32672
32511
32502
32660
32491
32587
32636
32527
32658
32549
32511
32639
32463
32447
32563
32389
32437
32447
32338
32477
32411
32410
32585
32462
32598
32472
32612
32593
32549
32692
32554
32670
32609
32547
32674
32487
32585
32471
32526
32511
32551
32539
32498
32695
32551
32671
32708
32578
32671
32639
32587
32716
32563
32676
32535
32508
32644
32481
32567
32517
32477
32613
32583
32535
32692
32631
32607
32714
32790
32626
32718
32775
32628
32697
32775
32626
32703
32693
32472
32491
32273
32080
32018
31807
31685
31751
31625
31562
31685
31671
31619
31732
31735
31703
31816
32107
32119
32438
33038
33442
34150
35096
36112
36908
37809
38817
39455
39991
40876
41452
41798
42743
43141
43508
43873
43455
43324
42674
41557
40833
39597
38431
37180
35827
34898
33736
32939
32467
31956
31634
31524
31225
30939
30772
30671
30365
30278
30374
30399
30471
30666
30866
30858
30963
31192
31204
31270
31471
31511
31471
31535
31652
31560
31565
31668
31607
31563
31660
31766
31692
31749
31916
31855
31828
32027
32053
31943
31995
32106
32022
31994
32044
32134
31974
31947
32082
31927
32036
32007
31988
32054
31983
32098
32104
32071
32218
32149
32115
32237
32113
32087
32237
32145
32135
32263
32088
32169
32135
32077
32170
32207
32077
32133
32234
32334
32212
32245
32372
32455
32303
32327
32454
32327
32295
32407
32373
32257
32324
32450
32341
32341
32493
32487
32429
32519
32647
32513
32493
32618
32621
32517
32599
32598
32518
32646
32541
32494
32647
32516
32532
32708
32647
32639
32781
32807
32703
32864
32743
32861
32815
32751
32883
32732
32842
32836
32718
32772
32868
32740
32741
32873
32791
32807
32951
32966
32927
33031
33099
32964
33062
33137
33014
33127
33154
33039
33170
33198
33092
33161
33182
33061
33148
33261
33208
33166
33319
33358
33274
33423
33495
33356
33414
33508
33342
33367
33543
33426
33415
33573
33417
33548
33579
33543
33766
33671
33863
33743
33834
33901
33799
33982
33863
33837
33995
33916
33855
34023
33909
33908
34096
33959
34104
34151
34087
34252
34323
34214
34237
34428
34273
34239
34389
34467
34311
34247
34340
34396
34264
34191
34260
34197
34176
34303
34263
34139
34247
34242
34091
34214
33980
33985
34023
33793
33883
33636
33620
33600
33351
33378
33215
33106
33184
33005
32939
33055
32870
32974
32759
32791
32753
32539
32575
32452
32318
32323
32288
32100
32123
32072
31942
31996
31919
31829
31934
31852
31791
31848
31916
31718
31743
31814
31637
31650
31735
31530
31575
31550
31429
31553
31471
31644
31631
31545
31652
31527
31495
31628
31527
31615
31687
31561
31678
31659
31556
31593
31628
31476
31594
31615
31527
31679
31671
31590
31719
31782
31668
31772
31813
31707
31786
31826
31701
31750
31780
31668
31776
31676
31646
31766
31671
31712
31874
31740
31844
31973
31849
31903
31999
32046
31900
31887
31889
31931
31918
31974
31998
31903
31797
31823
31843
31954
32022
32027
31908
31871
31932
31975
32113
32179
32071
32065
32099
32146
32173
32090
32021
32006
32039
32090
32135
32052
31995
32007
32047
32083
32161
32241
32211
32139
32190
32279
32185
32161
32316
32163
32220
32246
32159
32242
32263
32188
32296
32354
32246
32280
32415
32273
32279
32428
32418
32310
32407
32356
32280
32343
32395
32298
32244
32308
32374
32235
32262
32423
32292
32332
32509
32375
32367
32485
32550
32396
32343
32452
32343
32292
32298
32463
32378
32308
32375
32455
32373
32334
32431
32494
32363
32484
32587
32437
32402
32534
32436
32372
32418
32495
32331
32343
32455
32391
32326
32341
32471
32423
32429
32551
32645
32525
32655
32503
32580
32567
32469
32583
32409
32423
32575
32381
32474
32385
32398
32529
32437
32632
32549
32710
32578
32687
32643
32689
32754
32613
32815
32684
32852
32727
32885
32772
32903
32867
32919
33127
33047
33265
33179
33366
33302
33387
33423
33372
33482
33350
33485
33268
33346
33312
33159
33275
33127
33077
33220
33055
33180
33084
33159
33170
33063
33206
33071
33047
33196
33021
32980
33125
33004
32902
32978
32788
32699
32775
32719
32603
32676
32612
32490
32604
32492
32548
32589
32477
32575
32587
32434
32551
32453
32397
32460
32413
32323
32436
32468
32344
32495
32322
32431
32542
32415
32562
32567
32455
32596
32430
32508
32575
32406
32473
32415
32375
32511
32413
32331
32412
32513
32391
32407
32572
32446
32464
32621
32492
32487
32615
32515
32487
32627
32519
32455
32581
32425
32395
32519
32503
32447
32567
32501
32533
32673
32654
32551
32695
32581
32743
32589
32683
32574
32698
32639
32573
32742
32611
32614
32730
32534
32581
32634
32393
32340
32185
31887
31900
31638
31637
31639
31535
31687
31574
31647
31765
31724
31846
32149
32172
32543
33061
33432
34125
35143
35822
36714
37677
38375
39092
39893
40332
40901
41639
41926
42524
43010
42981
42952
42757
41821
41374
40271
39084
37982
36679
35287
34367
33358
32455
31967
31558
31291
31238
30901
30783
30596
30285
30201
30186
30066
30212
30432
30427
30663
30903
30917
30976
31155
31159
31239
31452
31317
31367
31522
31436
31591
31444
31542
31549
31580
31719
31818
31748
31877
31848
31870
31998
31871
31829
31893
31955
31815
31908
31849
31771
31860
31921
31798
31842
32001
31969
31949
32089
32160
32027
32112
32229
32097
32087
32226
32072
32083
32217
32082
32205
32064
32046
32224
32128
32148
32328
32188
32322
32446
32298
32454
32319
32500
32392
32349
32456
32302
32376
32343
32279
32412
32391
32291
32391
32425
32382
32502
32567
32423
32580
32486
32647
32605
32525
32619
32471
32644
32509
32660
32527
32599
32540
32677
32644
32571
32766
32689
32741
32804
32711
32900
32891
32858
32999
32885
32860
33007
32826
32862
33039
32887
32868
33001
32955
32927
33122
33007
33110
33180
33017
33197
33048
33142
33263
33114
33173
33255
33100
33223
33227
33244
33198
33407
33236
33396
33301
33475
33423
33373
33532
33428
33514
33543
33449
33618
33446
33535
33654
33540
33629
33724
33583
33646
33810
33671
33767
33820
33779
34021
33889
34014
34071
33972
34092
34071
33992
34115
34151
33980
34056
34179
34076
34083
34268
34270
34272
34378
34474
34367
34523
34398
34447
34564
34437
34559
34536
34420
34540
34523
34414
34567
34583
34450
34526
34599
34471
34606
34490
34406
34567
34515
34404
34486
34445
34271
34278
34260
34023
34065
33858
33692
33780
33635
33535
33590
33490
33371
33422
33335
33177
33252
33078
33012
32961
32798
32840
32748
32559
32631
32431
32327
32421
32234
32250
32263
32054
32106
32107
31969
32024
32031
31868
31919
31931
31728
31788
31782
31663
31750
31567
31558
31692
31534
31525
31650
31559
31559
31623
31714
31590
31582
31703
31581
31529
31629
31492
31610
31475
31459
31596
31591
31479
31529
31639
31500
31623
31741
31615
31751
31668
31639
31767
31594
31653
31744
31564
31569
31713
31616
31599
31713
31602
31606
31751
31641
31766
31740
31721
31892
31748
31759
31879
31750
31882
31767
31866
31844
31730
31847
31747
31825
31898
31805
31879
31932
31844
31974
32063
31886
31896
32084
31959
32044
32105
31934
32077
31999
31950
32044
31877
31942
32052
31935
32020
32004
31948
32132
31974
32104
32027
32029
32206
32072
32175
32107
32038
32201
32045
32028
32175
32026
32106
32156
32036
32180
32107
32085
32250
32132
32222
32347
32222
32365
32196
32253
32287
32113
32217
32199
32127
32246
32085
32204
32087
32230
32119
32211
32317
32188
32335
32225
32252
32412
32217
32284
32377
32237
32246
32335
32159
32277
32176
32198
32389
32274
32276
32431
32303
32323
32524
32405
32410
32527
32429
32332
32407
32468
32280
32278
32372
32215
32175
32323
32343
32231
32363
32381
32340
32487
32396
32350
32502
32345
32431
32396
32324
32476
32348
32292
32423
32217
32273
32343
32198
32298
32286
32276
32461
32294
32308
32475
32363
32356
32497
32359
32389
32572
32462
32447
32574
32644
32559
32626
32858
32958
32902
33012
33140
33071
33113
33298
33130
33277
33232
33138
33211
33076
33005
33142
33047
32990
33125
32940
33031
33121
32997
33095
33190
32998
32970
33105
33011
32927
32972
32999
32839
32898
32862
32706
32735
32710
32603
32705
32601
32526
32645
32593
32503
32631
32473
32504
32614
32420
32455
32479
32336
32455
32309
32234
32317
32239
32140
32296
32194
32207
32398
32405
32381
32560
32466
32409
32479
32479
32394
32450
32397
32321
32422
32359
32299
32431
32360
32339
32477
32454
32382
32499
32614
32543
32508
32574
32663
32548
32602
32679
32555
32499
32635
32489
32431
32597
32513
32463
32629
32492
32554
32757
32637
32807
32761
32717
32859
32665
32731
32828
32695
32796
32751
32623
32733
32614
32661
32647
32610
32775
32660
32571
32606
32558
32253
32222
32063
31895
31951
31772
31738
31879
31813
31821
32007
31903
32102
32399
32457
32687
33036
33594
34228
34774
35636
36535
37183
38111
38913
39412
40038
40777
41095
41711
42335
42541
42623
42925
42608
42116
41599
40454
39445
38407
37047
35786
34730
33502
32782
31964
31458
31310
31159
30938
30850
30583
30401
30316
30215
30054
30092
30274
30321
30471
30687
30914
30962
31020
31194
31351
31367
31335
31380
31527
31402
31570
31640
31582
31715
31871
31879
31956
32147
32072
31994
32132
32246
32105
32085
32183
32253
32077
32085
32207
32146
32084
32124
32206
32239
32167
32191
32284
32394
32302
32349
32471
32438
32352
32391
32461
32298
32401
32463
32300
32358
32438
32284
32342
32402
32338
32335
32553
32421
32448
32615
32606
32510
32512
32674
32686
32571
32556
32647
32695
32540
32610
32715
32595
32564
32725
32737
32650
32684
32789
32863
32732
32819
32869
32735
32741
32894
32818
32771
32860
32911
32785
32743
32898
32882
32880
32873
32991
33057
32951
32932
33108
33130
33041
33043
33156
33023
33005
33100
33180
33114
32983
32987
33065
33130
33002
33022
33148
33261
33138
33177
33369
33222
33212
33351
33262
33226
33229
33380
33335
33208
33303
33375
33223
33272
33468
33346
33445
33559
33457
33580
33711
33574
33572
33740
33742
33656
33617
33722
33822
33706
33668
33799
33916
33781
33823
33956
34041
33946
33988
34082
34186
34212
34119
34183
34304
34284
34191
34273
34375
34356
34199
34223
34352
34416
34306
34303
34407
34500
34485
34443
34389
34548
34566
34503
34431
34441
34535
34417
34311
34470
34511
34364
34327
34488
34567
34445
34447
34557
34608
34449
34332
34450
34439
34221
34162
34217
34158
33878
33718
33740
33722
33509
33407
33469
33440
33253
33231
33273
33047
33017
33084
32834
32749
32784
32729
32471
32452
32454
32263
32254
32238
31983
31943
32028
31967
31829
31834
31942
31866
31727
31687
31756
31642
31528
31460
31495
31438
31363
31351
31400
31375
31220
31215
31345
31274
31239
31398
31332
31355
31478
31478
31324
31336
31375
31302
31255
31241
31286
31346
31249
31221
31281
31354
31260
31311
31467
31359
31351
31492
31357
31460
31568
31398
31391
31462
31503
31548
31465
31412
31385
31412
31438
31492
31399
31397
31430
31530
31622
31624
31582
31551
31588
31695
31703
31562
31531
31563
31685
31685
31545
31548
31637
31700
31681
31604
31629
31739
31813
31876
31815
31782
31795
31878
31885
31785
31772
31747
31822
31815
31759
31672
31705
31793
31848
31911
31852
31838
31870
31900
31973
32027
31981
31948
31992
32111
32131
32007
31948
31967
32084
32135
32039
32021
32014
32141
32207
32214
32078
32089
32174
32287
32295
32143
32138
32121
32222
32295
32149
32135
32119
32219
32223
32148
32099
32148
32282
32375
32348
32199
32199
32213
32287
32373
32323
32214
32228
32300
32331
32332
32194
32175
32252
32357
32223
32236
32263
32406
32324
32294
32286
32466
32487
32334
32309
32379
32412
32236
32198
32334
32220
32228
32358
32386
32247
32308
32479
32476
32375
32391
32487
32566
32459
32421
32503
32530
32413
32321
32401
32474
32489
32378
32363
32398
32452
32511
32550
32484
32423
32494
32615
32535
32527
32641
32768
32719
32704
32724
32809
32862
32918
32826
32892
32938
33106
33211
33165
33144
33129
33239
33318
33301
33156
33126
33181
33263
33157
33052
33015
33085
33159
33129
33010
32964
33072
33116
33124
33073
32991
32987
32993
32970
32966
33045
33048
33013
32940
32760
32731
32676
32771
32767
32751
32583
32477
32447
32489
32551
32604
32575
32471
32434
32447
32431
32503
32570
32550
32381
32356
32411
32428
32263
32360
32494
32314
32326
32501
32526
32471
32509
32601
32489
32420
32489
32596
32458
32415
32469
32516
32388
32348
32492
32447
32387
32538
32492
32468
32494
32637
32540
32498
32606
32698
32557
32699
32545
32674
32511
32471
32602
32556
32475
32506
32679
32718
32601
32622
32756
32798
32710
32689
32791
32866
32775
32729
32684
32775
32839
32816
32672
32646
32615
32678
32633
32343
32232
32268
32044
32015
32103
31946
31905
31975
32159
32165
32074
32217
32463
32581
32667
32874
33338
33783
34195
34831
35813
36692
37394
38161
38993
39657
40126
40470
41295
41929
42177
42658
43028
43047
42584
42287
41799
40823
39604
38677
37590
36167
34980
33968
32853
32116
31707
31198
30962
30898
30647
30458
30356
30209
29944
29932
30042
30063
30237
30492
30564
30693
30970
30997
31084
31303
31487
31449
31518
31683
31699
31648
31698
31870
31876
31805
31839
31963
32045
31943
31983
32174
32168
32135
32223
32340
32258
32185
32167
32295
32253
32159
32206
32261
32103
32190
32284
32135
32252
32233
32199
32385
32311
32340
32513
32369
32390
32543
32439
32453
32567
32444
32417
32551
32354
32418
32519
32351
32366
32503
32566
32511
32467
32537
32734
32645
32584
32639
32721
32685
32559
32626
32710
32534
32589
32670
32527
32479
32577
32701
32608
32708
32727
32725
32812
32788
32770
32823
32918
32763
32724
32831
32853
32678
32647
32786
32823
32723
32723
32730
32873
32951
32887
32999
33121
33083
32975
33042
33106
33002
32965
33009
33083
32951
32913
33031
33084
32924
32992
33131
32998
33012
33201
33161
33151
33263
33311
33127
33139
33324
33183
33183
33287
33237
33159
33302
33403
33255
33263
33424
33277
33368
33513
33397
33495
33568
33471
33619
33688
33543
33655
33677
33555
33718
33606
33591
33780
33646
33698
33799
33866
33827
33957
34127
34001
34010
34221
34233
34086
34132
34199
34051
34127
34237
34084
34135
34215
34086
34053
34231
34329
34217
34204
34377
34439
34333
34308
34492
34516
34366
34398
34470
34379
34273
34452
34269
34185
34292
34195
34084
34234
34225
34100
34038
34153
34191
34012
34039
34098
33844
33756
33823
33727
33486
33442
33422
33286
33110
33022
33114
33049
32858
32822
32875
32903
32689
32572
32568
32583
32449
32299
32285
32295
32077
31961
31985
32052
31887
31812
31886
31772
31735
31834
31884
31706
31751
31764
31663
31708
31736
31559
31674
31516
31503
31575
31527
31388
31423
31528
31516
31471
31543
31599
31486
31574
31667
31599
31522
31513
31596
31623
31534
31495
31512
31582
31626
31459
31476
31577
31667
31558
31569
31741
31607
31646
31783
31815
31666
31736
31820
31666
31708
31775
31615
31623
31739
31694
31642
31699
31804
31677
31711
31876
31919
31835
31926
31941
31846
31895
31985
31943
31844
31830
31922
31893
31796
31832
31919
31807
31857
31988
31927
31930
32100
31986
31961
32138
31987
31974
32102
31998
31926
32014
32093
31922
31893
32007
32092
31927
31946
32100
32074
32036
32069
32167
32263
32162
32115
32183
32259
32169
32103
32207
32119
32022
32123
32095
32031
32094
32196
32135
32126
32203
32303
32292
32201
32198
32325
32284
32207
32202
32319
32199
32148
32131
32218
32282
32103
32103
32227
32175
32122
32263
32263
32207
32230
32323
32379
32236
32237
32236
32332
32375
32220
32149
32188
32263
32279
32110
32132
32321
32175
32201
32358
32278
32255
32357
32383
32263
32285
32404
32242
32226
32371
32230
32313
32374
32252
32320
32423
32292
32367
32478
32346
32374
32479
32583
32519
32450
32529
32611
32449
32519
32647
32533
32533
32668
32790
32750
32906
33045
32967
33109
33255
33156
33143
33329
33263
33146
33176
33276
33085
33095
33205
33006
33037
33119
32966
32950
33094
33024
32965
33092
33130
32961
33039
33124
33026
32966
33047
33095
32934
32878
32950
32931
32732
32737
32799
32711
32581
32555
32716
32590
32539
32647
32546
32478
32550
32580
32454
32494
32573
32383
32409
32491
32292
32308
32428
32305
32311
32460
32373
32371
32531
32479
32436
32519
32623
32426
32464
32572
32404
32394
32524
32510
32356
32424
32553
32427
32502
32631
32506
32498
32655
32599
32556
32639
32572
32512
32672
32543
32623
32695
32498
32519
32569
32417
32379
32524
32450
32441
32519
32620
32587
32532
32607
32709
32615
32611
32679
32730
32559
32519
32655
32559
32519
32630
32657
32495
32535
32492
32311
32298
32096
31852
31818
31829
31604
31568
31695
31524
31591
31689
31596
31770
31991
32004
32227
32679
32942
33460
34263
35078
35878
36823
37639
38398
39152
40005
40493
41102
41788
42141
42692
43176
43143
43231
42852
42060
41607
40614
39255
38343
37003
35597
34628
33442
32553
32020
31422
31175
31041
30677
30482
30308
30011
29911
29946
29863
29982
30244
30316
30414
30631
30699
30815
31047
31146
31172
31345
31376
31300
31434
31459
31367
31469
31601
31483
31550
31724
31630
31659
31790
31887
31764
31815
31939
31954
31837
31884
31994
31835
31880
31997
31855
31858
32021
31910
31911
32065
31946
31999
32188
32082
32060
32228
32175
32112
32215
32203
32131
32257
32187
32127
32286
32135
32183
32263
32111
32211
32326
32206
32335
32308
32239
32394
32388
32310
32421
32452
32309
32458
32311
32403
32263
32206
32346
32218
32390
32279
32387
32534
32421
32578
32497
32459
32632
32511
32507
32663
32489
32455
32595
32481
32446
32567
32463
32424
32607
32515
32532
32713
32665
32636
32828
32711
32700
32847
32730
32759
32855
32711
32707
32809
32748
32672
32766
32878
32742
32870
32863
32815
32996
32934
32887
33000
33092
32911
32988
33080
32899
32967
32942
32895
33031
32976
32924
33036
33103
33029
33143
33303
33180
33301
33407
33349
33285
33362
33474
33311
33321
33518
33390
33377
33549
33425
33376
33588
33471
33476
33682
33663
33622
33767
33879
33761
33759
33962
33871
33860
33966
34040
33911
33927
34055
33935
33922
34066
34150
34016
34071
34239
34114
34214
34351
34223
34327
34364
34263
34412
34450
34258
34311
34348
34199
34326
34357
34183
34346
34257
34170
34310
34345
34199
34259
34248
34094
34090
34134
33934
33872
33892
33631
33647
33486
33431
33411
33200
33333
33132
33175
33068
32982
33067
32837
32928
32717
32803
32575
32668
32447
32484
32349
32307
32338
32148
32087
32172
31971
31991
31911
31940
31810
31911
31726
31821
31822
31735
31855
31716
31824
31652
31587
31691
31521
31562
31591
31493
31604
31495
31522
31623
31508
31655
31525
31629
31538
31535
31671
31538
31518
31674
31509
31479
31597
31582
31471
31532
31572
31495
31630
31521
31604
31733
31635
31791
31625
31704
31807
31661
31751
31852
31687
31737
31802
31646
31700
31773
31662
31794
31810
31759
31867
31921
31828
31935
31857
31821
31931
31859
31823
31980
31835
31890
31978
31828
31956
31809
31937
31873
31918
32041
31903
32032
32023
31959
32108
32093
31998
32097
32038
31986
32059
32125
32004
32078
32007
31958
32118
31991
32028
32186
32039
32065
32228
32073
32122
32254
32200
32146
32209
32276
32084
32146
32211
32079
32151
32186
32073
32163
32189
32101
32284
32263
32196
32361
32255
32239
32352
32295
32233
32362
32343
32218
32244
32317
32140
32170
32349
32236
32233
32369
32250
32367
32412
32303
32470
32407
32366
32437
32422
32279
32386
32321
32282
32390
32257
32229
32391
32307
32277
32434
32326
32335
32517
32373
32471
32549
32391
32463
32560
32380
32340
32455
32361
32301
32359
32287
32420
32424
32343
32543
32442
32419
32539
32615
32459
32535
32629
32452
32416
32559
32385
32401
32514
32479
32350
32418
32506
32414
32415
32498
32618
32491
32587
32674
32597
32550
32683
32715
32536
32599
32668
32516
32505
32575
32655
32519
32502
32567
32663
32580
32546
32670
32751
32707
32670
32809
32927
32832
32805
32791
32964
33025
32958
33023
33178
33215
33100
33158
33348
33415
33319
33423
33558
33383
33420
33473
33351
33282
33383
33455
33244
33307
33271
33156
33255
33216
33110
33272
33106
33063
33191
33201
33091
33184
33262
33084
33151
33165
32999
32942
33047
32887
32828
32878
32742
32638
32671
32757
32615
32652
32775
32674
32654
32775
32659
32582
32679
32647
32542
32519
32655
32540
32476
32575
32417
32454
32615
32519
32476
32637
32561
32529
32675
32615
32574
32716
32625
32583
32693
32599
32567
32700
32578
32599
32647
32476
32603
32518
32575
32681
32563
32604
32676
32607
32558
32626
32752
32625
32603
32671
32632
32549
32619
32686
32510
32518
32631
32661
32572
32595
32757
32683
32642
32767
32735
32678
32806
32711
32671
32830
32667
32720
32828
32675
32727
32775
32596
32591
32565
32263
32145
32063
31812
31828
31716
31668
31729
31812
31733
31680
31820
32007
31975
32127
32452
32678
33077
33812
34329
35228
36209
36976
37700
38804
39628
40138
40855
41572
42119
42486
43112
43679
43717
43587
43359
42651
41541
40846
39748
38395
37176
36025
34700
33649
32971
32247
31780
31592
31252
30975
30798
30561
30271
30244
30104
30100
30279
30441
30459
30668
30744
30860
31075
31034
31284
31248
31303
31463
31407
31448
31574
31407
31434
31591
31470
31535
31695
31637
31671
31813
31892
31773
31787
31909
31841
31803
31884
31975
31823
31844
31918
31910
31783
31860
31954
31828
31859
32006
31920
31911
32038
32119
31987
32039
32182
32095
32071
32132
32205
32036
32071
32188
32066
32034
32093
32188
32067
32071
32160
32247
32119
32149
32321
32333
32209
32283
32366
32229
32259
32399
32263
32351
32421
32258
32227
32316
32426
32334
32319
32399
32513
32398
32424
32513
32615
32532
32508
32583
32635
32508
32463
32543
32618
32455
32451
32598
32534
32509
32627
32600
32588
32692
32799
32636
32644
32764
32839
32690
32742
32839
32679
32658
32807
32642
32775
32668
32687
32842
32694
32827
32979
32872
32863
32975
33071
32932
32967
33052
33092
33052
32951
32967
33089
32941
32922
33087
32951
33060
33213
33082
33220
33359
33242
33264
33434
33359
33317
33494
33382
33333
33511
33375
33518
33402
33379
33575
33534
33501
33707
33674
33658
33866
33820
33779
33963
34010
33916
33986
34108
33981
34067
34122
33968
34138
34045
34094
34215
34054
34223
34162
34159
34383
34216
34405
34278
34367
34425
34255
34439
34309
34438
34372
34223
34417
34253
34367
34285
34311
34407
34245
34391
34175
34311
34119
34170
34199
34007
34041
34062
33845
33823
33818
33570
33496
33543
33333
33263
33353
33191
33095
33093
33143
32983
32895
32941
32788
32708
32791
32623
32482
32543
32323
32257
32311
32094
32177
31977
32055
32009
31907
31967
32022
31886
31841
31910
31871
31719
31701
31777
31722
31584
31579
31604
31651
31573
31533
31535
31631
31628
31497
31598
31650
31516
31568
31708
31748
31606
31626
31672
31722
31623
31547
31608
31631
31494
31542
31659
31622
31598
31691
31796
31719
31718
31810
31883
31880
31766
31783
31887
31897
31759
31859
31919
31851
31789
31835
31950
31879
31868
31966
32060
31997
31940
31990
32123
32100
31962
31950
32038
32121
31947
31932
32032
32056
31919
31893
31994
32030
31930
31981
32132
31999
32077
32181
32044
32165
32135
32014
32110
32132
31971
32052
32098
31910
31918
32066
31903
32018
32112
32001
32071
32236
32175
32101
32202
32250
32164
32244
