ECG
31924
31539
31101
30912
30575
30527
30399
30650
30754
31058
31398
31743
31868
31981
31969
32067
31742
31621
31218
31118
30941
30907
31215
31646
32325
33383
34836
36504
38431
40453
42519
45022
46983
49024
50583
52074
52912
53469
53308
53020
52248
51485
50325
49253
47878
46615
45026
43773
42091
40756
38839
37072
35321
34295
33831
33321
33027
32545
32203
31742
31305
30781
30427
30062
29915
29813
29953
30196
30562
30928
31383
31532
31748
31666
31695
31457
31367
30902
30775
30317
30033
29566
29332
29036
28871
28903
29087
29335
29674
30119
30500
30854
31079
31239
31348
31330
31167
31020
30798
30343
30097
29605
29420
29126
29110
29068
29278
29548
29991
30441
30874
31163
31488
31660
31775
31730
31601
31532
31090
30908
30471
30231
29843
29727
29516
29591
29670
30011
30348
30796
31142
31520
31900
31911
32164
32103
32007
31710
31457
31132
30759
30310
30100
29853
29669
29727
29766
30164
30375
30947
31302
31702
31940
32095
32135
32180
32007
31823
31685
31239
30980
30514
30246
29911
29878
29799
29975
30255
30657
31074
31487
31845
32149
32310
32407
32382
32339
32063
31855
31466
31231
30887
30560
30319
30228
30200
30397
30631
31041
31399
31974
32192
32558
32601
32809
32682
32686
32418
32239
31844
31500
31133
30794
30525
30289
30412
30382
30800
31043
31543
31879
32173
32455
32541
32766
32642
32484
32287
32023
31667
31380
30896
30718
30341
30276
30206
30291
30428
30832
31199
31577
31959
32099
32410
32326
32318
32262
31991
31751
31369
31031
30655
30296
29965
29844
29767
29915
30086
30397
30783
31175
31524
31808
31823
32028
31873
31885
31514
31363
30943
30663
30236
29892
29588
29415
29455
29427
29751
29927
30475
30799
31246
31436
31641
31670
31783
31632
31559
31203
30975
30553
30302
29895
29769
29589
29620
29681
30023
30311
30839
31206
31636
31935
32108
32256
32327
32282
32111
31794
31614
31305
30972
30687
30487
30397
30360
30399
30739
31057
31491
32034
32331
32807
32849
33053
33027
33054
32859
32592
32420
32101
31775
31470
31263
31111
31111
31130
31479
31791
32180
32595
32967
33413
33470
33676
33618
33620
33331
33185
32861
32440
32217
31764
31628
31389
31326
31468
31687
31922
32324
32804
33218
33345
33764
33716
33903
33652
33607
33194
33063
32607
32326
31961
31684
31546
31495
31486
31679
32070
32529
32853
33190
33642
33668
33892
33769
33855
33572
33388
33096
32680
32282
31909
31798
31456
31599
31540
31881
32117
32577
32959
33346
33572
33739
33989
33907
33879
33748
33391
33197
32817
32474
32038
31870
31644
31580
31617
31921
32292
32682
33036
33524
33748
33841
34194
34088
34196
33849
33751
33308
33100
32593
32381
31993
31855
31835
31880
32105
32367
32743
33159
33700
33805
34172
34228
34365
34212
34078
33767
33487
33124
32846
32461
32215
31943
31911
32111
32156
32693
32924
33526
33722
34167
34245
34462
34430
34475
34167
34037
33613
33287
32821
32705
32319
32177
32005
32139
32241
32618
32903
33489
33687
34114
34161
34394
34247
34187
33988
33820
33375
33258
32775
32455
32090
31902
31895
31842
32100
32415
32662
33210
33501
33943
34030
34220
34184
34120
33884
33660
33505
32999
32703
32294
31973
31806
31698
31847
31941
32302
32687
33120
33496
33831
34060
34188
34228
34204
34020
33750
33407
33123
32772
32389
32075
31893
31795
31807
32023
32276
32839
33159
33603
33895
34084
34197
34245
34356
34063
33840
33542
33223
32805
32404
32231
31849
31880
31815
32156
32343
32756
33182
33596
33860
34055
34311
34244
34436
34158
34016
33653
33389
33031
32703
32358
32214
32308
32240
32549
32847
33111
33688
34017
34334
34522
34722
34900
34767
34663
34311
33997
33797
33348
33023
32572
32278
32317
32177
32472
32665
33148
33396
33924
34149
34439
34485
34522
34413
34140
34079
33606
33372
32852
32484
32090
31836
31620
31663
31920
32086
32622
32909
33382
33636
33916
34005
34042
33959
33708
33674
33279
32924
32515
32093
31863
31572
31574
31460
31665
32006
32355
32759
33225
33536
33716
33799
33837
34003
33716
33626
33194
32933
32551
32149
31959
31567
31606
31601
31732
32024
32374
32885
33223
33551
33995
33991
34145
33968
33770
33753
33306
33070
32599
32195
31820
31484
31235
31148
31219
31344
31471
31810
32100
32262
32303
32500
32527
32494
32276
32079
31723
31310
30868
30613
30407
30357
30567
31156
31959
33084
34432
36137
37956
39937
41991
43837
46036
47582
49549
50806
52015
52578
52831
52639
51995
51445
50639
49815
49024
47968
47015
45671
44358
43100
41190
39380
37163
35280
34366
33405
32946
32201
31866
31279
30879
30523
30277
30188
30138
30511
30754
31198
31534
31823
32190
32166
32116
31956
31623
31390
30827
30575
30038
29751
29333
29230
29002
29022
29141
29371
29687
30019
30537
30806
31060
31247
31284
31274
31007
30943
30562
30286
29938
29542
29243
29007
28905
28798
29042
29354
29675
30086
30518
31018
31173
31441
31465
31567
31454
31220
30959
30560
30335
29891
29670
29332
29244
29282
29367
29731
29991
30568
30858
31366
31549
31833
31919
31936
31907
31687
31385
31141
30874
30378
30161
29815
29794
29720
29895
30202
30554
30949
31406
31847
32007
32148
32212
32423
32142
32110
31780
31429
31013
30657
30417
30052
30007
29902
30109
30295
30725
31156
31579
31873
32126
32501
32466
32509
32373
32135
31974
31487
31292
30769
30562
30269
29993
30100
30177
30410
30823
31101
31679
32049
32391
32559
32659
32639
32569
32356
31962
31780
31307
31058
30614
30434
30239
30225
30323
30588
30923
31391
31808
32155
32479
32493
32775
32703
32583
32327
31986
31819
31329
31029
30663
30298
30191
30100
30229
30447
30756
31211
31509
32022
32158
32474
32410
32439
32327
32098
31743
31380
31159
30613
30330
29942
29871
29727
29859
30028
30356
30758
31185
31541
31764
31879
31881
32030
31884
31519
31377
30952
30604
30277
29807
29591
29423
29308
29420
29566
29956
30316
30750
31165
31401
31566
31838
31765
31703
31550
31187
30895
30555
30241
29816
29588
29468
29395
29542
29814
30129
30668
31079
31531
31810
32003
32132
32135
32299
31998
31852
31647
31224
30975
30668
30279
30258
30231
30319
30647
30973
31521
31956
32377
32730
32827
33191
33215
33070
33086
32703
32543
32145
31812
31518
31172
31119
31013
31198
31443
31780
32301
32645
33174
33428
33476
33798
33780
33636
33619
33218
32968
32543
32146
31935
31569
31364
31433
31509
31647
32135
32447
32860
33387
33500
33894
33933
33956
33775
33693
33415
33092
32704
32365
32022
31724
31474
31429
31663
31770
32180
32562
32967
33455
33588
33951
33948
33967
33879
33604
33574
33151
32805
32350
32023
31844
31590
31485
31676
31783
32212
32556
33015
33314
33631
33852
34028
34020
33895
33991
33560
33315
32981
32607
32161
31908
31800
31610
31885
32007
32412
32768
33215
33654
33812
34259
34259
34467
34226
34082
33814
33493
33094
32701
32513
32039
32061
31863
32011
32164
32496
32870
33261
33862
34040
34253
34308
34279
34444
34136
33964
33643
33151
32893
32511
32163
31972
31812
31948
32043
32340
32875
33238
33636
33874
33972
34348
34236
34261
34011
33732
33391
33015
32580
32204
32034
31669
31746
31679
31966
32180
32662
33041
33423
33695
33954
34050
34087
34009
33727
33642
33143
32990
32462
32163
31819
31591
31505
31540
31625
32044
32450
32855
33219
33521
33862
33838
33990
33883
33697
33346
33134
32865
32378
31989
31696
31479
31432
31329
31661
31885
32405
32750
33240
33507
33709
33949
33903
33966
33740
33446
33199
32774
32540
31999
31782
31452
31431
31437
31621
31999
32239
32834
33125
33489
33716
33862
34007
33835
33799
33436
33188
32746
32356
32141
31713
31592
31489
31527
31663
31942
32319
32686
33260
33482
33847
33884
33975
34016
33662
33643
33311
32952
32711
32206
32108
31835
31750
31879
31900
32417
32750
33195
33532
33852
34335
34372
34532
34447
34277
33957
33612
33473
32924
32604
32133
32016
31807
31751
32013
32135
32638
32919
33536
33660
33932
34007
34271
33924
33854
33603
33300
32877
32458
32027
31693
31517
31224
31401
31482
31735
32212
32610
32940
33476
33579
33813
33740
33631
33689
33263
32983
32635
32145
31916
31470
31343
31127
31247
31364
31704
32068
32508
32918
33175
33621
33638
33878
33683
33700
33303
33085
32634
32219
31987
31487
31405
31141
31304
31380
31822
32116
32602
33031
33431
33629
33774
33849
33830
33668
33352
33208
32735
32375
31851
31508
31235
30828
30855
30703
30956
31094
31420
31714
32038
32199
32355
32441
32364
32138
31836
31514
31135
30861
30484
30487
30529
30969
31559
32665
33978
35715
37417
39630
41492
43588
45828
47428
49440
50513
51970
52511
52753
52359
51879
51006
50271
49199
48276
47052
45961
44596
43318
42006
40380
38436
36518
34942
33958
33492
32848
32518
32020
31542
31070
30556
30316
29938
29958
30055
30290
30652
31070
31481
31806
32034
31946
32077
31757
31631
31148
30887
30428
30057
29748
29350
29171
28943
28961
29024
29376
29661
30092
30532
30876
31198
31229
31487
31364
31287
31055
30771
30498
30007
29734
29336
29151
28997
28977
29170
29419
29780
30210
30819
31043
31483
31559
31823
31705
31683
31444
31164
30804
30450
30113
29729
29476
29318
29346
29404
29788
30055
30671
31060
31486
31806
31883
32180
32127
32048
31770
31533
31279
30886
30510
30257
29944
29784
29813
29912
30162
30516
31071
31383
31906
32167
32329
32391
32327
32405
32095
31818
31554
31074
30726
30391
30052
30022
29994
30051
30391
30701
31207
31599
31958
32423
32574
32581
32713
32542
32275
32131
31645
31425
30943
30701
30407
30228
30287
30272
30657
30964
31464
31946
32336
32574
32693
32972
32876
32917
32550
32373
31916
31647
31150
30842
30536
30391
30293
30497
30698
31084
31545
31995
32388
32629
32785
32947
32892
32793
32564
32248
31942
31476
31179
30740
30479
30300
30245
30367
30465
30857
31213
31791
31957
32371
32398
32667
32457
32550
32193
31903
31533
31120
30727
30237
30023
29774
29805
29745
30068
30257
30783
31142
31543
31820
31951
32023
31935
31975
31567
31440
30960
30639
30196
29809
29535
29294
29247
29303
29565
29856
30274
30754
31141
31351
31646
31647
31841
31666
31590
31193
30971
30563
30215
29898
29579
29454
29399
29549
29807
30215
30642
31188
31540
31975
32167
32308
32281
32257
32249
31913
31684
31343
30952
30567
30332
30298
30215
30356
30675
31043
31556
31973
32508
32774
33052
33341
33327
33319
33189
32911
32614
32279
31916
31556
31236
31029
31175
31161
31459
31816
32215
32686
33115
33447
33642
33815
33793
33785
33588
33276
33028
32580
32290
31915
31529
31446
31248
31453
31641
31977
32479
32832
33396
33599
33830
33882
33854
34021
33680
33492
33118
32806
32404
31942
31798
31450
31525
31540
31834
32202
32630
33095
33409
33895
33958
34133
34089
34104
33863
33516
33204
32801
32598
32101
31932
31631
31620
31610
31829
32317
32591
33116
33446
33981
34077
34206
34276
34244
34080
33768
33494
33191
32747
32473
32090
31933
31831
31929
32156
32478
32820
33263
33893
34101
34359
34455
34485
34442
34287
34023
33639
33269
32907
32529
32203
31957
31908
31980
32195
32497
32942
33439
33796
34231
34415
34545
34514
34508
34420
33943
33867
33364
33066
32605
32285
32121
31986
32059
32263
32604
32908
33379
33742
34335
34395
34599
34588
34536
34347
34052
33765
33367
32934
32573
32252
32020
31892
31925
32132
32491
32818
33391
33679
34182
34132
34503
34429
34429
34207
33927
33572
33223
32833
32463
32081
31943
31777
31823
32042
32213
32811
33138
33729
33824
34272
34199
34470
34198
34308
33781
33602
33173
32847
32348
32079
31802
31770
31716
32006
32279
32679
33140
33568
33919
34113
34255
34526
34223
34191
33847
33610
33214
32772
32425
32155
31930
31829
31834
32013
32356
32700
33105
33793
33949
34327
34361
34557
34397
34359
33940
33743
33287
32903
32502
32085
31949
31719
31835
31894
32364
32598
33231
33526
34008
34085
34394
34287
34392
34133
33826
33446
33020
32791
32201
32039
31718
31727
31551
31855
32079
32565
32975
33327
33839
33982
34221
34300
34281
34102
33917
33769
33244
33064
32612
32438
32100
32045
32055
32247
32526
33070
33341
34017
34244
34645
34667
34924
34708
34735
34327
34120
33583
33273
32807
32428
32135
32011
32015
32134
32469
32755
33377
33635
34119
34196
34462
34275
34375
34077
33927
33532
33105
32767
32351
32037
31696
31666
31573
31830
31959
32487
32855
33311
33631
33866
34069
34039
34119
33857
33653
33335
32951
32540
32175
31853
31576
31436
31420
31567
31882
32205
32799
33054
33616
33773
33956
34087
34075
33927
33637
33397
32969
32743
32212
31978
31575
31532
31441
31679
31968
32341
32817
33287
33660
33909
34015
34188
34191
34033
33767
33411
32953
32388
32003
31487
31047
30726
30551
30508
30789
30925
31483
31718
32263
32352
32665
32518
32575
32409
32204
31981
31839
31798
31767
32087
32639
33495
34639
36265
38081
40132
42564
44653
47180
49098
51166
52615
53908
54452
54620
54151
53598
52727
51500
50341
48799
47390
45656
44144
42548
41022
39294
37433
35884
34860
34311
33923
33810
33398
33195
32687
32320
31803
31302
30895
30526
30338
30197
30271
30492
30905
31113
31516
31652
31879
31810
31863
31680
31606
31196
31069
30591
30325
29891
29511
29190
28990
28943
28980
29291
29625
30070
30479
30864
31060
31291
31356
31521
31367
31111
30849
30588
30191
29806
29415
29208
28973
29056
29087
29518
29759
30297
30737
31204
31495
31638
31767
31825
31759
31532
31279
30900
30542
30157
29791
29553
29384
29395
29487
29847
30146
30697
31036
31639
31767
32180
32197
32308
32098
32007
31614
31348
30996
30587
30247
29910
29785
29767
29943
30097
30583
30924
31507
31828
32205
32386
32470
32433
32317
32294
31880
31653
31184
30834
30484
30162
30066
29906
30086
30284
30693
31154
31599
32055
32292
32631
32580
32791
32670
32470
32247
31782
31470
31076
30662
30407
30191
30265
30205
30614
30851
31443
31746
32199
32592
32799
32905
32879
32875
32695
32379
32042
31644
31282
30813
30534
30395
30396
30395
30727
30983
31527
31797
32393
32471
32868
32785
32983
32727
32696
32177
31988
31397
31142
30643
30424
30103
30156
30063
30397
30599
31135
31486
31951
32202
32356
32417
32318
32359
32091
31827
31447
31023
30613
30225
29906
29703
29564
29668
29759
30204
30445
30947
31285
31581
31791
31855
31928
31812
31629
31281
30937
30539
30119
29667
29423
29175
29124
29126
29383
29646
30206
30551
31142
31399
31728
31739
31935
31781
31673
31367
31103
30751
30330
29996
29702
29556
29510
29583
29880
30341
30765
31306
31751
32167
32372
32479
32611
32695
32345
32300
31875
31692
31184
30946
30607
30563
30490
30485
30888
31157
31708
32207
32643
32955
33277
33504
33543
33527
33421
33173
32886
32533
32159
31828
31500
31300
31159
31340
31391
31941
32225
32817
33198
33626
33807
33946
33996
33983
33799
33492
33129
32842
32356
32057
31605
31516
31420
31451
31649
32031
32383
32848
33259
33583
33767
33863
33871
33907
33764
33455
33107
32644
32421
31860
31677
31337
31366
31335
31572
31887
32316
32757
33190
33622
33731
34031
33957
34066
33671
33623
33220
32878
32492
32077
31785
31484
31489
31450
31717
32016
32539
32844
33485
33698
34003
34175
34116
34215
33913
33886
33482
33084
32816
32239
32067
31691
31727
31694
31899
32348
32643
33159
33615
33924
34332
34335
34509
34405
34244
34073
33535
33354
32862
32443
32194
31809
31844
31863
31977
32487
32791
33284
33787
33927
34415
34415
34580
34463
34375
34097
33743
33270
32879
32647
32179
31988
31884
31781
32098
32309
32790
33188
33681
34007
34336
34382
34484
34495
34207
34084
33606
33356
32871
32325
32113
31809
31679
31795
31793
32254
32514
33077
33427
33821
34037
34148
34175
34167
34071
33733
33359
32948
32715
32085
31892
31593
31535
31374
31696
31950
32421
32818
33339
33701
33908
34094
34151
34122
33925
33589
33319
33013
32568
32165
31792
31622
31425
31433
31614
31901
32383
32767
33311
33616
33896
34055
34132
34127
33938
33658
33316
33056
32549
32231
31807
31604
31438
31474
31623
31921
32349
32775
33308
33430
33900
33927
34117
34000
33932
33601
33250
32911
32518
32143
31724
31551
31239
31413
31381
31812
32145
32572
33102
33303
33790
33862
33894
33941
33816
33549
33138
32860
32364
32067
31593
31479
31175
31366
31421
31797
32086
32662
32951
33380
33658
33811
33812
33729
33849
33383
33287
32835
32623
32055
31934
31588
31665
31561
31859
32189
32652
33195
33461
33959
34266
34488
34605
34581
34591
34118
34063
33493
33258
32831
32492
32180
32004
31997
32028
32480
32671
33269
33543
34095
34094
34469
34422
34554
34267
34103
33734
33324
32895
32439
32079
31655
31591
31493
31703
31831
32237
32700
33269
33416
33895
33959
34174
34009
33943
33717
33295
32972
32562
32249
31751
31575
31301
31409
31351
31785
32070
32564
32991
33330
33615
33878
33857
33960
33715
33608
33199
32871
32543
32091
31727
31405
31359
31158
31426
31644
32098
32508
32903
33426
33551
33921
33831
34011
33866
33647
33302
32964
32591
32254
31817
31519
31268
31119
31157
31265
31637
31751
32209
32232
32659
32607
32811
32527
32558
32086
31940
31468
30981
30569
30084
29910
29682
29924
30418
31144
32263
33340
35055
36418
38429
40066
42174
43756
45975
47500
49379
50607
51796
52439
52743
52719
52319
51960
51301
51006
50254
49570
48480
47416
45662
44402
42375
40375
37799
35857
34172
33253
32345
31781
31122
30719
30489
30173
30243
30343
30721
30963
31486
31759
32086
32263
32228
32185
31814
31608
30967
30655
30002
29662
29203
28788
28646
28593
28676
28845
29253
29620
30157
30425
30908
30943
31197
31014
31087
30766
30575
30116
29866
29446
29079
28791
28674
28627
28727
28907
29404
29748
30396
30764
31144
31345
31420
31526
31339
31303
30868
30709
30260
29910
29486
29287
29007
29076
29088
29386
29695
30143
30751
30999
31488
31617
31884
31871
31855
31671
31384
31095
30759
30316
29968
29698
29509
29478
29551
29814
30225
30614
31175
31519
31895
32030
32287
32114
32216
31921
31727
31359
30959
30568
30133
29910
29688
29730
29682
29972
30394
30749
31335
31673
32116
32196
32414
32417
32357
32209
31909
31681
31139
30865
30333
30189
29879
29911
29891
30247
30567
30964
31511
31889
32303
32374
32710
32714
32605
32550
32118
31883
31457
31060
30690
30343
30215
30106
30253
30340
30761
31205
31687
32209
32482
32659
32840
32951
32839
32569
32350
32060
31593
31219
30760
30515
30242
30207
30199
30481
30752
31189
31572
32116
32255
32674
32577
32806
32516
32484
32124
31855
31335
31015
30466
30279
29959
29891
29895
30045
30374
30812
31199
31623
31925
32111
32183
32230
32101
31902
31651
31228
30889
30431
30082
29735
29452
29428
29345
29698
29899
30388
30708
31287
31422
31847
31806
32007
31871
31711
31528
31165
30884
30442
30148
29748
29602
29455
29579
29758
30199
30571
31147
31585
31989
32297
32414
32519
32553
32404
32231
31903
31615
31221
30950
30593
30503
30379
30543
30697
31145
31504
32087
32595
32909
33323
33375
33633
33408
33482
33098
32970
32511
32276
31860
31662
31325
31327
31313
31615
31913
32397
32879
33269
33716
33887
34114
34142
34191
33919
33761
33335
33116
32524
32347
31845
31792
31575
31683
31788
32150
32551
33061
33454
33853
34019
34215
34273
34181
34104
33706
33511
33030
32788
32323
32043
31798
31650
31645
31890
32175
32551
33099
33403
33871
34014
34183
34247
34174
34082
33684
33564
32966
32823
32236
32080
31688
31756
31604
31935
32085
32695
33058
33549
33941
34127
34279
34390
34285
34190
33964
33550
33342
32735
32519
32132
31895
31871
31741
32101
32295
32732
33191
33743
34004
34375
34385
34599
34447
34384
34093
33903
33431
33132
32631
32445
32019
32060
31870
32231
32378
32913
33333
33799
34152
34424
34569
34593
34604
34459
34191
33863
33583
33142
32839
32294
32231
31999
32050
32188
32468
32926
33307
33780
33948
34404
34412
34631
34396
34441
33951
33871
33284
33090
32464
32282
31855
31890
31805
31915
32332
32610
33131
33501
33982
34023
34379
34304
34332
34215
33911
33654
33224
32868
32373
32026
31778
31611
31535
31735
31984
32423
32809
33318
33588
33878
33972
34152
33934
33956
33522
33367
32888
32604
32102
31789
31488
31447
31357
31529
31750
32198
32641
33091
33615
33671
34071
34063
34095
33989
33681
33481
33063
32790
32216
32017
31605
31598
31431
31652
32020
32332
32903
33286
33725
33919
34164
34203
34264
33989
33917
33455
33278
32791
32487
31966
31843
31521
31674
31633
32098
32282
32964
33187
33714
33915
34166
34097
34167
33986
33799
33397
33140
32619
32330
31846
31652
31365
31538
31487
31935
32209
32751
33132
33631
33671
34055
33911
34123
33785
33788
33401
33002
32749
32168
31959
31556
31511
31506
31557
31905
32340
32787
33405
33654
34159
34274
34468
34437
34363
34172
33921
33552
33248
32762
32430
32201
31911
32116
32068
32540
32696
33359
33560
34143
34251
34563
34563
34623
34438
34223
33925
33485
33210
32680
32303
32068
31879
31681
31962
32085
32527
32791
33389
33572
34053
34023
34375
34234
34241
33862
33667
33228
32877
32503
32095
31785
31568
31604
31576
31935
32211
32696
33086
33588
33866
33976
34153
34076
34122
33679
33588
33196
32751
32414
31938
31729
31503
31494
31588
31852
32254
32705
33110
33543
33796
33956
34157
34069
34135
33695
33666
33171
32966
32397
32191
31729
31641
31471
31704
31837
32324
32543
33187
33335
33719
33706
33835
33518
33469
32854
32559
31941
31625
31007
30758
30335
30212
30071
30206
30273
30662
30982
31519
32090
32465
33238
33796
34591
35148
36223
37149
38332
39423
41108
42404
44399
45823
47733
49073
50817
51903
52863
53198
53591
53206
53199
52446
51583
50260
48540
46740
44444
42502
39988
37300
34718
32932
31743
31381
31203
31559
31684
32219
32367
32711
32796
32855
32740
32687
32284
32149
31631
31371
30924
30416
30116
29703
29605
29431
29564
29759
30040
30591
30865
31327
31415
31597
31522
31527
31227
31001
30570
30266
29734
29413
29024
28819
28871
28839
29145
29404
29895
30294
30754
31095
31323
31522
31447
31556
31239
31089
30684
30438
29947
29716
29331
29189
29075
29125
29447
29725
30253
30624
31133
31418
31719
31767
31868
31822
31633
31487
31022
30852
30364
30063
29647
29575
29395
29596
29727
30231
30587
31193
31513
32012
32094
32351
32225
32349
32095
31781
31588
31109
30831
30431
30087
29903
29860
29865
30104
30394
30951
31318
31838
32150
32405
32540
32559
32619
32287
32199
31703
31461
31000
30645
30334
30150
30054
30158
30297
30727
31079
31611
31991
32404
32667
32806
32947
32754
32775
32391
32175
31715
31450
30956
30724
30406
30434
30380
30671
30926
31380
31827
32351
32608
32956
32996
33141
33009
32966
32623
32311
31960
31516
31103
30759
30514
30364
30533
30598
31083
31375
31901
32357
32637
32973
32967
33183
32925
32927
32509
32327
31839
31501
30967
30716
30396
30372
30260
30533
30751
31215
31564
32073
32327
32627
32679
32829
32679
32581
32167
31870
31479
31030
30621
30188
30084
29844
29950
29966
30383
30662
31133
31575
31809
32243
32250
32367
32220
32175
31799
31509
31126
30664
30436
29980
29812
29601
29632
29942
30177
30636
31053
31533
31916
32172
32329
32500
32407
32351
32064
31706
31493
31009
30694
30364
30138
30068
30109
30317
30655
31172
31582
32143
32449
32839
32986
33078
33071
33031
32735
32583
32135
31871
31412
31222
30895
30879
30823
31092
31328
31802
32273
32610
33239
33386
33670
33694
33732
33639
33245
33140
32600
32388
31876
31611
31351
31165
31348
31385
31740
32172
32495
33105
33358
33637
33807
33727
33935
33678
33492
33189
32714
32516
31999
31725
31380
31331
31255
31492
31663
32097
32629
32958
33495
33535
33916
33783
33892
33678
33563
33064
32870
32327
32140
31687
31495
31285
31432
31442
31846
32071
32671
32989
33394
33719
33775
34012
33793
33855
33468
33327
32858
32540
32083
31727
31571
31285
31359
31407
31908
32110
32725
32980
33559
33639
33999
34027
34055
33937
33655
33458
32956
32728
32187
32013
31623
31612
31475
31697
31933
32397
32804
33245
33684
33796
34196
34052
34249
33908
33903
33448
33237
32759
32420
31965
31780
31636
31540
31827
31967
32459
32805
33319
33689
33932
34183
34069
34292
33982
33940
33497
33294
32735
32480
31911
31815
31567
31514
31741
31892
32394
32646
33260
33587
33836
34111
34007
34212
33855
33853
33350
33140
32697
32239
31920
31575
31478
31361
31516
31717
32191
32481
33004
33474
33572
33988
33936
33947
33833
33543
33391
32907
32539
32104
31751
31428
31316
31333
31340
31775
31969
32569
32892
33367
33543
33813
33951
33814
33927
33526
33348
32919
32604
32134
31828
31519
31279
31406
31324
31738
31925
32540
32893
33311
33685
33782
34047
33847
33935
33607
33383
32948
32655
32159
31895
31521
31353
31319
31380
31617
32078
32446
33021
33307
33647
33756
33998
33910
33927
33591
33434
32884
32686
32135
31874
31438
31399
31194
31404
31535
32069
32327
32988
33237
33630
33713
33854
33958
33711
33711
33188
33055
32477
32239
31716
31580
31239
31331
31276
31649
31888
32428
32843
33354
33575
33860
33916
33982
33908
33693
33526
33071
32965
32428
32205
31996
31767
31876
31811
32263
32515
33037
33449
33950
34228
34459
34727
34641
34666
34431
34109
33897
33287
33081
32526
32306
31966
32021
31969
32299
32513
32967
33437
33808
34122
34336
34413
34459
34383
33998
33871
33374
33117
32545
32251
31794
31665
31431
31611
31771
32241
32596
33077
33511
33664
34073
33958
34223
33903
33877
33382
33262
32703
32371
31869
31575
31405
31270
31482
31586
31982
32490
32812
33410
33511
33983
33901
34100
33903
33725
33515
33042
32833
32263
31993
31570
31463
31298
31411
31639
31959
32554
32913
33455
33628
34017
34041
34132
34118
33788
33627
33115
32919
32367
32055
31519
31329
31039
31077
31068
31358
31552
32002
32297
32614
32838
32870
33110
32871
32796
32358
32023
31700
31180
30942
30580
30752
30961
31738
32516
33959
35181
37044
38535
40676
42588
44612
46480
48118
49415
50372
50927
51029
50540
50004
49255
48647
47802
47077
46006
45172
43694
42738
41130
39897
37926
36254
34626
33935
33287
32998
32519
32200
31700
31270
30939
30527
30444
30247
30480
30653
31126
31623
32060
32369
32678
32716
32839
32623
32487
31943
31618
31015
30607
30019
29719
29426
29352
29413
29540
29967
30252
30884
31186
31693
31773
32054
31958
32012
31725
31574
31127
30821
30422
29943
29696
29377
29412
29346
29622
29885
30346
30865
31231
31750
31875
32119
32160
32153
31993
31687
31517
30986
30727
30198
29975
29671
29645
29606
29845
30244
30594
31163
31556
32108
32222
32591
32510
32629
32391
32167
31851
31540
31095
30806
30372
30214
30100
30170
30343
30676
31078
31526
32118
32316
32703
32742
32943
32811
32764
32417
32218
31765
31416
31142
30705
30628
30395
30522
30548
30951
31404
31767
32378
32606
33047
33095
33219
33260
32938
32869
32377
32167
31652
31306
30916
30825
30563
30631
30806
31095
31535
32034
32471
32906
33082
33329
33367
33318
33263
32871
32747
32223
32000
31469
31226
30847
30796
30727
30912
31293
31636
32231
32526
33058
33183
33503
33468
33442
33287
33012
32663
32380
31833
31583
31060
30924
30661
30763
30761
31223
31441
32007
32329
32747
32953
32996
33220
32995
33074
32625
32431
31905
31577
31028
30718
30378
30203
30317
30308
30691
30918
31472
31732
32217
32324
32527
32663
32471
32447
32007
31791
31393
30891
30583
30075
29916
29611
29660
29668
30026
30327
30752
31349
31572
31935
32005
32228
32089
32083
31718
31511
31071
30702
30236
29942
29604
29575
29468
29713
29943
30405
30799
31323
31830
32087
32303
32335
32501
32358
32116
31916
31492
31239
30727
30518
30181
30167
30068
30337
30564
30993
31543
31975
32487
32703
33067
33020
33215
32948
32938
32478
32278
31809
31490
31170
30881
30860
30764
31017
31212
31735
32087
32679
32989
33399
33507
33679
33591
33610
33281
33095
32647
32365
31852
31610
31229
31172
31059
31294
31458
31924
32252
32795
33138
33476
33636
33813
33689
33732
33327
33175
32668
32462
31895
31685
31287
31252
31079
31300
31469
31903
32343
32887
33115
33610
33665
33887
33811
33823
33502
33329
32860
32596
32053
31802
31375
31291
31172
31382
31556
32103
32447
33063
33348
33762
33898
34119
34016
34039
33641
33536
33007
32807
32226
31999
31585
31569
31418
31602
31860
32263
32749
33174
33727
33853
34290
34271
34428
34259
34177
33729
33543
32955
32716
32181
31942
31794
31760
31860
32174
32511
33083
33423
33998
34083
34495
34541
34641
34492
34231
34031
33543
33321
32840
32394
32241
31927
32019
32031
32216
32628
33186
33561
34031
34262
34478
34564
34627
34468
34279
33965
33591
33283
32734
32476
32020
31997
31841
31879
32263
32443
32994
33311
33815
33977
34374
34271
34518
34218
34195
33693
33571
32996
32684
32198
31892
31716
31604
31696
31895
32348
32635
33264
33519
33959
34004
34325
34144
34229
33767
33710
33187
32941
32353
32118
31652
31600
31403
31645
31729
32142
32620
33025
33469
33873
34019
33998
34117
34143
33767
33655
33117
32812
32360
32068
31607
31537
31317
31558
31642
32143
32476
33119
33409
33840
33886
34226
34105
34202
33799
33711
33199
32948
32346
32035
31726
31467
31550
31455
31821
32026
32512
33055
33376
33862
33887
34152
34116
33992
33866
33470
33303
32735
32478
31905
31681
31381
31316
31321
31551
32001
32304
32924
33148
33597
33799
33883
34039
33750
33679
33399
32995
32757
32191
31910
31442
31256
31200
31171
31519
31742
32303
32633
33236
33423
33768
33894
33927
33999
33661
33604
33123
32845
32504
32079
31925
31607
31662
31660
31934
32410
32738
33415
33679
34229
34412
34567
34639
34591
34444
34079
33909
33303
32970
32564
32140
32007
31765
31951
31999
32364
32869
33255
33798
33943
34396
34428
34529
34343
34188
33828
33498
32965
32685
32103
31875
31521
31559
31439
31723
31991
32417
32842
33350
33624
33964
33939
34148
33951
33837
33461
33127
32646
32347
31821
31579
31212
31220
31143
31460
31786
32135
32666
33052
33407
33689
33847
33847
33908
33610
33474
33031
32795
32217
31909
31449
31359
31104
31210
31367
31719
32241
32647
33200
33462
33863
33847
34055
33994
33763
33627
33138
32903
32323
32031
31465
31253
30894
30911
30894
31205
31343
31812
31965
32334
32343
32466
32522
32335
32253
31713
31407
30940
30500
30255
29991
30223
30444
31133
31834
33222
34681
36542
38444
40531
42382
44340
46324
48055
49764
51007
52231
52876
53319
52791
52591
51830
51103
50373
49212
48597
47428
46378
44983
43644
41916
39913
37846
35676
34471
33471
32672
32172
31452
30964
30580
30137
30041
29879
30017
30324
30588
31153
31463
31890
31978
32175
31941
31895
31463
31108
30752
30199
29847
29375
29023
28867
28657
28775
28814
29124
29572
30003
30420
30919
31114
31201
31409
31239
31231
30846
30671
30207
29871
29423
29060
28893
28698
28860
28930
29382
29703
30324
30703
31226
31404
31614
31828
31685
31697
31319
31150
30679
30438
29906
29648
29305
29297
29236
29511
29759
30251
30711
31271
31623
31993
32068
32335
32180
32098
31905
31535
31311
30791
30495
30013
29861
29639
29680
29895
30131
30692
31039
31631
31860
32215
32455
32463
32594
32331
32196
31821
31476
31065
30613
30242
30091
29847
29977
30004
30485
30756
31358
31700
32198
32358
32706
32647
32739
32583
32385
32037
31677
31333
30830
30581
30226
30212
30094
30372
30567
31084
31432
31930
32333
32583
32879
32877
32979
32759
32623
32163
31951
31445
31096
30684
30464
30278
30280
30463
30773
31176
31740
32093
32591
32745
33080
33029
33133
32903
32775
32324
32115
31599
31294
30753
30590
30301
30324
30471
30754
31109
31706
32014
32540
32668
33012
32925
33050
32770
32575
32194
31856
31361
31031
30539
30359
30018
30046
30146
30367
30727
31172
31633
31965
32356
32396
32600
32417
32375
32014
31860
31343
31020
30476
30132
29863
29644
29721
29702
30083
30334
30886
31233
31716
31975
32131
32396
32245
32287
31910
31708
31231
30943
30436
30223
29823
29772
29663
29855
30086
30582
31043
31590
31943
32349
32546
32635
32748
32558
32477
32061
31868
31350
31079
30598
30453
30207
30278
30348
30755
31119
31710
32110
32676
32879
33215
33335
33253
33394
33015
32887
32433
32156
31765
31345
31164
30916
31035
31029
31391
31735
32164
32831
33086
33532
33653
33884
33863
33764
33607
33180
32974
32439
32145
31648
31524
31207
31324
31270
31682
31903
32492
32822
33391
33543
33889
33830
33848
33901
33558
33331
32998
32530
32239
31724
31577
31239
31359
31311
31695
31901
32447
32799
33357
33551
33845
33983
33862
33925
33588
33407
32959
32663
32239
31802
31559
31329
31239
31415
31580
32131
32416
33049
33348
33716
34044
34003
34231
34012
33871
33687
33190
32871
32380
32028
31801
31509
31588
31557
31945
32172
32668
33080
33592
33863
34110
34326
34284
34273
34003
33783
33287
33104
32564
32263
31867
31629
31700
31622
31988
32237
32806
33279
33598
34115
34296
34337
34449
34309
34190
33813
33607
33116
32814
32281
32103
31782
31863
31785
32124
32412
32900
33391
33789
34077
34431
34436
34614
34386
34292
33895
33703
33224
32917
32416
32167
31823
31870
31844
32165
32561
32833
33499
33764
34215
34351
34412
34599
34445
34285
33948
33588
33263
32743
32383
31995
31855
31735
31839
32021
32394
32796
33305
33658
34141
34244
34407
34471
34335
34215
33779
33639
33057
32723
32309
31975
31715
31735
31687
32021
32285
32767
33222
33695
33932
34353
34301
34534
34359
34183
33879
33493
33249
32655
32413
31931
31824
31599
31796
31844
32329
32595
33193
33519
34004
34132
34396
34335
34327
34186
33775
33608
33050
32801
32232
32041
31672
31630
31639
31798
32323
32550
33198
33511
33874
34122
34329
34311
34309
33981
33880
33383
33130
32685
32181
31821
31703
31450
31679
31724
32212
32431
33091
33343
33834
33943
34283
34143
34257
33903
33777
33310
33051
32519
32188
31771
31553
31469
31413
31751
31935
32453
32837
33348
33767
33878
34231
34159
34247
33967
33799
33336
33046
32609
32214
31843
31535
31559
31452
31750
31982
32528
32899
33421
33796
34087
34415
34333
34517
34236
34151
33746
33438
33167
32614
32445
32044
32046
31994
32245
32652
32999
33660
33927
34463
34519
34877
34756
34887
34567
34380
33981
33612
33159
32645
32453
32042
32007
31868
32103
32312
32684
33323
33592
34087
34158
34380
34343
34375
34182
33883
33599
33079
32806
32202
31975
31582
31559
31442
31711
31956
32279
32877
33167
33693
33773
34023
34198
33996
33922
33687
33253
33014
32468
32101
31820
31429
31436
31297
31543
31847
32231
32871
33177
33660
33855
33956
34218
34074
34095
33701
33551
33073
32647
32281
31879
31656
31486
31455
31671
31908
32437
32783
33362
33626
34103
34129
34367
34180
34165
33711
33412
32867
32484
31946
31316
30912
30686
30398
30389
30639
31022
31327
31727
32130
32370
32335
32478
32476
32250
32194
32335
32283
32527
32697
33172
34156
35431
36855
38565
40898
43060
45186
47761
50020
51759
53596
55032
55730
55948
55653
54788
54041
52917
51238
49950
48111
46437
44678
42850
41261
39168
37380
35591
34682
34049
33727
33735
33385
33271
32970
32440
32071
31684
31046
30655
30332
29963
29954
29954
30143
30484
30639
30977
31333
31332
31517
31442
31447
31367
31093
30831
30407
30076
29575
29268
28895
28785
28686
28790
29071
29386
29917
30263
30755
31071
31228
31503
31372
31425
31063
30901
30447
30157
29668
29388
29103
28974
28975
28995
29354
29806
30219
30745
31141
31591
31684
31959
31834
31911
31518
31359
30911
30575
30197
29819
29600
29375
29463
29470
29867
30142
30743
31089
31593
31989
32095
32385
32255
32325
31972
31822
31357
31043
30580
30214
30002
29737
29806
29806
30206
30501
30986
31456
31919
32196
32416
32687
32583
32639
32262
32089
31599
31337
30800
30551
30122
30016
29906
30086
30275
30762
31175
31651
32220
32356
32663
32803
32773
32811
32479
32342
31846
31581
31037
30759
30378
30259
30157
30340
30519
31006
31294
31916
32245
32721
32807
32989
33151
32919
32823
32426
32220
31684
31262
30968
30565
30343
30373
30366
30704
31023
31539
31983
32453
32711
33005
33028
33143
32927
32859
32391
32191
31651
31349
30868
30673
30295
30280
30319
30535
30989
31284
31900
32175
32618
32647
32850
32757
32764
32446
32237
31774
31383
31007
30509
30266
29945
29967
29919
30159
30492
30860
31327
31748
31970
32255
32343
32482
32247
32166
31693
31495
30964
30679
30136
29912
29569
29559
29545
29801
30190
30551
31179
31471
31962
32049
32308
32221
32288
31962
31823
31359
31119
30582
30343
29903
29807
29627
29771
30031
30404
30957
31358
31956
32180
32580
32601
32799
32588
32564
32195
31875
31655
31175
30927
30503
30400
30354
30361
30735
31018
31594
32007
32647
32868
33284
33391
33386
33531
33217
33095
32665
32340
31880
31549
31200
31021
30980
31013
31292
31579
32031
32509
33071
33315
33687
33675
33886
33672
33562
33236
33082
32535
32263
31699
31506
31141
31166
31069
31390
31645
32053
32652
32927
33388
33567
33762
33818
33682
33668
33205
33039
32489
32223
31645
31390
31187
31001
31172
31239
31732
32021
32600
33012
33370
33645
33789
33946
33747
33743
33302
33114
32591
32277
31885
31490
31252
31202
31213
31401
31887
32134
32810
33127
33631
33827
33959
34206
33988
33924
33655
33247
33029
32480
32234
31799
31626
31485
31517
31839
32073
32632
32983
33519
33893
34023
34383
34299
34438
34158
33998
33563
33355
32787
32508
32023
31903
31671
31802
31975
32253
32807
33141
33726
33927
34287
34398
34390
34516
34197
34018
33799
33255
32976
32445
32173
31995
31766
31865
31939
32428
32647
33233
33615
34015
34324
34362
34612
34407
34426
33979
33818
33283
32996
32471
32184
31798
31773
31661
31958
32164
32700
33004
33602
33815
34215
34243
34471
34289
34326
33834
33661
33171
32852
32321
32115
31713
31695
31553
31826
32091
32473
33063
33381
33911
34016
34327
34228
34374
34065
33935
33503
33223
32756
32375
31964
31742
31607
31511
31783
32003
32440
32903
33302
33870
33981
34343
34279
34414
34123
33997
33519
33276
32764
32471
31965
31756
31623
31580
31847
32029
32548
32866
33464
33731
34067
34199
34273
34396
34104
34028
33543
33295
32775
32366
32059
31675
31652
31518
31791
31960
32444
32840
33351
33695
34019
34132
34340
34184
34143
33783
33626
33102
32865
32284
32050
31645
31637
31508
31681
31964
32382
32791
33253
33700
33887
34236
34180
34311
34064
33953
33490
33244
32698
32437
31964
31780
31553
31525
31732
31927
32405
32727
33364
33566
34022
34026
34278
34088
34118
33727
33607
33067
32815
32245
32007
31591
31559
31399
31594
31851
32351
32743
33253
33646
33853
34199
34133
34332
34027
33927
33460
33316
32757
32441
31974
31788
31570
31629
31665
32166
32453
33094
33543
33959
34348
34484
34822
34657
34807
34396
34302
33799
33570
32982
32730
32327
32214
32189
32210
32652
32933
33405
33776
34311
34410
34783
34698
34788
34588
34367
34159
33601
33332
32704
32469
31999
31924
31757
31804
32108
32417
32859
33342
33717
33965
34157
34211
34279
33979
33922
33451
33191
32717
32378
31863
31631
31482
31335
31509
31630
32115
32420
33039
33284
33723
33782
34078
33945
33995
33620
33443
32991
32654
32224
31804
31620
31298
31414
31349
31738
32020
32611
32929
33428
33751
33922
34106
34079
34039
33793
33543
33085
32844
32292
32071
31662
31556
31420
31607
31780
32202
32679
33086
33664
33764
34101
33988
34036
33716
33560
32990
32631
31865
31393
30737
30445
30030
30007
29908
30175
30442
30773
31193
31518
31812
32156
32343
32889
33172
33676
33913
34719
35310
36549
37525
39278
40743
42684
44631
46879
48983
51036
52884
54385
55439
55652
55797
55172
54759
53649
52445
50759
48900
46898
44545
42654
40199
37792
35556
33736
33023
32586
32803
32821
33139
33118
33254
32995
32972
32547
32279
31850
31467
30966
30556
30083
29827
29596
29475
29620
29693
30060
30338
30698
31039
31140
31423
31300
31325
31028
30716
30350
29919
29518
29111
28839
28548
28525
28485
28769
29045
29548
29940
30487
30855
31020
31287
31221
31215
31172
30758
30564
30106
29798
29324
29075
28848
28812
28919
29086
29559
29878
30482
30823
31301
31450
31695
31765
31671
31495
31217
30961
30528
30196
29796
29471
29333
29221
29287
29539
29927
30309
30951
31269
31770
31870
32119
32116
32159
31889
31677
31372
31005
30591
30246
29844
29719
29567
29693
29871
30356
30639
31198
31607
31995
32164
32391
32447
32423
32324
31940
31792
31244
30950
30409
30207
29906
29867
29926
30090
30558
30874
31511
31857
32338
32475
32727
32727
32823
32513
32367
31933
31572
31159
30775
30471
30266
30143
30191
30414
30759
31231
31688
32119
32615
32736
33079
32959
33071
32759
32637
32162
31860
31357
30989
30695
30400
30407
30343
30611
30859
31365
31721
32295
32487
32823
32958
32941
33039
32714
32564
32110
31839
31287
30977
30495
30361
30133
30232
30350
30698
31075
31450
31972
32212
32415
32689
32596
32695
32370
32211
31692
31398
30870
30506
30119
29831
29753
29634
29895
30100
30583
30912
31475
31671
32051
32059
32224
32074
32004
31689
31357
30958
30562
30142
29786
29551
29408
29418
29591
29902
30303
30836
31235
31732
31905
32237
32227
32374
32098
31965
31549
31247
30873
30421
30194
29870
29831
29803
30067
30355
30935
31355
32006
32254
32711
32783
33046
32896
32935
32630
32334
32033
31721
31213
31015
30670
30669
30592
30851
31156
31615
32073
32527
33039
33242
33575
33674
33597
33663
33279
33037
32703
32231
31953
31532
31423
31188
31261
31330
31794
32070
32672
32995
33455
33662
33940
33918
34036
33783
33586
33213
32955
32417
32133
31611
31438
31229
31277
31413
31727
32214
32570
33178
33412
33822
33815
34093
33903
33951
33513
33372
32823
32466
32051
31619
31429
31169
31340
31350
31738
32064
32474
33117
33379
33717
33996
33991
34158
33844
33730
33319
33017
32659
32108
31907
31495
31484
31345
31611
31787
32343
32672
33311
33534
34008
34055
34332
34127
34183
33807
33527
33279
32743
32406
32032
31698
31671
31513
31774
31940
32479
32812
33462
33703
34120
34164
34379
34340
34191
34119
33653
33465
32943
32685
32143
32000
31694
31807
31735
32191
32445
33023
33383
33927
34060
34354
34351
34452
34239
34111
33717
33380
32932
32581
32134
31905
31687
31803
31772
32181
32478
33001
33500
33749
34212
34223
34471
34307
34333
33984
33819
33308
33023
32469
32226
31815
31751
31581
31817
31957
32476
32786
33382
33743
33949
34285
34255
34418
34108
34028
33601
33263
32884
32423
32036
31765
31572
31512
31590
31944
32245
32823
33174
33725
33862
34244
34218
34351
34111
33999
33534
33327
32786
32476
31968
31780
31503
31535
31545
31911
32263
32705
33147
33542
33799
34141
34135
34262
34135
33900
33655
33246
32887
32370
32055
31641
31559
31385
31604
31741
32215
32606
33180
33474
33876
34000
34259
34149
34121
33946
33542
33253
32815
32543
31977
31788
31444
31567
31474
31871
32108
32644
33057
33503
33895
33958
34157
34165
34065
33878
33534
33245
32825
32340
32020
31599
31527
31335
31551
31658
32165
32444
33091
33369
33766
34041
34028
34222
33967
33919
33499
33265
32766
32315
32000
31568
31525
31326
31548
31684
32073
32456
33095
33351
33843
33873
34108
34015
34095
33775
33627
33137
32903
32273
31932
31596
31357
31425
31348
31743
31947
32484
32848
33392
33652
33964
34088
34148
34011
33869
33620
33135
32876
32305
31975
31631
31425
31289
31399
31623
31947
32453
32819
33405
33583
34007
33953
34182
33927
33899
33468
33303
32810
32623
32132
31987
31694
31684
31818
32129
32375
32962
33314
33898
34228
34394
34658
34593
34738
34372
34122
33881
33375
33132
32557
32263
31999
31838
31964
32101
32597
32828
33438
33724
34028
34406
34446
34408
34465
34092
33969
33475
33103
32735
32164
31934
31560
31575
31453
31687
32101
32402
33060
33319
33735
33937
34055
34021
34126
33758
33626
33107
32867
32284
31983
31495
31398
31156
31327
31382
31887
32159
32756
33064
33585
33702
34034
33903
34010
33632
33471
33119
32711
32311
31814
31623
31239
31225
31220
31481
31811
32167
32759
33085
33615
33709
33999
34014
33939
33871
33484
33354
32839
32566
31998
31799
31429
31300
31351
31427
31740
32018
32391
32679
32979
32947
33041
32837
32805
32403
32199
31662
31376
30775
30396
29855
29650
29433
29470
29928
30515
31559
32535
33955
35095
36735
38261
40084
41767
43505
45215
46920
48564
49725
51226
52007
52935
52975
53382
53127
53078
52716
52231
51633
50511
49317
47679
46057
44106
42004
39310
36832
34884
33388
32529
31669
31291
30867
30751
30828
30948
31395
31655
32194
32343
32678
32618
32662
32650
32335
32063
31457
31020
30359
29895
29346
28997
28843
28773
29030
29255
29722
30092
30654
30885
31287
31288
31462
31284
31219
30805
30639
30175
29886
29380
29040
28876
28687
28815
28911
29231
29752
30175
30770
31055
31481
31527
31761
31650
31637
31265
31062
30621
30297
29914
29516
29415
29198
29204
29447
29716
30244
30629
31239
31503
31848
32097
32095
32229
31990
31863
31414
31217
30749
30374
30055
29779
29755
29685
29975
30208
30599
31175
31532
32082
32204
32404
32642
32447
32490
32062
31925
31436
31198
30695
30349
30143
29925
30043
30082
30561
30873
31470
31798
32319
32478
32807
32794
32894
32705
32623
32148
31908
31487
30995
30694
30364
30240
30246
30385
30776
31137
31684
32084
32599
32834
32971
33124
33011
32966
32771
32407
32146
31687
31290
30998
30609
30582
30499
30695
30950
31387
31941
32286
32807
32915
33254
33250
33151
33148
32797
32665
32151
31887
31359
30983
30755
30534
30643
30645
30939
31440
31828
32221
32758
32999
33049
33287
33103
33154
32725
32534
32029
31772
31206
30958
30528
30478
30269
30457
30628
31139
31403
31951
32252
32566
32739
32775
32724
32673
32393
32052
31690
31199
30845
30361
30203
29863
29919
29875
30183
30623
31023
31583
31847
32289
32407
32565
32423
32386
32075
31861
31375
31076
30583
30236
30055
29782
29870
29871
30185
30655
31087
31607
31996
32366
32559
32735
32755
32727
32430
32263
31831
31607
31055
30805
30483
30451
30337
30524
30836
31271
31704
32235
32719
32975
33324
33349
33519
33319
33301
32950
32559
32337
31791
31595
31189
31166
31050
31293
31481
31903
32430
32982
33372
33661
33991
33990
34151
33879
33847
33463
33079
32775
32230
31996
31545
31431
31404
31454
31743
32007
32624
32981
33455
33708
33997
34012
34184
33886
33790
33466
33055
32733
32219
31963
31534
31495
31296
31491
31641
32092
32453
32959
33425
33615
34007
33934
34103
33901
33639
33513
33079
32846
32253
32004
31505
31417
31374
31449
31751
32066
32596
33018
33605
33749
34077
34159
34126
34168
33799
33709
33193
32862
32479
32021
31790
31484
31559
31551
31971
32172
32811
33159
33687
33875
34167
34293
34252
34249
33983
33773
33365
33110
32575
32308
31887
31799
31623
31780
31927
32443
32798
33410
33741
34060
34398
34346
34572
34308
34276
33813
33692
33153
32869
32320
32102
31791
31893
31811
32142
32389
32900
33278
33850
33971
34428
34412
34534
34325
34299
33836
33671
33122
32837
32303
32114
31719
31775
31708
32109
32310
32867
33213
33759
33988
34291
34350
34292
34378
33996
33729
33508
32983
32677
32158
31919
31719
31587
31708
31900
32149
32648
33045
33540
33876
34074
34263
34268
34231
33963
33671
33358
32943
32568
32125
31740
31684
31469
31630
31692
32155
32420
33023
33420
33700
34155
34119
34280
34087
33980
33703
33356
33012
32482
32236
31770
31601
31419
31583
31650
32172
32459
33001
33502
33665
34100
34079
34311
34047
34071
33593
33402
32901
32428
32111
31710
31660
31415
31589
31656
32105
32381
32947
33254
33670
33918
34138
34164
34119
33941
33607
33343
32799
32566
31985
31715
31420
31399
31278
31629
31981
32364
32914
33223
33661
33836
34004
34103
33998
33878
33500
33331
32769
32431
31996
31712
31343
31373
31279
31540
31759
32248
32748
33181
33569
33820
33935
34010
34007
33847
33500
33305
32796
32573
31977
31669
31495
31298
31463
31555
31874
32359
32727
33332
33567
33943
33989
34180
33991
33983
33510
33307
32924
32404
32111
31634
31477
31291
31378
31469
31863
32263
32756
33191
33564
33799
33981
34127
34020
33895
33685
33239
33028
32483
32254
31737
31650
31389
31548
31551
32054
32303
32916
33249
33702
33855
34111
34290
34047
34087
33679
33571
33098
32828
32375
32250
31935
31988
31895
32143
32429
32938
33396
33975
34214
34567
34604
34822
34759
34623
34463
33995
33687
33335
32757
32561
32148
32103
32029
32108
32463
32767
33352
33687
34188
34284
34600
34479
34581
34236
34009
33720
33212
32991
32356
32102
31655
31519
31415
31620
31740
32317
32686
33321
33558
33966
33983
34215
33999
34070
33588
33414
32864
32615
32002
31649
31431
31215
31231
31377
31631
32181
32529
33066
33479
33649
34030
33957
33993
33759
33499
33397
32853
32529
32140
31679
31557
31239
31365
31453
31748
32241
32579
33183
33405
33876
33917
34172
34036
33997
33731
33431
33015
32649
32171
31783
31581
31291
31419
31340
31709
31868
32346
32565
32902
32903
33012
32980
32847
32852
32426
32254
31718
31276
30710
30335
30079
29827
29959
30092
30791
31641
32679
33935
35057
36701
37895
39743
41287
43109
44700
46311
47734
48822
49869
50439
50835
50695
50621
50074
50137
49701
49287
48711
47655
46427
44781
43340
41206
39463
36802
35033
33506
32700
31909
31532
31047
30828
30615
30754
30860
31184
31456
31909
32343
32499
32849
32806
32913
32639
32496
31966
31684
31054
30652
30015
29711
29359
29326
29261
29659
29900
30413
30923
31250
31703
31779
31983
31795
31852
31487
31294
30822
30531
30061
29599
29381
29174
29293
29292
29644
29959
30465
30964
31426
31665
32039
32015
32114
31895
31894
31517
31303
30819
30471
30140
29774
29703
29541
29703
29984
30389
30930
31343
31861
32110
32445
32547
32644
32431
32330
31969
31693
31362
30861
30645
30247
30170
30022
30213
30384
30942
31284
31922
32215
32668
32725
33031
32879
32973
32625
32407
32132
31671
31219
30968
30535
30363
30382
30465
30721
31194
31533
32167
32457
32879
33004
33204
33373
33137
33061
32629
32399
31924
31500
31231
30799
30727
30549
30740
30876
31341
31746
32282
32735
32970
33383
33397
33599
33377
33340
32891
32757
32222
31973
31445
31291
30953
31031
30949
31347
31601
32196
32535
33042
33341
33635
33764
33783
33791
33460
33255
32917
32526
32071
31703
31239
31223
31016
31166
31335
31823
32128
32743
33109
33478
33638
33887
33807
33791
33503
33150
32943
32369
32081
31495
31271
30922
30992
30879
31189
31410
31885
32289
32742
33127
33255
33375
33412
33339
33035
32903
32346
32016
31535
31199
30710
30511
30382
30414
30698
30941
31455
31810
32329
32588
32813
33019
32875
32959
32609
32457
31964
31674
31119
30807
30351
30151
30093
30041
30356
30615
31170
31510
32103
32314
32706
32708
32834
32679
32644
32218
31952
31412
31108
30695
30388
30133
29978
30103
30297
30812
31093
31799
32135
32584
32748
32989
33135
32929
32919
32480
32335
31817
31507
31054
30788
30552
30417
30599
30694
31260
31559
32156
32506
32964
33119
33353
33380
33439
33223
32935
32560
32299
31833
31514
31134
30871
30762
30772
30951
31300
31841
32196
32775
33009
33411
33391
33652
33497
33420
32949
32775
32210
31942
31405
31223
30825
30796
30719
30933
31282
31637
32239
32595
33108
33250
33503
33444
33480
33239
33092
32661
32424
31862
31588
31127
31023
30796
30943
30981
31477
31737
32411
32736
33300
33460
33692
33677
33637
33455
33252
32911
32604
32085
31813
31310
31210
30967
31169
31213
31698
31986
32631
32969
33484
33639
33980
33905
34053
33763
33632
33219
32930
32359
31993
31751
31502
31364
31359
31630
31866
32312
32957
33319
33647
34118
34133
34427
34183
34158
33703
33601
33063
32817
32234
32030
31631
31612
31506
31785
32030
32519
32911
33391
33844
33992
34380
34275
34420
34143
33950
33589
33145
32809
32413
32068
31703
31528
31599
31623
32116
32361
32944
33256
33728
33935
34158
34228
34086
34102
33722
33515
33003
32722
32135
31896
31508
31516
31357
31607
31786
32342
32652
33242
33548
33838
34103
34111
34225
33937
33790
33287
33089
32498
32236
31713
31579
31276
31385
31351
31799
32091
32716
33022
33555
33697
33979
34023
34021
33941
33537
33399
32858
32621
32038
31717
31419
31311
31201
31420
31628
32196
32548
33135
33409
33815
33885
34095
33951
33897
33573
33339
32893
32596
32094
31733
31430
31284
31246
31393
31717
32069
32667
33004
33622
33715
34074
34017
34183
33867
33799
33443
33121
32618
32260
31789
31533
31335
31471
31433
31853
32157
32554
33199
33480
33861
34008
34037
34228
33936
33853
33412
33148
32655
32228
31832
31543
31364
31295
31427
31698
32154
32545
33180
33441
33877
33946
34178
34077
34087
33729
33452
33139
32634
32327
31886
31597
31391
31346
31412
31722
32155
32635
33192
33555
33978
34242
34425
34556
34325
34310
33876
33697
33154
32852
32322
32173
31861
31962
31954
32373
32630
33222
33587
34114
34279
34616
34615
34676
34599
34194
34091
33543
33234
32620
32353
31885
31797
31589
31799
31916
32416
32693
33316
33524
33992
34006
34319
34121
34131
33863
33551
33206
32703
32352
31831
31614
31279
31317
31329
31549
32036
32334
32975
33213
33717
33760
34003
33985
33916
33699
33313
33084
32543
32263
31708
31489
31194
31164
31275
31453
31950
32255
32915
33162
33660
33733
34009
34002
33958
33615
33478
33084
32586
32309
31777
31612
31292
31305
31300
31596
32046
32397
32911
33383
33620
34015
34005
34164
33833
33693
33143
32724
32346
31639
31236
30615
30284
30215
30212
30547
30791
31405
31783
32226
32399
32677
32775
32870
32903
32875
32954
33117
33439
33760
34218
35106
36030
37313
38979
40634
43084
44788
46900
48404
49751
50498
50807
50714
50183
49717
48510
47727
46172
44817
42703
41151
39023
37548
35645
34172
32659
32101
32145
32511
32868
33199
33311
33353
33324
32974
32759
32175
31669
31275
30769
30532
30215
30234
30183
30517
30767
31310
31636
32156
32263
32505
32501
32431
32326
32007
31820
31395
31173
30636
30310
29900
29663
29606
29584
29894
30135
30689
31103
31659
31881
32145
32404
32325
32417
32101
31994
31530
31293
30789
30459
30087
29799
29744
29761
30025
30325
30898
31367
31775
32295
32429
32748
32679
32775
32484
32388
31933
31687
31133
30835
30389
30284
30063
30268
30356
30860
31154
31748
32126
32647
32788
33103
33031
33150
32854
32727
32251
31929
31551
31067
30871
30486
30482
30406
30626
31013
31403
32100
32414
32810
33237
33319
33331
33423
33121
32989
32604
32127
31860
31318
30997
30849
30646
30791
30913
31258
31803
32202
32829
33036
33495
33506
33727
33510
33548
33160
32919
32525
32066
31715
31296
31123
30969
31110
31181
31698
31985
32645
32973
33477
33603
33925
33895
33997
33671
33543
33169
32751
32441
31889
31645
31253
31221
31159
31447
31706
32217
32618
33220
33441
33836
33814
34073
33855
33885
33414
33118
32756
32279
31835
31461
31207
30994
31069
31165
31609
31901
32471
32806
33263
33383
33720
33604
33654
33486
33146
32836
32330
32031
31473
31164
30779
30657
30668
30751
31056
31478
31908
32383
32699
32972
33102
33139
33062
32941
32644
32263
31820
31478
30902
30615
30182
30125
29991
30228
30430
30935
31311
31796
32199
32381
32644
32644
32670
32487
32199
31843
31367
31026
30505
30285
29889
29831
29725
29942
30202
30685
31083
31680
31970
32404
32503
32670
32597
32511
32203
31952
31556
31222
30719
30442
30093
30072
29996
30276
30525
31060
31434
31983
32415
32724
32862
32997
33062
32871
32746
32298
32090
31571
31239
30815
30669
30407
30510
30580
31042
31306
31952
32314
32887
33013
33355
33319
33495
33219
33060
32685
32335
31903
31512
31111
30790
30676
30687
30756
31159
31467
32074
32407
32975
33073
33383
33374
33533
33268
33167
32682
32415
31893
31449
31177
30762
30709
30583
30788
31023
31471
31886
32503
32763
33157
33334
33427
33501
33280
33170
32711
32465
31922
31668
31150
30990
30687
30813
30802
31255
31527
32158
32506
33055
33304
33479
33660
33575
33565
33228
33051
32527
32260
31749
31406
31068
30893
30930
30945
31404
31660
32263
32686
33201
33415
33799
33733
33831
33783
33407
33260
32853
32404
32068
31572
31438
31124
31199
31215
31511
31953
32423
32900
33441
33639
33935
34101
34038
34049
33685
33572
33063
32799
32197
31891
31526
31462
31297
31549
31725
32252
32560
33204
33503
33983
34065
34329
34148
34222
33895
33525
33283
32741
32438
31954
31580
31525
31319
31549
31705
32175
32575
33090
33531
33735
34145
34074
34277
34018
33901
33438
33228
32655
32359
31795
31618
31254
31311
31253
31669
31891
32473
32852
33383
33695
33923
34090
33958
33945
33684
33381
33015
32495
32199
31657
31495
31142
31167
31136
31540
31773
32405
32764
33364
33520
33908
33908
34055
33828
33727
33253
33063
32478
32231
31684
31452
31124
31204
31143
31504
31807
32287
32882
33204
33660
33759
34039
33927
33983
33605
33468
32955
32639
32170
31823
31385
31177
31151
31158
31559
31807
32396
32761
33370
33538
33887
33935
34097
33943
33659
33520
32991
32591
32287
31725
31498
31188
31202
31256
31458
32014
32311
32895
33401
33623
34031
34004
34167
34079
33774
33607
33159
32705
32325
31799
31623
31273
31332
31239
31510
31959
32357
33027
33382
33903
33999
34279
34351
34311
34188
33892
33646
33198
32860
32396
32231
31885
31963
31898
32316
32637
33078
33652
34018
34516
34625
34855
34804
34755
34540
34243
33799
33479
32931
32558
32254
31900
31962
31836
32179
32382
32887
33371
33725
34217
34255
34558
34404
34421
34064
33819
33412
33050
32572
32188
31718
31617
31364
31527
31611
32087
32431
32949
33372
33706
33922
34100
34081
34047
33852
33575
33148
32878
32324
32003
31623
31340
31282
31237
31548
31799
32377
32735
33364
33538
33956
34047
34055
34183
33831
33636
33287
32800
32494
31924
31714
31327
31367
31272
31640
31860
32444
32869
33450
33683
34091
34107
34311
34046
33903
33566
33074
32674
31992
31581
30929
30596
30245
30060
30305
30463
30807
31348
31631
32079
32151
32309
32450
32379
32550
32463
32774
32771
33127
33374
34196
35014
36508
37980
39833
41735
43812
46053
48201
50169
51775
53404
54355
54988
54791
54197
53367
52244
50940
49399
47823
45969
44191
42574
40881
39337
37508
35886
34631
33903
33646
33383
33355
33071
32933
32465
32159
31668
31166
30791
30279
30019
29797
29758
29927
30046
30448
30687
31143
31301
31486
31662
31677
31817
31588
31254
31082
30538
30238
29685
29423
29031
28960
28858
29080
29384
29754
30333
30708
31223
31381
31724
31691
31685
31607
31262
31028
30567
30214
29719
29500
29159
29128
29043
29324
29586
30102
30566
31109
31511
31781
32116
32051
32191
31917
31804
31367
31114
30555
30231
29799
29508
29428
29410
29679
29943
30513
30910
31518
31817
32259
32314
32517
32437
32431
32105
31770
31508
31002
30553
30308
29941
29922
29847
30113
30342
30873
31270
31897
32166
32606
32636
32905
32733
32746
32383
32116
31751
31266
30947
30459
30274
30063
30042
30316
30525
31071
31444
32074
32358
32786
32868
33123
32951
32948
32548
32365
31849
31583
31018
30751
30364
30305
30180
30333
30723
31039
31678
32043
32627
32756
33112
33063
33191
32938
32766
32461
31975
31674
31142
30849
30468
30415
30254
30523
30756
31290
31623
32249
32551
32967
33013
33270
33103
33100
32746
32495
31984
31689
31108
30847
30430
30331
30247
30399
30705
31172
31540
32122
32407
32703
32914
32965
32991
32775
32693
32209
31975
31399
31084
30535
30325
30030
30045
30086
30476
30751
31312
31701
32182
32454
32573
32826
32647
32684
32255
32079
31548
31270
30684
30381
30023
29838
29870
29909
30222
30557
31149
31517
32070
32250
32623
32614
32735
32519
32456
32001
31801
31266
30956
30417
30224
29953
29973
30071
30401
30870
31292
31868
32255
32710
32804
33096
32972
33023
32610
32477
31977
31687
31181
30948
30532
30498
30359
30562
30781
31293
31713
32302
32766
33074
33335
33405
33532
33324
33265
32821
32489
32131
31687
31376
31009
30831
30916
30948
31165
31592
32119
32740
33050
33511
33564
33882
33732
33778
33477
33286
32790
32540
31947
31709
31266
31208
31053
31270
31422
31927
32247
32880
33127
33631
33676
33895
33870
33724
33643
33216
33052
32471
32178
31612
31455
31093
31149
31095
31522
31746
32268
32811
33137
33643
33687
33956
33852
33859
33560
33220
32956
32511
32167
31633
31438
31087
31127
31211
31423
31948
32245
32909
33204
33652
33750
33981
34015
33843
33814
33359
33148
32629
32279
31804
31498
31342
31212
31407
31562
32089
32404
33047
33343
33825
33902
34159
34063
34142
33781
33641
33133
32823
32420
31902
31735
31433
31439
31466
31694
32156
32489
33100
33451
33809
34047
34154
34227
34079
33967
33574
33335
32810
32469
31967
31734
31434
31394
31460
31652
32182
32452
33088
33402
33938
34015
34300
34181
34279
33919
33697
33366
32868
32575
31985
31804
31453
31348
31552
31727
32027
32582
32982
33566
33777
34175
34169
34279
34213
34019
33687
33383
32945
32566
32103
31732
31647
31428
31604
31665
32174
32479
33101
33471
33886
34020
34226
34353
34117
34089
33639
33426
32860
32535
32107
31708
31595
31359
31521
31581
32094
32387
33044
33317
33827
33919
34213
34143
34127
33923
33580
33287
32918
32403
32108
31676
31548
31330
31426
31527
31988
32334
32898
33343
33734
33903
34244
34127
34223
33892
33711
33239
32982
32405
32111
31636
31518
31273
31424
31484
31927
32239
32847
33252
33627
33870
34034
34118
33942
33949
33487
33335
32762
32474
31861
31588
31365
31167
31300
31354
31872
32162
32802
33103
33548
33687
33998
33952
34022
33711
33554
33111
32825
32329
31924
31613
31316
31150
31221
31409
31727
32212
32591
33204
33411
33843
33851
34047
34001
33663
33551
33079
32838
32247
31950
31415
31271
31063
31132
31399
31655
32212
32583
33140
33495
33689
34055
33943
34108
33828
33719
33225
32974
32441
32111
31783
31585
31495
31508
31826
32121
32715
33071
33687
33973
34457
34507
34761
34609
34637
34239
33965
33644
33116
32845
32335
32169
31874
31926
31946
32374
32667
33309
33658
34135
34277
34524
34511
34551
34321
34122
33666
33408
32817
32473
31916
31785
31491
31476
31678
31956
32407
32799
33401
33623
34095
34085
34246
34189
34055
33830
33403
33147
32519
32226
31682
31454
31285
31239
31452
31708
32239
32613
33259
33489
33935
33956
34075
34231
34002
33685
33386
33148
32703
32161
31803
31634
31383
31485
31511
31974
32244
32871
33285
33639
34108
34131
34407
34231
34236
34003
33558
33386
32792
32459
31989
31661
31646
31454
31654
31756
32188
32466
32906
33187
33191
33391
33142
33151
32765
32582
32023
31711
31100
30675
30129
29857
29649
29780
30044
30873
31647
32831
33827
35302
36460
38237
39744
41511
42996
44612
46087
47667
48957
50302
51281
52294
52820
53172
53015
52933
52621
52415
51786
51125
49741
48594
46759
45264
43034
41004
38241
35828
33952
32607
31691
30936
30628
30329
30387
30501
30831
31349
31665
32138
32229
32475
32474
32456
32287
31807
31396
30838
30264
29695
29308
28846
28721
28617
28793
29037
29453
29917
30322
30863
31047
31334
31382
31380
31211
31043
30617
30367
29847
29542
29073
28871
28638
28642
28765
29029
29483
29894
30488
30850
31268
31463
31764
31660
31719
31356
31192
30746
30396
29908
29549
29234
29093
29049
29165
29478
29844
30340
30837
31311
31705
31796
32055
31991
31993
31711
31500
31070
30767
30309
29990
29692
29478
29508
29543
29959
30260
30862
31257
31743
32078
32263
32435
32446
32325
32270
31826
31606
31073
30790
30313
30053
29898
29775
29959
30121
30662
30997
31655
31932
32402
32490
32812
32700
32788
32418
32285
31798
31526
31011
30678
30309
30183
30084
30145
30402
30847
31236
31735
32198
32567
32775
32921
32981
32799
32704
32319
32055
31538
31277
30727
30547
30211
30279
30243
30612
30885
31447
31826
32455
32639
33031
33023
33218
32962
32892
32462
32255
31749
31386
30918
30613
30420
30331
30375
30617
31034
31420
31970
32372
32759
32925
33123
33051
33100
32770
32614
32103
31805
31217
30895
30471
30343
30125
30299
30383
30846
31188
31668
32169
32422
32753
32730
32862
32749
32481
32225
31783
31511
30914
30607
30119
30014
29780
29934
30036
30535
30825
31467
31765
32250
32343
32572
32567
32476
32293
32038
31628
31285
30865
30407
30197
29877
29908
29836
30170
30421
30983
31370
31988
32226
32615
32719
32852
32787
32553
32407
31924
31668
31159
30821
30557
30229
30269
30313
30495
30951
31303
31956
32294
32748
32964
33219
33319
33278
33111
32871
32519
32204
31746
31429
31047
30895
30788
30827
31097
31447
31994
32404
33041
33252
33717
33716
33991
33759
33771
33322
33116
32660
32394
31841
31640
31273
31276
31211
31557
31836
32253
32775
33190
33691
33805
34108
34039
34164
33814
33553
33351
32823
32567
31975
31774
31419
31331
31346
31463
31911
32190
32796
33138
33639
33755
34052
34006
34069
33772
33597
33140
32885
32329
31960
31548
31419
31203
31367
31406
31909
32167
32760
33111
33588
33738
34008
33975
34055
33853
33651
33221
32931
32399
32087
31613
31445
31231
31359
31396
31834
32212
32678
33301
33519
33999
33998
34148
34148
33887
33799
33308
33060
32555
32174
31772
31545
31375
31359
31662
31887
32423
32774
33390
33630
34014
34106
34271
34199
34006
33895
33399
33183
32615
32276
31883
31572
31569
31455
31641
32029
32380
32951
33341
33767
34094
34104
34390
34208
34242
33809
33607
33097
32823
32235
31985
31594
31604
31495
31785
31933
32495
32813
33447
33655
34122
34085
34220
34265
33986
33831
33373
33122
32561
32217
31792
31543
31375
31374
31527
31844
32261
32638
33279
33498
33971
33955
34223
33991
34037
33628
33438
32914
32622
32072
31813
31423
31398
31231
31400
31749
32103
32651
33158
33524
33799
33919
34236
34029
34106
33655
33489
32948
32662
32085
31808
31420
31358
31279
31467
31764
32077
32685
33046
33631
33782
34109
34081
34183
33951
33799
33419
33058
32736
32149
31922
31495
31479
31345
31471
31732
32153
32631
33088
33599
33755
34124
34023
34215
33897
33795
33319
33127
32535
32250
31723
31557
31279
31302
31330
31773
31999
32599
32959
33517
33666
33999
33983
34130
33868
33739
33316
33019
32557
32150
31743
31398
31320
31151
31375
31554
32088
32417
33075
33327
33669
33968
33935
34102
33799
33755
33268
33079
32497
32189
31655
31476
31149
31234
31199
31646
31900
32513
32863
33408
33526
33927
33858
34051
33874
33651
33375
32905
32653
32092
31806
31351
31235
31215
31288
31595
32014
32406
32978
33314
33708
33843
34077
33964
34028
33604
33478
32978
32696
32257
31897
31663
31443
31548
31592
32088
32388
33028
33375
33941
34294
34487
34743
34623
34716
34383
34061
33821
33287
33025
32503
32356
32014
32085
32007
32411
32623
33244
33550
34047
34343
34597
34631
34740
34436
34427
33968
33705
33252
32788
32360
32055
31732
31641
31751
31914
32357
32714
33238
33668
33933
34266
34349
34305
34380
33943
33729
33340
32873
32511
32019
31751
31511
31421
31557
31731
32071
32564
32959
33487
33733
34028
34215
34225
34167
33925
33559
33397
32841
32579
32025
31743
31579
31402
31623
31747
32273
32575
33165
33639
33924
34295
34326
34503
34311
34279
33836
33647
33097
32850
32277
32087
31703
31772
31711
32107
32332
32805
33262
33607
33852
33927
34082
33844
33717
33202
32871
32282
31813
31257
30868
30375
30238
29945
30021
30077
30447
31023
31620
32597
33357
34172
35103
35982
37115
38426
39620
41146
42425
44020
45474
47108
48642
50053
51605
52780
53839
54279
54669
54547
54375
53751
52820
51716
50106
48356
46309
44100
41954
39012
36596
34271
32759
31898
31396
31454
31514
31911
32237
32558
32861
32949
33159
33055
32996
32657
32447
31942
31582
30922
30519
29903
29619
29260
29253
29308
29671
30026
30636
30972
31434
31574
31826
31758
31718
31526
31197
30857
30388
30005
29527
29222
29039
28901
29031
29130
29581
29901
30531
30863
31372
31537
31823
31836
31860
31653
31395
30996
30748
30324
29823
29609
29296
29309
29269
29542
29829
30375
30766
31393
31626
32025
32062
32295
32128
32144
31715
31519
31011
30714
30204
29996
29712
29671
29652
29899
30197
30688
31084
31691
31959
32383
32452
32666
32490
32499
32071
31932
31407
31164
30623
30407
30060
30073
29987
30300
30519
31067
31431
31935
32315
32487
32775
32765
32882
32647
32532
32052
31791
31269
30927
30461
30321
30134
30132
30369
30643
31183
31556
32158
32383
32783
32821
33079
32870
32871
32529
32212
31925
31397
31076
30595
30471
30275
30417
30443
30946
31199
31844
32177
32670
32835
33063
33118
33092
32943
32738
32428
32069
31647
31272
30940
30602
30527
30414
30655
30939
31304
31894
32225
32772
32867
33186
33104
33217
32920
32775
32308
32060
31487
31169
30703
30535
30261
30313
30367
30767
31004
31599
31900
32404
32498
32787
32711
32814
32532
32340
31894
31639
31059
30727
30263
29991
29830
29753
29919
30175
30667
30996
31597
31804
32142
32236
32260
32415
32149
31943
31654
31215
30933
30346
30083
29647
29500
29363
29522
29733
30140
30631
31106
31648
31839
32219
32230
32383
32250
32038
31804
31525
31282
30853
30645
30303
30233
30090
30333
30510
31015
31335
31876
32191
32514
32691
32749
32857
32611
32511
32068
31719
31422
30887
30544
30410
30134
30252
30251
30698
30951
31596
31994
32543
32735
33122
33156
33301
33146
32981
32660
32380
32100
31588
31407
31035
31049
30970
31256
31465
32015
32327
32976
33302
33667
33816
34173
34031
34191
33823
33700
33306
33159
32639
32476
32103
32175
32006
32293
32422
32961
33221
33825
34055
34410
34638
34583
34693
34429
34439
34025
33781
33341
33007
32783
32325
32282
32135
32324
32453
32820
33096
33459
33707
33940
33975
34051
34071
33780
33684
33233
33028
32501
32218
31685
31521
31222
31324
31286
31681
31853
32432
32751
33276
33429
33705
33835
33747
33774
33494
33364
32896
32666
32207
31986
31563
31552
31386
31571
31684
32039
32606
32877
33441
33543
33864
33833
33958
33757
33660
33212
32964
32414
32095
31647
31358
31103
31041
31097
31367
31811
32102
32742
32991
33432
33526
33818
33724
33756
33443
33205
32999
32466
32229
31727
31623
31331
31402
31415
31804
32246
32614
33250
33523
33863
34012
34007
34015
33935
33783
33585
33194
32747
32341
31927
31694
31479
31274
31247
31618
31834
32413
32727
33348
33508
33893
33927
34069
33925
33743
33383
33128
32556
32207
31684
31386
31159
31023
31171
31285
31770
32015
32647
32885
33365
33389
33658
33431
33465
32991
32732
32087
31665
30915
30372
29703
29344
28900
28812
28745
29015
29396
29796
30316
30479
30775
30734
30676
30388
30007
29429
28904
28191
27572
26802
26213
25734
25559
25674
26111
26979
27840
29084
30095
31220
31881
32559
32722
32789
32476
31779
31119
29967
28907
27839
26949
26422
26168
26343
26951
28007
29218
30725
32136
33303
34327
34710
35263
35116
35065
34479
33919
33038
32276
31249
30612
29956
29796
29701
30159
30871
31643
32753
33452
34324
34583
34991
34927
34727
34324
33442
32748
31629
30703
29631
28837
28199
27858
27864
28201
28836
29753
30657
31695
32394
33127
33488
33937
33857
33835
33316
32956
32255
31646
30994
30319
30033
29703
29857
30073
30783
31421
32581
33421
34344
34857
35335
35290
35399
34910
34535
33652
33025
32043
31351
30514
30113
29702
29829
30032
30801
31450
32437
33308
33972
34674
34947
35162
35153
35148
34716
34652
34182
34028
33594
33486
33272
33413
33397
33746
33940
34463
34755
35249
35470
35703
35943
35913
36004
35838
35702
35599
35370
35335
35076
35036
34988
34751
35052
34991
35272
35175
35567
35534
35847
35724
35867
35731
35788
35591
35591
35357
35290
35053
34995
34743
34754
34501
34695
34508
34722
34577
34876
34748
34956
34823
34959
34791
34843
34647
34677
34467
34509
34292
34341
34129
34215
34016
34245
34071
34287
34136
34348
34271
34460
34303
34509
34374
34295
34353
34178
34261
34052
34159
33902
34038
33845
34018
33839
33974
33972
34060
34115
34207
34123
34316
34225
34188
34311
34094
34155
34023
33854
33853
33611
33645
33396
33495
33331
33247
33356
33246
33415
33317
33532
33468
33479
33471
33285
33273
32927
32807
32314
31980
31479
30869
30299
29790
29565
29531
29575
29891
30118
30663
30841
31102
31109
31239
31231
31231
31383
31505
31892
32124
32767
33530
34898
36388
38332
40182
42420
44548
47076
49084
51559
53297
54868
55652
56292
55990
55510
54626
53462
52087
50520
48684
46863
44971
43239
41420
39607
37625
35933
35124
34535
34502
34206
34140
34107
33796
33716
33314
32961
32839
32398
32296
31942
31863
31854
31751
31963
31849
32017
31911
32047
31887
31989
31796
31901
31717
31785
31557
31608
31343
31353
31085
31031
30852
30847
30835
30855
30967
31005
31108
31207
31287
31284
31444
31319
31451
31268
31290
31174
31228
31051
31166
31001
31142
31042
31224
31196
31287
31431
31478
31610
31653
31774
31813
31779
31917
31761
31924
31786
31937
31772
31807
31812
31733
31926
31870
31956
31892
32039
31881
31943
31893
31871
31947
31826
31800
31769
31687
31672
31636
31588
31671
31528
31683
31576
31739
31608
31751
31664
31751
31834
31717
31791
31788
31751
31874
31735
31890
31765
31879
31743
31791
31879
31828
31973
31897
32074
31943
32090
31948
32118
32000
32162
32007
32159
32022
32135
32065
32006
32103
32020
32133
32007
32159
32069
32060
32095
32040
32133
32038
32201
32038
32174
31996
32151
31963
32119
32007
32197
32064
32236
32135
32330
32199
32336
32247
32249
32388
32181
32326
32173
32280
32103
32227
32048
32207
32045
32172
32167
32149
32263
32284
32348
32474
32372
32527
32366
32495
32270
32367
32143
32223
32014
32073
31869
31951
31751
31823
31645
31650
31535
31495
31420
31356
31293
31333
31231
31380
31234
31321
31231
31372
31239
31343
31178
31300
31159
31140
31070
30892
30913
30704
30788
30592
30677
30534
30684
30617
30782
30824
30872
30991
31018
30999
31079
31156
31021
31123
30917
30977
30759
30804
30590
30677
30485
30471
30428
30404
30599
30585
30889
30972
31175
31298
31284
31459
31325
31436
31233
31341
31150
31274
31125
31219
31100
31266
31271
31524
31615
31795
32041
32092
32316
32277
32396
32492
32372
32458
32244
32256
32114
32073
32007
31986
31867
32028
31925
32168
32148
32417
32396
32624
32589
32802
32705
32838
32676
32773
32583
32636
32420
32423
32391
32263
32359
32215
32350
32357
32548
32530
32702
32820
32801
32978
32831
32983
32775
32891
32660
32737
32501
32581
32387
32373
32402
32380
32481
32463
32652
32639
32744
32759
32981
32884
33058
32898
33028
32861
32983
32808
32983
32785
32861
32764
32821
32708
32815
32783
32860
32927
32941
33127
33007
33142
33124
33205
33103
33127
32975
33031
32831
32803
32618
32419
32382
32244
32355
32279
32498
32485
32692
32629
32845
32701
32830
32719
32695
32506
32533
32263
32271
32014
32052
31836
31909
31818
31839
32028
32079
32403
32412
32711
32661
32910
32823
32992
32855
32948
32743
32781
32519
32548
32335
32437
32288
32349
32481
32569
32775
32903
33197
33244
33471
33389
33559
33485
33601
33443
33503
33325
33364
33186
33207
33137
33156
33161
33164
33403
33331
33624
33543
33738
33716
33743
33754
33666
33692
33564
33575
33452
33423
33277
33260
33189
33124
33190
33093
33089
33280
33132
33367
33240
33447
33245
33404
33180
33346
33149
33212
32951
33066
32804
32765
32775
32606
32714
32594
32795
32755
32954
32903
33102
32978
33153
33031
33236
33031
33134
32921
33020
32814
32814
32621
32663
32533
32609
32559
32790
32687
32876
32816
33001
32934
33148
33031
33124
32956
33071
32856
32970
32749
32839
32628
32679
32581
32615
32645
32731
32801
32879
32921
33031
33072
33113
33135
33148
33060
33141
32991
33068
32910
33022
32828
32932
32751
32881
32756
32929
32843
33022
32979
33164
33079
33189
33063
33165
33095
33061
33114
32882
32981
32762
32868
32650
32785
32583
32756
32651
32825
32729
32929
32820
32917
32951
32893
33043
32846
32998
32815
32918
32709
32701
32647
32508
32606
32446
32605
32511
32685
32661
32840
32845
32945
33000
32938
33127
32949
33095
32965
33103
32948
33053
32871
32964
32828
32917
32837
33063
33045
33198
33380
33385
33667
33600
33799
33711
33788
33735
33585
33621
33420
33479
33215
33321
33126
33212
33109
33179
33275
33204
33455
33379
33479
33471
33386
33543
33327
33435
33204
33159
33076
32886
32918
32669
32709
32591
32751
32623
32831
32722
32905
32847
33031
32967
33102
32927
33071
32881
32903
32826
32679
32775
32539
32628
32422
32525
32373
32532
32527
32591
32868
32775
32945
32871
32875
33071
32896
33007
32807
32815
32828
32558
32593
32365
32447
32289
32422
32365
32590
32553
32767
32708
32926
32862
33013
32949
32911
32868
32741
32815
32564
32528
32351
32102
32021
31827
31860
31686
31652
31652
31605
31784
31695
31780
31825
31941
31892
31883
31668
31636
31367
31422
31207
31380
31471
32042
32549
33456
34423
35753
37084
38645
40530
42336
44256
46161
47713
49159
50250
51011
51233
51094
50650
50285
49557
49001
47989
47041
45540
44224
42516
40967
39228
37194
35095
33758
32942
32705
32408
32422
32086
32015
31627
31550
31265
31259
30989
31084
31043
31367
31415
31764
31765
31997
31886
32036
31823
31807
31406
31252
30884
30774
30423
30346
30049
30116
30031
30170
30272
30465
30653
30869
31004
31151
31143
31271
31220
31151
31068
30938
30879
30658
30633
30389
30407
30264
30414
30407
30695
30787
31127
31173
31473
31462
31662
31668
31701
31591
31460
31487
31266
31253
30964
30959
30749
30819
30724
30854
31017
31109
31420
31489
31788
31727
31915
31908
32007
31879
31871
31815
31601
31635
31358
31374
31140
31234
31133
31348
31353
31639
31671
32007
32031
32202
32300
32244
32397
32251
32327
32071
32118
31831
31803
31580
31660
31491
31638
31559
31870
31911
32227
32236
32438
32601
32655
32799
32676
32788
32591
32647
32359
32364
32069
32108
31879
31976
31839
32039
32037
32332
32365
32718
32788
32893
33039
33031
33105
33009
32978
32881
32748
32586
32471
32297
32263
32094
32215
32175
32462
32491
32828
32847
33148
33091
33363
33263
33359
33212
33143
33077
32858
32879
32571
32513
32505
32317
32431
32343
32514
32628
32737
33021
32991
33219
33126
33223
33243
33054
33116
32827
32785
32583
32430
32311
32076
32147
31975
32077
32155
32169
32445
32439
32711
32621
32823
32711
32810
32611
32634
32381
32391
32065
31992
31716
31721
31620
31500
31641
31575
31823
31830
32027
32095
32196
32257
32299
32227
32251
32060
31892
31775
31653
31492
31389
31215
31133
31218
31100
31172
31257
31519
31557
31751
31802
32007
31911
32041
31848
31900
31675
31623
31484
31311
31175
31045
31037
30951
31054
31226
31251
31543
31636
31879
31930
32094
32207
32135
32263
32048
32107
31831
31820
31597
31427
31435
31236
31318
31308
31439
31699
31758
32111
32135
32316
32526
32470
32459
32588
32390
32245
32287
32056
32007
31783
31694
31685
31548
31737
31684
31988
32026
32358
32372
32620
32591
32787
32663
32780
32567
32604
32347
32338
32069
32014
31799
31887
31748
31931
31865
32101
32161
32412
32564
32677
32750
32809
32871
32879
32770
32679
32509
32510
32256
32279
32026
32062
32046
31977
32207
32217
32515
32550
32822
32857
33026
32999
33127
32959
33030
32842
32859
32573
32519
32297
32234
32161
32181
32203
32324
32417
32585
32767
32868
33061
33079
33215
33159
33203
33155
32948
32965
32695
32720
32435
32447
32260
32391
32238
32461
32491
32785
32826
33095
33078
33227
33220
33197
33351
33107
33117
32933
32857
32717
32545
32551
32342
32452
32326
32554
32533
32803
32807
33055
33136
33342
33282
33243
33383
33148
33215
32943
32963
32671
32652
32381
32439
32293
32414
32382
32574
32621
32874
32951
33111
33179
33098
33220
33153
33243
32983
32987
32801
32555
32541
32284
32352
32159
32323
32222
32484
32519
32771
32861
33052
33071
33149
33127
33223
33031
33090
32807
32839
32531
32501
32246
32354
32175
32300
32207
32468
32463
32767
32782
33019
33052
33071
33203
33027
33166
32902
32932
32762
32552
32537
32290
32313
32106
32240
32234
32322
32591
32620
32919
32948
33023
33188
33124
33236
33057
33123
32853
32744
32612
32346
32343
32138
32255
32199
32248
32433
32458
32763
32799
33052
33010
33205
33076
33157
32988
32975
32844
32744
32628
32465
32399
32207
32332
32161
32357
32311
32633
32655
32980
32942
33196
33111
33251
33226
33117
33177
32926
32948
32705
32767
32551
32594
32505
32623
32700
32871
33025
33198
33389
33510
33705
33670
33886
33699
33864
33609
33639
33383
33331
33149
33024
32876
32794
32866
32728
32935
32963
33226
33326
33483
33493
33445
33660
33491
33494
33330
33166
33055
32763
32741
32461
32436
32303
32292
32358
32375
32592
32731
32884
32970
33090
33054
33238
33059
33099
32859
32879
32585
32541
32263
32263
32015
32116
31953
32159
32131
32463
32476
32780
32747
33036
32945
33068
32922
32917
32941
32687
32690
32420
32391
32155
32190
31983
32137
32060
32280
32282
32611
32605
32903
32853
33079
32975
33012
32981
32832
32864
32579
32620
32310
32316
32060
32107
31863
31945
31860
32015
31996
32006
32021
31983
31907
32007
31820
31833
31591
31585
31355
31168
30938
30663
30703
30606
30887
31068
31700
32481
33216
34439
35401
36782
38090
39727
41294
43143
44729
46436
47780
48929
49812
50279
50439
50252
50020
49511
49103
48271
47447
46180
44799
43244
41701
40009
38284
36255
34254
33086
32261
31774
31631
31433
31327
31194
31207
31210
31172
31316
31296
31590
31574
31823
31784
31959
31828
31895
31644
31575
31220
31075
30687
30567
30242
30215
30107
30262
30267
30533
30571
30844
30829
30969
31018
31107
31116
31012
31016
30788
30791
30500
30454
30239
30137
30153
30031
30203
30191
30455
30480
30763
30847
31053
31047
31213
31092
31199
31005
31033
30788
30748
30526
30462
30302
30236
30364
30297
30529
30566
30862
30917
31174
31161
31372
31330
31475
31335
31419
31196
31212
31001
31013
30772
30805
30641
30789
30695
30902
30967
31231
31340
31630
31668
31880
31808
31923
31772
31820
31657
31636
31444
31391
31207
31250
31095
31230
31165
31332
31383
31580
31874
31911
32105
32135
32335
32196
32331
32105
32094
31954
31759
31674
31476
31421
31310
31300
31359
31477
31611
31740
31935
32206
32399
32447
32484
32634
32598
32447
32467
32216
32198
31952
31875
31735
31652
31700
31591
31878
31886
32045
32389
32492
32558
32828
32759
32815
32849
32637
32717
32463
32383
32272
32065
32057
32044
31866
31929
32108
32085
32276
32464
32485
32703
32642
32709
32799
32618
32628
32397
32230
32196
31876
31709
31716
31511
31451
31596
31589
31636
31927
31942
32174
32222
32207
32404
32235
32290
32089
31987
31917
31636
31535
31439
31149
31087
31119
31039
31093
31247
31471
31492
31618
31852
32015
31927
31936
32033
31879
31706
31719
31551
31332
31250
31203
30964
31009
31116
31050
31282
31284
31444
31535
31636
31591
31789
31717
31879
31751
31836
31751
31782
31841
31599
31632
31410
31447
31406
31415
31544
31682
31813
31959
32038
32315
32257
32380
32485
32380
32396
32263
32167
31991
31935
31787
31661
31711
31691
31740
31885
32049
32263
32536
32550
32839
32754
32903
32817
32775
32675
32639
32356
32380
32059
32072
31826
31960
31822
31930
32169
32239
32317
32666
32647
32878
32844
33020
32893
32945
32765
32807
32506
32504
32207
32211
31985
32100
31987
32182
32198
32467
32532
32805
32793
33014
32888
33070
32915
33023
32767
32661
32628
32396
32335
32067
32073
31932
32076
32020
32250
32295
32588
32637
32902
32886
33066
32975
33063
32893
32892
32718
32588
32436
32214
32124
32054
31985
31985
32090
32180
32357
32435
32754
32713
32994
32900
33092
32903
32991
32782
32813
32572
32565
32271
32218
32150
32042
32155
32127
32365
32401
32684
32745
33002
32975
33199
33123
33249
33053
33119
32873
32879
32620
32596
32356
32401
32174
32348
32239
32484
32506
32852
32849
33151
33101
33318
33231
33348
33221
33166
33031
32845
32771
32530
32511
32281
32359
32362
32309
32565
32526
32860
32915
33068
33166
33199
33371
33207
33335
33074
33039
32903
32678
32636
32399
32439
32244
32351
32364
32399
32681
32660
32969
33030
33159
33197
33176
33231
33150
33116
32924
32852
32687
32503
32431
32212
32263
32135
32314
32263
32556
32537
32862
32839
33063
33075
33117
33086
33050
32967
32903
32684
32644
32426
32297
32263
32199
32198
32181
32404
32410
32687
32738
33013
33014
33263
33087
33206
33155
32998
33021
32732
32716
32365
32277
32212
32047
32175
32052
32236
32367
32506
32796
32829
32905
33055
32983
33143
32999
32860
32891
32583
32570
32277
32263
32109
32053
32048
32015
32231
32250
32537
32545
32775
32828
32961
32979
32949
33039
32940
32733
32743
32604
32506
32391
32343
32340
32335
32447
32530
32749
32906
33188
33327
33503
33575
33748
33619
33779
33528
33646
33329
33338
33006
32989
32743
32749
32641
32658
32801
32847
33031
33181
33371
33383
33480
33628
33447
33566
33255
33311
32951
32910
32580
32612
32336
32371
32213
32364
32322
32577
32591
32900
32972
33121
33120
33240
33095
33236
32969
32980
32688
32700
32387
32391
32116
32191
32039
32178
32273
32364
32615
32812
32932
33057
33047
33212
33178
33150
33108
32950
32840
32660
32542
32409
32215
32295
32124
32311
32279
32487
32647
32855
33015
33073
33303
33208
33364
33194
33237
33014
32997
32743
32731
32468
32439
32206
32226
32023
32148
32049
32199
32068
32165
31919
32040
31831
31862
31639
31602
31330
31211
30909
30763
30580
30578
30699
30943
31565
32042
32955
33724
35103
36405
38071
39906
41524
43492
45052
46895
48646
50172
51679
52713
53660
54087
53879
53579
53215
52502
51640
50743
49700
48223
46614
45110
43234
40967
38909
36484
34597
33342
32586
31905
31566
31311
31063
30951
30862
30866
31031
31044
31315
31291
31503
31423
31527
31261
31183
30836
30642
30349
30106
29935
29693
29663
29548
29659
29543
29746
29727
29926
30151
30230
30484
30471
30623
30556
30593
30457
30399
30235
30149
30069
29834
29735
29666
29608
29748
29785
30039
30105
30418
30482
30701
30765
30928
30965
30940
30937
30788
30785
30526
30492
30203
30233
30034
30028
30096
30139
30375
30471
30801
30911
31197
31175
31316
31335
31301
31378
31142
31154
30871
30829
30559
30556
30380
30394
30404
30497
30711
30838
31171
31239
31517
31560
31567
31746
31604
31707
31487
31435
31254
31079
30964
30804
30847
30695
30856
30823
31065
31135
31378
31671
31691
31932
31884
32047
31903
31954
31759
31685
31595
31343
31311
31046
31120
30950
31093
31063
31320
31380
31708
31745
31855
32143
32081
32247
32107
32102
32032
31879
31799
31655
31543
31275
31271
31116
31289
31205
31465
31510
31819
31946
32146
32188
32365
32263
32357
32199
32228
31966
31906
31618
31563
31300
31309
31146
31287
31255
31511
31527
31865
31888
32199
32145
32383
32252
32415
32183
32215
31940
31811
31642
31453
31390
31195
31239
31109
31281
31286
31557
31598
31903
31971
31967
32174
32078
32197
31978
32028
31724
31700
31388
31237
31153
30923
31023
30876
31032
31014
31314
31351
31666
31661
31903
31844
32043
31887
31931
31811
31604
31568
31308
31221
31045
31018
30908
31041
31006
31226
31312
31566
31690
31949
31991
32221
32161
32295
32108
32149
31926
31897
31620
31599
31379
31371
31354
31341
31359
31611
31668
32017
32126
32227
32431
32559
32516
32689
32484
32583
32318
32273
32060
31991
31783
31719
31748
31652
31828
31841
32143
32244
32447
32516
32814
32734
32903
32727
32771
32636
32568
32305
32321
32007
31977
31751
31700
31670
31667
31864
31897
32164
32247
32518
32477
32692
32543
32699
32546
32610
32381
32407
32087
32067
31807
31863
31708
31736
31864
31903
32127
32200
32419
32482
32718
32514
32559
32327
32231
32012
31849
31692
31569
31647
31527
31701
31631
31908
31953
32336
32426
32796
32871
33148
33190
33413
33333
33375
33348
33325
33124
33101
32794
32736
32423
32461
32298
32236
32462
32430
32661
32855
32994
33247
33263
33492
33398
33561
33332
33436
33127
33121
32790
32802
32534
32346
32366
32279
32470
32476
32749
32855
33127
33284
33451
33527
33578
33621
33488
33349
33241
33015
32999
32685
32623
32455
32326
32471
32430
32708
32698
33031
33215
33341
33605
33596
33789
33669
33749
33519
33551
33227
33182
32844
32654
32407
32315
32286
32236
32532
32640
33055
33138
33422
33702
33684
33788
33899
33644
33621
33332
33284
32951
32894
32594
32595
32404
32600
32495
32791
32741
33031
33124
33231
33375
33412
33677
33622
33852
33663
33842
33679
33618
33432
33207
33005
32800
32903
32759
33003
32979
33349
33391
33684
33735
33964
33983
34132
34055
33953
33749
33457
33287
32760
32607
32263
32301
32343
32738
32879
33364
33517
34095
34271
34452
34362
34532
34442
34439
34305
34172
34022
33863
33669
33527
33379
33133
33167
33020
33303
33284
33630
33593
33964
33855
34071
33887
34076
33815
33868
33559
33569
33199
33107
32751
32787
32506
32630
32500
32786
32791
33078
33218
33543
33583
33798
33740
33878
33714
33639
33573
33248
33231
32871
32862
32567
32581
32476
32556
32663
32868
33105
33287
33650
33721
33901
33879
34070
33883
34006
33703
33743
33407
33399
33103
33112
32903
32983
32945
33135
33191
33497
33568
33814
33833
33914
34004
33893
33836
33611
33572
33406
33118
33075
32697
32700
32470
32535
32527
32647
32772
32841
33071
33235
33366
33466
33503
33429
33495
33274
33278
33015
32915
32758
32479
32458
32239
32346
32209
32407
32407
32658
32933
32977
33263
33212
33333
33220
33233
33013
32999
32820
32701
32641
32414
32527
32345
32509
32390
32650
32647
32912
33031
33242
33371
33492
33653
33473
33637
33350
33370
33092
33113
32746
32723
32419
32462
32262
32423
32357
32569
32622
32853
33065
33070
33239
33019
33020
32678
32540
32023
31775
31335
31064
30708
30443
30271
30131
30082
30140
30166
30300
30431
30701
31119
31524
32133
32670
33396
34311
35215
36743
38083
39941
41279
43372
44978
47048
48829
50890
52580
54255
55303
56100
56028
56015
55461
54925
53925
52680
51250
49475
47541
45425
43073
40581
37776
35357
33423
32592
31924
31871
31751
31959
31838
31929
31906
31911
31982
31718
31631
31291
31167
30805
30564
30137
29892
29567
29477
29303
29430
29438
29735
29836
30133
30117
30332
30209
30311
30108
30087
29812
29677
29439
29265
29079
28978
28879
28909
28969
29090
29379
29487
29748
29831
30022
30049
30188
30118
30159
29966
29965
29759
29719
29409
29358
29130
29179
29075
29267
29297
29612
29748
30092
30163
30433
30453
30567
30559
30483
30419
30327
30111
29930
29899
29637
29554
29476
29599
29599
29829
29941
30305
30410
30761
30800
31072
31039
31215
31042
31063
30797
30774
30505
30505
30226
30228
30083
30175
30167
30426
30483
30842
30933
31265
31303
31580
31502
31630
31503
31335
31348
31103
31037
30723
30648
30450
30529
30435
30578
30679
30879
31213
31286
31612
31668
31914
31821
31967
31780
31811
31580
31554
31340
31120
31095
30845
30879
30813
30951
31044
31213
31530
31617
31932
31911
32147
32030
32015
32014
31831
31738
31524
31399
31103
30977
30895
30831
30723
30855
30833
31093
31284
31439
31654
31703
31941
31828
31958
31771
31793
31491
31451
31087
31022
30727
30682
30521
30563
30503
30751
30806
31138
31236
31547
31548
31727
31686
31724
31687
31457
31399
31137
30959
30659
30583
30330
30340
30215
30327
30334
30613
30694
31019
31055
31316
31261
31442
31314
31390
31130
31108
30794
30727
30434
30364
30155
30104
30002
30186
30199
30509
30645
31026
31110
31410
31413
31589
31471
31578
31367
31393
31131
31103
30798
30795
30561
30616
30510
30741
30772
31084
31306
31548
31915
31950
32206
32137
32263
32183
32125
31999
31892
31791
31516
31503
31254
31278
31141
31351
31402
31727
31791
32034
32423
32578
32566
32662
32774
32657
32721
32504
32291
32231
31884
31839
31660
31494
31628
31525
31687
31882
32007
32388
32484
32796
32724
32802
32932
32775
32825
32588
32329
32292
31895
31823
31612
31553
31577
31524
31827
31871
32214
32316
32671
32678
32957
32907
33083
32845
32854
32603
32590
32242
32188
31853
31819
31639
31669
31711
31802
32071
32182
32567
32620
32953
32916
33091
32998
33122
32866
32783
32703
32354
32311
31991
31933
31831
31751
31963
31972
32307
32377
32766
32807
33129
33104
33369
33223
33346
33094
33138
32896
32683
32631
32319
32318
32082
32095
32175
32247
32548
32772
32853
33102
33388
33348
33447
33525
33471
33410
33300
33084
32989
32754
32727
32468
32357
32407
32358
32631
32623
32949
33124
33287
33532
33512
33697
33580
33701
33454
33406
33148
33031
32814
32563
32473
32349
32358
32382
32487
32592
32907
32961
33308
33287
33591
33504
33596
33615
33415
33412
33102
33013
32729
32607
32356
32321
32167
32327
32277
32538
32594
32890
33027
33231
33316
33305
33389
33311
33269
32964
32892
32519
32420
31996
31866
31518
31471
31340
31317
31354
31621
31836
32117
32484
32519
32775
32775
32929
32794
32850
32645
32574
32263
32127
31968
31927
31775
31961
31959
32319
32391
32820
32884
33218
33303
33457
33476
33391
33527
33255
33269
32934
32919
32602
32615
32380
32516
32383
32668
32765
33057
33211
33518
33572
33815
33890
34023
33895
33987
33748
33756
33428
33415
33047
33031
32741
32818
32724
32930
32956
33212
33415
33610
33781
33946
33852
34063
33860
33959
33699
33757
33437
33463
33131
33135
32879
33002
32834
32993
33061
33175
33417
33525
33855
33863
34124
33986
33972
34017
33682
33703
33543
33279
33246
32929
32910
32831
32815
32919
33018
33319
33371
33630
33772
33790
34041
33903
34103
33872
33908
33655
33706
33388
33391
33131
33132
32994
33135
33127
33369
33493
33819
33940
34108
34220
34156
34335
34175
34274
33998
33966
33656
33610
33287
33294
33031
33172
33031
33297
33312
33701
33799
34113
34139
34382
34325
34516
34420
34492
34321
34318
34021
33993
33649
33655
33380
33458
33258
33479
33431
33755
33756
34124
34081
34362
34293
34255
34379
34135
34159
33780
33753
33420
33407
33100
33129
32926
33044
32937
33216
33204
33511
33516
33799
33772
33990
33874
33972
33805
33812
33605
33497
33340
33066
33073
32799
32870
32663
32807
32805
33043
33135
33362
33501
33582
33780
33628
33831
33638
33708
33398
33343
33099
32913
32683
32722
32527
32655
32540
32829
32852
33180
33255
33511
33583
33690
33740
33717
33671
33538
33399
33287
33044
32977
32711
32767
32557
32729
32625
32931
32932
33311
33338
33648
33585
33751
33556
33585
33297
33182
32801
32594
32087
31831
31483
31327
31124
31140
31072
31221
31212
31349
31411
31631
31708
32023
32247
32821
33301
33805
34740
35556
36944
38095
39943
41572
43604
45384
47526
49508
51375
53020
54357
55204
55567
55413
55175
54554
53743
52671
51248
49652
47705
45716
43593
41546
38778
36524
34396
33318
32609
32532
32499
32519
32490
32559
32492
32484
32291
32183
31996
31719
31529
31267
31129
30855
30801
30538
30535
30427
30559
30484
30692
30671
30905
30855
31052
30920
31004
30751
30709
30471
30279
30143
29870
29831
29643
29719
29685
29884
29993
30231
30467
30631
30813
30898
30974
31002
30930
30905
30713
30662
30455
30308
30228
30124
30052
30082
30127
30324
30471
30724
30895
31161
31301
31381
31527
31551
31553
31421
31422
31164
31095
30791
30775
30547
30582
30460
30636
30645
30903
31037
31377
31470
31675
31697
31862
31764
31861
31644
31679
31407
31396
31100
31071
30847
30902
30727
30898
30899
31238
31319
31692
31751
32044
31974
32180
32087
32212
31976
32041
31772
31780
31469
31388
31175
31239
31085
31251
31175
31505
31641
31868
32094
32342
32364
32346
32335
32455
32336
32135
32085
31935
31658
31501
31482
31237
31361
31278
31554
31582
31909
32033
32343
32389
32611
32584
32715
32566
32612
32391
32357
32100
31967
31727
31674
31526
31615
31479
31703
31812
32110
32263
32399
32649
32615
32775
32684
32796
32579
32609
32306
32307
31955
31884
31573
31637
31442
31591
31542
31779
31918
32171
32331
32391
32610
32519
32684
32468
32511
32198
32116
31855
31687
31604
31356
31383
31167
31299
31388
31415
31704
31745
31995
32046
32121
32292
32166
32296
32055
32027
31767
31636
31412
31202
31159
30919
31007
30951
31124
31212
31463
31564
31899
31917
32175
32102
32255
32070
32131
31851
31826
31548
31460
31231
31103
31071
30975
31149
31151
31432
31456
31789
31879
32183
32188
32357
32320
32371
32271
32189
32029
31860
31748
31549
31423
31378
31273
31395
31421
31679
31814
32071
32407
32460
32724
32635
32830
32666
32764
32498
32513
32197
32172
31837
31847
31652
31751
31614
31829
31863
32182
32271
32647
32681
32854
32967
32958
32958
32775
32784
32505
32494
32169
32076
31897
31719
31776
31729
31877
32002
32257
32390
32628
32795
32833
33077
32962
33100
32838
32887
32586
32552
32228
32177
31875
31922
31714
31830
31798
32103
32158
32492
32612
32847
32903
32964
33207
33031
33127
32814
32845
32619
32404
32238
32039
31991
31898
31926
32118
32133
32462
32571
32957
32959
33220
33159
33315
33183
33199
33031
32931
32762
32516
32439
32185
32199
32051
32238
32187
32476
32559
32754
33126
33156
33431
33336
33519
33385
33463
33247
33119
33039
32746
32723
32463
32423
32319
32372
32427
32548
32862
32945
33295
33283
33580
33495
33706
33580
33682
33413
33357
33133
33047
32736
32743
32481
32571
32422
32648
32645
32964
32986
33381
33415
33692
33630
33799
33615
33733
33427
33425
33092
32924
32815
32549
32490
32329
32445
32399
32692
32693
33025
33083
33366
33387
33631
33586
33626
33455
33376
33262
32988
32923
32583
32574
32295
32372
32213
32358
32429
32693
32816
33043
33279
33287
33541
33428
33496
33335
33313
33043
33031
32731
32652
32358
32302
32236
32145
32297
32343
32647
32757
32980
33301
33271
33482
33399
33579
33329
33331
33071
33060
32695
32637
32332
32383
32153
32263
32185
32483
32519
32879
33132
33138
33387
33309
33446
33349
33421
33189
33167
32822
32775
32614
32350
32380
32183
32245
32270
32398
32719
32787
33136
33241
33335
33556
33452
33631
33397
33442
33117
33111
32748
32703
32391
32438
32237
32357
32263
32431
32692
32797
33148
33173
33475
33389
33625
33460
33514
33295
33316
32994
32951
32611
32585
32308
32347
32202
32305
32457
32528
32831
32921
33271
33251
33498
33415
33563
33359
33433
33117
33127
32799
32738
32439
32481
32207
32253
32239
32475
32647
32834
33044
33138
33452
33407
33636
33465
33613
33325
33364
33045
33012
32748
32775
32562
32668
32573
32704
32750
33082
33194
33543
33647
33913
33975
34154
34037
34118
33863
33907
33607
33575
33203
33180
32882
32893
32693
32775
32866
33004
33219
33389
33597
33691
33799
33823
33831
33799
33602
33605
33215
33169
32775
32727
32434
32420
32259
32321
32404
32508
32863
32932
33260
33238
33442
33492
33468
33363
33189
33255
32927
32853
32480
32415
32157
32078
32051
32063
32231
32293
32610
32734
33103
33134
33272
33287
33323
33209
33257
32975
32941
32613
32570
32223
32207
32068
32052
32135
32199
32355
32566
32812
32927
33223
33214
33447
33316
33439
33221
33148
33073
32729
32703
32341
32231
32143
31979
32159
32148
32351
32378
32584
32646
32700
32695
32623
32425
32315
32173
31875
31852
31631
31391
31320
30978
30930
30719
30727
30855
31069
31459
31934
32735
33421
34490
35335
36576
37684
39125
40402
42354
43919
45412
46988
48041
49031
49775
49854
49991
49476
49567
49151
48703
47927
46877
45478
43940
42111
40379
38404
36262
34163
32635
31908
31481
31420
31317
31455
31433
31708
31724
32016
32018
32112
32174
32118
32263
32133
32186
31887
31879
31586
31495
31099
30980
30706
30572
30532
30432
30586
30668
31012
31058
31317
31296
31548
31450
31523
31269
31314
31079
30855
30738
30452
30374
30193
30231
30191
30402
30519
30810
30994
31234
31341
31590
31606
31663
31567
31562
31335
31290
30970
30911
30623
30598
30407
30518
30469
30588
30791
30961
31292
31397
31707
31727
31940
31847
32007
31783
31774
31490
31463
31167
31155
30886
30895
30759
30855
30922
31204
31311
31668
31791
32159
32146
32359
32255
32399
32154
32215
31973
31929
31655
31546
31381
31273
31282
31254
31436
31516
31850
31951
32286
32421
32639
32810
32700
32854
32623
32649
32372
32367
32044
32027
31748
31796
31617
31770
31711
32024
32148
32476
32701
32831
33111
33039
33235
33071
33159
32899
32892
32640
32501
32372
32102
32092
31975
32164
32110
32401
32555
32759
33087
33121
33415
33374
33596
33391
33489
33196
33199
32859
32748
32605
32340
32372
32166
32305
32233
32538
32579
32943
33012
33329
33296
33519
33378
33510
33282
33287
32971
32910
32546
32389
32141
31929
31994
31844
32052
32031
32346
32404
32710
32743
32957
32871
33063
32870
32935
32543
32542
32238
32165
31828
31671
31495
31377
31458
31372
31588
31647
31956
32063
32227
32383
32364
32514
32346
32389
32102
32083
31708
31647
31282
31231
30999
30909
30983
30919
31143
31239
31484
31707
31733
31980
31918
32101
31924
31977
31695
31687
31398
31295
31012
30932
30726
30711
30776
30727
30980
31023
31399
31558
31815
31930
31935
32124
31974
32068
31831
31821
31535
31463
31143
31108
30828
30879
30767
30995
31047
31338
31471
31837
31887
32143
32105
32283
32252
32149
32191
31947
31906
31572
31478
31179
31197
31004
31119
31107
31378
31434
31818
31922
32270
32290
32487
32418
32578
32391
32413
32127
32027
31746
31681
31393
31385
31191
31292
31225
31516
31560
31901
32021
32237
32330
32574
32487
32642
32439
32418
32185
32054
31838
31741
31415
31407
31201
31319
31330
31533
31756
31919
32294
32322
32625
32597
32805
32645
32727
32507
32577
32295
32259
31940
31910
31652
31727
31597
31765
31890
32084
32263
32645
32682
32975
32948
33079
33085
33060
33006
32766
32757
32479
32343
32140
32065
31895
32024
31940
32244
32300
32558
32813
32987
33159
33175
33347
33266
33303
33071
33071
32810
32725
32547
32359
32213
32231
32132
32338
32324
32631
32708
33051
33137
33444
33396
33590
33446
33527
33346
33223
33157
32844
32780
32446
32483
32239
32327
32340
32399
32684
32797
33142
33174
33457
33415
33601
33463
33551
33343
33306
33031
32924
32669
32519
32235
32304
32187
32255
32321
32577
32716
32967
33225
33265
33441
33471
33420
33419
33268
33162
32884
32823
32468
32373
32066
32107
31925
32119
32076
32363
32406
32799
32831
33159
33111
33277
33166
33153
33087
32858
32772
32454
32344
32090
31947
31866
31802
31934
31947
32247
32316
32711
32789
33109
33061
33265
33149
33107
33085
32850
32842
32494
32413
32135
32092
31919
31938
31996
32065
32383
32418
32775
32823
33063
33198
33149
33292
33131
33141
33003
32767
32735
32383
32327
32017
31910
32052
31924
32180
32198
32545
32653
32924
32985
33166
33217
33167
33248
33003
33067
32750
32681
32327
32280
31994
32003
31901
31975
32110
32211
32422
32687
32871
33051
33116
33262
33202
33287
33049
33065
32775
32726
32374
32343
32047
32046
31946
32121
32140
32500
32623
32956
33275
33367
33636
33615
33791
33616
33703
33463
33440
33124
33068
32815
32743
32525
32638
32556
32745
32870
33135
33271
33556
33588
33754
33798
33743
33796
33548
33567
33230
33197
32855
32782
32444
32443
32215
32380
32324
32625
32633
32967
33000
33301
33230
33434
33283
33353
33127
33142
32820
32686
32388
32183
31997
31919
31876
31804
32007
32051
32407
32501
32813
32847
33098
33044
33246
33062
33110
32911
32711
32590
32324
32131
31991
31915
31820
31898
32023
32101
32436
32514
32884
32941
33237
33176
33364
33186
33253
32976
32983
32662
32618
32263
32243
32055
32123
32014
32275
32301
32652
32727
33055
33055
33277
33134
33231
32966
32913
32487
32326
31850
31585
31261
30973
30875
30700
30709
30676
30842
30862
31065
31149
31439
31594
32047
32332
32975
33330
34122
34871
35847
37066
38084
39743
41114
42887
44596
46364
48070
49457
50854
51494
52151
52079
52012
51431
50820
49749
48540
46932
45318
43304
41425
39674
37495
35276
33539
32380
31694
31666
31589
31822
31793
31989
31904
31972
31786
31761
31456
31381
31151
31007
30767
30605
30431
30330
30215
30255
30204
30322
30397
30554
30694
30764
31013
30958
31064
30887
30908
30637
30588
30274
30175
29911
29901
29761
29847
29838
30114
30191
30535
30652
30969
30991
31167
31132
31181
31173
31015
30934
30719
30665
30388
30271
30101
30145
30065
30271
30365
30693
30805
31157
31218
31495
31486
31605
31646
31479
31508
31252
31207
30956
30823
30631
30605
30449
30589
30566
30831
30917
31228
31432
31677
31804
31922
31927
31998
31996
31819
31810
31492
31406
31180
31013
30997
30811
30900
30890
31212
31271
31641
31775
31993
32180
32206
32428
32303
32375
32124
32148
31862
31823
31519
31462
31260
31231
31297
31324
31519
31661
31966
32188
32420
32487
32650
32739
32679
32701
32509
32459
32201
32187
31871
31828
31597
31607
31510
31661
31759
32025
32230
32503
32732
32804
33075
32954
33118
32902
32901
32669
32501
32359
32139
32084
31835
31879
31751
31947
31935
32279
32339
32663
32751
33004
32963
33166
33029
33156
32876
32903
32566
32502
32118
32068
31799
31834
31683
31735
31877
31970
32279
32356
32655
32654
32886
32775
32911
32706
32699
32457
32213
32046
31727
31701
31490
31321
31399
31320
31545
31603
31919
31973
32111
32366
32413
32366
32454
32303
32294
32019
31942
31650
31495
31229
31127
31009
31055
31006
31213
31300
31569
31773
31943
32132
32158
32252
32159
32212
31980
31935
31687
31524
31295
31092
30964
30951
30867
30997
31119
31263
31592
31666
32007
32033
32303
32228
32407
32206
32188
32007
31938
31700
31634
31391
31247
31221
31168
31183
31452
31532
31793
32131
32202
32517
32500
32706
32587
32698
32509
32372
32381
32047
32004
31684
31697
31489
31599
31503
31751
31964
32068
32399
32519
32641
32876
32828
32843
32954
32775
32576
32573
32255
32100
32039
31751
31790
31672
31710
31948
31951
32279
32487
32577
32863
32862
32903
33077
32900
32870
32751
32469
32398
32102
31923
31879
31679
31743
31761
31815
32125
32174
32530
32567
32855
32951
32935
33092
32903
32848
32782
32486
32435
32158
31975
31970
31706
31801
31778
31855
32172
32235
32543
32859
32863
33111
33071
33107
33128
33071
32877
32788
32511
32455
32135
32143
31929
31969
32042
32132
32337
32458
32777
32873
33212
33172
33351
33251
33313
33229
33031
32996
32703
32677
32349
32373
32148
32231
32130
32365
32491
32652
33020
33061
33339
33351
33471
33525
33496
33468
33247
33233
32925
32836
32638
32399
32397
32271
32453
32430
32735
32807
33041
33319
33348
33634
33553
33684
33624
33510
33401
33210
33130
32838
32791
32472
32472
32452
32377
32636
32715
32815
33221
33239
33524
33569
33553
33739
33537
33586
33330
33280
32988
32844
32690
32443
32428
32256
32413
32390
32700
32751
33044
33140
33323
33543
33474
33659
33508
33586
33295
33300
32972
32842
32607
32423
32441
32227
32374
32421
32518
32836
32935
33316
33305
33510
33575
33500
33591
33349
33371
33172
32930
32833
32529
32479
32257
32364
32197
32311
32504
32619
32904
33016
33244
33311
33508
33429
33557
33287
33324
33020
32998
32644
32549
32399
32191
32290
32135
32263
32447
32519
32903
32984
33136
33324
33284
33460
33389
33201
33252
32971
32895
32687
32414
32422
32212
32117
32277
32239
32374
32657
32752
33052
33180
33212
33447
33330
33485
33351
33155
33118
33111
32788
32690
32422
32438
32239
32374
32293
32508
32614
32897
33031
33180
33326
33313
33461
33311
33333
33085
33058
32741
32699
32361
32305
32142
32071
32068
32100
32343
32431
32733
32836
33182
33127
33383
33239
33341
33145
33078
32982
32703
32681
32382
32348
32085
32148
32037
32197
32291
32459
32849
32916
33242
33187
33415
33414
33508
33578
33411
33479
33179
33097
32980
32759
32836
32692
32715
32906
32934
33268
33335
33707
33703
33999
33903
34151
33967
34059
33745
33717
33470
33207
33084
32805
32797
32590
32716
32636
32916
32916
33300
33327
33623
33572
33734
33703
33584
33610
33311
33287
32975
32941
32574
32380
32320
32129
32255
32188
32423
32577
32687
33031
33020
33303
33191
33263
33295
33147
33076
32867
32733
32519
32418
32152
32131
31956
32076
32037
32322
32363
32597
32854
32926
33159
33191
33212
33318
33170
33135
32885
32880
32516
32460
32196
32126
32078
31998
32237
32255
32480
32743
32868
33216
33181
33436
33342
33495
33276
33309
33098
32897
32796
32476
32373
32103
31889
31918
31725
31783
31687
31688
31799
31751
31916
31791
31707
31743
31479
31299
31164
30819
30831
30650
30868
31097
31602
32076
32854
33958
35237
36914
38617
40653
42211
44335
46190
47969
49884
51244
52876
53900
54756
54968
54535
54263
53511
52713
51887
50614
49606
48079
46641
44935
43198
41127
38599
36474
34908
33614
32935
32367
31906
31617
31220
31119
30836
30741
30885
30943
30924
31200
31239
31326
31444
31263
31195
31011
30791
30644
30326
30134
29965
29724
29637
29500
29447
29403
29429
29511
29703
29812
30076
30214
30382
30451
30494
30543
30428
30434
30244
30074
29954
29732
29703
29533
29468
29506
29484
29689
29803
30078
30236
30562
30612
30839
30814
30927
30825
30781
30694
30487
30421
30153
30151
29939
29959
29863
30020
30119
30255
30576
30680
30967
31111
31132
31304
31239
31287
31194
31028
31031
30762
30683
30425
30317
30332
30204
30359
30444
30553
30915
31030
31194
31482
31455
31604
31583
31476
31525
31302
31294
31013
30953
30716
30717
30516
30620
30557
30839
30903
31175
31440
31550
31790
31921
31865
32044
31876
31796
31748
31500
31495
31207
31179
30983
30887
30950
30906
31166
31215
31546
31654
31818
32082
32263
32294
32220
32357
32185
31998
31996
31700
31654
31401
31265
31276
31167
31338
31419
31493
31866
31952
32206
32391
32398
32611
32503
32548
32472
32247
32245
31911
31770
31674
31441
31495
31324
31335
31614
31667
31819
32175
32229
32490
32519
32486
32655
32518
32361
32391
32119
31860
31815
31492
31434
31257
31207
31359
31324
31463
31751
31834
32099
32198
32191
32407
32257
32359
32165
32046
31955
31648
31436
31386
31109
31059
31015
30954
31204
31239
31399
31732
31774
32071
32023
32100
32159
31981
32044
31775
31667
31523
31239
31211
30946
31002
30851
30974
31055
31133
31453
31525
31822
31879
31973
32141
32039
32152
31950
31955
31780
31548
31516
31237
31134
31183
31029
31093
31308
31356
31519
31895
32021
32119
32375
32318
32431
32492
32315
32355
32150
31932
31945
31695
31494
31559
31415
31437
31665
31708
32048
32124
32315
32585
32574
32827
32687
32719
32711
32458
32487
32172
32032
31934
31697
31738
31587
31654
31804
31879
32230
32303
32580
32740
32774
32975
32849
32849
32930
32706
32507
32476
32148
31990
31967
31758
31866
31831
31821
32113
32155
32443
32607
32700
32983
32887
33001
33036
32820
32862
32573
32480
32315
32034
32057
31831
31895
31918
31972
32284
32375
32538
32908
32901
33004
33196
33103
33206
33053
32918
32871
32590
32577
32257
32257
32025
32148
32007
32159
32298
32431
32710
32842
33084
33102
33298
33166
33231
33233
33083
32876
32728
32622
32351
32367
32135
32178
32251
32239
32555
32570
32766
33085
33069
33272
33399
33311
33428
33280
33167
33142
32869
32854
32499
32471
32325
32220
32314
32323
32642
32644
32919
33095
33227
33476
33422
33578
33434
33500
33240
33215
32943
32895
32609
32641
32367
32341
32486
32454
32758
32768
33138
33152
33465
33364
33470
33612
33469
33582
33300
33173
33144
32805
32782
32560
32412
32415
32348
32548
32558
32895
32948
33220
33430
33451
33661
33641
33540
33612
33388
33248
33165
32871
32806
32657
32469
32563
32478
32492
32741
32790
33164
33170
33369
33506
33500
33652
33472
33589
33363
33192
33151
32849
32813
32496
32512
32420
32348
32573
32559
32797
33101
33150
33381
33479
33484
33660
33525
33423
33397
33150
33071
32902
32647
32454
32510
32317
32336
32474
32517
32822
32932
33031
33335
33300
33541
33463
33514
33324
33364
33068
33013
32828
32612
32519
32343
32360
32283
32421
32519
32716
32823
33139
33180
33414
33348
33476
33369
33386
33231
33150
32986
32775
32611
32469
32311
32323
32199
32391
32403
32684
32756
33135
33151
33405
33340
33533
33352
33341
33287
33056
32997
32723
32591
32420
32356
32239
32296
32287
32472
32560
32926
33013
33340
33250
33503
33332
33511
33297
33365
33135
32964
32831
32573
32571
32305
32405
32231
32450
32453
32766
32804
33143
33127
33437
33320
33503
33443
33346
33287
33108
33054
32753
32742
32431
32439
32195
32277
32328
32486
32630
32775
33118
33188
33447
33380
33529
33364
33431
33153
33223
32964
32766
32730
32455
32519
32277
32319
32485
32529
32882
33133
33304
33668
33672
33919
33799
33951
33927
33836
33799
33615
33508
33251
33247
33031
33078
32933
33083
33122
33351
33452
33758
33772
33979
33886
34119
33885
34023
33780
33662
33526
33251
33158
32903
32903
32631
32762
32631
32910
32838
33196
33263
33306
33445
33607
33506
33459
33529
33360
33116
32985
32951
32660
32421
32335
32273
32317
32271
32516
32519
32835
32841
33007
33256
33206
33415
33287
33387
33087
33056
32906
32703
32557
32338
32306
32117
32227
32138
32415
32389
32717
32919
33007
33302
33258
33449
33255
33427
33148
33176
32855
32881
32533
32500
32241
32245
32276
32239
32461
32548
32812
32919
33198
33191
33468
33319
33485
33271
33143
32881
32715
32262
32052
31642
31430
31117
31047
30964
30919
31103
31089
31215
31364
31319
31410
31385
31596
31626
31975
32254
32742
33095
33837
34798
35990
37616
39168
41044
42932
44932
47078
49045
51069
52534
54151
54967
55639
55444
55175
54383
53639
52228
51234
49565
47898
45876
44146
42309
39982
38000
35756
34507
33464
33159
32818
32673
32638
32346
32207
31982
31775
31577
31268
31164
30817
30709
30709
30531
30591
30622
30543
30614
30726
30586
30639
30693
30581
30639
30513
30358
30276
30038
29936
29663
29638
29412
29447
29405
29479
29745
29805
30062
30314
30350
30566
30501
30621
30539
30559
30388
30273
30207
29963
29891
29642
29601
29691
29603
29804
29865
30141
30370
30503
30759
30796
30962
30887
31026
30828
30793
30604
30415
30327
30099
30087
29897
29926
30041
30049
30297
30444
30657
30975
30993
31269
31200
31319
31239
31325
31143
31060
30930
30684
30719
30480
30463
30412
30367
30629
30679
30950
31092
31225
31536
31541
31700
31647
31668
31734
31483
31490
31200
31118
30954
30791
30839
30676
30762
30953
31004
31341
31447
31718
31858
31918
32103
32085
32021
32131
31880
31756
31657
31381
31396
31147
31049
31131
31035
31290
31316
31511
31823
31900
32112
32244
32212
32364
32319
32116
32191
31927
31794
31727
31452
31465
31233
31246
31237
31255
31588
31629
31924
32036
32295
32303
32509
32351
32524
32292
32346
32090
31975
31893
31591
31532
31315
31332
31372
31348
31575
31721
31801
32170
32191
32324
32449
32326
32476
32297
32154
32108
31805
31636
31581
31269
31296
31117
31228
31201
31335
31572
31599
32001
32040
32203
32191
32258
32174
32077
32043
31779
31722
31413
31263
31150
30937
31015
30931
30949
31221
31282
31559
31688
31895
31943
31919
32167
31990
32052
31851
31764
31588
31366
31286
31019
31029
30922
30928
31115
31155
31423
31526
31759
31953
31985
32298
32229
32238
32281
32047
32047
31820
31777
31503
31362
31363
31180
31325
31303
31508
31710
31780
32158
32231
32370
32539
32444
32623
32453
32367
32367
32061
32061
31768
31703
31607
31434
31638
31617
31834
31943
32125
32503
32551
32709
32863
32753
32886
32821
32586
32590
32425
32127
32171
31904
31876
31825
31686
31927
31967
32158
32433
32487
32821
32931
32861
33108
33005
32945
32942
32633
32623
32375
32195
32119
31879
31919
31855
31907
32107
32082
32471
32584
32775
32958
32887
33110
33067
32871
33003
32775
32685
32426
32284
32188
31967
31922
32011
31947
32204
32247
32399
32775
32888
33095
33187
33169
33287
33055
33139
32963
32735
32705
32343
32390
32191
32143
32204
32167
32327
32586
32682
32766
33159
33108
33407
33355
33364
33406
33122
33190
32847
32874
32518
32511
32254
32342
32199
32394
32404
32656
32820
32990
33233
33303
33447
33383
33575
33335
33445
33180
33161
32811
32821
32559
32503
32381
32379
32519
32549
32819
32914
33239
33305
33446
33599
33698
33574
33575
33527
33260
33287
32892
32900
32554
32630
32460
32484
32532
32574
32772
32951
33263
33348
33571
33535
33782
33535
33727
33388
33463
33180
33060
32931
32596
32622
32539
32435
32591
32564
32859
32973
33198
33421
33431
33660
33584
33670
33587
33471
33399
33166
33052
32802
32736
32407
32493
32357
32446
32551
32686
32970
32995
33366
33351
33574
33489
33557
33482
33399
33223
33148
32879
32774
32487
32450
32263
32340
32289
32458
32657
32805
33085
33133
33326
33353
33480
33412
33508
33206
33255
32948
32949
32575
32551
32287
32305
32200
32273
32367
32553
32691
32924
33129
33205
33278
33337
33359
33294
33257
33047
33050
32743
32668
32371
32343
32094
32239
32202
32359
32492
32736
32799
33141
33149
33343
33273
33372
33254
33287
33037
32998
32716
32559
32423
32241
32209
32129
32181
32263
32491
32627
32820
33009
33188
33231
33327
33342
33389
33138
33115
32954
32870
32587
32529
32198
32274
32125
32199
32356
32314
32708
32711
33031
33028
33248
33268
33278
33350
33083
33125
32942
32747
32539
32330
32231
32093
32167
32005
32277
32311
32570
32772
32911
33148
33082
33193
33275
33083
33230
32957
32847
32661
32418
32389
32114
32135
31925
32135
32135
32350
32551
32705
32921
33015
33249
33195
33324
33069
33184
32929
32902
32535
32517
32291
32165
32058
31944
32062
32033
32327
32375
32695
32717
33062
33091
33160
33199
33217
33115
32982
32958
32582
32603
32366
32159
32127
31887
32057
32124
32305
32493
32739
32893
33005
33158
33343
33210
33396
33169
33364
33071
33167
32903
32772
32671
32599
32651
32652
32754
32903
33124
33216
33618
33662
33878
33903
34038
33995
33885
33711
33445
33463
33116
32945
32801
32579
32612
32431
32740
32759
33031
33133
33388
33447
33583
33607
33674
33551
33471
33415
33126
32932
32741
32541
32342
32153
32172
32048
32204
32263
32599
32622
32983
32991
33319
33159
33343
33135
33265
32992
32917
32598
32528
32135
32175
32007
31940
31958
32042
32207
32335
32540
32830
32893
33150
33095
33227
33031
33185
32831
32772
32607
32485
32244
32103
31993
31986
31877
32028
32127
32500
32559
32756
32951
33095
33233
33274
33300
33187
33095
33013
32724
32604
32288
32263
31950
32014
31884
31805
31964
32054
32105
32165
32127
32130
32099
32038
32023
31623
31610
31460
31238
30941
30599
30468
30276
30356
30422
31015
31534
32493
33377
34647
35890
37519
39143
41102
42524
44743
46477
48205
49847
51082
52261
52764
53176
53103
52729
52454
51847
51295
50401
49287
47759
46127
44488
42573
40716
38135
35982
34182
33265
32394
32104
31638
31327
31223
31187
31024
31211
31253
31506
31586
31705
31786
31804
31800
31735
31655
31396
31061
30815
30488
30139
29914
29586
29540
29411
29477
29659
29874
29986
30138
30415
30572
30607
30635
30645
30576
30428
30303
30119
29934
29641
29604
29430
29449
29437
29517
29691
29874
30136
30385
30588
30643
30878
30906
30837
30888
30754
30519
30423
30278
30030
29973
29959
29828
29879
29917
30028
30196
30553
30650
30972
30983
31163
31167
31335
31217
31085
31047
30897
30739
30543
30402
30283
30244
30196
30255
30511
30655
30902
31167
31371
31517
31589
31706
31697
31651
31463
31351
31341
31045
30875
30820
30649
30693
30560
30754
30788
31148
31316
31637
31767
32045
32036
32247
32048
32229
31995
31940
31764
31557
31351
31271
31159
31133
31038
31207
31187
31522
31669
31962
32180
32263
32506
32391
32441
32517
32430
32375
32022
31840
31732
31658
31430
31473
31367
31540
31597
31911
31979
32370
32378
32684
32625
32840
32846
32798
32775
32559
32516
32178
32037
31838
31666
31573
31570
31556
31831
31886
32186
32201
32642
32577
32914
32836
32904
32752
32646
32474
32311
32074
31935
31683
31503
31371
31364
31372
31484
31575
31879
32127
32263
32342
32516
32540
32611
32420
32415
32119
32039
31735
31530
31253
31119
30975
31075
31028
31188
31317
31516
31733
31824
31942
32113
32167
32113
32046
32015
31845
31668
31391
31268
31074
30927
30816
30813
30802
31023
31103
31391
31524
31841
31862
32057
31967
32059
31944
31879
31697
31483
31460
31157
31086
30868
30849
30748
30822
30962
31134
31230
31591
31748
31964
32145
32155
32329
32148
32163
31940
31791
31585
31343
31333
31111
31062
30959
30998
31285
31340
31637
31797
32106
32207
32362
32423
32487
32365
32327
32141
32042
31975
31716
31530
31276
31239
31129
31169
31487
31581
31909
32078
32297
32364
32433
32721
32601
32671
32468
32439
32156
32122
31806
31637
31443
31377
31268
31367
31469
31685
31852
32166
32356
32511
32536
32625
32844
32666
32631
32395
32236
32037
31815
31591
31551
31439
31470
31456
31687
31751
32107
32222
32568
32563
32909
32842
33015
32747
32844
32597
32583
32199
32067
31783
31751
31552
31551
31655
31772
31943
32162
32458
32599
32799
32871
32959
32956
32956
32827
32762
32611
32481
32210
32102
31967
31893
31859
31919
31975
32135
32314
32615
32805
32927
33058
33082
33351
33210
33139
32910
32812
32574
32370
32418
32085
32039
32029
32049
32220
32351
32537
32688
32867
33277
33245
33413
33335
33351
33394
33129
33103
32820
32663
32351
32262
32213
32126
32143
32124
32408
32798
32902
33197
33254
33402
33431
33482
33431
33380
33155
33070
32871
32717
32502
32363
32198
32119
32044
32122
32423
32585
32821
33088
33197
33364
33393
33481
33429
33428
33172
33159
32860
32610
32384
32184
32239
32095
32126
32205
32311
32667
32810
33149
33195
33436
33387
33527
33334
33241
33191
33048
32865
32597
32479
32272
32173
32054
32110
32133
32319
32499
32782
33140
33175
33433
33429
33415
33327
33215
33335
33016
32958
32628
32564
32311
32234
32111
32129
32142
32434
32576
32872
33076
33205
33348
33416
33461
33403
33367
33190
32985
33012
32646
32629
32338
32351
32151
32294
32255
32502
32601
32964
33046
33307
33339
33420
33423
33399
33341
33181
33109
32836
32864
32503
32454
32241
32197
32185
32337
32417
32628
32834
33086
33245
33324
33434
33537
33493
33454
33270
33214
32900
32838
32483
32416
32177
32228
32116
32311
32423
32642
32751
33055
33227
33282
33469
33415
33477
33282
33287
33014
32842
32541
32478
32295
32261
32079
32175
32202
32412
32483
32788
32936
33073
33255
33323
33404
33351
33521
33263
33218
32929
32836
32487
32263
32162
32101
32158
32367
32429
32599
32775
33249
33272
33575
33617
33740
33756
33783
33654
33550
33404
33158
33170
32903
32749
32854
32702
32887
32897
33021
33313
33473
33674
33799
33938
33994
33966
33799
33724
33531
33463
33199
33108
32788
32775
32593
32632
32628
32750
32868
33159
33285
33599
33557
33698
33686
33657
33476
33415
33143
33000
32719
32573
32271
32250
32079
32132
32180
32358
32463
32746
32836
33056
33083
33247
33199
33282
33066
33026
32828
32720
32463
32364
32087
32004
31875
31924
31857
31988
32316
32494
32770
32847
32967
33284
33165
33287
33126
33087
32829
32717
32398
32231
31992
31919
31970
31879
31978
32042
32271
32615
32774
32997
33062
33231
33216
33239
33318
33124
33060
32721
32533
32161
31892
31852
31549
31524
31356
31387
31336
31451
31781
31784
31974
31964
32004
32095
31831
31663
31334
31137
31119
30921
31029
31147
31681
32508
33217
34381
35656
37498
39008
41033
42812
44952
46340
48234
49447
50575
51011
51188
50778
50300
49612
48491
48087
46946
45855
44385
43015
41391
39869
38328
36111
34564
33225
32801
32398
32380
32140
32014
31716
31540
31198
31022
30910
30695
30675
30741
30967
31103
31431
31536
31778
31764
31921
31812
31783
31443
31294
30879
30692
30318
30208
29916
29951
29852
30002
30047
30321
30493
30743
30869
31068
31084
31211
31146
31159
31012
30906
30854
30625
30426
30134
30074
29950
30044
30021
30258
30426
30735
30896
31135
31236
31425
31394
31521
31420
31300
31328
31068
30967
30697
30605
30430
30420
30366
30469
30572
30828
30934
31302
31471
31772
31761
31967
31883
31892
31830
31635
31607
31396
31299
31018
30926
30831
30856
30852
31061
31160
31503
31655
31951
32081
32239
32279
32373
32244
32279
32090
32043
31765
31658
31412
31326
31215
31237
31168
31312
31567
31732
32174
32251
32575
32540
32753
32644
32773
32543
32468
32268
32111
31847
31743
31588
31522
31388
31527
31791
31868
32159
32328
32599
32692
32819
33095
32974
33031
32855
32815
32567
32455
32263
32021
31875
31776
31809
31972
32019
32220
32342
32583
32964
32976
33223
33233
33266
33170
33029
33085
32767
32597
32263
32135
31912
31830
31833
31813
32109
32146
32285
32602
32751
32991
33035
33102
33047
33031
32866
32793
32532
32390
32088
31959
31740
31710
31559
31550
31623
31788
32019
32135
32412
32479
32696
32637
32743
32558
32375
32230
32043
31916
31637
31494
31261
31148
31010
31063
31090
31271
31403
31686
31851
32015
32038
32185
32110
32023
31892
31834
31662
31416
31173
30999
30763
30724
30571
30674
30727
30908
30983
31327
31417
31572
31735
31866
32013
31862
31887
31689
31531
31264
31142
30872
30807
30594
30658
30631
30797
30948
31233
31401
31637
31953
31973
32199
32116
32221
32071
31975
31777
31676
31430
31343
31115
30956
30934
31121
31068
31197
31492
31815
32037
32191
32419
32460
32560
32512
32398
32431
32151
32090
31847
31686
31383
31372
31218
31345
31415
31676
31831
32117
32231
32391
32500
32621
32646
32647
32519
32388
32253
32130
31889
31751
31513
31452
31308
31416
31452
31694
31807
32128
32258
32518
32548
32799
32708
32678
32680
32492
32343
32070
31869
31658
31487
31359
31382
31364
31525
31647
31922
32100
32355
32497
32692
32763
32820
32807
32695
32604
32467
32252
32066
32063
31769
31717
31590
31711
31743
31973
32143
32403
32549
32699
32865
32900
33023
33034
33082
32817
32792
32426
32276
32116
31930
31898
31749
31832
31884
32124
32229
32557
32730
33031
33087
33236
33212
33210
33129
32959
33015
32714
32618
32298
32261
32047
32054
31967
32047
32391
32453
32835
32917
33239
33247
33244
33375
33464
33249
33155
33062
32788
32679
32405
32353
32065
31999
32061
32081
32300
32420
32626
33026
33111
33218
33287
33250
33261
33211
33116
33038
32804
32629
32358
32244
32037
32094
31975
32181
32226
32553
32641
32983
33063
33227
33216
33366
33249
33229
33086
32880
32714
32447
32171
32053
31905
31951
31928
31940
32093
32451
32491
32813
32922
33243
33225
33274
33174
33030
32991
32820
32748
32451
32358
32025
31985
31769
31776
32031
32115
32335
32479
32684
32916
33045
33251
33089
33215
33131
32959
32817
32761
32423
32310
32054
