ECG
37676
38398
38434
37468
36160
34220
31899
29842
28127
26739
25819
25386
25399
26110
27190
28551
30233
32275
34533
36311
37652
38455
38663
37924
36495
34482
32102
29905
28227
26927
26099
25642
25656
26292
27367
28859
30591
32542
34535
36497
38013
38697
38799
37823
36506
34628
32378
30235
28432
27124
26223
25791
25835
26516
27603
28959
30694
32761
34884
36716
38139
38884
38987
38213
36776
34767
32342
30247
28581
27269
26330
25910
25937
26626
27799
29239
30920
32949
35116
37042
38375
39087
38941
38255
36948
34926
32590
30412
28645
27342
26433
26035
26171
26831
27862
29303
31106
33179
35365
37229
38556
39293
39279
38358
36796
34940
32608
30469
28789
27501
26631
26232
26308
26981
28024
29446
31217
33374
35507
37269
38639
39356
39407
38488
36860
34852
32621
30514
28916
27655
26695
26257
26315
26988
28066
29641
31381
33266
35399
37263
38759
39351
39401
38340
36884
34999
32766
30686
28958
27639
26671
26260
26316
27049
28230
29680
31364
33387
35510
37321
38769
39511
39503
38541
36871
34988
32692
30655
28999
27630
26759
26343
26506
27181
28198
29660
31460
33612
35624
37207
38716
39479
39601
38692
37151
35020
32639
30606
28911
27650
26807
26441
26503
27205
28295
29712
31516
33602
35712
37639
38957
39614
39603
38559
36951
35104
32760
30771
29076
27751
26851
26468
26540
27351
28399
29777
31605
33799
35876
37623
38904
39487
39699
38853
37284
35190
32868
30724
29031
27767
26922
26628
26674
27377
28449
29982
31830
33844
35833
37563
39047
39788
39847
38887
37377
35296
32981
30855
29189
27829
26967
26584
26676
27418
28559
30128
31916
33927
35900
37528
38827
39687
39672
38754
37310
35236
32895
30794
29079
27793
26899
26521
26663
27455
28570
30015
31748
33751
35908
37799
39124
39694
39660
38699
37148
35079
32716
30609
28954
27679
26880
26532
26682
27425
28506
29940
31686
33781
35894
37741
39114
39732
39582
38610
36950
34935
32660
30618
29023
27809
26875
26468
26591
27362
28582
30101
31855
33809
35952
37848
39077
39646
39444
38614
37157
35130
32807
30688
29029
27740
26871
26487
26660
27479
28635
30113
31878
33866
35993
37826
39161
39663
39556
38524
36836
34855
32565
30489
28914
27631
26789
26417
26556
27380
28550
30018
31823
33828
35815
37612
38987
39652
39406
38407
36807
34705
32469
30585
28994
27764
26921
26567
26727
27553
28743
30263
32212
34294
36270
37972
39253
39844
39718
38540
37167
35132
32802
30709
29116
27910
27105
26719
26858
27626
28724
30231
32223
34333
36347
38055
39311
39967
39846
38753
37189
35156
32812
30724
29093
27876
27054
26743
26925
27697
28800
30240
32085
34177
36212
37951
39215
39786
39687
38630
37031
34900
32599
30521
28906
27658
26876
26655
26859
27645
28823
30361
32206
34260
36206
37769
39234
39908
39756
38632
37020
34907
32621
30606
29005
27780
26938
26621
26766
27539
28707
30253
32151
34359
36343
38002
39212
39583
39639
38737
37162
34982
32613
30578
28935
27696
26911
26574
26775
27601
28757
30300
32143
34364
36452
38177
39383
39870
39623
38439
36967
34887
32607
30572
28927
27684
26884
26565
26838
27652
28712
30204
31953
34092
35935
37423
38319
38631
38333
37038
35225
32884
30468
28348
26717
25503
24807
24612
24878
25771
27100
28977
31169
33628
36046
38201
39809
41111
41674
41557
40989
40031
39027
38038
37383
37326
37542
38199
39134
40681
42472
44644
47386
50220
52800
54954
56462
57032
57095
55839
53908
51339
48660
46117
43972
42010
39940
38211
36837
36087
35783
35785
36287
37296
38807
40098
40820
41035
40487
39001
37090
34870
32668
30623
28778
27452
26617
26267
26475
27271
28335
29692
31319
33159
34996
36573
37651
37988
37591
36284
34539
32172
29831
27752
26124
24964
24252
23966
24127
24903
25982
27546
29483
31486
33472
35100
36436
36975
36789
35647
33976
31775
29463
27448
25923
24818
24109
23839
24071
24867
26020
27587
29485
31583
33788
35417
36535
37007
36783
35670
34119
31967
29688
27749
26199
25033
24314
24094
24381
25228
26416
28015
29999
32130
34127
35734
36804
37458
37300
36155
34513
32296
29973
28047
26553
25479
24751
24504
24791
25647
26819
28406
30378
32532
34497
36158
37158
37799
37589
36565
34922
32687
30398
28491
26945
25793
25059
24825
25114
25972
27176
28799
30801
32921
34878
36535
37601
38193
37960
36900
35254
33098
30832
28836
27257
26119
25419
25207
25569
26426
27621
29256
31162
33253
35287
36943
38087
38556
38222
36973
35484
33255
31013
29103
27583
26418
25686
25453
25791
26755
27972
29607
31530
33582
35462
37276
38534
38892
38535
37246
35695
33505
31239
29363
27850
26787
26119
25911
26235
27092
28311
29916
31925
34140
36132
37711
38829
39207
38735
37659
36142
33998
31751
29796
28231
27122
26389
26225
26616
27542
28741
30351
32197
34270
36371
38151
39207
39592
39222
37890
36359
34156
31980
30047
28573
27465
26709
26478
26842
27766
29047
30720
32719
34768
36602
38062
39362
39956
39542
38303
36589
34303
31959
30068
28559
27444
26749
26561
26895
27759
28965
30588
32588
34679
36558
38044
38934
39526
39258
37957
36174
33855
31482
29552
28073
26975
26253
25963
26262
27108
28289
29865
31868
33898
35745
37204
38431
38938
38519
37210
35446
33136
30801
28916
27423
26318
25676
25537
25891
26733
27935
29534
31463
33637
35680
37350
38364
38759
38311
36919
35308
33094
30810
28938
27477
26398
25740
25561
25897
26805
28070
29671
31732
33892
35821
37330
38464
38961
38589
37263
35471
33220
30988
29063
27613
26583
25958
25791
26132
27033
28294
29910
31949
34151
36047
37644
38719
39151
38758
37506
35734
33415
31099
29188
27737
26680
26045
25887
26287
27228
28486
30103
32054
34338
36191
37607
38823
39341
38875
37542
35735
33389
31195
29319
27963
26877
26223
26069
26471
27407
28668
30309
32276
34513
36433
37959
38773
39333
39027
37683
35889
33501
31335
29436
28007
26996
26338
26140
26535
27523
28918
30573
32441
34446
36429
38143
39225
39431
38982
37545
35956
33700
31588
29651
28124
27083
26444
26401
26825
27747
29009
30662
32747
34852
36783
38270
39240
39703
39365
37994
36213
33838
31654
29823
28460
27335
26693
26554
26966
28044
29260
30820
32809
35072
36853
38359
39559
39771
39327
37893
36263
34077
31802
29867
28337
27249
26705
26596
26951
27902
29228
30944
32830
34881
36780
38500
39439
39780
39073
37986
36324
34017
31733
29778
28311
27247
26609
26468
26961
27959
29252
30800
32758
34951
36997
38524
39466
39707
39162
37983
36277
33983
31678
29744
28252
27191
26586
26479
26994
27935
29183
30861
32838
35093
36999
38458
39266
39785
39354
38116
36263
33962
31625
29749
28273
27245
26678
26627
27039
28001
29286
31017
33121
35184
37042
38360
39467
39879
39427
38061
36188
33871
31572
29752
28310
27231
26651
26611
26964
27908
29222
30919
32991
35046
36903
38311
39269
39735
39201
37941
36184
33858
31612
29652
28228
27143
26605
26511
26905
27862
29159
30958
32921
34833
36912
38597
39504
39783
39175
37911
36199
33791
31487
29674
28348
27263
26613
26503
26966
28045
29367
30977
32857
35111
37116
38535
39326
39833
39427
38015
36165
33799
31530
29713
28279
27271
26721
26591
27047
28020
29344
31031
33156
35206
37039
38438
39597
39975
39426
37982
36079
33796
31581
29806
28383
27284
26655
26495
27031
28054
29459
31129
33047
35063
37092
38742
39683
39866
39271
37729
36079
33761
31564
29765
28343
27268
26642
26550
27055
28077
29494
31157
33116
35100
37167
38799
39675
39883
39227
37729
35991
33732
31556
29791
28363
27275
26662
26583
27074
28162
29540
31102
33060
35239
37172
38814
39687
39870
39271
37914
36037
33690
31370
29591
28200
27282
26723
26563
27084
28084
29528
31250
33310
35371
37245
38699
39450
39911
39295
38020
36203
33847
31575
29763
28327
27260
26690
26595
27108
28199
29600
31355
33326
35325
37226
38781
39752
40047
39233
37919
36031
33671
31396
29547
28152
27124
26568
26609
27142
28118
29391
31108
33167
35348
37236
38588
39522
39733
38852
37629
35794
33533
31285
29413
28026
27064
26514
26487
27173
28244
29599
31331
33415
35572
37567
39015
39796
40012
39239
37911
36058
33795
31580
29753
28327
27322
26799
26743
27266
28301
29760
31535
33521
35612
37431
38788
39825
40060
39444
38119
36255
33935
31706
29861
28412
27424
26919
26859
27404
28545
29927
31556
33481
35661
37619
39156
39833
40034
39234
37830
35975
33616
31413
29684
28340
27324
26759
26709
27286
28279
29663
31473
33572
35629
37500
38927
39624
39929
39273
38007
36072
33684
31344
29592
28176
27234
26745
26631
27206
28298
29773
31357
33472
35683
37487
38937
39724
39788
39212
37950
35935
33554
31239
29495
28101
27218
26721
26647
27255
28308
29763
31442
33375
35604
37569
39012
39758
39882
39031
37811
35937
33578
31349
29533
28127
27143
26640
26698
27265
28247
29598
31439
33352
35170
37031
38444
39084
39015
38007
36280
33984
31397
29062
27188
25783
24776
24166
24119
24645
25690
27267
29227
31557
33959
36478
38520
39861
40478
40373
39764
38807
37994
37379
37104
36967
37207
37833
38713
40455
42339
44458
47073
50023
52999
55812
58084
59623
60224
59572
58154
56070
53525
50888
48503
46364
44602
43081
41580
40390
39495
39223
39446
39879
40344
40926
41461
41607
41236
40259
38604
36589
34152
31748
29714
28062
26897
26287
26154
26609
27527
28839
30405
32186
34016
35563
36673
37372
37467
36525
34951
32850
30423
28158
26340
24995
24005
23460
23399
23983
24983
26315
28049
30139
32310
34181
35636
36399
36463
35621
34205
32200
29801
27669
25964
24657
23775
23324
23332
23983
25048
26486
28231
30232
32295
34129
35621
36539
36733
35915
34476
32452
30133
28028
26316
25020
24102
23681
23719
24384
25420
26841
28642
30697
32956
34841
36239
36967
36933
36258
34906
32938
30582
28390
26702
25428
24519
24079
24137
24774
25841
27295
29191
31261
33313
35029
36559
37358
37511
36632
35182
33124
30831
28762
27122
25876
24961
24514
24559
25237
26294
27845
29646
31714
33736
35590
36951
37703
37909
37051
35605
33583
31236
29143
27529
26228
25287
24858
24927
25603
26757
28248
30023
32031
34228
36193
37521
38183
38164
37382
36006
33931
31530
29398
27719
26398
25581
25175
25245
25959
27020
28575
30372
32375
34453
36402
37873
38526
38533
37652
36268
34277
31924
29803
28116
26783
25887
25486
25663
26380
27392
28858
30693
32900
34978
36613
38141
38980
39044
38066
36541
34448
32206
30213
28504
27161
26271
25885
26050
26726
27828
29300
31231
33286
35239
37207
38785
39431
39431
38471
37182
35108
32745
30554
28913
27696
26886
26463
26529
27255
28482
29902
31719
33919
36068
37780
39208
40093
39981
39020
37455
35548
33283
31108
29337
28039
27191
26823
26866
27588
28698
30163
32137
34176
36041
37967
39403
40071
39983
38858
37622
35519
33036
30876
29219
27919
26962
26526
26572
27266
28382
29847
31583
33517
35484
37316
38727
39351
39160
38183
36589
34591
32319
30174
28449
27120
26168
25759
25830
26548
27701
29144
30881
33015
35188
36967
38229
38821
38684
37870
36412
34340
31892
29712
28062
26783
25898
25572
25707
26419
27501
28988
30773
32911
35136
36831
38135
38644
38790
37875
36420
34308
31934
29804
28148
26820
25948
25572
25682
26404
27525
29017
30924
33108
35161
36903
38210
38751
38876
37909
36477
34357
31993
29821
28167
26905
26126
25764
25915
26699
27784
29234
31055
33215
35430
37157
38430
39004
38818
37837
36511
34463
32135
30001
28273
26973
26095
25732
25870
26659
27918
29434
31170
33285
35492
37333
38796
39474
39325
38268
36572
34598
32247
30215
28455
27186
26340
26001
26223
27002
28101
29660
31553
33812
35844
37455
38981
39748
39487
38476
36877
34744
32411
30404
28677
27319
26471
26153
26385
27126
28279
29809
31808
34010
36031
37734
39052
39772
39813
38609
37052
34780
32500
30509
28830
27516
26636
26368
26524
27311
28456
30149
31958
33940
36133
38021
39132
39780
39495
38655
37168
35054
32631
30463
28759
27527
26671
26397
26538
27319
28471
30090
32055
34038
36071
37924
39333
39765
39714
38596
36950
34904
32564
30573
28895
27550
26725
26423
26672
27468
28575
30106
31996
34191
36334
38038
39285
39799
39711
38764
37067
34837
32415
30404
28743
27544
26791
26422
26542
27324
28605
30121
31967
34183
36300
37959
39028
39862
39829
38645
36871
34871
32565
30452
28739
27487
26631
26323
26581
27329
28471
30087
32028
33964
36308
37985
39143
39870
39855
38751
37105
34717
32463
30428
28793
27519
26628
26310
26560
27446
28497
30053
32007
34241
36269
38004
39225
39650
39735
38788
37100
34868
32349
30335
28735
27527
26769
26479
26650
27412
28579
30142
32076
34325
36329
38021
39080
39791
39756
38721
37085
34887
32536
30368
28780
27554
26838
26442
26666
27492
28753
30255
32093
34279
36449
38074
39207
39957
39795
38607
36965
34709
32431
30430
28799
27613
26806
26558
26843
27609
28727
30282
32177
34386
36494
38126
39165
39935
39815
38629
37016
34788
32418
30319
28708
27534
26732
26484
26759
27566
28655
30227
32177
34348
36300
38029
39415
39912
39699
38535
36871
34737
32462
30442
28793
27498
26688
26437
26720
27497
28651
30221
32278
34340
36247
38138
39364
39899
39636
38514
37015
34823
32454
30274
28675
27490
26750
26372
26630
27500
28806
30375
32177
34492
36463
38132
39572
40100
39868
38656
36897
34822
32479
30451
28896
27674
26837
26551
26826
27794
28930
30466
32410
34689
36648
38335
39374
40215
40061
38855
37144
34823
32573
30597
28979
27759
26908
26626
26872
27844
29071
30630
32471
34660
36840
38477
39662
40039
40009
39027
37378
35152
32738
30559
28996
27793
27015
26828
27094
27943
29118
30746
32690
34975
36952
38573
39588
40109
40028
38955
37407
35177
32823
30761
29159
27956
27133
26823
27076
27958
29164
30860
32806
34905
36734
38590
39908
40316
40015
38743
37121
35052
32753
30798
29126
27844
27043
26771
27124
27956
29108
30727
32775
34879
36718
38644
39943
40351
40093
38799
37364
35132
32786
30790
29267
28100
27255
26981
27224
28116
29392
31109
33066
35182
37151
38844
40041
40694
40436
39198
37499
35140
32882
30908
29352
28165
27419
27205
27534
28444
29735
31373
33329
35388
37253
39066
40256
40839
40559
39286
37550
35213
32885
30828
29212
28088
27359
27018
27290
28167
29487
31114
32959
34972
37099
38796
40050
40556
40108
38965
37217
34924
32665
30656
29109
27870
27093
26823
27157
28061
29285
31041
32967
35020
36991
38747
39986
40469
40197
38856
37195
34905
32527
30523
29037
27827
27023
26818
27156
28068
29447
31091
33005
34956
37102
38858
40050
40351
40045
38858
37172
34774
32572
30545
28981
27852
27181
26918
27206
28093
29316
31023
33060
35130
37082
38559
39807
40434
40114
38823
37022
34662
32369
30359
28703
27462
26679
26335
26407
27105
28092
29605
31322
33228
35022
36522
37675
38068
37591
36300
34519
32214
30005
28268
27127
26256
25972
26261
27164
28579
30368
32768
35788
39271
42604
45447
47676
49236
50079
49948
49037
47717
46335
45412
45043
44898
44971
45415
46283
47466
48740
49878
51503
53254
54884
56082
56679
56415
55013
52597
49492
45793
42023
38551
35460
32780
30700
29532
29155
29570
30444
31743
33447
35383
37180
38620
39537
39798
39372
38127
36301
33917
31390
29112
27330
26007
25103
24693
24902
25670
26764
28236
30011
32004
33864
35413
36431
36702
36271
34999
33128
30839
28564
26631
25105
24031
23417
23251
23641
24508
25744
27378
29301
31455
33431
35069
36171
36540
36039
34838
33074
30815
28500
26565
25124
24084
23438
23275
23662
24581
25840
27511
29510
31751
33870
35500
36557
36934
36460
35185
33415
31115
28826
26879
25417
24374
23763
23639
24106
25053
26317
27983
30006
32280
34152
35804
36986
37279
36689
35525
33837
31525
29169
27301
25860
24815
24243
24116
24500
25428
26722
28518
30534
32543
34652
36359
37430
37723
37204
35806
34100
31867
29590
27748
26369
25284
24620
24493
24932
25887
27218
28996
30989
33141
35073
36638
37766
38231
37738
36343
34498
32167
29913
28100
26676
25596
24991
24868
25301
26266
27606
29416
31374
33452
35399
37050
38202
38463
37967
36635
34805
32480
30277
28398
26975
25987
25375
25215
25672
26660
27962
29620
31725
33997
35900
37425
38294
38794
38333
37055
35230
32917
30718
28837
27370
26311
25681
25543
26010
27007
28332
30132
32171
34148
36235
37930
38932
39190
38590
37268
35351
33132
30991
29243
27776
26690
26081
25965
26535
27576
28878
30567
32590
34892
36743
38119
39271
39740
39204
37812
35810
33660
31487
29653
28153
27060
26454
26339
26821
27911
29317
30942
32847
35047
37034
38607
39501
39709
39175
37944
36103
33780
31447
29477
27998
26947
26399
26262
26660
27596
28897
30694
32559
34446
36446
38053
38903
39072
38279
37061
35220
32935
30570
28615
27142
26069
25506
25354
25793
26751
28025
29725
31823
33918
35782
37185
38143
38577
37956
36524
34569
32169
29970
28126
26792
25727
25103
24999
25478
26490
27887
29552
31467
33660
35751
37296
38223
38407
37775
36380
34431
32180
30012
28228
26884
25851
25258
25176
25647
26668
28124
29831
31729
33871
35825
37394
38380
38789
38076
36687
34759
32378
30215
28448
27124
26085
25514
25420
25919
26991
28348
29996
31972
34109
36146
37584
38455
38519
37996
36743
34884
32631
30415
28639
27202
26197
25647
25599
26194
27172
28494
30215
32249
34428
36487
37943
38815
38951
38279
36949
35166
32886
30616
28761
27308
26275
25756
25685
26255
27346
28711
30345
32323
34556
36503
37997
38699
39138
38588
37236
35282
32967
30703
28862
27464
26467
25991
25953
26489
27481
28831
30545
32725
34772
36573
38198
39216
39413
38677
37225
35267
33046
30881
29111
27750
26733
26174
26095
26646
27748
29145
30796
32750
34947
36965
38422
39259
39415
38567
37366
35492
33201
31052
29246
27782
26741
26215
26172
26821
27769
29129
30848
32982
34985
36678
38316
39242
39507
38869
37471
35478
33070
30926
29089
27808
26841
26276
26189
26743
27818
29294
30939
32924
35199
37063
38511
39375
39546
38647
37444
35627
33349
31143
29266
27842
26820
26359
26341
26867
27897
29262
30991
33052
35271
37127
38652
39500
39620
38852
37255
35433
33148
30964
29164
27805
26916
26368
26316
26877
27963
29349
30983
33073
35270
37206
38599
39395
39500
38927
37568
35615
33271
31020
29175
27783
26871
26430
26324
26890
27911
29404
31205
33077
35268
37308
38762
39604
39767
38999
37521
35478
33078
30938
29146
27828
26925
26373
26343
26935
28004
29515
31239
33185
35175
37121
38625
39572
39639
38831
37353
35325
33076
31024
29252
27865
26837
26342
26311
26942
28071
29481
31135
33198
35413
37331
38734
39320
39689
39044
37596
35591
33212
30993
29183
27825
26893
26427
26499
27134
28189
29519
31207
33304
35553
37336
38579
39569
39815
38934
37426
35359
33124
30976
29295
27919
26911
26422
26417
27081
28238
29670
31375
33308
35500
37405
38932
39613
39711
38839
37478
35618
33276
31018
29223
27906
26941
26509
26566
27203
28211
29606
31349
33487
35696
37463
38789
39621
39893
38987
37503
35462
33079
30944
29215
27849
26932
26563
26550
27189
28245
29650
31541
33586
35573
37325
38858
39781
39807
38983
37311
35468
33247
31098
29318
27951
26986
26501
26506
27182
28218
29638
31554
33549
35467
37434
38991
39740
39790
38924
37417
35353
33089
30948
29277
27891
26903
26394
26439
27156
28181
29553
31300
33513
35607
37312
38630
39588
39774
38831
37350
35261
32844
30695
28964
27692
26764
26325
26349
27011
28082
29532
31471
33564
35591
37260
38820
39738
39908
38989
37487
35335
33094
30974
29328
27935
26985
26567
26698
27361
28375
29812
31773
33830
35881
37532
39083
39943
39971
39028
37476
35357
33160
31116
29482
28091
27124
26711
26765
27467
28530
30084
31895
33792
35860
37751
39188
39814
39801
38900
37422
35440
33159
31021
29230
27864
26931
26571
26667
27316
28363
29788
31609
33761
35810
37383
38823
39708
39836
38899
37357
35246
32854
30758
29124
27898
26941
26501
26540
27247
28402
29847
31558
33666
35910
37636
38911
39491
39734
38954
37402
35335
32964
30788
29071
27834
26891
26418
26503
27215
28376
29900
31621
33600
35776
37665
38980
39658
39511
38689
37294
35231
32967
30908
29164
27801
26884
26500
26613
27352
28542
29972
31674
33774
35964
37774
39061
39700
39556
38788
37364
35271
32798
30455
28626
27156
26155
25542
25364
25831
26707
28146
29814
31744
33852
35770
37079
37806
37873
36933
35718
33894
31927
30205
28909
28065
27718
27951
28751
30221
32287
35086
38047
40945
43752
46588
48852
50356
51146
50940
50390
49215
47783
46332
44961
44142
43604
43282
43287
43750
44417
45400
46796
48263
50025
51022
51335
50711
49250
47012
44131
40839
37446
34488
32064
30096
28726
27932
27711
28202
29066
30273
31876
33743
35844
37507
38759
39350
39341
38420
36865
34652
32149
29799
27892
26487
25508
24993
24967
25540
26477
27841
29686
31699
33638
35188
36487
37158
37098
36110
34626
32542
30223
28132
26452
25206
24381
24020
24145
24903
25980
27414
29175
31273
33394
35316
36560
37139
36967
36135
34718
32685
30311
28190
26559
25375
24570
24213
24335
25083
26157
27748
29538
31592
33807
35575
36831
37476
37607
36613
35019
32855
30583
28557
26967
25772
24921
24572
24729
25484
26628
28207
29984
31978
34086
35948
37383
37962
37860
36796
35351
33255
31022
28983
27265
26043
25213
24878
25032
25834
26967
28476
30244
32335
34567
36242
37520
38332
38214
37110
35527
33462
31196
29255
27582
26333
25524
25162
25349
26119
27224
28754
30739
32732
34767
36639
38057
38623
38327
37478
35958
33951
31575
29408
27781
26599
25834
25470
25623
26420
27557
29189
31049
33026
35151
37067
38319
38917
38756
37598
36197
34103
31868
29724
28065
26854
26070
25794
25998
26795
27903
29412
31327
33500
35457
37242
38628
39311
39103
38015
36380
34374
32132
30151
28502
27219
26427
26100
26345
27145
28271
29798
31711
33974
35957
37636
38903
39349
39287
38372
36916
34856
32559
30488
28805
27577
26767
26511
26718
27513
28653
30183
32054
34181
36308
38103
39314
39851
39663
38455
36999
34918
32610
30623
29042
27800
26955
26641
26831
27632
28874
30518
32319
34290
36295
38071
39412
39979
39759
38663
36983
34743
32469
30396
28783
27574
26780
26433
26556
27292
28367
29871
31671
33807
35879
37454
38547
38975
38885
37879
36261
34023
31638
29511
27868
26673
25885
25573
25765
26537
27666
29173
31074
33266
35261
36869
37939
38623
38455
37352
35771
33628
31276
29300
27732
26534
25702
25371
25564
26366
27524
29095
31061
33220
35250
36884
38019
38726
38609
37521
35862
33671
31284
29317
27733
26580
25871
25639
25840
26642
27791
29349
31324
33488
35406
37110
38469
39022
38719
37436
35964
33835
31552
29618
27962
26740
25992
25702
25958
26829
28001
29556
31424
33556
35689
37487
38603
39136
38868
37689
36036
33827
31588
29636
28153
26957
26151
25853
26111
27015
28255
29799
31589
33706
35769
37598
38810
39326
39098
37932
36314
34151
31824
29863
28235
27079
26321
26058
26325
27215
28434
29980
31828
33988
36175
37828
38998
39506
39220
37895
36389
34265
31977
30094
28537
27340
26539
26273
26553
27384
28676
30298
32164
34173
36289
38010
39329
39820
39562
38397
36696
34443
32105
30146
28564
27455
26761
26481
26759
27628
28831
30429
32294
34428
36566
38220
39360
39752
39371
38371
36735
34512
32182
30242
28720
27613
26839
26541
26804
27695
28980
30535
32320
34446
36516
38245
39328
39775
39327
38279
36700
34548
32293
30281
28659
27457
26712
26505
26876
27718
28887
30464
32340
34631
36615
38209
39285
39804
39644
38436
36703
34441
32107
30146
28618
27568
26884
26598
26868
27733
28938
30629
32583
34619
36468
38169
39391
39935
39694
38431
36711
34375
32111
30165
28655
27591
26867
26614
26909
27779
29001
30735
32634
34709
36580
38097
39415
39991
39652
38407
36661
34401
32033
30070
28549
27399
26695
26535
26848
27701
28924
30508
32412
34577
36554
38337
39474
39890
39568
38317
36687
34434
32135
30159
28611
27445
26727
26494
26821
27716
28944
30527
32455
34624
36727
38299
39289
39559
39396
38271
36652
34420
32108
30060
28533
27399
26743
26533
26928
27879
29066
30679
32536
34725
36764
38483
39548
39935
39479
38191
36644
34463
32143
30173
28588
27417
26699
26487
26919
27884
29139
30727
32740
34964
36888
38437
39375
39802
39483
38324
36596
34353
32146
30196
28665
27500
26801
26619
26980
27902
29138
30844
32827
34884
36701
38388
39542
40038
39651
38316
36568
34188
31930
29956
28437
27377
26804
26612
26955
27874
29117
30839
32848
34882
36660
38407
39559
39955
39471
38170
36248
34099
31885
30052
28500
27343
26647
26470
26918
27925
29167
30756
32729
34965
36780
38403
39285
39829
39506
38238
36442
34189
31870
29927
28414
27362
26742
26581
26975
27911
29174
30825
32911
35013
36932
38463
39462
39899
39520
38354
36612
34322
32006
29983
28484
27414
26810
26613
27003
27938
29255
31015
32823
35050
37111
38591
39580
39787
39431
38287
36583
34271
31931
29991
28495
27479
26887
26724
27151
28099
29309
30950
32900
35143
37052
38501
39346
39916
39607
38260
36435
34143
31782
29865
28405
27356
26718
26563
26962
27891
29139
30913
32845
34860
36738
38391
39527
39858
39351
38061
36216
33895
31695
29913
28535
27441
26836
26710
27109
28124
29446
31166
33144
35193
36968
38636
39687
40108
39695
38388
36542
34281
31960
30005
28554
27479
26897
26819
27212
28197
29526
31303
33332
35328
37241
38967
39940
40286
39682
38212
36575
34364
32134
30212
28715
27573
26885
26732
27153
28229
29566
31210
33105
35084
37059
38647
39715
40116
39581
38228
36434
34098
31727
29858
28405
27337
26743
26665
27128
28158
29471
31092
33015
35133
37210
38690
39627
39751
39399
38137
36367
34079
31815
29856
28311
27274
26680
26614
27100
28071
29384
31069
33063
35120
37005
38500
39590
40014
39447
38044
36207
33894
31607
29717
28275
27202
26583
26452
26934
28000
29427
31100
32950
35039
37070
38735
39684
39888
39287
37767
36004
33764
31591
29815
28294
27183
26538
26406
26844
27652
28822
30418
32214
33999
35525
36967
37751
37935
37119
35591
33534
31204
29017
27290
25898
24972
24572
24759
25585
26980
28943
31125
33540
36148
38983
41575
43654
45316
46164
46343
45905
44799
43596
42668
42333
42223
42527
43479
45107
46948
48903
51060
53248
55345
57282
58612
59331
59221
58004
55931
53484
50405
47088
43816
40578
37676
35476
33786
32565
31975
32126
33177
34860
36495
37951
39066
39941
40127
39261
37774
35678
33441
31203
29422
27777
26513
25718
25460
25689
26389
27488
29033
30965
32881
34476
35916
36803
37047
36262
34724
32759
30432
28260
26406
24967
23975
23415
23327
23820
24774
26055
27695
29733
31937
33780
35182
36232
36599
35964
34612
32697
30266
28068
26303
24961
24020
23476
23423
23963
24966
26340
28042
30013
32083
34070
35727
36528
36630
36207
34931
32993
30599
28444
26673
25319
24387
23863
23801
24319
25290
26664
28486
30455
32500
34504
36187
37014
37231
36405
35183
33344
31140
28932
27100
25711
24736
24268
24201
24712
25696
27077
28801
30761
32959
35021
36460
37183
37596
37013
35514
33586
31311
29267
27407
26017
25083
24599
24538
25104
26131
27501
29352
31296
33432
35415
37039
37889
38012
37383
36076
34228
31860
29644
27848
26423
25444
24957
24919
25471
26486
27943
29670
31635
33831
35835
37367
38184
38239
37655
36371
34376
31991
29769
28013
26694
25779
25262
25216
25778
26799
28231
30055
32014
34030
36022
37668
38524
38695
37947
36417
34615
32285
30207
28430
27011
26026
25541
25532
26175
27197
28564
30303
32461
34650
36460
37839
38759
39078
38393
36948
35007
32575
30454
28685
27406
26492
25978
25943
26533
27582
29079
30926
32932
34944
36992
38511
39363
39519
38710
37333
35447
33261
31043
29196
27841
26870
26421
26448
27023
28031
29431
31232
33412
35414
37094
38751
39725
39801
39040
37624
35711
33430
31344
29540
28092
27103
26598
26580
27247
28313
29655
31322
33311
35447
37421
38788
39579
39631
38658
37307
35391
33020
30813
29029
27676
26646
26084
26045
26614
27646
29147
30853
32794
34778
36678
38111
38970
39204
38362
36856
34867
32503
30259
28477
27119
26141
25626
25623
26228
27260
28664
30487
32629
34742
36556
37959
38748
38887
37995
36412
34564
32230
30061
28343
27025
26092
25628
25627
26252
27297
28726
30482
32527
34683
36575
38100
38915
39012
38193
36775
34738
32393
30285
28582
27234
26251
25768
25794
26440
27474
28907
30749
32901
34993
36804
38194
38822
39154
38359
36950
34932
32544
30351
28583
27274
26350
25905
25956
26695
27779
29228
30970
33005
35043
36980
38532
39280
39350
38474
37002
34945
32620
30487
28750
27414
26469
26054
26140
26847
27958
29418
31140
33111
35276
37134
38567
39407
39548
38677
37205
35167
32826
30669
28894
27568
26631
26181
26228
26918
28094
29604
31332
33285
35486
37439
38911
39594
39623
38730
37186
35007
32775
30655
28932
27706
26848
26431
26463
27159
28198
29670
31476
33576
35782
37669
39031
39719
39739
38684
37353
35335
33049
30974
29231
27856
26961
26526
26628
27395
28407
29826
31660
33867
35902
37647
39006
39732
39718
38871
37399
35335
33008
30965
29202
27865
26955
26541
26612
27312
28462
30024
31798
33781
35790
37690
39164
39805
39831
38863
37236
35297
32969
30815
29132
27939
27052
26594
26654
27366
28467
29998
31885
33914
35975
37673
38884
39814
39943
38868
37321
35180
32932
30829
29185
27897
26935
26530
26639
27358
28519
30087
31862
33946
35956
37697
39237
39881
39859
38845
37183
35238
32961
30875
29211
27898
26967
26556
26656
27519
28594
29967
31815
34068
36085
37792
38951
39934
39932
38899
37305
35220
32890
30855
29156
27773
26898
26523
26726
27452
28486
30007
31950
33995
35892
37810
39262
39842
39708
38749
37401
35229
32871
30726
29016
27740
26863
26535
26687
27421
28553
30035
31878
34103
36186
37874
39175
39855
39782
38737
37133
35172
32879
30870
29154
27828
26935
26549
26655
27451
28669
30154
31898
34109
36179
37852
39011
39759
39815
38886
37398
35292
32879
30750
29027
27771
26886
26574
26765
27548
28620
30094
31919
34198
36193
37894
39157
39911
39966
38853
37300
35129
32719
30631
28956
27717
26903
26557
26729
27529
28584
30119
32036
34197
36136
37742
39263
40039
39775
38716
37191
35143
32833
30686
28953
27710
26910
26588
26748
27474
28614
30167
32109
34063
36166
38017
39247
39815
39774
38851
37308
35148
32756
30554
28932
27673
26873
26554
26673
27423
28549
30108
32116
34172
36130
37879
39303
39881
39783
38660
37105
34967
32716
30676
28999
27727
26845
26490
26647
27497
28705
30199
31980
34140
36343
38013
39237
39782
39805
38824
37263
35124
32764
30648
28918
27689
26902
26613
26722
27517
28648
30199
32052
34225
36382
38044
39235
39865
39866
38839
37251
35046
32549
30545
28992
27750
26855
26501
26691
27563
28767
30279
31978
34177
36321
38130
39319
39882
39753
38718
37240
35123
32774
30673
28947
27644
26805
26436
26631
27532
28767
30266
32020
34129
36302
38164
39337
39924
39687
38647
37083
34950
32544
30440
28703
27453
26698
26428
26557
27382
28535
30225
32159
34239
36317
37944
39286
40062
39994
38823
37207
34969
32533
30534
28918
27754
26990
26694
26958
27831
29013
30526
32353
34549
36713
38389
39569
40056
39764
38933
37417
35252
32901
30769
29108
27868
27111
26887
27074
27857
29018
30680
32532
34462
36686
38493
39640
40097
39847
38855
37287
35070
32683
30590
28907
27655
26866
26560
26899
27708
28824
30396
32292
34556
36492
38112
39364
39980
39903
38700
36971
34773
32455
30450
28907
27716
26871
26561
26773
27593
28781
30432
32367
34479
36485
38140
39165
39700
39687
38604
36935
34803
32486
30454
28827
27551
26732
26405
26687
27614
28871
30395
32198
34442
36582
38196
39391
39862
39453
38439
36900
34681
32457
30420
28807
27543
26750
26462
26695
27567
28831
30484
32298
34407
36532
38275
39362
39725
39298
38081
36204
33836
31269
29034
27186
25751
24790
24401
24529
25258
26372
27982
29841
31908
33924
35881
37435
38336
38441
37751
36571
34770
32956
31670
30999
31140
31861
33066
34584
36759
39168
41820
44484
47239
49982
52606
54853
56609
57471
57342
56431
54774
52692
50831
49125
47735
46552
45671
45277
45295
45575
45831
46382
46871
47271
47327
46823
45550
43886
41911
39701
37062
34348
31902
29825
28201
27106
26604
26727
27572
28687
30145
31966
33971
35898
37255
38172
38407
37831
36306
34567
32145
29638
27499
25883
24661
23823
23511
23729
24490
25623
27166
29148
31237
33132
34748
35990
36549
36261
34990
33303
31056
28679
26743
25239
24127
23433
23213
23524
24438
25694
27325
29223
31342
33268
34932
36191
36788
36493
35223
33454
31144
28855
26948
25518
24387
23703
23510
23867
24765
26036
27687
29635
31732
33679
35434
36663
37223
36861
35609
33844
31519
29284
27343
25895
24822
24110
23911
24270
25164
26372
27984
30052
32220
34223
35741
36991
37472
37292
36034
34272
31993
29644
27676
26194
25089
24445
24278
24654
25526
26755
28370
30327
32554
34659
36322
37439
37806
37495
36207
34406
32212
29971
28048
26542
25511
24880
24703
25028
25916
27176
28842
30757
32904
35002
36742
37918
38327
37887
36629
34814
32497
30288
28348
26871
25783
25159
25004
25418
26376
27642
29273
31196
33300
35428
37107
38293
38802
38372
37087
35348
33019
30703
28807
27298
26231
25559
25397
25796
26843
28106
29698
31625
33837
35950
37575
38615
38963
38589
37322
35702
33438
31125
29132
27619
26534
25887
25782
26204
27193
28509
30194
32180
34278
36124
37865
39059
39559
39106
37785
35958
33660
31476
29559
28103
27066
26463
26287
26685
27642
28903
30588
32603
34887
36917
38553
39584
39847
39404
38050
36150
33968
31726
29845
28326
27244
26599
26516
26938
27917
29156
30815
32815
35065
36965
38468
39372
39871
39529
38175
36321
34005
31742
29805
28273
27111
26447
26259
26631
27577
28841
30572
32554
34618
36532
38052
38996
39289
38815
37461
35632
33248
30924
29007
27534
26430
25786
25639
26071
27037
28339
30012
31956
34078
35876
37455
38457
38908
38398
37127
35335
32975
30726
28845
27381
26317
25670
25513
25935
26895
28191
29870
31925
34151
36053
37604
38407
38772
38396
37159
35356
33030
30751
28831
27311
26270
25650
25538
26061
27062
28412
30027
32031
34237
36284
37844
38796
39015
38327
37178
35373
33137
30895
28980
27504
26462
25882
25847
26349
27325
28594
30276
32330
34556
36467
37994
38933
39191
38471
37244
35502
33235
31054
29204
27732
26640
26059
25955
26533
27567
28908
30516
32519
34743
36679
38302
39325
39674
39063
37702
35868
33522
31279
29439
28006
26967
26390
26291
26777
27729
29054
30759
32828
35047
36916
38455
39375
39719
39175
37943
36102
33703
31416
29546
28096
27060
26587
26492
26982
28004
29354
31066
33092
35375
37324
38753
39671
39924
39262
37811
35888
33613
31418
29583
28152
27152
26583
26501
27025
28043
29380
31137
33269
35392
37253
38725
39647
39751
39295
38003
36151
33769
31476
29659
28239
27220
26662
26596
27139
28165
29471
31087
33128
35335
37361
38889
39728
39959
39236
37829
35878
33683
31465
29719
28335
27258
26688
26631
27143
28178
29616
31452
33492
35566
37428
38772
39879
40210
39554
38142
36183
33799
31525
29757
28290
27294
26816
26820
27376
28420
29766
31417
33500
35729
37666
39084
39884
39883
39422
38127
36199
33829
31564
29711
28338
27327
26855
26845
27409
28420
29799
31519
33502
35727
37716
39079
39988
40127
39278
38049
36199
33892
31703
29845
28415
27383
26836
26796
27383
28423
29823
31624
33737
35772
37572
38900
40026
40295
39468
37957
35960
33738
31601
29823
28382
27333
26807
26791
27423
28484
29856
31495
33604
35767
37702
39095
39889
40121
39481
38110
36123
33780
31511
29703
28343
27363
26875
26883
27495
28493
29847
31592
33649
35791
37771
39245
40069
40228
39403
38006
36045
33750
31486
29658
28309
27324
26843
26881
27551
28589
29991
31690
33717
35834
37702
39298
40052
40158
39316
37740
35899
33626
31500
29728
28347
27279
26767
26826
27544
28606
29916
31684
33873
35918
37698
39165
40117
40166
39277
37698
35884
33606
31458
29691
28266
27269
26748
26780
27502
28549
29885
31671
33853
35935
37711
39062
40071
40257
39365
37823
35873
33583
31426
29601
28137
27152
26677
26767
27353
28377
29830
31575
33771
35863
37639
38997
39784
40076
39268
37724
35577
33366
31254
29496
28087
27073
26588
26642
27321
28458
29904
31665
33602
35576
37457
39047
39900
39978
39079
37598
35479
33284
31111
29388
28090
27143
26662
26649
27309
28357
29792
31548
33602
35816
37649
39023
39706
39715
39022
37671
35684
33369
31191
29402
28016
27055
26582
26599
27255
28392
29902
31626
33548
35662
37511
39013
39838
39893
39012
37545
35493
33124
30933
29189
27826
26899
26491
26572
27348
28436
29813
31612
33695
35797
37654
39063
39753
39823
39042
37508
35408
33006
30804
29086
27764
26880
26519
26599
27233
28276
29719
31505
33726
35737
37301
38796
39671
39647
38722
37255
35210
32849
30683
28970
27679
26814
26403
26495
27268
28423
29924
31743
33855
35936
37679
39050
39751
39900
39045
37591
35559
33252
31088
29350
28069
27180
26765
26828
27540
28642
30125
31908
33918
36102
37954
39431
40149
40188
39257
37727
35645
33271
31151
29401
28034
27110
26686
26743
27439
28551
30125
31908
33889
35892
37541
39043
39838
39860
38853
37265
35066
32871
30806
29144
27807
26862
26479
26556
27303
28478
29954
31703
33668
35811
37676
39029
39648
39648
38735
37266
35159
32728
30623
28948
27687
26847
26469
26593
27350
28428
29874
31653
33774
35873
37757
39023
39431
39687
38677
37142
35004
32682
30584
28967
27694
26751
26341
26439
27190
28399
29929
31720
33675
35785
37626
39063
39674
39543
38540
36903
34900
32565
30516
28886
27665
26774
26401
26520
27247
28300
29733
31526
33535
35563
37079
38127
38542
38071
36961
35291
33093
30759
28670
26924
25626
24830
24522
24718
25543
26771
28452
30534
33076
35699
37933
39687
40820
41391
41234
40655
40023
38948
37956
37287
37143
37315
37767
38577
40060
41862
44089
46460
49249
51852
54092
55743
56583
56583
55367
53511
51115
48590
46183
43905
41636
39910
38406
37031
36151
35644
35710
36215
37364
38848
40116
40940
41077
40550
39350
37660
35330
32904
30708
28892
27480
26574
26215
26318
26951
27885
29226
30859
32850
34660
36148
37115
37717
37565
36423
34687
32382
29929
27787
26116
24882
24068
23678
23784
24522
25566
27027
28929
31013
32944
34671
35999
36747
36559
35326
33777
31681
29423
27432
25832
24641
23844
23495
23680
24487
25618
27092
28913
31125
33279
35036
36249
36695
36715
35730
34230
32078
29740
27684
26102
24944
24184
23895
24116
24951
26049
27546
29345
31470
33713
35471
36673
37101
37039
36036
34533
32420
30199
28131
26495
25337
24599
24324
24546
25364
26490
28001
29863
32028
34231
35964
37064
37614
37551
36597
35020
32832
30502
28465
26900
25746
24970
24731
24961
25769
26930
28492
30340
32475
34567
36460
37649
38148
37979
36975
35473
33245
30865
28892
27326
26192
25463
25200
25438
26262
27414
28959
30839
33111
35169
36799
37959
38383
38407
37316
35788
33660
31346
29301
27705
26545
25793
25513
25746
26593
27805
29324
31180
33321
35508
37279
38460
38964
38596
37571
36087
33979
31781
29746
28108
26916
26159
25945
26178
27007
28195
29789
31840
33964
35887
37469
38799
39455
39295
38137
36519
34365
31999
30017
28440
27313
26628
26345
26590
27440
28644
30311
32241
34346
36262
38052
39413
39876
39623
38289
36826
34707
32453
30511
28911
27690
26899
26652
26936
27831
29130
30712
32487
34598
36634
38447
39591
40060
39751
38500
37015
34940
32709
30584
28986
27801
27023
26771
27087
27945
29067
30617
32643
34687
36524
38174
39385
39905
39564
38342
36610
34351
32025
30022
28377
27195
26394
26063
26266
27022
28156
29792
31564
33584
35575
37223
38484
38870
38532
37271
35482
33322
31040
29071
27508
26342
25635
25366
25623
26445
27620
29196
31166
33328
35329
36956
38029
38470
38159
37063
35476
33316
30988
28964
27412
26295
25575
25359
25671
26532
27774
29417
31337
33446
35370
36958
38204
38764
38471
37243
35580
33287
30964
29020
27525
26435
25781
25542
25874
26751
28004
29614
31489
33598
35634
37442
38495
38759
38631
37543
35883
33585
31175
29223
27769
26712
25961
25722
26054
26930
28150
29856
31788
33855
35730
37501
38787
39246
38836
37422
35836
33615
31309
29421
27998
26872
26144
25915
26244
27130
28344
30035
32026
34167
36099
37541
38735
39320
39085
37873
36180
33941
31608
29614
28054
26957
26310
26114
26457
27398
28649
30347
32230
34247
36241
37931
39183
39607
39225
37957
36176
33927
31607
29659
28189
27119
26455
26225
26561
27463
28700
30349
32375
34609
36529
38050
38981
39541
39198
38028
36355
34044
31781
29873
28300
27195
26503
26312
26702
27655
28848
30424
32357
34604
36576
38060
38988
39548
39205
37999
36269
34012
31703
29751
28244
27140
26460
26260
26642
27554
28804
30411
32327
34459
36511
38183
39183
39508
38946
37816
36220
33995
31692
29697
28179
27119
26490
26348
26723
27631
28863
30484
32475
34748
36629
37989
39213
39653
39319
38055
36303
33990
31633
29712
28222
27167
26565
26407
26821
27775
28988
30613
32565
34735
36814
38393
39452
39767
39282
37956
36077
33893
31635
29732
28260
27215
26596
26444
26838
27799
29038
30670
32715
34894
36732
38150
39323
39703
39254
37972
36255
34055
31821
29871
28343
27272
26622
26475
26906
27921
29245
30896
32828
34887
36869
38470
39588
39959
39475
38151
36296
34009
31734
29869
28373
27313
26745
26616
27025
27970
29221
30868
32829
35067
37115
38623
39615
39885
39253
38127
36353
34104
31892
30003
28494
27404
26772
26631
27063
28084
29402
30991
32937
35204
37150
38633
39420
39815
39350
38076
36255
33967
31743
29887
28465
27382
26771
26615
27023
28005
29303
30970
32939
35226
37103
38543
39335
39751
39289
38009
36295
33997
31692
29777
28317
27268
26671
26516
26991
28031
29339
30979
32922
35068
37056
38678
39599
39903
39295
37854
36004
33775
31549
29748
28358
27285
26675
26541
27004
28020
29359
31031
32917
35024
37095
38653
39583
39836
39056
37840
36063
33770
31548
29780
28332
27249
26645
26559
27021
28017
29370
31091
33133
35263
37159
38691
39609
39831
39143
37808
36065
33770
31628
29757
28289
27277
26685
26580
27064
28045
29361
31124
33156
35170
36999
38346
39213
39619
39055
37743
35916
33654
31423
29594
28146
27087
26522
26445
26910
27864
29197
30941
32908
34937
36693
38264
39311
39724
39111
37740
35890
33519
31357
29592
28313
27370
26823
26738
27221
28183
29582
31340
33317
35402
37219
38740
39661
39788
39303
38095
36242
33937
31698
29779
28359
27375
26876
26828
27359
28346
29671
31340
33313
35495
37511
38997
39830
39999
39329
37964
36047
33733
31582
29828
28407
27362
26793
26695
27207
28183
29568
31354
33316
35350
37086
38532
39441
39790
39207
37871
35969
33647
31429
29543
28125
27143
26629
26563
27141
28178
29478
31149
33170
35424
37260
38647
39340
39687
39119
37781
35904
33576
31290
29421
27996
27045
26532
26461
27039
28024
29367
31209
33259
35321
37114
38527
39481
39815
39076
37639
35695
33343
31183
29390
28087
27122
26586
26532
27053
28055
29465
31293
33374
35436
37169
38479
39478
39759
39108
37700
35775
33423
31158
29329
27972
27054
26485
26350
26802
27700
28865
30485
32301
34108
35676
36966
37791
37797
36885
35332
33411
31113
29143
27436
26182
25384
25099
25343
26263
27687
29631
31911
34416
36977
39687
42185
44181
45537
46007
45633
44852
43764
42663
41692
40999
40703
41044
42127
43629
45309
47023
48879
50663
52868
54624
55797
56229
55975
54782
52986
50373
47156
43917
40697
37701
35036
33021
31543
30960
31171
31951
33189
34728
36447
38084
39303
40003
39906
38951
37429
35402
33044
30862
29091
27731
26714
26026
25795
26199
27029
28219
29751
31707
33730
35401
36665
37273
37187
36350
34899
33006
30703
28457
26654
25310
24380
23891
23863
24449
25478
26853
28527
30541
32641
34466
35907
36765
36987
36178
34755
32729
30348
28218
26527
25252
24334
23865
23896
24555
25572
26957
28732
30745
32847
34632
36103
36916
37111
36359
34918
32878
30513
28397
26767
25507
24611
24172
24204
24877
25919
27289
29094
31180
33223
34981
36468
37404
37535
36695
35213
33181
30831
28731
27069
25821
24943
24503
24553
25239
26290
27686
29407
31556
33736
35504
36793
37511
37751
36999
35589
33596
31216
29055
27364
26124
25263
24831
24894
25559
26609
28103
29838
31825
33994
35975
37308
37889
38109
37332
35937
33911
31526
29385
27729
26530
25668
25239
25295
25985
27005
28439
30200
32320
34545
36260
37565
38447
38575
37588
35999
34068
31807
29762
28013
26730
25875
25481
25567
26292
27345
28807
30572
32582
34684
36527
37945
38774
38887
37937
36471
34381
32034
29943
28287
27075
26196
25799
25874
26607
27692
29127
30834
32892
35095
36985
38287
38911
38859
38116
36677
34733
32439
30265
28542
27325
26522
26127
26217
26933
27997
29460
31349
33445
35433
37172
38633
39439
39420
38423
36844
34914
32639
30655
28927
27642
26786
26431
26535
27230
28286
29725
31491
33665
35844
37530
38836
39318
39455
38575
37223
35212
32878
30696
28972
27706
26865
26484
26548
27241
28287
29718
31494
33668
35697
37429
38647
39415
39363
38327
36697
34529
32194
30084
28399
27148
26286
25869
25913
26604
27631
29055
30855
33058
35074
36708
37863
38629
38606
37741
36254
34100
31732
29591
27933
26698
25863
25501
25602
26303
27352
28796
30607
32775
34799
36449
37840
38641
38589
37488
35880
33870
31649
29646
27928
26681
25858
25508
25655
26406
27523
28996
30786
33018
35102
36770
38023
38740
38779
37842
36324
34172
31769
29714
28103
26938
26119
25741
25863
26647
27762
29364
31182
33220
35158
36885
38246
38933
38892
38052
36545
34401
32031
29945
28320
27121
26311
25963
26111
26852
27948
29435
31233
33302
35332
37190
38604
39231
39069
37926
36503
34495
32221
30093
28379
27200
26401
26098
26265
27060
28167
29680
31446
33544
35674
37572
38822
39391
39085
38055
36675
34638
32413
30323
28646
27396
26585
26246
26440
27239
28369
29839
31653
33886
35990
37655
38735
39521
39543
38564
37015
34884
32565
30447
28791
27582
26791
26497
26674
27450
28551
30034
31868
34133
36212
37872
39076
39542
39575
38588
37099
34995
32652
30548
28903
27710
26942
26645
26819
27577
28711
30223
32024
34129
36174
37929
39231
39849
39764
38719
37121
35010
32698
30660
28991
27748
26926
26573
26774
27556
28693
30197
32161
34343
36318
37917
38988
39646
39589
38583
37114
34932
32644
30512
28856
27655
26893
26619
26856
27681
28838
30324
32148
34342
36473
38135
39284
39684
39532
38599
37049
34951
32729
30645
28972
27787
26999
26713
26955
27766
28894
30424
32246
34520
36496
37948
39323
40013
39811
38654
37018
34788
32513
30558
28988
27774
26984
26693
26931
27781
28980
30508
32286
34412
36615
38245
39363
39836
39815
38753
37119
34900
32518
30503
28999
27788
26983
26683
26932
27750
28888
30434
32260
34452
36564
38151
39169
39746
39642
38658
37050
34878
32527
30487
28858
27643
26895
26655
26922
27753
28933
30494
32300
34394
36518
38243
39397
39887
39516
38533
36959
34819
32591
30564
28895
27697
26922
26630
26929
27815
29015
30560
32361
34476
36629
38349
39523
39927
39527
38445
36917
34718
32471
30526
28967
27790
27020
26768
27071
27911
29067
30701
32657
34820
36830
38439
39575
40036
39623
38628
37047
34883
32615
30613
28991
27793
27030
26771
27046
27880
29037
30642
32630
34778
36760
38367
39470
39961
39687
38440
36850
34685
32393
30415
28843
27703
26975
26749
27036
27942
29191
30807
32684
34759
36639
38368
39586
40164
39852
38636
36991
34752
32427
30409
28836
27700
26998
26756
27081
27980
29199
30805
32680
34684
36715
38516
39711
40175
39824
38636
36935
34738
32391
30375
28831
27721
27047
26821
27121
27976
29191
30786
32676
34876
36884
38470
39564
39906
39705
38625
37031
34799
32479
30398
28821
27686
26989
26783
27159
28042
29229
30772
32660
34923
36929
38471
39394
40047
39829
38591
36881
34535
32284
30372
28910
27739
26991
26750
27076
27985
29161
30716
32645
34941
36839
38222
39494
40008
39682
38455
36741
34428
32083
30124
28651
27460
26719
26500
26831
27727
29014
30679
32621
34699
36652
38376
39610
40023
39659
38444
36672
34505
32261
30359
28831
27655
26936
26729
27084
28046
29342
30971
32895
34901
36951
38711
39762
40133
39727
38343
36771
34583
32447
30480
28910
27799
27115
26966
27288
28182
29404
31037
33063
35236
37082
38490
39679
40175
39908
38603
36776
34474
32290
30319
28716
27596
26917
26730
27081
27984
29191
30820
32889
35021
36951
38470
39468
40037
39735
38390
36591
34253
32007
30064
28620
27551
26879
26668
27041
28035
29246
30831
32797
35022
36860
38311
39492
39930
39606
38322
36542
34263
31961
30026
28606
27530
26839
26625
26980
27894
29207
30934
32802
34790
36774
38508
39559
39855
39465
38311
36543
34223
31884
29987
28559
27434
26772
26597
27031
27975
29175
30804
32853
35069
36965
38324
39489
39983
39431
37960
35971
33589
31118
29073
27316
25999
25140
24767
24992
25789
26919
28436
30308
32566
34530
35964
37150
37828
37740
36817
35456
33739
32100
30704
29780
29500
30032
31301
33199
35481
38178
40895
43686
46791
49680
52164
54164
55615
56349
56383
55638
54252
52529
50907
49593
48335
47348
46796
46620
47058
47534
48220
49050
49823
50111
49991
49284
48063
45969
43302
40282
37292
34543
32199
30142
28543
27501
27045
27207
27924
29071
30657
32687
34535
36308
37799
38676
38751
37861
36501
34602
32106
29591
27486
25932
24803
24031
23775
24068
24890
26103
27727
29594
31636
33533
35276
36225
36458
35839
34597
32849
30626
28426
26534
25111
24079
23462
23321
23765
24719
25972
27604
29584
31680
33562
35172
36325
36687
36092
34716
32979
30686
28511
26720
25305
24279
23703
23572
24038
25017
26290
27935
29860
32062
34195
35743
36682
36996
36459
35085
33364
31073
28907
27140
25733
24727
24137
24031
24493
25489
26759
28350
30398
32629
34518
35997
37053
37550
36986
35615
33708
31437
29255
27524
26129
25119
24559
24467
24939
25924
27229
28878
30900
33127
35007
36407
37471
37943
37372
36015
34106
31845
29767
27893
26490
25495
24947
24845
25335
26322
27607
29263
31347
33572
35427
36843
37881
38230
37791
36477
34689
32351
30038
28207
26838
25829
25228
25144
25650
26656
27949
29601
31621
33868
35833
37300
38074
38402
37948
36633
34862
32575
30417
28598
27164
26169
25607
25533
26036
27037
28326
29985
32029
34321
36211
37654
38535
38974
38420
37071
35180
32887
30642
28764
27389
26435
25899
25813
26326
27345
28715
30431
32372
34492
36420
38093
39054
39287
38590
37181
35431
33223
31084
29221
27814
26820
26275
26226
26775
27788
29121
30810
32857
35148
36944
38214
39285
39711
39062
37631
35777
33502
31426
29510
28050
27044
26566
26471
27002
27989
29378
31124
33089
35134
37068
38695
39559
39743
38901
37605
35768
33596
31405
29489
28037
27028
26477
26403
26911
27892
29190
30926
32948
34914
36758
38081
39028
39381
38735
37244
35285
32886
30664
28837
27481
26478
25926
25836
26339
27297
28661
30407
32284
34407
36482
37895
38711
38790
38158
36857
35020
32678
30396
28535
27167
26143
25604
25572
26136
27137
28469
30170
32263
34461
36162
37760
38700
39014
38303
36868
34807
32551
30356
28623
27236
26219
25715
25683
26271
27275
28639
30332
32365
34661
36537
37948
38651
39004
38371
37023
35053
32610
30428
28652
27342
26351
25806
25791
26374
27458
28795
30502
32569
34823
36598
38054
39100
39255
38486
37059
35090
32788
30705
28905
27503
26554
26105
26058
26616
27617
29029
30864
32890
34983
36797
38376
39333
39451
38472
37199
35265
32947
30813
29125
27778
26783
26250
26242
26835
27886
29346
31143
33116
35121
37124
38692
39609
39717
38868
37447
35521
33349
31105
29271
27907
26941
26466
26470
27126
28176
29621
31350
33287
35431
37439
38864
39591
39713
39013
37666
35751
33399
31164
29343
27991
27087
26582
26558
27183
28202
29589
31340
33535
35636
37284
38791
39447
39767
39019
37652
35753
33419
31159
29329
27968
27031
26601
26582
27186
28209
29616
31498
33516
35449
37382
38968
39719
39867
38999
37465
35583
33422
31222
29396
28059
27103
26607
26627
27258
28321
29711
31415
33478
35719
37628
38978
39713
39739
39066
37678
35748
33484
31225
29364
27998
27076
26650
26679
27321
28343
29723
31467
33676
35719
37473
38736
39570
39801
39053
37695
35685
33285
31038
29258
27959
27079
26631
26631
27262
28292
29733
31602
33740
35725
37419
38996
39924
40004
39102
37582
35503
33209
31053
29268
27965
27077
26656
26684
27346
28383
29788
31597
33768
35789
37540
38829
39744
39924
39171
37668
35673
33349
31168
29383
28043
27061
26625
26647
27325
28447
29921
31649
33644
35751
37748
39150
39881
39858
38818
37531
35620
33349
31159
29359
28015
27100
26671
26735
27461
28554
29975
31679
33756
36038
37836
39170
39839
39839
39082
37685
35714
33280
31060
29318
28092
27189
26695
26764
27457
28519
29985
31887
33949
35936
37700
39234
40084
40071
39111
37542
35584
33417
31156
29362
28103
27211
26780
26841
27556
28692
30073
31822
34000
36137
37740
39226
40116
40126
39124
37593
35607
33340
31255
29465
28104
27221
26805
26894
27632
28757
30174
31914
33990
36196
38036
39309
39855
40071
39212
37800
35784
33431
31275
29497
28167
27281
26862
26933
27655
28735
30212
32045
34198
36276
38085
39431
39983
40198
39324
37914
35844
33564
31402
29684
28386
27496
27087
27177
27929
29087
30588
32406
34396
36454
38315
39799
40516
40490
39519
37842
35905
33623
31592
29846
28546
27660
27247
27343
28148
29308
30784
32512
34628
36735
38652
39975
40612
40390
39649
38207
36262
33937
31791
30031
28733
27859
27431
27499
28247
29438
30954
32752
34748
36858
38743
40044
40708
40688
39655
38000
36087
33724
31644
29906
28678
27864
27483
27603
28355
29412
30846
32600
34641
36783
38608
39958
40687
40659
39687
38108
36024
33736
31653
29919
28577
27652
27259
27373
28130
29319
30797
32535
34612
36757
38641
39937
40557
40342
39502
38091
36174
33896
31786
30050
28721
27823
27447
27588
28348
29532
31135
32956
34934
37044
38849
40273
40901
40798
39677
38023
36030
33715
31696
30059
28819
27989
27615
27778
28555
29700
31337
33253
35269
37198
38863
40226
40946
40824
39759
38169
36023
33640
31564
29950
28580
27687
27319
27471
28270
29455
30999
32759
34740
36766
38559
39967
40613
40487
39436
37815
35692
33367
31240
29563
28299
27454
27135
27323
28103
29191
30684
32503
34643
36788
38567
39778
40327
40147
38998
37426
35386
33101
31004
29361
28183
27368
27013
27151
27935
29046
30597
32494
34714
36696
38362
39543
40119
39815
38898
37365
35222
32923
30869
29223
28026
27202
26869
27087
27841
28942
30484
32344
34548
36684
38279
39334
39869
39744
38759
37238
35012
32503
30201
28384
26981
25967
25423
25349
25923
26873
28255
30092
32132
34020
35623
36907
37599
37455
36415
35015
33217
31356
29758
28607
27878
27699
28069
29181
31204
33895
36903
39880
42988
45872
48516
50501
52044
52815
52798
52437
51380
50097
48802
47727
46887
46279
45740
45772
46302
46873
48020
49359
50691
51719
52186
51959
50823
49027
46364
43148
39592
36106
33098
30645
28803
27513
26791
26630
27103
27963
29303
31014
33003
34934
36586
37725
38171
37749
36396
34566
32178
29694
27521
25838
24556
23646
23223
23344
24094
25136
26584
28325
30356
32367
34127
35349
35787
35437
34183
32553
30346
28100
26215
24725
23570
22811
22562
22839
23692
24834
26363
28149
30271
32451
34173
35356
35826
35429
34263
32671
30500
28255
26388
24929
23812
23045
22824
23191
24097
25253
26791
28644
30767
32812
34489
35696
36295
36087
34965
33341
31110
28786
26851
25349
24229
23527
23281
23591
24507
25688
27230
29063
31208
33417
35070
36087
36613
36358
35261
33718
31484
29149
27228
25771
24695
24002
23766
24070
24956
26150
27724
29588
31858
33969
35571
36580
37137
36903
35705
34055
31880
29641
27735
26234
25132
24445
24248
24611
25492
26705
28327
30223
32322
34361
36213
37331
37732
37324
36231
34566
32425
30183
28253
26778
25666
24991
24785
25132
26023
27213
28833
30860
33052
35002
36496
37623
38166
37893
36697
35030
32834
30557
28695
27233
26119
25457
25253
25602
26500
27732
29394
31356
33516
35451
36929
38073
38599
38321
37215
35568
33343
31073
29113
27578
26492
25827
25651
26004
26931
28167
29791
31678
33826
35844
37613
38767
39183
38830
37618
35871
33574
31354
29428
27962
26917
26292
26119
26508
27451
28747
30441
32420
34508
36372
37935
39078
39572
39198
37976
36269
34002
31729
29862
28399
27297
26623
26453
26834
27757
28991
30671
32741
34860
36768
38268
39285
39503
39085
37911
36221
33982
31721
29815
28267
27169
26486
26297
26671
27554
28782
30429
32364
34413
36253
37751
38642
39108
38748
37502
35661
33319
30943
28993
27508
26437
25791
25603
25969
26855
28070
29671
31631
33889
35868
37406
38401
38703
38214
36908
35151
32805
30557
28677
27239
26203
25590
25443
25858
26797
28073
29687
31595
33688
35684
37281
38374
38836
38354
37033
35207
32873
30628
28790
27387
26334
25693
25567
26004
26962
28202
29821
31888
34055
35943
37417
38527
39023
38519
37214
35461
33201
30861
28952
27516
26499
25876
25749
26187
27122
28408
30075
32030
34165
36135
37854
38871
39156
38647
37303
35432
33208
30944
29121
27703
26698
26108
25984
26428
27406
28705
30388
32508
34559
36356
37852
38894
39270
38799
37562
35775
33461
31196
29317
27902
26896
26317
26232
26719
27706
28966
30588
32539
34673
36743
38325
39261
39559
38999
37504
35751
33484
31256
29439
28039
27047
26485
26388
26849
27805
29101
30807
32758
34923
36969
38604
39571
39793
39207
37819
35873
33621
31417
29585
28243
27255
26665
26557
27009
27987
29314
30998
33113
35295
37169
38596
39380
39759
39221
38015
36203
33893
31699
29803
28355
27321
26759
26660
27133
28148
29523
31246
33209
35221
37182
38711
39520
39734
39095
37887
36073
33757
31571
29758
28407
27340
26753
26652
27174
28153
29485
31316
33295
35332
37183
38581
39567
39846
39303
37967
36140
33830
31540
29692
28311
27324
26775
26705
27233
28262
29612
31293
33231
35323
37090
38645
39642
39934
39359
37997
36103
33771
31517
29643
28207
27204
26655
26612
27185
28242
29600
31327
33318
35406
37284
38725
39636
39814
39006
37666
35914
33605
31397
29553
28188
27216
26702
26620
27181
28201
29556
31277
33335
35493
37423
38948
39812
39958
39248
37847
35895
33536
31371
29549
28199
27255
26751
26683
27239
28273
29654
31351
33333
35321
37201
38751
39620
39850
39247
37906
35983
33685
31465
29613
28188
27218
26706
26651
27241
28317
29748
31479
33422
35484
37220
38777
39714
39965
39260
37794
35892
33585
31336
29518
28177
27225
26723
26755
27377
28421
29829
31541
33525
35591
37305
38735
39683
39910
39237
37822
35863
33533
31281
29489
28133
27196
26749
26734
27358
28395
29812
31601
33616
35676
37396
38940
39767
39943
39265
37857
35878
33543
31313
29506
28163
27201
26725
26727
27383
28446
29885
31660
33700
35772
37553
38964
39759
39868
39043
37556
35655
33388
31239
29479
28144
27215
26764
26811
27477
28503
29881
31550
33562
35685
37587
39071
39854
39989
39135
37726
35620
33328
31187
29447
28124
27236
26818
26817
27457
28479
29895
31684
33838
35852
37579
38948
39842
39975
39098
37615
35580
33223
31060
29303
27991
27077
26612
26663
27348
28410
29837
31557
33595
35725
37504
38911
39597
39705
38969
37479
35527
33183
30991
29265
27966
27136
26732
26796
27506
28572
30029
31800
33870
35951
37720
38993
39719
39997
39200
37783
35750
33357
31254
29520
28248
27358
26911
26935
27602
28628
30113
32007
34092
36183
37992
39337
39991
39935
39110
37762
35783
33510
31341
29551
28166
27244
26834
26920
27607
28658
30063
31758
33788
35850
37759
39134
39829
39863
38940
37463
35436
33165
31028
29297
27972
27056
26649
26718
27415
28503
29972
31807
33940
35960
37644
38948
39602
39708
38865
37434
35424
33096
30924
29169
27860
26957
26535
26616
27324
28413
29940
31734
33806
35877
37595
38836
39495
39513
38648
37236
35179
32865
30749
29128
27871
26959
26522
26620
27335
28471
29991
31727
33711
35801
37606
39027
39774
39755
38749
37179
35046
32771
30679
29074
27765
26885
26503
26603
27319
28343
29742
31490
33585
35606
37139
38182
38507
38319
37166
35497
33280
30929
28876
27188
25904
25068
24765
24951
25767
26959
28630
30775
33233
35673
37815
39532
40910
41654
41381
40729
39654
38476
37356
36700
36396
36572
37191
38047
39431
41183
43142
45575
48036
50710
52982
54671
55465
55479
54407
52526
49988
47484
45184
43135
41285
39516
38016
36781
35981
35488
35493
36044
37287
38772
40112
41066
41331
40910
39487
37581
35335
32966
30820
29035
27598
26628
26203
26324
27046
28111
29479
31130
33068
35028
36654
37748
38151
37832
36645
35023
32829
30503
28336
26609
25320
24485
24094
24173
24892
25972
27483
29308
31380
33332
35050
36383
37041
37033
36033
34463
32293
29951
27930
26315
25117
24334
24002
24191
24974
26076
27548
29359
31484
33709
35417
36659
37222
37113
36027
34492
32372
30062
28076
26581
25415
24655
24332
24516
25295
26417
27929
29746
31874
34052
35868
37119
37671
37495
36359
34870
32752
30452
28471
26928
25776
25014
24743
24954
25781
26901
28456
30308
32343
34403
36180
37549
38182
37973
36870
35325
33243
30950
28876
27247
26073
25320
25060
25313
26105
27226
28766
30607
32698
34753
36499
37817
38494
38356
37274
35673
33523
31184
29128
27541
26370
25618
25341
25549
26350
27505
29109
31080
33220
35292
36962
38151
38637
38483
37374
35847
33713
31429
29415
27831
26631
25888
25621
25875
26684
27871
29552
31461
33516
35433
37212
38563
39146
38903
37810
36175
33975
31660
29671
28091
26948
26255
25989
26239
27072
28236
29823
31764
34022
36012
37652
38781
39292
38951
37895
36350
34231
31912
30009
28492
27327
26588
26307
26594
27443
28641
30183
32060
34300
36317
37933
39151
39654
39422
38296
36711
34453
32222
30247
28676
27529
26796
26577
26887
27726
28964
30519
32540
34670
36593
38231
39399
39893
39567
38303
36700
34590
32300
30296
28807
27655
26911
26630
26913
27801
28971
30468
32407
34544
36458
38041
39102
39405
39175
38063
36460
34211
31876
29790
28123
26904
26130
25876
26148
26927
28113
29748
31575
33600
35559
37172
38228
38619
38324
37093
35425
33212
30916
28994
27518
26394
25636
25404
25716
26564
27751
29333
31270
33398
35420
37151
38293
38791
38434
37171
35429
33148
30919
28990
27533
26460
25752
25539
25889
26787
27989
29636
31684
33804
35710
37207
38378
38976
38784
37588
35897
33670
31394
29406
27851
26771
26100
25950
26331
27213
28412
30023
31980
34306
36226
37662
38849
39351
39090
37870
36198
33960
31662
29664
28143
27037
26365
26183
26545
27478
28807
30448
32293
34404
36387
38055
39240
39735
39358
38086
36376
34108
31826
29870
28339
27250
26583
26406
26797
27732
28982
30586
32498
34709
36796
38373
39444
39825
39391
38015
36413
34238
31958
30125
28613
27543
26863
26644
27009
27938
29181
30910
32923
35052
36960
38533
39588
39760
39559
38433
36783
34538
32212
30239
28716
27658
27100
26900
27246
28173
29446
31231
33158
35197
37134
38845
39930
40252
39742
38473
36911
34679
32365
30364
28820
27729
27078
26883
27295
28274
29553
31205
33160
35279
37271
38919
39897
40194
39734
38385
36485
34305
32079
30245
28773
27615
26922
26736
27098
28104
29434
31035
32877
35006
36978
38670
39636
39910
39303
38201
36526
34255
31980
30044
28527
27411
26743
26588
26998
27961
29237
30946
32996
35092
36975
38493
39431
39622
39313
38087
36340
34073
31779
29834
28324
27245
26627
26501
26917
27948
29344
31009
32920
34815
36860
38552
39532
39791
39199
37733
36066
33765
31557
29734
28289
27207
26586
26429
26858
27835
29108
30725
32692
34836
36892
38454
39329
39566
39043
37741
35908
33635
31356
29576
28140
27039
26436
26324
26738
27721
29003
30687
32694
34906
36860
38295
39212
39574
39124
37822
35925
33627
31351
29412
27973
26948
26369
26264
26717
27703
29111
30801
32847
34967
36809
38254
39044
39511
38951
37599
35772
33468
31191
29333
27950
26970
26406
26309
26804
27837
29180
30831
32707
34823
36785
38353
39340
39623
39047
37695
35813
33484
31174
29300
27879
26845
26334
26290
26774
27767
29087
30738
32749
34927
36900
38407
39322
39520
38725
37540
35655
33300
31119
29317
27903
26857
26293
26271
26821
27873
29252
30967
32958
35032
36840
38327
39082
39339
38844
37519
35655
33362
31204
29359
27891
26857
26315
26237
26779
27782
29149
30858
32866
35001
36990
38543
39431
39607
38863
37391
35527
33297
31087
29254
27852
26849
26284
26239
26812
27915
29323
30998
32895
35020
36999
38575
39529
39605
38877
37431
35427
33191
30976
29314
27934
26903
26340
26285
26855
27878
29270
31029
33178
35271
37115
38509
39338
39375
38778
37467
35591
33276
31055
29216
27808
26811
26267
26222
26809
27841
29213
31068
33078
35161
36927
38244
39239
39462
38796
37364
35421
33076
30882
29082
27748
26807
26383
26467
27161
28216
29556
31233
33229
35355
37346
38780
39578
39722
38945
37481
35457
33216
31067
29260
27907
26952
26479
26503
27132
28189
29565
31233
33322
35463
37447
38876
39629
39710
38834
37549
35689
33415
31204
29284
27898
26898
26391
26401
27081
28108
29469
31111
33167
35351
37238
38602
39375
39431
38757
37412
35452
33083
30852
29049
27679
26772
26315
26247
26836
27900
29438
31140
33110
35135
37103
38639
39447
39521
38622
37145
35023
32806
30661
28895
27527
26599
26166
26199
26870
27907
29285
30968
33028
35291
37091
38479
39077
39407
38695
37255
35204
32780
30593
28839
27541
26695
26241
26234
26906
27980
29396
31093
33165
35310
37159
38692
39487
39531
38626
37143
35122
32743
30637
28915
27554
26639
26244
26218
26780
27716
28999
30589
32453
34439
35985
37119
37599
37375
36447
34837
32740
30376
28249
26533
25251
24380
24037
24295
25258
26676
28613
30931
33512
36252
38727
40935
42705
44189
44794
44863
44207
43265
42412
41711
41251
41244
41700
42827
44700
46645
48764
51034
53415
55588
57540
58770
59264
59029
57671
55590
52866
49644
46542
43449
40581
38058
35889
34191
33143
32591
32794
33736
35111
36773
38370
39524
40014
39796
38708
37049
34918
32543
30437
28638
27143
26028
25393
25214
25652
26500
27718
29349
31356
33271
34900
36060
36601
36407
35427
33916
31764
29372
27254
25573
24361
23487
23079
23105
23774
24831
26255
28024
30081
32231
34159
35489
36148
36167
35228
33720
31602
29290
27244
25606
24362
23527
23170
23270
23996
25060
26511
28376
30504
32583
34335
35578
36279
36268
35333
33901
31815
29525
27464
25847
24647
23843
23495
23622
24366
25458
26945
28745
30799
32870
34677
36138
36828
36927
35926
34388
32252
29910
27862
26211
24958
24143
23766
23901
24645
25758
27295
29186
31314
33399
35120
36372
37081
37103
36116
34636
32578
30243
28189
26573
25343
24541
24237
24396
25139
26239
27828
29724
31835
33900
35557
36975
37724
37780
36772
35207
33014
30686
28628
27055
25890
25095
24727
24883
25639
26750
28266
30227
32367
34391
36066
37604
38307
38135
37045
35415
33354
31116
29114
27431
26212
25417
25111
25333
26112
27239
28759
30596
32788
34966
36775
38045
38610
38452
37306
35905
33747
31481
29508
27901
26662
25838
25503
25676
26489
27627
29198
31164
33257
35301
37031
38134
38947
38858
37895
36330
34214
31863
29854
28242
27037
26244
25892
26091
26887
28070
29660
31622
33769
35827
37511
38837
39389
39175
38269
36721
34662
32359
30286
28661
27510
26709
26388
26568
27377
28540
30104
32007
34031
36159
37767
39054
39774
39663
38574
36991
34793
32463
30440
28834
27627
26833
26532
26752
27557
28754
30385
32260
34287
36231
37794
39063
39729
39525
38511
36884
34659
32263
30220
28572
27316
26479
26116
26304
27095
28244
29819
31773
33871
35861
37511
38687
39040
39001
37964
36344
34121
31792
29750
28080
26833
26043
25770
26021
26835
28108
29703
31402
33545
35620
37440
38633
39118
38866
37767
36140
33933
31584
29561
27984
26805
26091
25835
26090
27015
28224
29758
31509
33699
35872
37583
38750
39223
38954
37781
36032
33932
31630
29642
28103
26991
26193
25893
26181
27031
28237
29832
31733
34013
36050
37671
38864
39361
39060
37777
36213
34027
31751
29789
28186
27033
26356
26135
26447
27288
28473
29999
31895
34161
36231
37868
39006
39311
39247
38188
36565
34332
31973
29916
28368
27211
26483
26300
26628
27457
28646
30247
32213
34447
36428
38097
39202
39495
39431
38308
36707
34460
32127
30120
28492
27330
26590
26403
26756
27580
28777
30340
32238
34430
36567
38172
39303
39580
39498
38426
36736
34488
32126
30125
28594
27421
26719
26543
26922
27815
29071
30625
32389
34535
36624
38315
39516
40015
39692
38551
36845
34589
32239
30253
28721
27606
26890
26645
26952
27836
29050
30727
32722
34822
36612
38447
39704
40132
39741
38450
36578
34460
32180
30313
28769
27548
26859
26639
26961
27885
29215
30894
32787
34854
36783
38417
39412
40002
39705
38551
36836
34579
32260
30294
28711
27559
26836
26631
27047
27976
29180
30693
32602
34838
36865
38623
39692
40039
39677
38351
36487
34295
32080
30119
28689
27617
26887
26667
27005
27892
29123
30822
32866
34965
36895
38317
39559
40143
39793
38509
36723
34447
32143
30188
28656
27533
26823
26690
27083
28022
29257
30865
32756
34898
36971
38708
39814
40199
39763
38477
36654
34351
32028
30122
28615
27502
26845
26727
27098
28069
29374
30963
32804
34871
37002
38731
39831
40160
39722
38368
36492
34374
32118
30237
28721
27561
26854
26686
27075
28007
29359
31079
32997
35034
36878
38623
39701
40167
39702
38297
36579
34290
31974
30124
28629
27477
26854
26743
27170
28067
29292
30940
32937
35204
37127
38663
39471
39935
39612
38397
36630
34356
32075
30119
28580
27454
26831
26652
27069
28141
29429
31051
32901
35120
37108
38684
39806
40205
39802
38436
36600
34303
32048
30138
28636
27471
26812
26655
27143
28223
29498
31125
32973
35181
37228
38900
39782
40125
39564
38266
36418
34191
31907
30042
28612
27559
26869
26714
27134
28083
29415
31199
33246
35325
37264
38773
39583
40132
39658
38407
36582
34270
31985
29976
28514
27460
26823
26767
27268
28237
29529
31183
33167
35353
37446
39007
39903
40191
39622
38143
36495
34221
31958
30074
28615
27591
26938
26815
27287
28266
29647
31428
33391
35423
37312
39023
40079
40327
39730
38347
36437
34107
31895
29948
28552
27573
26937
26801
27250
28246
29565
31409
33388
35445
37355
38740
39742
40159
39649
38245
36390
34180
31909
29993
28527
27451
26828
26722
27167
28172
29620
31307
33246
35304
37172
38815
39799
40012
39353
37940
35940
33756
31506
29648
28327
27328
26716
26609
27172
28231
29726
31495
33412
35412
37439
39045
40035
40119
39566
38190
36287
33996
31772
29940
28526
27494
26939
26871
27366
28380
29725
31447
33511
35694
37756
39295
40138
40372
39687
38223
36479
34172
31927
30046
28660
27669
27079
26966
27446
28454
29799
31614
33655
35716
37519
38885
39930
40287
39492
38132
36188
33866
31669
29844
28359
27305
26751
26695
27247
28369
29813
31485
33378
35584
37482
39082
40002
40143
39357
37852
36078
33788
31568
29778
28357
27345
26772
26703
27235
28234
29708
31519
33508
35590
37484
38983
39905
40142
39431
37969
35975
33587
31321
29508
28209
27233
26717
26612
27188
28185
29607
31446
33519
35596
37405
38726
39671
39971
39311
37835
35880
33517
31313
29481
28085
27111
26628
26625
27263
28360
29727
31399
33311
35114
36895
38196
38874
38839
37860
36145
33932
31429
29030
27143
25684
24678
24159
24135
24691
25852
27470
29520
31751
34409
36851
38893
40052
40863
40807
40695
40212
39366
38581
37977
37837
37887
38583
39602
41113
42930
45140
47781
50846
53767
56372
58431
59716
60015
59168
57623
55468
52769
50106
47700
45506
43518
41601
39898
38844
38169
37871
37806
38445
39409
40535
41343
41695
41306
40095
38200
36116
33796
31591
29663
28100
26979
26381
26206
26629
27524
28729
30311
32137
34010
35623
36771
37239
37286
36347
34773
32645
30246
28097
26285
24905
23941
23448
23432
24005
25000
26385
28166
30334
32426
34225
35591
36261
36420
35591
34175
32147
29828
27738
26018
24741
23852
23450
23492
24126
25149
26595
28365
30410
32583
34535
35967
36684
36759
35774
34444
32427
30183
28086
26373
25073
24164
23728
23789
24457
25542
27052
28888
31006
33148
34924
36339
37071
37007
36223
34844
32792
30518
28432
26743
25524
24669
24262
24311
24961
26031
27509
29316
31436
33682
35517
36859
37580
37583
36596
35228
33216
30964
28873
27162
25844
24980
24599
24676
25404
26495
28037
29799
31799
33871
35801
37263
38094
38037
37137
35623
33653
31227
29182
27467
26136
25271
24900
25008
25778
26863
28296
30119
32154
34332
36284
37680
38380
38383
37428
35895
33836
31521
29447
27788
26464
25550
25188
25315
26068
27164
28679
30520
32717
34911
36663
37908
38526
38673
37825
36272
34191
31833
29698
28040
26788
25989
25662
25780
26514
27614
29167
31093
33150
35175
36916
38393
39147
39239
38173
36596
34394
32152
30097
28519
27259
26356
26012
26152
26974
28199
29721
31463
33569
35732
37581
39059
39717
39728
38708
37107
34909
32666
30644
28962
27721
26902
26572
26775
27590
28746
30287
32138
34165
36093
37999
39375
40143
40086
39038
37415
35312
33019
30965
29277
28003
27129
26759
26909
27667
28774
30357
32253
34308
36236
37985
39351
40024
39854
38765
37195
35007
32588
30449
28785
27494
26667
26342
26467
27171
28271
29743
31575
33692
35815
37479
38661
39107
39119
38135
36615
34420
32030
29910
28271
27006
26206
25811
25959
26759
27875
29486
31350
33397
35276
37159
38516
39167
39007
37862
36113
34086
31748
29742
28167
27006
26163
25805
25991
26741
27994
29595
31406
33415
35492
37346
38750
39316
39110
37825
36391
34348
32053
30017
28364
27096
26288
25986
26183
26984
28197
29857
31633
33647
35772
37654
38832
39393
39175
38066
36596
34499
32200
30078
28379
27124
26327
26029
26260
27135
28341
29839
31720
33868
36053
37711
38970
39463
39271
38204
36640
34541
32233
30196
28546
27310
26502
26216
26424
27250
28481
30135
31958
33900
35896
37767
39113
39650
39413
38277
36519
34479
32167
30215
28645
27420
26572
26283
26545
27455
28644
30151
32026
34140
36300
37991
39174
39620
39295
38348
36797
34661
32321
30233
28595
27412
26667
26463
26714
27485
28676
30256
32133
34380
36415
38076
39261
39751
39478
38497
36938
34780
32436
30393
28738
27508
26719
26446
26739
27653
28858
30348
32236
34401
36422
38230
39460
39902
39622
38419
36748
34498
32276
30254
28708
27547
26791
26476
26716
27543
28756
30422
32415
34527
36468
38090
39109
39649
39530
38497
36871
34647
32319
30251
28646
27505
26756
26502
26827
27719
28884
30444
32383
34596
36515
38165
39280
39575
39399
38327
36756
34552
32207
30167
28550
27383
26655
26449
26797
27688
28890
30435
32300
34558
36501
38063
39140
39751
39579
38295
36440
34375
32188
30243
28628
27383
26662
26475
26839
27678
28887
30476
32536
34606
36487
38145
39326
39853
39551
38407
36663
34420
32087
30078
28521
27343
26631
26437
26783
27726
28982
30584
32486
34516
36471
37993
39258
39748
39445
38262
36593
34311
32044
30143
28620
27464
26770
26557
26868
27736
28972
30581
32588
34756
36668
38279
39324
39885
39551
38339
36631
34375
32077
30085
28596
27476
26793
26594
26925
27807
29072
30639
32561
34604
36518
38098
39175
39620
39444
38249
36524
34270
31972
30023
28481
27356
26682
26492
26874
27823
29095
30773
32672
34837
36814
38446
39468
39869
39551
38304
36555
34311
32017
30061
28522
27404
26734
26585
26979
27892
29175
30749
32644
34725
36711
38407
39529
39956
39559
38279
36557
34293
32057
30127
28564
27431
26767
26583
26965
27888
29159
30793
32791
34982
37034
38556
39547
39855
39348
38132
36409
34207
31983
30053
28524
27423
26756
26567
26951
27879
29221
30970
32887
34815
36839
38463
39652
39961
39470
38079
36396
34118
31927
30080
28554
27414
26763
26583
27021
28025
29260
30836
32788
34903
36974
38407
39404
39641
39389
38213
36455
34122
31790
29874
28428
27351
26701
26539
26930
27875
29235
30986
32912
34871
36898
38573
39597
39862
39155
37887
36256
33957
31685
29830
28309
27250
26588
26441
26844
27823
29119
30816
32912
35074
36969
38511
39482
39766
39188
38023
36263
34100
31893
29972
28421
27335
26695
26575
27047
28076
29422
31084
33036
35069
37094
38671
39646
40045
39591
38277
36457
34228
31951
29985
28536
27487
26887
26740
27170
28155
29423
31071
33065
35213
37205
38824
39738
40009
39293
37961
36204
33895
31684
29798
28309
27265
26682
26593
27091
28084
29336
30948
32967
35057
37132
38650
39501
39796
39335
38052
36185
33854
31580
29689
28259
27215
26649
26578
27078
28050
29350
31023
33096
35236
37013
38524
39564
39915
39267
37687
35960
33745
31582
29692
28167
27135
26602
26527
26990
27949
29229
30904
33012
35195
37095
38573
39294
39640
39182
37942
36117
33788
31533
29636
28174
27135
26590
26524
27001
28005
29368
31127
33133
35228
37082
38523
39279
39628
39004
37559
35613
33270
30947
28929
27260
26019
25228
24957
25305
26155
27399
29022
30983
33172
35214
36861
37848
38151
37630
36383
34881
32948
31276
29965
29012
28583
28733
29538
31157
33492
36018
38546
41194
44244
47085
49350
50940
51924
52087
51659
50601
48967
47358
45919
44595
43415
42623
42047
42271
42948
44135
45434
46740
47879
48646
49021
48527
47260
45167
42536
39588
36783
34092
31812
29939
28573
27655
27295
27575
28346
29513
31109
33042
35183
36914
38182
39175
39469
38597
36823
34845
32453
30129
28129
26580
25476
24841
24661
25081
25953
27182
28799
30740
32854
34750
36145
36778
36989
36303
34973
33047
30625
28424
26698
25397
24431
23924
23924
24496
25486
26833
28603
30591
32647
34573
36180
36893
36967
36307
34919
33107
30834
28648
26888
25561
24624
24159
24154
24742
25791
27172
28912
30915
32967
34880
36454
37377
37519
36797
35421
33474
31140
28935
27193
25886
24935
24456
24495
25095
26133
27497
29186
31206
33524
35310
36684
37564
37819
37178
35736
33752
31410
29261
27503
26182
25271
24828
24862
25475
26517
27932
29644
31655
33925
35747
36962
37890
38134
37422
36005
33980
31618
29470
27809
26521
25598
25165
25191
25840
26884
28270
29996
32023
34165
36159
37588
38279
38258
37604
36293
34390
32015
29847
28114
26822
25924
25470
25527
26151
27228
28668
30376
32404
34502
36438
37978
38759
38820
37862
36555
34661
32385
30292
28527
27188
26290
25838
25877
26540
27610
29021
30756
32804
34922
36934
38327
39047
39031
38346
36983
35129
32812
30574
28804
27518
26648
26247
26279
26951
28003
29412
31239
33442
35527
37231
38578
39559
39638
38801
37342
35268
33004
30908
29229
27940
27010
26564
26607
27285
28354
29791
31511
33628
35825
37561
38749
39712
39927
39086
37564
35528
33148
31015
29285
28010
27135
26740
26807
27473
28559
30015
31733
33712
35716
37556
39074
39822
39807
38903
37335
35231
32918
30765
29029
27676
26715
26251
26270
26916
27859
29221
30933
32936
35007
36793
38177
38826
38804
37823
36226
34117
31748
29615
27917
26631
25720
25297
25333
25991
27004
28412
30215
32255
34287
35998
37361
38099
38283
37405
35922
33839
31463
29295
27624
26365
25485
25108
25210
25927
26988
28423
30151
32172
34282
36260
37629
38287
38181
37239
35791
33783
31495
29447
27860
26604
25729
25356
25468
26187
27252
28701
30546
32673
34743
36387
37677
38471
38564
37756
36230
34154
31748
29666
28007
26797
25982
25597
25699
26422
27527
28967
30703
32815
34986
36860
38181
38805
38791
37812
36222
34173
31860
29832
28230
27016
26179
25824
25935
26636
27724
29208
31078
33126
35122
36850
38268
39076
39055
38028
36452
34308
32023
29963
28404
27154
26338
25993
26113
26863
27973
29488
31215
33255
35332
37221
38575
39141
39006
38119
36633
34703
32341
30204
28559
27367
26540
26214
26361
27127
28215
29685
31426
33502
35668
37527
38832
39431
39175
38329
36903
34903
32571
30433
28782
27571
26775
26427
26543
27296
28389
29858
31772
33897
35941
37671
38813
39462
39495
38519
37084
35037
32674
30530
28882
27686
26844
26516
26684
27460
28565
30057
31839
33980
36151
37886
39159
39687
39567
38520
36895
34860
32584
30611
28957
27716
26868
26520
26673
27439
28577
30124
31985
34025
35932
37774
39189
39749
39594
38407
36947
34839
32612
30563
28903
27677
26887
26564
26709
27489
28599
30094
31868
33930
36047
37930
39175
39712
39363
38380
36897
34780
32490
30480
28879
27652
26841
26527
26723
27487
28615
30130
32039
34152
36132
37709
38885
39484
39447
38383
36936
34796
32478
30436
28804
27584
26799
26517
26709
27479
28647
30185
32098
34203
36148
37703
39038
39716
39640
38531
36871
34671
32381
30388
28830
27654
26871
26568
26811
27607
28732
30297
32059
34108
36263
37998
39033
39692
39683
38556
36797
34721
32429
30471
28879
27698
26922
26605
26823
27634
28794
30356
32165
34369
36406
38079
39279
39735
39417
38375
36806
34671
32399
30392
28835
27671
26911
26626
26873
27695
28863
30414
32281
34298
36303
38102
39351
39831
39597
38375
36878
34748
32478
30517
28911
27727
26950
26667
26900
27752
28927
30470
32314
34393
36566
38274
39431
39887
39590
38555
37057
34839
32468
30387
28852
27708
26975
26687
26930
27791
28962
30528
32348
34404
36429
38231
39484
39918
39493
38398
36828
34687
32478
30451
28838
27677
26932
26711
26997
27812
29002
30609
32503
34591
36495
38173
39368
39967
39787
38639
36975
34756
32390
30308
28751
27618
26887
26618
26899
27733
28914
30580
32447
34476
36449
38198
39412
39848
39519
38247
36686
34581
32333
30279
28719
27642
26938
26727
27051
27940
29146
30759
32691
34921
36924
38511
39601
39980
39573
38503
36868
34694
32427
30499
29011
27856
27151
26950
27255
28128
29327
30967
32900
34890
36833
38559
39719
40321
40039
38852
37200
34995
32710
30672
29100
27946
27215
26962
27267
28116
29302
30934
32876
34940
36820
38303
39511
40079
39804
38591
36887
34557
32247
30302
28837
27716
27006
26788
27111
27966
29151
30727
32737
34832
36639
38327
39613
40038
39640
38294
36660
34580
32332
30348
28794
27638
26932
26723
27048
27954
29159
30804
32798
34868
36679
38326
39596
40035
39604
38276
36639
34419
32204
30244
28727
27592
26915
26721
27073
27988
29191
30771
32678
34823
36941
38565
39609
39924
39527
38340
36768
34494
32129
30183
28712
27626
26950
26747
27087
27978
29163
30719
32669
34642
36388
37905
38903
39111
38396
36794
34847
32386
30079
28114
26583
25415
24694
24464
24865
25800
27085
28850
31017
33432
35694
37804
39541
40482
40711
40138
39256
38149
37169
36495
36177
36221
36815
37879
39151
40836
42687
45175
48056
51039
53711
55832
57680
58556
58414
57119
55132
52514
49846
47445
45316
43301
41653
40183
39123
38429
37990
38133
38612
39389
40215
40989
41316
41348
40637
39146
37203
34981
32586
30420
28695
27428
26676
26437
26727
27527
28657
30125
31869
33758
35600
37066
37878
37953
37231
35847
33957
31641
29332
27397
25895
24796
24087
23870
24172
25049
26331
27892
29776
31846
33775
35349
36391
36780
36397
35156
33349
31004
28778
26983
25530
24455
23828
23693
24124
25091
26390
27992
29890
31989
33991
35671
36761
37095
36588
35207
33387
31171
29007
27175
25786
24743
24159
24028
24470
25430
26673
28324
30273
32363
34311
35932
37075
37461
36965
35612
33756
31512
29359
27552
26134
25174
24580
24471
24957
25942
27197
28848
30823
32996
34913
36354
37341
37693
37214
36023
34292
31974
29701
27892
26527
25471
24853
24745
25279
26277
27567
29185
31191
33396
35357
36845
37702
38064
37554
36372
34627
32335
30068
28273
26905
25877
25254
25140
25631
26658
27956
29585
31504
33654
35735
37273
38151
38341
37843
36583
34860
32583
30316
28474
27095
26116
25549
25445
25935
26930
28234
29895
31928
34115
35911
37516
38323
38644
38095
36749
34917
32688
30527
28742
27341
26357
25844
25780
26278
27276
28596
30232
32207
34390
36375
37884
38790
39015
38321
37016
35229
32981
30833
29059
27655
26682
26158
26092
26615
27636
29002
30647
32600
34687
36630
38218
39175
39431
38844
37460
35564
33351
31168
29367
28003
27018
26486
26468
27012
28025
29357
31061
33130
35231
37058
38423
39393
39758
39191
37891
35940
33638
31415
29618
28269
27253
26692
26646
27185
28149
29474
31150
33227
35308
37127
38553
39407
39586
38783
37402
35504
33286
31055
29230
27822
26813
26268
26180
26644
27588
28919
30574
32505
34485
36331
37777
38725
39002
38296
36903
34951
32553
30357
28617
27239
26253
25762
25721
26244
27202
28525
30237
32257
34287
36139
37639
38650
38849
38108
36598
34674
32412
30284
28574
27198
26199
25715
25719
26279
27303
28663
30360
32445
34553
36328
37797
38717
38993
38335
36967
35048
32705
30462
28711
27419
26494
25957
25905
26514
27554
28922
30620
32590
34690
36660
38169
39055
39212
38452
36938
34997
32705
30599
28881
27527
26615
26133
26133
26732
27732
29087
30831
32847
34868
36711
38292
39190
39319
38519
37032
35071
32772
30676
28966
27639
26704
26201
26209
26788
27853
29228
30900
32916
35135
37034
38407
39188
39227
38510
37155
35265
33028
30835
29090
27753
26821
26394
26418
27017
28039
29407
31098
33171
35406
37271
38702
39506
39636
38868
37463
35485
33156
30964
29227
27921
27039
26567
26583
27186
28211
29622
31411
33477
35539
37352
38782
39431
39541
38736
37283
35329
33062
31006
29321
28003
27092
26688
26741
27418
28442
29837
31519
33611
35759
37567
38948
39595
39660
38853
37425
35502
33279
31130
29416
28122
27201
26743
26780
27471
28504
29861
31629
33729
35845
37577
38859
39596
39692
38870
37398
35436
33215
31091
29353
28068
27208
26781
26833
27487
28512
29894
31623
33655
35774
37666
39119
39871
39911
39004
37437
35430
33148
31037
29365
28090
27206
26770
26820
27522
28583
29990
31719
33716
35789
37617
38968
39682
39818
38944
37514
35517
33189
31040
29332
28047
27174
26759
26847
27531
28599
30022
31812
33906
36006
37785
39111
39815
39849
38894
37393
35359
33017
30879
29216
27978
27126
26734
26815
27525
28599
30051
31845
33969
36076
37867
39184
39822
39783
38803
37309
35167
32851
30769
29156
27886
27012
26607
26743
27494
28624
30099
31862
33927
35927
37649
38948
39623
39627
38637
37087
34999
32775
30681
29021
27792
26951
26583
26652
27399
28527
30014
31799
33961
36051
37807
39121
39740
39676
38678
37025
34924
32708
30637
29030
27817
26988
26653
26788
27522
28601
30086
31924
34063
36138
37766
39021
39703
39728
38839
37263
35173
32814
30721
29091
27860
26990
26603
26764
27559
28663
30177
32006
34092
36061
37767
39037
39675
39657
38655
37126
35054
32738
30670
29061
27846
27046
26707
26884
27641
28740
30223
32087
34213
36246
37987
39218
39854
39759
38743
37199
35084
32719
30653
29067
27881
27079
26756
26938
27750
28873
30365
32166
34207
36287
38105
39415
40011
39901
38803
37215
35073
32716
30663
29050
27897
27111
26783
26944
27719
28856
30367
32207
34255
36223
38062
39399
39914
39601
38531
36989
34844
32588
30628
29007
27808
27061
26756
26965
27719
28822
30325
32175
34335
36253
37882
39221
39855
39639
38452
36900
34823
32519
30463
28911
27648
26847
26583
26792
27630
28744
30268
32134
34172
36148
38002
39367
39876
39601
38600
37078
35038
32719
30703
29138
27883
27089
26834
27074
27929
29057
30606
32445
34588
36656
38359
39553
40099
39767
38671
37244
35071
32685
30743
29175
28039
27296
26963
27180
28032
29181
30727
32601
34637
36616
38276
39564
40127
39719
38676
37197
34964
32590
30597
29039
27814
27076
26813
26981
27807
28973
30524
32410
34434
36408
38253
39431
39871
39523
38449
36943
34846
32486
30431
28884
27743
26997
26757
27035
27843
28988
30562
32450
34506
36524
38325
39431
39797
39628
38607
37010
34791
32390
30445
28890
27684
26950
26759
27042
27911
29041
30584
32472
34573
36463
38229
39496
39996
39679
38396
36773
34631
32379
30416
28801
27678
26996
26778
27087
27887
29025
30605
32509
34564
36501
38247
39514
39911
39455
38268
36598
34406
31951
29783
28064
26652
25697
25182
25239
25870
26938
28389
30108
32089
34122
35757
36855
37329
37383
36490
35095
33327
31655
30172
29116
28565
28607
29292
30813
33213
35847
38726
41899
45022
47892
50244
52500
54044
54924
55005
54479
53047
51787
50601
49430
48363
47367
46967
46985
47479
48053
48731
49932
51097
51884
52036
51510
50207
48076
45428
42410
39092
35863
33100
30949
29343
28167
27513
27543
28241
29255
30703
32476
34559
36420
37788
38714
39079
38663
37179
35215
32798
30368
28210
26516
25306
24429
24067
24253
24995
26153
27671
29518
31520
33468
35144
36197
36485
36114
34973
33341
31074
28850
26969
25492
24371
23679
23418
23793
24687
25892
27523
29440
31538
33517
35135
36349
36838
36487
35190
33489
31323
29074
27236
25781
24574
23887
23771
24115
25055
26306
27907
29813
31881
33859
35495
36699
37191
36866
35602
33825
31652
29404
27531
26148
25008
24377
24237
24575
25471
26758
28337
30247
32319
34287
35967
37182
37597
37223
35908
34209
32058
29832
28038
26545
25478
24789
24599
24983
25887
27135
28753
30678
32775
34709
36305
37441
37943
37583
36295
34527
32314
30137
28234
26788
25761
25153
24990
25362
26295
27588
29191
31071
33191
35220
36823
37798
38167
37765
36512
34790
32620
30401
28500
27061
26055
25470
25303
25700
26684
27901
29458
31396
33589
35569
37165
38117
38446
38023
36773
35119
32941
30676
28823
27438
26361
25692
25614
26023
26962
28217
29837
31774
33934
35935
37513
38527
38785
38334
37076
35364
33156
30963
29079
27636
26612
26036
25895
26325
27329
28606
30252
32192
34350
36359
37959
38816
39133
38708
37449
35823
33618
31364
29559
28164
27114
26495
26421
26811
27806
29059
30679
32678
34832
36713
38227
39281
39804
39345
38007
36180
33965
31767
29894
28441
27370
26769
26733
27166
28183
29447
31068
33062
35199
37122
38663
39620
39887
39428
38138
36201
33951
31750
29874
28373
27325
26750
26589
27005
27974
29233
30804
32680
34735
36688
38231
39098
39222
38655
37331
35530
33311
31035
29220
27806
26773
26178
25996
26413
27366
28678
30311
32231
34308
36191
37684
38630
38913
38346
37045
35223
33004
30818
28985
27588
26594
26046
25951
26423
27407
28734
30360
32301
34372
36253
37763
38815
39143
38598
37287
35439
33151
30911
29102
27700
26735
26173
26055
26577
27590
28910
30572
32567
34673
36543
38018
38943
39335
38799
37455
35609
33323
31063
29233
27895
26894
26308
26299
26762
27726
29061
30782
32804
34924
36753
38206
39168
39598
38975
37633
35688
33393
31215
29412
28029
26996
26471
26466
27003
28004
29303
30958
32923
34997
36871
38495
39484
39687
39056
37617
35756
33526
31372
29521
28180
27198
26668
26565
27135
28172
29480
31173
33179
35335
37166
38535
39410
39715
39192
37882
36028
33729
31540
29756
28343
27367
26875
26788
27365
28388
29686
31367
33364
35436
37245
38727
39814
40030
39307
37835
36021
33814
31627
29831
28493
27596
27050
26983
27596
28567
29918
31636
33661
35779
37600
38965
39783
40009
39367
38047
36180
33908
31694
29870
28503
27527
27026
26975
27558
28532
29835
31528
33585
35703
37583
39010
39775
39911
39191
37830
35934
33707
31575
29815
28431
27460
26972
26965
27559
28581
29928
31613
33588
35618
37484
39002
39902
40090
39376
37969
36010
33703
31554
29813
28434
27440
26927
26940
27550
28583
29972
31662
33664
35745
37613
39044
39820
39892
39119
37719
35823
33609
31487
29687
28319
27393
26938
26910
27509
28527
29892
31590
33586
35624
37567
39065
39900
40027
39148
37743
35821
33610
31429
29660
28356
27403
26976
26972
27531
28514
29888
31626
33670
35765
37506
38863
39639
39783
39063
37735
35772
33444
31257
29530
28229
27354
26831
26895
27469
28450
29825
31548
33628
35742
37591
38999
39761
39849
39033
37535
35563
33310
31164
29437
28122
27196
26815
26837
27462
28548
29879
31570
33613
35724
37511
38772
39518
39619
38861
37415
35511
33244
31113
29444
28118
27172
26774
26864
27460
28565
29923
31642
33759
35847
37564
38869
39597
39770
39007
37628
35607
33284
31205
29533
28221
27279
26788
26853
27547
28559
29989
31697
33743
35866
37636
38917
39610
39639
38780
37367
35438
33191
31023
29287
28044
27181
26769
26845
27541
28573
29977
31692
33703
35716
37476
38916
39719
39762
38871
37359
35335
33086
31048
29335
28020
27133
26740
26820
27486
28583
29999
31716
33726
35807
37599
38943
39645
39708
38743
37255
35311
33078
30957
29244
27993
27135
26724
26783
27541
28551
29933
31703
33773
35831
37531
38820
39545
39687
38783
37295
35235
32911
30853
29244
27932
27045
26609
26679
27364
28420
29913
31680
33742
35831
37626
38946
39611
39527
38599
37206
35237
32919
30804
29134
27925
27024
26579
26652
27398
28506
29943
31678
33713
35801
37575
38791
39391
39399
38608
37166
35079
32711
30668
29007
27685
26787
26423
26556
27281
28385
29871
31638
33694
35705
37535
38944
39687
39703
38790
37288
35215
32891
30852
29213
27961
27143
26764
26828
27558
28655
30121
31940
34013
36004
37716
39103
39839
39810
38809
37316
35253
32965
30972
29314
28065
27189
26870
26998
27740
28928
30359
32113
34173
36214
37906
39107
39698
39622
38765
37279
35148
32805
30773
29150
27884
26981
26635
26785
27573
28671
30153
31900
33924
35931
37646
38882
39508
39517
38614
37127
35046
32731
30725
29115
27848
27014
26692
26866
27608
28718
30236
31994
34023
36012
37732
39044
39719
39652
38639
37084
34927
32649
30686
29031
27811
26985
26625
26799
27588
28711
30215
31974
33997
36052
37783
39034
39636
39574
38449
36932
34847
32581
30606
29029
27845
27033
26683
26836
27602
28712
30208
32003
34055
36044
37716
38956
39531
39431
38304
36739
34548
32103
29950
28244
26849
25784
25284
25245
25831
26812
28292
30010
31943
33992
35786
37121
37726
37593
36735
35452
33639
31654
30183
29135
28413
28175
28593
29614
31493
33905
36680
39484
42324
45063
47725
49854
51263
52007
51852
51207
49980
48297
46879
45775
44749
44007
43596
43479
43811
44487
45575
47085
48493
49607
50218
49991
49082
47465
45008
42187
39077
36019
33324
31211
29565
28349
27687
27588
28161
29090
30407
32122
34088
35951
37535
38657
39188
38942
37780
36066
33732
31311
29133
27393
26053
25173
24743
24811
25550
26570
27996
29695
31695
33657
35300
36415
36871
36637
35464
33887
31773
29491
27560
26075
24881
24097
23748
23974
24927
26178
27700
29512
31567
33615
35335
36516
37009
36732
35607
33988
31839
29602
27673
26089
24937
24247
24050
24380
25298
26519
28066
29892
31948
33984
35711
36887
37321
37103
35994
34381
32262
30064
28124
26567
25444
24783
24542
24837
25681
26878
28493
30349
32436
34412
36052
37237
37783
37516
36324
34652
32507
30292
28381
26922
25822
25081
24737
25114
26079
27286
28823
30663
32810
34845
36492
37575
38015
37759
36655
35060
32841
30588
28750
27325
26194
25480
25158
25520
26490
27818
29324
31100
33254
35271
36879
37977
38422
38151
37064
35446
33215
31025
29159
27647
26578
25840
25668
26036
26894
28078
29703
31641
33700
35636
37228
38359
38895
38611
37447
35750
33518
31325
29435
27959
26839
26091
25913
26282
27236
28511
30159
32063
34118
36044
37628
38779
39188
38882
37694
36055
33846
31564
29695
28284
27231
26607
26340
26813
27744
29011
30662
32460
34583
36583
38104
39142
39711
39214
38191
36474
34306
32108
30169
28756
27705
27084
26914
27284
28196
29402
31033
32935
34986
36941
38555
39613
40026
39631
38407
36677
34497
32320
30452
28951
27845
27205
27039
27389
28306
29557
31166
33037
35079
36965
38506
39495
39887
39533
38262
36465
34220
32003
30093
28619
27480
26760
26557
26956
27855
29020
30530
32313
34366
36267
37809
38777
39019
38495
37188
35439
33237
30999
29077
27576
26443
25797
25633
26011
26875
28084
29671
31558
33601
35473
36989
37924
38254
37815
36613
34894
32616
30378
28566
27205
26183
25569
25417
25836
26751
28023
29612
31509
33645
35619
37199
38219
38527
38015
36721
34995
32801
30634
28847
27431
26419
25847
25727
26148
27093
28372
29992
31905
33990
35959
37516
38531
38854
38364
37067
35239
32997
30839
29029
27612
26571
25943
25827
26300
27289
28558
30196
32116
34215
36125
37655
38623
38907
38358
37052
35298
33086
30940
29129
27717
26667
26106
26031
26508
27495
28773
30401
32326
34378
36258
37738
38673
38949
38393
37123
35356
33081
30866
29130
27799
26791
26202
26092
26533
27544
28910
30553
32471
34565
36467
37987
38965
39255
38663
37341
35497
33284
31137
29327
27903
26850
26263
26183
26714
27739
29070
30790
32746
34804
36679
38170
39073
39335
38759
37504
35691
33393
31207
29460
28126
27159
26609
26485
26966
28004
29404
30987
32876
35002
36926
38407
39231
39402
38764
37487
35679
33422
31236
29534
28173
27187
26613
26532
27084
28116
29462
31132
33004
35076
36969
38476
39348
39575
38876
37428
35566
33372
31245
29523
28153
27170
26640
26580
27104
28086
29394
31026
32993
35097
36975
38455
39261
39399
38727
37402
35558
33298
31133
29380
28128
27050
26532
26503
27135
28180
29479
31093
33078
35207
37117
38567
39394
39478
38792
37407
35536
33326
31234
29457
28084
27126
26658
26663
27261
28264
29588
31250
33218
35301
37105
38467
39263
39431
38772
37418
35546
33261
31095
29389
28101
27188
26706
26603
27183
28260
29653
31300
33271
35367
37255
38679
39484
39572
38828
37431
35556
33338
31228
29508
28183
27195
26681
26747
27372
28355
29686
31380
33402
35515
37377
38773
39518
39661
38884
37468
35571
33354
31253
29519
28198
27201
26724
26757
27372
28442
29916
31572
33534
35631
37455
38886
39671
39780
38935
37500
35563
33338
31239
29530
28208
27260
26783
26793
27433
28437
29867
31567
33588
35666
37426
38767
39520
39657
38860
37447
35547
33253
31151
29470
28213
27287
26813
26855
27497
28581
29959
31680
33680
35703
37475
38819
39605
39767
38966
37529
35507
33183
31124
29446
28135
27221
26792
26865
27585
28566
29943
31652
33693
35810
37611
38886
39540
39622
38773
37372
35439
33103
31004
29367
28126
27241
26852
26929
27574
28598
29974
31678
33713
35837
37632
38998
39726
39787
38892
37431
35416
33146
31117
29448
28155
27236
26818
26891
27599
28679
30111
31875
33838
35823
37542
38836
39558
39624
38770
37340
35348
33099
31044
29403
28121
27239
26817
26887
27581
28660
30114
31844
33850
35904
37711
39087
39753
39780
38817
37337
35420
33229
31156
29543
28324
27473
27053
27084
27865
28957
30324
32061
34163
36254
38023
39264
39876
39868
38951
37523
35519
33188
31105
29501
28327
27476
27107
27237
27951
29047
30490
32257
34324
36341
38029
39295
39938
39889
38932
37446
35439
33140
31035
29381
28148
27272
26899
27020
27755
28818
30256
32028
34138
36150
37866
39163
39815
39822
38874
37333
35208
32935
30922
29268
28008
27159
26806
27003
27748
28828
30278
32069
34158
36247
37951
39158
39735
39645
38666
37172
35143
32900
30886
29239
28014
27169
26841
27046
27791
28891
30366
32188
34217
36265
37999
39222
39766
39642
38660
37175
35079
32758
30721
29157
27959
27173
26828
27015
27777
28895
30421
32263
34311
36292
37988
39274
39924
39855
38810
37255
35068
32742
30741
29114
27844
26957
26543
26564
27121
28057
29311
30873
32689
34507
36056
37143
37638
37423
36324
34823
32783
30623
28778
27387
26450
25937
26056
26750
28040
29703
31739
34304
37300
40423
43335
45740
47431
48430
48628
48014
46783
45409
44259
43589
43479
43655
44142
44949
46220
47581
49053
50582
52180
53728
54951
55726
55777
54879
52849
50040
46532
42836
39349
36183
33549
31367
29959
29382
29589
30266
31474
33009
34852
36647
38094
39060
39428
39148
38003
36397
34287
32028
29894
28146
26826
25873
25409
25458
26101
27110
28510
30204
32141
33987
35524
36638
37081
36775
35536
33924
31792
29481
27481
25945
24829
24077
23792
24013
24799
25967
27582
29412
31474
33444
35070
36219
36700
36446
35332
33756
31593
29335
27419
25938
24839
24107
23823
23978
24863
26091
27705
29626
31725
33720
35356
36536
37051
36805
35644
33977
31804
29646
27766
26268
25169
24467
24251
24547
25428
26692
28238
30119
32229
34196
35828
36959
37441
37183
36054
34414
32248
30042
28140
26631
25484
24744
24578
24930
25885
27110
28701
30636
32700
34672
36287
37410
37918
37628
36424
34708
32471
30319
28450
26983
25895
25183
24991
25350
26319
27572
29148
31035
33121
35100
36699
37772
38175
37847
36660
34997
32800
30603
28693
27204
26150
25520
25317
25703
26628
27847
29426
31367
33439
35335
36902
37975
38386
38018
36853
35167
32973
30727
28890
27460
26392
25757
25607
25989
26884
28100
29682
31588
33752
35773
37293
38303
38716
38335
37147
35449
33308
31125
29275
27826
26725
26086
25889
26301
27287
28558
30180
32074
34173
36153
37732
38803
39127
38682
37455
35783
33620
31388
29543
28118
27090
26463
26295
26672
27609
28856
30487
32428
34580
36548
38148
39214
39607
39150
37876
36090
33862
31711
29879
28423
27382
26796
26659
27084
28033
29290
30910
32844
34924
36852
38430
39423
39727
39219
37911
36156
33976
31815
29896
28441
27420
26788
26645
26945
27939
29215
30775
32601
34679
36580
38085
39006
39199
38607
37311
35503
33252
31062
29191
27767
26689
26061
25909
26329
27280
28565
30145
32033
34108
35957
37444
38479
38773
38247
36945
35079
32775
30599
28804
27374
26280
25654
25576
26062
27023
28388
30026
31934
33975
35914
37404
38343
38644
38102
36826
35027
32721
30575
28879
27490
26431
25764
25781
26310
27289
28598
30199
32120
34260
36217
37714
38623
38863
38309
37020
35207
32991
30842
29057
27654
26623
26052
26012
26419
27409
28823
30486
32381
34475
36392
37954
38862
39104
38428
37085
35287
33074
30841
29087
27733
26783
26216
26105
26587
27611
28942
30611
32575
34652
36518
37996
38879
39110
38503
37172
35335
33117
30976
29186
27810
26856
26285
26158
26731
27733
29118
30841
32782
34844
36703
38148
39007
39283
38637
37328
35463
33167
31004
29281
27973
26987
26484
26463
27000
28014
29393
31058
32972
35106
37015
38487
39367
39559
38846
37478
35578
33299
31173
29464
28124
27128
26566
26548
27127
28199
29615
31305
33231
35300
37157
38549
39361
39564
38847
37495
35663
33460
31340
29602
28237
27252
26754
26743
27325
28328
29684
31389
33394
35476
37291
38710
39490
39621
38887
37500
35612
33400
31298
29584
28247
27314
26809
26793
27356
28364
29731
31423
33450
35580
37404
38827
39598
39674
38892
37480
35580
33381
31282
29557
28190
27265
26788
26815
27375
28421
29804
31538
33494
35516
37313
38759
39617
39764
38991
37543
35548
33223
31140
29460
28125
27208
26796
26782
27359
28383
29779
31471
33511
35599
37367
38704
39444
39591
38879
37486
35517
33217
31127
29410
28104
27211
26767
26828
27481
28508
29888
31585
33557
35676
37484
38815
39592
39652
38829
37414
35511
33261
31172
29466
28134
27217
26820
26879
27495
28513
29950
31708
33693
35740
37557
38978
39750
39823
38988
37530
35471
33197
31143
29457
28155
27253
26824
26836
27513
28537
29951
31677
33709
35781
37549
38893
39592
39646
38815
37358
35420
33170
31079
29392
28110
27217
26795
26870
27557
28647
30038
31778
33828
35900
37670
39031
39766
39799
38911
37422
35372
33045
31030
29322
28033
27120
26708
26809
27497
28591
30062
31837
33850
35863
37621
38995
39707
39802
38907
37407
35344
33000
30911
29289
28033
27195
26839
26951
27650
28719
30150
31911
34002
36084
37876
39207
39856
39887
38943
37381
35378
33022
30957
29330
28096
27263
26907
26988
27716
28812
30316
32111
34130
36103
37805
39085
39713
39745
38804
37303
35268
32979
30839
29212
27984
27171
26815
26952
27709
28824
30300
32039
34080
36113
37861
39159
39741
39697
38719
37215
35196
32961
30961
29318
28071
27223
26887
27012
27795
28975
30402
32113
34178
36248
37983
39299
39941
39849
38823
37301
35183
32863
30863
29269
28003
27143
26802
26977
27777
28958
30422
32226
34279
36286
38054
39351
39943
39821
38797
37227
35093
32789
30809
29202
27980
27176
26892
27070
27845
28897
30358
32171
34278
36343
38037
39195
39697
39559
38519
37001
34934
32678
30621
29022
27834
27061
26721
26879
27623
28732
30247
32060
34100
36063
37746
39013
39644
39586
38597
36998
34877
32591
30630
29088
27901
27124
26860
27154
27953
29052
30564
32381
34476
36519
38252
39483
40062
39915
38812
37175
35053
32740
30807
29226
28001
27260
27039
27295
28128
29315
30823
32671
34719
36687
38359
39580
40145
39996
38919
37244
35111
32814
30780
29226
28086
27311
27003
27210
28010
29151
30679
32508
34549
36555
38252
39495
40020
39823
38706
37070
34846
32548
30620
29071
27902
27109
26848
27113
27929
29121
30701
32508
34534
36492
38245
39461
39943
39670
38487
36823
34727
32508
30574
29031
27828
27047
26791
27044
27882
29050
30609
32471
34581
36581
38180
39271
39751
39559
38452
36800
34660
32358
30367
28849
27745
27059
26801
27069
27932
29157
30716
32549
34620
36564
38172
39303
39775
39503
38363
36773
34632
32359
30399
28820
27666
26900
26577
26759
27435
28375
29724
31354
33151
34857
36271
37244
37543
37223
35968
34191
31932
29752
27966
26535
25590
25195
25384
26247
27655
29342
31396
33942
36908
39903
42680
45221
47247
48351
48580
47988
46970
45749
44754
44181
44035
44440
45239
46479
48133
49730
51471
53337
55153
56887
58231
58935
58791
57780
55751
52988
49429
45657
42173
38936
36072
33572
31668
30615
30526
31107
32228
33764
35559
37209
38567
39447
39702
39279
38001
36207
33900
31519
29479
27860
26564
25626
25170
25271
25947
26980
28397
30098
32036
33875
35367
36308
36607
36143
34866
33111
30919
28642
26756
25263
24198
23542
23326
23691
24581
25827
27416
29287
31380
33367
34997
36046
36375
35951
34726
33006
30836
28617
26776
25349
24298
23679
23541
23925
24871
26149
27718
29674
31727
33685
35279
36287
36612
36205
35003
33349
31202
29052
27263
25779
24695
24086
23924
24355
25332
26613
28241
30117
32237
34252
35854
36868
37219
36775
35494
33692
31448
29309
27532
26086
25030
24418
24246
24704
25666
27013
28677
30595
32679
34637
36167
37127
37447
36965
35735
33982
31745
29543
27766
26352
25319
24711
24593
25061
26075
27404
29009
30942
33106
35124
36696
37695
38029
37528
36239
34386
32110
29975
28207
26790
25744
25162
25045
25511
26487
27788
29444
31413
33580
35522
37036
38003
38292
37836
36517
34669
32383
30183
28390
27049
26048
25500
25423
25898
26887
28182
29825
31789
33957
35910
37456
38364
38591
38015
36644
34815
32619
30513
28767
27369
26357
25788
25678
26198
27238
28559
30161
32116
34286
36255
37799
38735
38986
38407
37081
35226
32935
30756
29031
27686
26732
26227
26183
26714
27734
29149
30857
32799
34858
36735
38228
39125
39367
38804
37579
35707
33405
31207
29461
28151
27203
26670
26599
27162
28184
29562
31281
33265
35319
37140
38627
39559
39823
39241
37884
35985
33649
31455
29714
28357
27348
26812
26812
27373
28418
29766
31437
33400
35453
37228
38676
39532
39735
39001
37611
35700
33412
31226
29430
28006
26984
26441
26383
26884
27902
29265
30969
32932
34980
36794
38176
39014
39214
38445
37037
35096
32810
30631
28838
27450
26503
26014
25986
26548
27585
28916
30611
32641
34777
36676
38134
38988
39116
38377
36951
34992
32618
30470
28687
27374
26441
25958
25979
26636
27679
29068
30837
32825
34965
36855
38319
39143
39284
38482
36975
34997
32718
30594
28845
27480
26524
26045
26057
26733
27822
29286
31028
33047
35115
36932
38353
39158
39287
38516
37087
35117
32852
30752
29062
27709
26766
26337
26337
26993
28020
29407
31156
33247
35414
37260
38724
39518
39620
38791
37305
35231
32916
30825
29110
27771
26813
26356
26431
27143
28242
29714
31449
33439
35526
37350
38802
39611
39750
38928
37480
35479
33123
31018
29333
28026
27109
26628
26700
27386
28519
29965
31696
33708
35870
37710
39071
39822
39791
38896
37444
35431
33182
31109
29361
28026
27175
26780
26844
27541
28663
30134
31879
33903
35964
37750
39095
39789
39832
38959
37492
35512
33239
31156
29462
28142
27237
26851
26934
27625
28764
30233
31980
34015
36062
37823
39216
39943
39967
39045
37540
35526
33180
31052
29348
28068
27214
26852
26926
27663
28732
30215
32028
34149
36252
38077
39452
40127
40102
39183
37650
35535
33156
31070
29408
28132
27223
26842
26967
27733
28813
30289
32071
34137
36157
37879
39197
39943
39973
39047
37558
35430
33063
30953
29240
28036
27200
26841
26996
27721
28815
30316
32119
34234
36340
38088
39408
40020
39900
38919
37346
35319
33038
30973
29311
28027
27183
26833
26980
27740
28807
30292
32122
34231
36330
38111
39431
40047
40007
38940
37276
35188
32900
30876
29255
27980
27133
26753
26943
27735
28882
30375
32175
34223
36231
37994
39247
39815
39744
38740
37199
35118
32849
30790
29208
28026
27220
26965
27143
27991
29183
30692
32474
34524
36519
38243
39508
40175
40078
39054
37480
35353
33031
31030
29439
28192
27375
27046
27234
28038
29198
30676
32471
34501
36461
38223
39492
40076
39994
38919
37283
35110
32793
30754
29120
27917
27133
26861
27092
27893
29087
30604
32455
34579
36629
38357
39586
40122
39943
38873
37253
35055
32742
30771
29147
27906
27108
26794
27039
27854
29005
30545
32460
34604
36673
38362
39543
39974
39755
38687
37061
34910
32658
30667
29057
27826
27015
26732
26964
27776
28989
30546
32391
34532
36579
38229
39371
39860
39647
38525
36847
34706
32423
30463
28903
27723
26958
26704
26975
27804
29014
30563
32436
34560
36597
38294
39460
39969
39728
38566
36871
34656
32366
30405
28804
27603
26855
26597
26898
27804
28975
30471
32304
34438
36427
38093
39276
39779
39521
38338
36621
34375
32124
30196
28608
27465
26687
26439
26746
27605
28837
30439
32325
34475
36471
38099
39244
39711
39431
38206
36503
34358
32129
30200
28653
27500
26757
26510
26841
27731
28925
30482
32371
34476
36502
38167
39294
39651
39315
38129
36487
34324
31988
30028
28537
27463
26710
26440
26756
27660
28926
30482
32364
34518
36558
38196
39308
39772
39447
38220
36474
34183
31900
29986
28418
27285
26583
26372
26746
27715
29025
30603
32460
34496
36436
38045
39109
39522
39182
37962
36266
34095
31867
29959
28482
27361
26678
26492
26857
27782
29017
30620
32570
34742
36735
38381
39547
40028
39697
38468
36734
34461
32150
30215
28751
27692
27053
26887
27262
28186
29387
30992
32951
35101
37092
38653
39708
40090
39678
38471
36807
34548
32308
30422
28946
27844
27218
27060
27413
28335
29546
31126
33047
35160
37095
38677
39635
39915
39474
38228
36492
34250
32017
30159
28686
27607
26907
26751
27162
28156
29411
31033
32964
35062
36999
38580
39665
40020
39559
38226
36457
34257
32055
30181
28661
27588
26985
26852
27270
28205
29476
31061
32999
35164
37127
38660
39655
40014
39502
38140
36333
34142
31943
30056
28575
27560
26964
26840
27271
28245
29540
31163
33076
35206
37143
38694
39672
39903
39382
38178
36359
34069
31793
29926
28538
27527
26909
26718
27181
28183
29518
31189
33077
35154
37012
38452
39359
39607
38911
37383
35306
32774
30389
28365
26773
25607
24926
24745
25161
26113
27447
29169
31145
33318
35373
37058
38279
39002
38959
38142
36768
35026
33500
32471
32085
32324
33119
34190
35666
37626
39862
42301
44905
47580
50180
52569
54417
55716
55932
55252
53799
51656
49428
47349
45510
43940
42985
42558
42422
42456
42503
42843
43319
43876
44275
44420
44061
43207
41828
40157
38022
35605
33058
30868
29097
27791
26965
26746
27129
28018
29293
30937
32830
34735
36394
37711
38455
38574
37742
36154
34083
31688
29369
27407
25907
24874
24210
23945
24351
25351
26691
28302
30199
32247
34077
35527
36397
36591
35917
34548
32636
30388
28275
26553
25207
24241
23717
23601
24138
25167
26599
28339
30296
32333
34199
35683
36599
36831
36140
34756
32801
30566
28428
26713
25391
24451
23951
23927
24511
25541
26987
28689
30693
32778
34676
36181
37039
37205
36436
35061
33183
30981
28834
27095
25783
24898
24415
24439
25089
26116
27488
29148
31156
33317
35150
36549
37345
37540
36818
35420
33487
31234
29173
27476
26153
25204
24767
24804
25459
26516
27869
29551
31580
33697
35558
37016
37827
37956
37167
35772
33850
31617
29525
27895
26654
25731
25279
25301
25950
27005
28422
30105
32150
34305
36138
37522
38330
38452
37625
36172
34142
31876
29828
28187
26909
26023
25565
25528
26183
27343
28845
30634
32657
34691
36483
37908
38680
38844
38055
36606
34599
32361
30321
28636
27391
26538
26119
26177
26852
27916
29368
31105
33140
35284
37127
38532
39263
39314
38475
36988
35033
32814
30756
29062
27798
26958
26605
26695
27447
28536
29972
31742
33750
35785
37518
38849
39601
39716
38971
37576
35554
33269
31248
29572
28295
27431
27044
27151
27852
28919
30337
32103
34140
36223
38038
39383
40080
40095
39210
37750
35727
33433
31335
29682
28463
27631
27284
27383
28061
29099
30516
32295
34295
36324
38031
39303
39949
39917
38997
37530
35552
33271
31134
29462
28207
27336
26962
27053
27758
28748
30121
31806
33775
35743
37391
38688
39389
39329
38367
36868
34768
32479
30452
28772
27537
26677
26215
26285
27045
28117
29597
31366
33348
35348
37095
38390
38975
38860
37823
36348
34299
32070
30007
28355
27103
26284
25941
26136
26919
28090
29526
31278
33327
35359
37050
38297
38908
38868
37852
36359
34310
32085
30085
28500
27331
26532
26231
26433
27239
28359
29839
31628
33649
35646
37370
38598
39204
39095
38096
36583
34466
32205
30269
28710
27521
26775
26441
26599
27381
28491
29965
31709
33720
35737
37382
38527
39093
38939
37935
36441
34405
32205
30271
28708
27484
26733
26402
26622
27422
28591
30132
31916
33931
35877
37511
38676
39261
39175
38114
36565
34426
32148
30202
28666
27508
26749
26439
26671
27456
28557
30046
31856
33980
36004
37684
38871
39370
39204
38100
36489
34311
32076
30164
28636
27436
26664
26416
26662
27495
28692
30225
32039
34051
35980
37585
38806
39343
39148
38059
36487
34293
32010
30108
28604
27495
26761
26513
26791
27604
28719
30231
32066
34127
36071
37684
38839
39302
39092
38071
36537
34428
32209
30302
28784
27581
26775
26493
26818
27727
28897
30463
32254
34261
36134
37735
38911
39481
39249
38167
36522
34292
32077
30150
28583
27425
26721
26523
26807
27643
28794
30244
32073
34170
36156
37780
38876
39359
39103
37958
36276
34105
31904
29980
28492
27365
26663
26431
26740
27649
28806
30316
32102
34148
36125
37738
38830
39338
39047
37895
36247
34041
31759
29889
28417
27347
26684
26508
26839
27663
28824
30335
32126
34213
36201
37826
38918
39359
39039
37799
36125
33968
31744
29855
28383
27303
26663
26497
26823
27676
28916
30556
32381
34404
36298
37886
38871
39303
39002
37849
36159
33975
31788
29904
28390
27321
26737
26550
26891
27757
29016
30582
32431
34470
36372
37984
39076
39463
39080
37895
36180
33890
31630
29794
28410
27374
26734
26547
26913
27783
29034
30649
32490
34514
36401
37879
38935
39375
39009
37823
36161
33926
31724
29951
28516
27398
26719
26561
26958
27889
29151
30727
32604
34631
36494
38001
38998
39350
38964
37777
36084
33844
31583
29731
28325
27310
26711
26564
26930
27844
29017
30554
32456
34589
36501
38000
38984
39340
38838
37570
35847
33724
31592
29791
28367
27340
26701
26564
26989
27943
29164
30703
32569
34662
36527
37964
38909
39208
38756
37524
35825
33599
31378
29604
28296
27319
26764
26575
27009
28000
29318
30909
32781
34807
36610
38117
39084
39431
38976
37697
35898
33676
31551
29792
28387
27343
26711
26616
27075
28058
29359
30873
32710
34783
36671
38148
39076
39362
38869
37629
35847
33601
31424
29622
28214
27198
26629
26517
26986
27959
29191
30799
32749
34895
36767
38268
39196
39368
38791
37551
35855
33704
31562
29818
28507
27522
26964
26847
27345
28339
29632
31263
33164
35189
37007
38479
39388
39670
39134
37867
36080
33963
31874
30117
28726
27701
27156
27088
27597
28628
29892
31457
33332
35398
37238
38703
39603
39828
39217
37887
36034
33738
31534
29758
28437
27490
26956
26900
27399
28454
29742
31407
33276
35256
37095
38571
39489
39724
39111
37753
35887
33594
31431
29694
28386
27468
26972
26959
27444
28440
29825
31433
33307
35351
37152
38466
39319
39527
38836
37495
35669
33509
31417
29646
28313
27411
26907
26875
27439
28434
29724
31362
33300
35359
37150
38479
39255
39407
38773
37428
35581
33372
31262
29498
28156
27253
26783
26759
27325
28294
29654
31322
33326
35403
37215
38605
39396
39559
38830
37424
35450
33104
30929
29153
27724
26638
26012
25806
26186
27004
28223
29734
31581
33559
35363
36762
37556
37799
37243
36055
34317
32320
30559
29222
28244
27756
27866
28492
29760
31425
33526
36048
38874
41697
44249
46373
47925
48869
48954
48263
46919
45432
43971
42726
41726
40922
40455
40347
40699
41495
42550
43717
45176
46802
48293
49214
49255
48409
46524
44048
40854
37445
34341
31911
30097
28787
28020
27767
28135
28964
30110
31613
33364
35132
36615
37793
38468
38519
37684
36314
34452
32309
30245
28492
27170
26230
25712
25653
26177
27079
28326
29926
31751
33660
35282
36525
37148
37121
36221
34823
32876
30709
28724
27094
25851
24973
24593
24600
25247
26323
27800
29533
31470
33442
35137
36450
37126
37196
36399
35111
33247
31121
29185
27597
26314
25460
25062
25244
25977
26996
28423
30080
31989
33964
35732
37071
37743
37756
36895
35471
33476
31277
29379
27850
26660
25837
25493
25628
26375
27399
28804
30501
32415
34406
36092
37316
37957
38009
37124
35688
33685
31495
29580
28092
26976
26191
25839
25951
26684
27727
29129
30778
32727
34759
36516
37780
38406
38373
37474
36052
34081
31868
29935
28420
27249
26464
26173
26321
27082
28158
29598
31279
33223
35191
36852
38075
38675
38644
37704
36295
34343
32223
30312
28767
27540
26740
26446
26638
27433
28533
30001
31695
33639
35532
37159
38361
38943
38876
37866
36439
34501
32359
30419
28887
27722
26989
26716
26942
27734
28803
30206
31894
33848
35788
37383
38548
39151
39059
38127
36734
34799
32620
30727
29269
28184
27439
27143
27345
28122
29222
30679
32417
34442
36456
38072
39245
39769
39607
38672
37191
35159
32996
31066
29548
28464
27745
27434
27695
28434
29534
31004
32756
34724
36589
38189
39396
39967
39797
38805
37369
35361
33122
31183
29702
28596
27860
27584
27828
28578
29700
31111
32870
34831
36631
38127
39229
39711
39597
38592
37025
35006
32855
30902
29349
28230
27508
27221
27399
28100
29108
30458
32072
33927
35722
37199
38194
38575
38223
37124
35559
33495
31339
29469
27967
26818
26032
25698
25827
26526
27578
28972
30639
32543
34409
35896
36911
37324
37103
36007
34445
32287
30143
28377
26892
25767
25059
24852
25167
25975
27117
28594
30359
32357
34324
35946
37060
37475
37190
36110
34564
32549
30468
28676
27250
26177
25476
25233
25525
26333
27463
28932
30713
32743
34693
36366
37508
37974
37751
36637
35007
32882
30783
28964
27556
26543
25869
25654
25976
26799
27948
29462
31211
33159
35037
36576
37671
38101
37842
36743
35212
33093
30937
29089
27682
26658
26023
25827
26149
27027
28208
29722
31484
33473
35403
36952
38060
38402
38103
36940
35393
33366
31311
29589
28204
27158
26566
26405
26763
27655
28786
30296
32082
34103
35956
37444
38391
38729
38403
37236
35697
33678
31678
29984
28639
27655
27061
26928
27249
28117
29263
30715
32450
34349
36108
37537
38535
38893
38548
37447
35911
33895
31883
30185
28858
27858
27247
27060
27391
28262
29388
30863
32583
34510
36379
37798
38717
39030
38692
37487
35895
33839
31829
30150
28833
27845
27237
27101
27453
28311
29422
30885
32586
34478
36257
37628
38588
38935
38545
37414
35807
33672
31594
29870
28548
27585
27031
26919
27302
28218
29387
30855
32556
34503
36328
37793
38708
39038
38609
37414
35791
33640
31552
29868
28570
27634
27130
27033
27441
28332
29503
30967
32789
34756
36567
37965
38854
39145
38651
37415
35770
33698
31741
30141
28908
27996
27479
27380
27783
28635
29799
31239
33013
34946
36663
38036
38876
39095
38619
37446
35863
33856
31889
30285
29091
28210
27706
27663
28118
28960
30092
31527
33189
34976
36572
37868
38710
38998
38540
37382
35732
33708
31815
30234
29036
28107
27580
27541
27952
28829
29900
31309
33034
34807
36421
37903
38712
38836
38252
37079
35554
33580
31588
30040
28775
27831
27391
27291
27773
28549
29726
31185
32884
34742
36452
37778
38488
38684
38167
36972
35438
33413
31441
29870
28647
27759
27197
27093
27533
28488
29700
31191
32907
34794
36580
37980
38723
38828
38259
37054
35455
33415
31408
29838
28594
27689
27248
27237
27586
28524
29703
31208
32956
34900
36606
37863
38599
38827
38324
37127
35367
33282
31323
29660
28343
27503
27009
26988
27466
28342
29537
31065
32847
34724
36522
37929
38720
38772
38143
37014
35386
33251
31215
29617
28391
27495
27115
27110
27694
28684
29928
31444
33277
35248
36932
38236
39034
39227
38708
37481
35737
33567
31486
29818
28541
27619
27087
27009
27487
28494
29757
31321
33196
35143
36980
38491
39323
39524
38889
37449
35622
33436
31359
29575
28212
27242
26750
26743
27268
28254
29566
31172
33104
35221
37031
38343
39181
39513
38897
37558
35652
33359
31238
29554
28291
27374
26839
26778
27323
28324
29676
31336
33316
35351
37114
38488
39319
39574
38968
37633
35757
33470
31366
29694
28382
27390
26866
26895
27477
28493
29834
31470
33409
35545
37365
38663
39401
39606
39005
37702
35772
33473
31366
29725
28412
27411
26933
26991
27567
28588
29935
31567
33529
35596
37312
38684
39526
39810
39098
37700
35785
33495
31376
29671
28359
27551
27039
27076
27572
28551
29919
31543
33517
35549
37205
38351
38943
38857
37913
36359
34224
31758
29559
27881
26548
25632
25165
25165
25867
27025
28495
30348
32537
34882
37026
38828
40148
40868
40775
40026
38756
37287
36188
35525
35239
35294
35847
36903
38524
40262
42148
44343
46741
49432
51899
53767
54993
55486
54898
53476
51348
48815
46252
44136
42380
41022
40001
39092
38543
38219
38052
38158
38660
39558
40489
41223
41479
41232
40044
38327
36316
34087
31930
30056
28473
27341
26757
26672
27220
28245
29670
31358
33300
35195
36901
38235
38855
38797
37844
36281
34126
31757
29624
27884
26473
25559
25111
25076
25693
26631
27958
29644
31565
33543
35271
36583
37383
37575
36732
35281
33273
31065
29093
27461
26194
25327
24875
24940
25669
26698
28122
29780
31733
33807
35586
36871
37557
37623
36728
35332
33423
31255
29225
27637
26433
25620
25260
25383
26063
27119
28554
30258
32220
34286
36068
37423
38151
38228
37319
35855
33828
31601
29646
28077
26839
25975
25586
25711
26461
27484
28893
30647
32660
34661
36376
37716
38430
38436
37516
36098
34124
31909
29892
28274
27097
26270
25871
25953
26706
27812
29230
30949
32942
35016
36796
38129
38757
38719
37804
36281
34292
32111
30129
28514
27253
26404
26061
26201
26964
28095
29516
31253
33221
35217
37065
38391
39047
39047
38114
36652
34656
32388
30353
28776
27604
26812
26431
26572
27301
28409
29839
31557
33655
35697
37453
38748
39405
39265
38285
36796
34778
32588
30598
29023
27816
26996
26683
26875
27638
28753
30226
31975
33981
35981
37732
39037
39623
39529
38557
37064
34979
32731
30804
29238
28076
27239
26909
27143
27932
29035
30509
32297
34308
36352
38111
39328
39879
39700
38690
37201
35176
32998
31066
29449
28263
27484
27177
27363
28141
29266
30716
32494
34554
36550
38151
39362
39976
40008
39076
37538
35488
33242
31230
29679
28545
27759
27439
27614
28343
29442
30973
32738
34718
36624
38250
39444
40007
39818
38716
37159
34980
32703
30703
29134
27931
27076
26708
26852
27606
28679
30137
31897
33919
35852
37418
38502
38891
38694
37638
36167
34101
31847
29839
28303
27163
26406
26095
26287
27079
28186
29661
31390
33389
35295
36892
38044
38565
38370
37291
35748
33660
31468
29556
28049
26934
26227
25980
26180
27021
28151
29670
31465
33503
35437
37103
38343
38914
38773
37679
36157
34018
31782
29818
28289
27150
26434
26174
26436
27290
28421
29902
31695
33738
35687
37332
38544
39068
38877
37735
36033
33897
31730
29839
28375
27264
26530
26270
26538
27371
28539
30051
31836
33940
35941
37540
38662
39263
39015
37876
36294
34177
31952
29959
28497
27412
26689
26409
26734
27601
28753
30255
32054
34102
36062
37750
38932
39391
39065
37907
36236
34108
31918
29999
28493
27415
26737
26511
26823
27711
28871
30404
32204
34205
36106
37704
38895
39431
39151
37941
36292
34165
31953
30103
28671
27608
26895
26665
27020
27868
29053
30599
32452
34584
36469
37895
38979
39479
39300
38169
36464
34292
32044
30188
28758
27665
26982
26764
27091
27983
29155
30679
32487
34526
36529
38058
39069
39388
39085
37919
36277
34142
32004
30164
28692
27629
26935
26740
27077
27946
29131
30692
32527
34684
36612
38095
39021
39452
39150
38030
36454
34247
31999
30109
28687
27614
26950
26804
27168
28036
29231
30800
32710
34767
36672
38187
39230
39476
39112
37931
36276
34110
31956
30140
28737
27718
27108
26917
27257
28124
29323
30913
32838
34897
36737
38151
39226
39666
39341
38180
36468
34241
32015
30116
28708
27676
27031
26863
27243
28167
29387
30980
32844
34902
36734
38232
39107
39467
39089
37926
36303
34103
31873
30017
28576
27570
26948
26810
27191
28094
29310
30884
32748
34791
36725
38300
39290
39604
39134
37768
36080
33949
31828
29945
28548
27548
26929
26788
27193
28128
29318
30893
32818
34952
36863
38369
39303
39639
39156
37801
36071
33847
31704
29895
28489
27455
26851
26738
27172
28124
29374
30983
32872
34887
36703
38204
39194
39615
39162
37895
36185
33953
31724
29863
28468
27463
26879
26783
27205
28131
29364
30994
32920
35010
36822
38263
39219
39527
38989
37692
35910
33702
31512
29723
28360
27380
26788
26650
27079
28060
29323
30924
32855
35025
36887
38340
39265
39533
38869
37653
36010
33837
31654
29794
28390
27386
26815
26733
27197
28129
29423
31069
32997
34967
36738
38224
39189
39551
39023
37678
35868
33661
31534
29729
28354
27390
26854
26758
27239
28189
29444
31098
33057
35074
36862
38210
39132
39417
38839
37524
35748
33547
31436
29703
28371
27413
26867
26762
27223
28218
29523
31152
33018
35002
36804
38262
39231
39527
38879
37519
35748
33574
31431
29606
28230
27290
26758
26676
27160
28160
29447
31057
32948
