ECG
35567
35527
35171
34610
34037
33431
32807
32100
31357
30739
30510
30469
30727
31260
32033
32998
33765
34391
34787
35033
35169
35114
34797
34405
33951
33460
32715
31789
31090
30651
30393
30367
30670
31233
32035
32855
33611
34173
34674
34912
35014
34927
34514
34029
33383
32647
31852
31387
30852
30320
30015
30053
30381
30887
31568
32428
33221
33829
34343
34764
34815
34700
34388
34010
33604
32957
32092
31359
30727
30313
30122
30127
30438
31007
31668
32500
33238
33887
34311
34619
34709
34605
34374
34008
33525
32870
32064
31303
30679
30214
29989
30020
30375
30979
31708
32503
33287
33828
34208
34607
34776
34762
34626
34143
33527
32780
32015
31305
30804
30373
30156
30172
30543
31131
31877
32681
33551
34220
34462
34562
34584
34322
33799
33129
32235
31380
30452
29487
28741
28226
27964
27986
28374
29331
30565
31988
33236
34402
35479
36425
37220
37990
38601
39311
40028
40701
41332
42207
43271
44433
45815
47484
49256
51496
53636
55528
56839
57463
57346
56775
55728
54379
52700
50676
48342
45703
42908
40111
37764
35567
33636
31926
30741
29910
29207
28588
28342
28336
28409
28599
28756
28756
28493
28084
27573
26946
26248
25550
24949
24617
24518
24695
25342
26119
27117
28181
29191
30048
30742
31185
31465
31458
31199
30841
30301
29650
28923
28253
27746
27326
27169
27260
27664
28271
29015
29820
30607
31190
31649
31964
32015
32038
31855
31467
30896
30223
29479
28769
28172
27759
27617
27718
28129
28669
29468
30417
31077
31543
31823
32172
32446
32436
32167
31591
30880
30154
29350
28590
27945
27461
27298
27429
27879
28471
29180
29955
30727
31349
31791
32125
32212
32077
31697
31255
30754
30112
29385
28668
28071
27715
27529
27454
27653
28068
28970
29930
30785
31372
31844
32039
32123
32165
31989
31533
31013
30389
29650
28931
28380
27974
27846
27929
28319
28881
29639
30467
31181
31735
32175
32537
32669
32575
32410
31899
31276
30647
29996
29386
28799
28351
28167
28268
28711
29287
30108
30843
31550
32148
32697
32941
32963
32927
32700
32161
31620
31020
30258
29489
28903
28527
28486
28612
29048
29606
30340
31131
31831
32389
32825
33119
33287
33348
33090
32642
32071
31444
30791
30046
29401
28985
28882
28952
29391
29892
30532
31622
32583
33205
33576
33822
33960
33944
33695
33380
32858
32159
31327
30631
30095
29819
29780
30007
30428
30964
31691
32574
33445
34155
34597
34784
34854
34773
34472
34068
33556
32977
32310
31628
31171
30892
30798
30901
31335
31972
32751
33612
34396
35062
35725
36070
36119
36066
35774
35353
34823
34216
33536
32910
32359
31999
31892
32162
32764
33380
34133
34887
35580
36073
36501
36743
36903
36820
36487
36057
35450
34650
33861
33089
32494
32006
31830
31910
32275
32759
33447
34092
34719
35202
35492
35687
35719
35571
35297
34804
34180
33441
32660
31862
31172
30798
30726
30860
31298
31820
32471
33183
34051
34631
34887
35037
35142
35063
34767
34388
33833
33221
32440
31711
31123
30724
30601
30657
31045
31604
32375
33158
33989
34655
35023
35217
35331
35297
35010
34591
34091
33351
32528
31847
31387
31021
30823
30954
31399
32065
32903
33677
34409
34969
35256
35567
35765
35772
35484
35012
34375
33767
33087
32445
31937
31656
31573
31697
32063
32636
33415
34311
35190
35735
35903
36116
36331
36416
35966
35415
34875
34387
33631
32924
32260
31911
31847
32149
32677
33225
33905
34660
35438
36031
36506
36697
36641
36476
36139
35749
35194
34671
34012
33386
32772
32319
32151
32263
32727
33428
34330
35106
35702
36164
36412
36644
36663
36583
36285
35927
35381
34770
34031
33269
32703
32332
32311
32470
32966
33516
34223
34900
35498
35963
36390
36639
36727
36635
36295
35863
35241
34508
33748
33074
32533
32227
32145
32274
32684
33215
33788
34639
35494
36103
36545
36863
36939
36805
36407
35868
35356
34765
34087
33462
32990
32615
32528
32703
33139
33886
34692
35399
35962
36487
36871
37175
37303
37090
36743
36382
35927
35324
34509
33746
33221
32876
32814
33023
33527
34196
34871
35489
36001
36350
36708
36926
37013
36863
36446
35974
35364
34767
34092
33541
33051
32749
32621
32663
32998
33538
34241
34997
35671
36129
36468
36679
36728
36615
36342
35805
35223
34655
33914
33287
32775
32529
32535
32623
32980
33430
34061
34695
35439
35906
36156
36254
36207
36073
35801
35431
35030
34522
33886
33327
32869
32543
32406
32473
32815
33287
33884
34538
35092
35540
35967
36225
36127
35805
35551
35199
34761
34213
33542
32884
32412
32083
31999
32156
32555
33129
33785
34343
34823
35160
35308
35437
35431
35375
35132
34743
34244
33668
33004
32460
32207
32025
31956
32029
32325
32708
33260
33894
34419
34740
34865
35015
35023
34899
34599
34297
33937
33350
32684
32169
31786
31581
31564
31764
32055
32455
32916
33422
33867
34267
34546
34800
34764
34559
34264
33874
33579
33095
32509
31923
31479
31238
31133
31151
31437
31921
32545
33204
33682
33924
34027
34055
33983
33963
33647
33170
32625
32087
31561
31107
30662
30335
30208
30317
30668
31127
31606
32062
32481
32900
33155
33220
33133
32955
32661
32375
31885
31296
30637
30085
29656
29369
29285
29389
29703
30081
30596
31175
31679
32102
32367
32439
32302
32105
31782
31409
30951
30444
29949
29481
29076
28831
28744
28844
29170
29660
30335
30954
31459
31797
31993
32095
32215
32109
31742
31350
30885
30388
29895
29379
28959
28658
28624
28823
29276
29831
30453
31086
31612
32040
32453
32604
32567
32345
32029
31656
31180
30718
30140
29572
29124
28863
28805
28987
29397
29977
30644
31249
31704
32111
32519
32734
32743
32516
32229
31869
31492
31018
30409
29852
29407
29129
29027
29191
29646
30225
30863
31445
31940
32345
32670
32842
32807
32559
32285
31909
31557
30991
30375
29839
29469
29293
29292
29436
29804
30341
30975
31679
32309
32740
32999
33102
33041
32916
32653
32335
31908
31394
30820
30287
29860
29685
29703
29871
30254
30778
31399
32020
32539
32956
33305
33520
33587
33511
33295
32878
32306
31744
31236
30823
30428
30148
30145
30312
30705
31257
32007
32682
33175
33517
33828
34083
34221
34100
33767
33327
32845
32345
31905
31473
31042
30727
30614
30768
31204
31765
32368
32879
33173
33333
33332
33241
32980
32655
32194
31657
31033
30487
29863
29370
29133
29264
29733
30422
31357
32597
34033
35303
36450
37793
39124
40417
41644
42706
43839
45400
46753
47775
49238
50746
52204
53596
54984
56340
57559
58284
58536
58444
57927
56836
55631
53977
52111
49844
47449
45052
42743
40314
37962
35792
34022
32475
31016
29865
29298
29270
29692
30319
30871
31276
31564
31742
31738
31524
31150
30650
30076
29447
28906
28500
28177
28075
28256
28679
29239
29964
30844
31661
32332
32849
33243
33389
33378
33127
32795
32340
31861
31223
30494
29940
29546
29308
29254
29423
29872
30482
31205
31983
32597
32996
33240
33372
33361
33186
32877
32576
32063
31363
30724
30220
29815
29588
29540
29726
30162
30777
31534
32312
32863
33236
33524
33614
33639
33539
33311
32791
32159
31459
30766
30194
29815
29567
29487
29682
30129
30700
31345
31988
32533
33090
33391
33512
33425
33183
32782
32302
31806
31268
30623
29967
29468
29177
29110
29300
29781
30503
31206
31832
32391
32925
33322
33471
33334
33031
32623
32219
31653
30924
30124
29492
29014
28800
28815
29045
29559
30241
31062
31969
32606
33063
33326
33519
33523
33357
33070
32703
32107
31404
30727
30151
29719
29497
29500
29795
30398
31058
31818
32527
33090
33567
34049
34122
34026
33814
33507
33153
32503
31799
31137
30599
30148
29897
29859
30107
30569
31191
31997
32936
33578
34034
34335
34418
34427
34228
33927
33551
32945
32139
31367
30798
30447
30258
30198
30471
31025
31911
32757
33478
34023
34524
34950
35251
35182
34871
34547
34162
33729
33038
32321
31697
31252
31049
31060
31461
32071
32641
33429
34362
34979
35325
35690
35955
36098
36026
35667
35156
34524
33787
33052
32501
32167
32026
32064
32345
32935
33609
34335
35140
35815
36416
36757
36892
36912
36625
36383
35981
35505
34963
34295
33708
33209
32902
32982
33372
33823
34442
35090
35839
36526
37036
37270
37287
37081
36868
36481
35958
35367
34612
33778
33026
32466
32077
31905
32044
32447
32999
33668
34303
34847
35172
35333
35379
35164
34866
34408
33866
33199
32445
31710
31079
30613
30345
30333
30646
31111
31662
32321
32956
33407
33809
34076
34152
34121
33975
33581
33060
32475
31802
31086
30470
30010
29727
29665
29936
30437
31014
31694
32397
33002
33508
33792
33867
33795
33556
33252
32855
32277
31567
30837
30254
29830
29652
29668
29999
30504
31181
31941
32557
32999
33418
33857
33957
33831
33612
33261
32908
32391
31727
31020
30428
29979
29751
29799
30142
30692
31382
32093
32753
33300
33626
33926
34055
34025
33928
33564
33073
32478
31812
31181
30613
30204
30048
30174
30485
30898
31450
32112
32860
33558
33927
34143
34244
34134
33898
33511
33031
32553
32003
31481
30892
30430
30215
30237
30501
30996
31698
32430
33042
33460
33828
34064
34172
34135
33906
33655
33323
32845
32221
31561
30987
30615
30426
30402
30675
31236
31812
32583
33230
33602
33952
34238
34399
34462
34223
33771
33236
32734
32221
31741
31226
30800
30554
30548
30844
31314
31943
32635
33220
33694
34045
34308
34309
34170
33974
33647
33343
32908
32351
31824
31310
30918
30756
30737
30999
31419
32016
32804
33421
33828
34055
34211
34311
34329
34115
33909
33508
33007
32416
31836
31322
30984
30863
30942
31167
31477
32043
32751
33367
33742
34027
34177
34253
34190
33981
33735
33425
32913
32287
31732
31308
31005
30850
30786
30970
31372
31963
32647
33236
33620
33908
34018
34103
34191
34062
33717
33232
32669
32119
31615
31266
30930
30716
30681
30900
31308
31962
32632
33109
33455
33750
34026
34231
34100
33768
33415
32999
32535
32082
31607
31130
30772
30605
30654
30998
31374
31751
32309
32870
33428
33724
33799
33876
33989
33753
33350
32932
32484
31953
31543
31119
30791
30634
30567
30752
31179
31781
32420
32990
33445
33765
33969
34021
33957
33771
33463
33055
32549
32004
31495
31049
30719
30594
30660
30972
31390
31908
32503
33047
33460
33778
34017
34103
34055
33840
33494
33076
32649
32125
31613
31151
30832
30666
30719
30972
31367
31905
32495
32975
33375
33695
33895
33996
33958
33730
33477
33071
32581
32052
31611
31194
30847
30645
30654
30901
31300
31868
32459
33044
33477
33853
34093
34100
33991
33676
33370
32969
32559
32123
31552
31078
30750
30631
30775
31060
31471
31983
32508
33047
33493
33927
34087
34055
33964
33783
33562
33149
32665
32131
31649
31148
30759
30590
30641
30991
31478
31988
32580
33015
33406
33712
33940
34010
34009
33878
33559
33108
32700
32114
31480
30996
30711
30589
30691
31015
31463
32062
32646
33091
33421
33717
33921
34054
34053
33902
33583
33223
32732
32105
31519
31062
30753
30613
30679
31008
31468
32039
32612
33103
33540
33887
34171
34340
34351
34184
33890
33457
32883
32331
31855
31530
31206
31018
31047
31311
31738
32391
33014
33515
33903
34150
34328
34311
34249
33975
33719
33375
32934
32367
31814
31333
31013
30861
30924
31298
31788
32312
32814
33301
33705
33974
34156
34232
34191
33963
33660
33287
32837
32218
31605
31055
30687
30501
30527
30817
31268
31855
32423
32991
33444
33759
33959
34036
33981
33734
33397
32958
32448
31863
31335
30874
30562
30444
30490
30791
31220
31773
32388
32921
33438
33779
33924
33978
33983
33700
33334
32821
32293
31729
31239
30860
30565
30476
30511
30793
31239
31838
32468
33031
33470
33727
33853
33830
33723
33463
33193
32863
32396
31858
31305
30824
30480
30333
30407
30709
31199
31908
32566
33043
33345
33615
33789
33869
33783
33515
33146
32549
31776
30903
30026
29279
28709
28462
28406
28602
28935
29425
29989
30584
31317
32244
32996
33573
34104
34555
34905
35223
35563
35796
36422
37292
38454
39812
41575
43673
45876
48522
51124
53597
55692
57540
59072
60052
60352
59870
58817
57271
55519
53392
51094
48680
46233
43836
41633
39777
38041
36741
35598
34647
33696
32637
31463
30362
29520
28956
28527
28063
27551
27016
26503
26021
25654
25471
25485
25775
26226
26852
27564
28218
28788
29274
29671
29936
30109
30039
29834
29515
29115
28622
28164
27783
27534
27467
27564
27908
28380
28982
29615
30159
30560
30831
31008
31068
31023
30844
30583
30196
29762
29271
28811
28460
28255
28221
28380
28756
29229
29766
30335
30829
31236
31605
31900
32006
31956
31716
31360
30925
30438
29921
29482
29139
28953
28894
28996
29311
29740
30339
30935
31428
31829
32132
32321
32366
32389
32219
31877
31457
30945
30446
30001
29661
29455
29407
29466
29772
30233
30944
31503
31945
32294
32510
32668
32804
32749
32485
32180
31703
31219
30706
30317
29989
29719
29621
29727
30046
30468
30989
31532
32087
32569
32852
33029
33077
32956
32663
32361
31984
31521
31023
30572
30228
30029
29981
30151
30455
30894
31455
31991
32396
32743
33031
33212
33287
33250
33030
32759
32376
31945
31432
30975
30599
30328
30268
30397
30743
31178
31751
32273
32695
33031
33276
33423
33568
33500
33214
32914
32532
32060
31516
31055
30711
30505
30457
30644
31015
31475
32046
32591
33027
33316
33599
33765
33898
33938
33719
33420
33073
32620
32087
31658
31428
31255
31229
31316
31598
32046
32607
33159
33701
34139
34463
34639
34687
34580
34303
34015
33684
33407
32945
32482
32049
31842
31854
32099
32456
32903
33423
33876
34364
34823
35200
35412
35407
35195
35013
34788
34567
34079
33502
33094
32740
32548
32517
32741
33181
33655
34194
34716
35103
35463
35635
35807
35847
35740
35491
35167
34783
34311
33765
33287
32943
32764
32668
32725
32967
33279
33641
34054
34543
34850
34909
34823
34766
34702
34439
34000
33495
32831
32246
31735
31364
31123
30951
31002
31207
31518
31988
32417
32791
33125
33422
33513
33383
33127
32838
32612
32243
31701
31095
30594
30224
30008
29977
30068
30345
30692
31190
31663
32076
32399
32628
32765
32897
32813
32547
32231
31750
31290
30797
30364
30050
29887
29823
29914
30215
30646
31165
31711
32238
32644
32871
32993
32987
32786
32541
32230
31852
31428
30923
30534
30273
30063
30025
30143
30426
30827
31335
31911
32470
32810
33022
33125
33054
32950
32715
32444
32127
31669
31132
30639
30294
30130
30168
30316
30628
31046
31519
32043
32484
32807
33068
33359
33381
33222
32897
32534
32141
31717
31260
30829
30517
30310
30230
30341
30660
31181
31762
32258
32604
32935
33165
33463
33479
33273
32937
32585
32215
31787
31405
30950
30543
30300
30225
30382
30823
31223
31657
32204
32775
33047
33177
33275
33269
33198
33059
32710
32167
31700
31199
30874
30543
30298
30207
30347
30705
31253
31751
32156
32580
32873
33156
33420
33407
33302
33020
32676
32223
31747
31277
30900
30571
30374
30295
30380
30723
31133
31659
32322
32794
33070
33243
33368
33508
33407
33135
32775
32287
31825
31357
30980
30679
30452
30396
30553
30869
31294
31872
32396
32807
33138
33390
33562
33556
33431
33196
32887
32486
31965
31477
31067
30820
30677
30639
30766
31077
31484
32060
32652
33175
33551
33687
33735
33737
33700
33516
33191
32766
32263
31785
31367
31050
30846
30823
30922
31239
31726
32244
32753
33260
33705
33951
34044
33965
33829
33639
33415
32981
32383
31870
31444
31201
31028
30964
31081
31407
31932
32584
33055
33355
33689
34055
34175
34111
33895
33663
33343
33062
32612
32026
31518
31167
31005
31095
31229
31489
31948
32581
33205
33628
33987
34172
34157
34119
34076
33851
33450
32972
32493
32045
31698
31337
31141
31047
31207
31552
32069
32719
33114
33489
33932
34223
34306
34228
33972
33711
33387
33061
32636
32109
31595
31180
30983
30987
31257
31572
31978
32516
33180
33588
33857
33997
34108
34137
34105
33844
33471
32980
32505
32122
31657
31239
30997
31022
31300
31631
32047
32548
33080
33641
33885
33972
34100
34213
34064
33726
33343
32927
32535
32071
31538
31122
31004
31057
31254
31580
31959
32493
33062
33642
33983
34199
34293
34276
34135
33799
33404
32945
32420
31927
31604
31262
31040
30965
31127
31477
32079
32684
33147
33564
33823
34054
34183
34180
34147
33915
33513
33053
32515
31989
31514
31163
31100
31102
31221
31556
31992
32549
33170
33689
34023
34184
34225
34241
34108
33948
33586
33106
32555
32015
31558
31164
31023
31092
31300
31598
31997
32551
33124
33663
33973
34143
34207
34231
34252
33866
33421
32958
32554
32077
31564
31143
30920
30868
31085
31559
32135
32720
33204
33594
33961
34217
34479
34580
34444
34176
33831
33316
32812
32293
31812
31487
31329
31337
31560
31926
32391
32950
33453
33890
34181
34335
34458
34436
34289
34118
33796
33339
32748
32156
31710
31390
31330
31351
31551
31910
32326
32839
33357
33767
34086
34388
34684
34599
34364
34027
33562
33089
32525
31938
31466
31109
30951
30919
31132
31527
32087
32775
33287
33670
33937
34166
34284
34255
34170
33913
33554
33099
32525
31980
31499
31149
30959
30944
31177
31661
32151
32712
33220
33652
33972
34181
34318
34396
34239
33919
33492
32990
32503
31940
31583
31294
31071
30975
31135
31537
32146
32780
33324
33728
33996
34223
34379
34463
34237
33895
33446
33017
32482
31988
31631
31358
31137
31090
31335
31730
32298
32975
33480
33836
34038
34236
34290
34311
33986
33342
32692
31925
31195
30401
29684
29164
28871
28783
28973
29300
29822
30590
31532
32575
33447
34241
34887
35432
35975
36537
37124
37617
38214
38917
39764
40932
42368
44273
46367
48770
51135
53481
55631
57470
59015
59844
60021
59399
58271
56959
55180
52999
50540
47908
45101
42604
40400
38497
36871
35452
34339
33437
32527
31504
30545
29895
29517
29327
29173
28931
28543
28073
27552
26978
26478
26093
25872
25825
26071
26511
27138
27834
28539
29163
29699
30174
30492
30612
30518
30284
29959
29546
29118
28622
28227
27914
27774
27780
28005
28446
29030
29631
30151
30580
30940
31182
31393
31438
31279
30936
30551
30119
29648
29169
28777
28506
28391
28453
28753
29191
29768
30358
30844
31254
31628
31952
32132
32135
31974
31697
31324
30917
30438
29927
29460
29163
29007
29014
29263
29676
30201
30823
31436
31906
32247
32478
32527
32436
32257
32005
31687
31308
30799
30341
29956
29671
29529
29549
29764
30150
30661
31255
31804
32257
32646
32940
33041
33011
32802
32486
32081
31658
31137
30645
30255
30012
29959
30034
30239
30612
31116
31700
32357
32722
32938
33151
33391
33392
33167
32791
32431
31977
31478
31021
30693
30406
30251
30247
30517
30875
31432
32103
32568
32903
33223
33596
33716
33541
33347
33099
32857
32410
31879
31333
30885
30658
30592
30593
30790
31167
31700
32255
32758
33286
33631
33870
33955
33917
33687
33326
32966
32621
32228
31765
31356
31036
30937
30916
31153
31533
32047
32598
33124
33615
33918
34175
34299
34279
34109
33847
33486
33031
32511
32066
31695
31415
31316
31443
31804
32213
32767
33351
33847
34252
34454
34696
34818
34977
34847
34603
34242
33812
33372
32914
32495
32229
32140
32220
32582
33055
33594
34110
34596
34983
35296
35501
35499
35534
35396
35223
34908
34587
34124
33652
33278
33014
32860
32915
33223
33644
34143
34693
35268
35716
35999
36143
36071
36060
35879
35692
35364
34916
34355
33834
33401
33063
32892
32863
32991
33185
33573
33988
34511
34748
34847
34892
34823
34738
34507
34257
33767
33178
32558
32030
31557
31223
31127
31151
31335
31585
31946
32407
32808
33111
33341
33527
33614
33543
33217
32817
32408
31928
31499
31068
30615
30272
30095
30119
30460
30847
31286
31727
32103
32439
32737
32983
33092
33023
32789
32453
32036
31617
31132
30799
30423
30135
29952
29959
30250
30631
31116
31607
32074
32501
32892
33096
33151
33057
32796
32511
32161
31735
31268
30860
30571
30325
30185
30206
30418
30757
31250
31884
32350
32677
32863
33025
33193
33190
32953
32609
32207
31772
31341
31039
30663
30329
30183
30247
30628
30995
31390
31875
32477
32887
33144
33285
33233
33177
33110
32882
32477
32024
31489
31046
30727
30582
30500
30494
30699
31055
31526
32026
32522
32921
33255
33382
33386
33207
33004
32845
32564
32079
31516
31073
30692
30455
30405
30569
30875
31260
31751
32201
32543
32874
33131
33429
33527
33445
33261
32983
32585
32126
31613
31171
30810
30581
30553
30692
30951
31257
31686
32199
32751
33141
33415
33535
33460
33383
33193
32949
32653
32331
31806
31319
30924
30657
30559
30603
30939
31382
31895
32350
32699
33063
33333
33589
33695
33627
33350
33013
32653
32327
31903
31495
31103
30781
30684
30727
31060
31524
31968
32450
32848
33246
33572
33837
33878
33759
33506
33122
32775
32380
31919
31468
31131
30930
30914
30994
31283
31658
32122
32585
32997
33335
33612
33796
33926
33938
33737
33417
33013
32519
32060
31589
31223
31111
31023
31045
31292
31677
32290
32841
33266
33581
33815
33933
33976
33952
33764
33541
33223
32751
32224
31740
31340
31076
31012
31093
31414
31828
32391
32870
33343
33698
34015
34141
34097
33959
33736
33503
33236
32841
32367
31889
31478
31234
31149
31212
31500
31874
32354
32956
33453
33798
34044
34142
34140
33948
33737
33469
33086
32705
32249
31906
31588
31359
31255
31360
31645
31959
32438
32881
33318
33689
33983
34223
34310
34205
33924
33513
33154
32710
32334
31975
31572
31249
31153
31221
31660
32059
32490
32894
33316
33717
34065
34141
34078
34013
33799
33534
33209
32839
32422
31925
31463
31206
31198
31361
31642
32007
32445
32902
33341
33839
34127
34247
34239
34133
33830
33578
33185
32750
32311
31918
31621
31444
31349
31432
31692
31996
32487
32975
33370
33703
33989
34182
34230
34197
33993
33695
33262
32772
32288
31925
31640
31447
31353
31375
31636
32020
32487
33036
33578
33852
33975
34118
34150
34105
33980
33711
33303
32805
32294
31900
31559
31332
31289
31407
31703
32100
32684
33188
33617
33913
34127
34279
34319
34247
33996
33662
33212
32801
32317
31912
31583
31384
31405
31541
31816
32211
32707
33190
33620
33799
34061
34332
34356
34259
34039
33748
33307
32857
32335
31921
31607
31402
31356
31439
31708
32076
32590
33173
33636
33924
34111
34215
34148
34095
33887
33665
33391
32913
32421
32028
31623
31319
31287
31415
31748
32180
32743
33170
33647
33962
34184
34271
34252
34159
33975
33684
33287
32835
32383
31991
31666
31489
31527
31748
32091
32532
33055
33559
34022
34357
34589
34698
34690
34598
34364
34079
33692
33254
32771
32337
31974
31709
31621
31732
32038
32440
32920
33461
33951
34268
34433
34518
34468
34383
34143
33899
33631
33242
32735
32279
31909
31693
31583
31665
31956
32373
32897
33386
33722
33909
34020
34151
34196
34106
33887
33715
33339
32900
32409
31966
31620
31396
31330
31406
31679
32053
32506
32993
33413
33715
33915
34029
34055
33980
33783
33511
33117
32687
32245
31813
31532
31375
31325
31408
31693
32050
32519
33012
33396
33692
33889
34045
34119
34055
33863
33492
33042
32613
32171
31751
31434
31225
31215
31380
31779
32198
32695
33131
33453
33748
33962
34088
34107
33991
33772
33439
33069
32636
32198
31786
31481
31277
31160
31208
31366
31537
31727
31871
31932
32033
32169
32207
32103
31875
31566
31247
31012
30901
30912
30959
31085
31496
32087
32918
33963
35175
36495
37930
39366
40837
42424
44064
45652
47223
48775
50338
51860
53145
54247
55060
55541
55647
55404
55005
54343
53462
52321
50981
49472
47668
45700
43857
41954
40044
38143
36343
34637
32839
30920
29096
27716
26893
26566
26590
26911
27316
27811
28287
28655
28914
29062
29103
29081
28951
28734
28495
28249
27999
27726
27527
27438
27449
27561
27841
28279
28762
29342
29901
30330
30652
30895
31022
31049
30921
30673
30413
30090
29713
29294
28903
28622
28478
28514
28690
29051
29503
30025
30564
31016
31362
31581
31670
31677
31596
31375
31083
30703
30292
29871
29527
29257
29100
29110
29339
29703
30126
30635
31117
31533
31910
32196
32351
32356
32229
32006
31705
31223
30789
30377
30014
29751
29565
29535
29703
30030
30463
30983
31500
31959
32311
32498
32599
32629
32476
32228
31895
31526
31100
30700
30344
30134
30003
29982
30165
30476
30877
31364
31851
32263
32566
32791
32938
32972
32837
32604
32292
31959
31499
31026
30619
30321
30134
30119
30282
30617
31038
31583
32082
32477
32860
33140
33252
33197
33121
32900
32564
32150
31708
31207
30821
30536
30420
30485
30679
31031
31494
32046
32528
32967
33263
33482
33595
33570
33433
33210
32890
32513
32096
31636
31229
30934
30790
30811
30999
31319
31751
32271
32715
33108
33383
33628
33733
33821
33676
33540
33258
32904
32447
31953
31569
31259
31113
31162
31367
31692
32127
32705
33309
33767
34090
34299
34439
34373
34249
34084
33868
33527
33097
32671
32305
32002
31862
31919
32168
32532
32996
33524
34016
34460
34818
35028
35154
35174
35028
34823
34539
34185
33754
33351
32960
32728
32588
32623
32815
33100
33577
34100
34599
35018
35335
35562
35709
35791
35711
35474
35205
34838
34421
33952
33566
33208
33058
33091
33287
33588
34007
34495
35005
35361
35494
35521
35574
35513
35279
35001
34701
34254
33710
33179
32604
32189
31956
31866
31975
32295
32640
33087
33447
33761
33941
34047
34036
33959
33721
33372
32958
32479
31956
31412
30951
30651
30476
30434
30580
30845
31204
31635
32100
32476
32793
32908
32920
32871
32683
32398
32026
31607
31127
30693
30324
30072
29941
29927
30130
30469
30903
31397
31826
32215
32493
32679
32765
32819
32633
32318
31983
31686
31289
30839
30427
30189
30066
30103
30329
30727
31197
31694
32146
32533
32775
32970
33031
33002
32842
32593
32247
31844
31423
30956
30566
30246
30116
30151
30359
30699
31137
31627
32079
32463
32775
32948
33053
33028
32839
32565
32289
31927
31463
31006
30637
30363
30340
30391
30650
31003
31422
31902
32341
32729
32963
33128
33178
33167
33012
32759
32518
32164
31701
31239
30867
30567
30428
30449
30695
31125
31621
32100
32561
32915
33156
33284
33251
33209
33005
32743
32485
32166
31732
31333
30972
30709
30594
30621
30854
31203
31687
32192
32629
32988
33229
33407
33489
33453
33233
32852
32524
32151
31721
31277
30929
30685
30538
30626
30990
31343
31772
32270
32629
32993
33263
33518
33655
33582
33348
33046
32654
32273
31813
31409
31051
30774
30658
30719
30951
31314
31780
32289
32737
33121
33442
33693
33765
33743
33573
33306
32986
32589
32149
31681
31293
31012
30876
30891
31142
31470
31934
32441
32916
33319
33618
33830
33868
33838
33627
33349
32996
32570
32095
31671
31332
31060
30944
30967
31239
31631
32183
32676
33023
33359
33609
33780
33895
33919
33754
33481
33084
32586
32132
31722
31359
31143
31054
31174
31447
31782
32196
32679
33133
33428
33657
33823
33891
33829
33625
33359
32999
32586
32136
31717
31372
31125
31068
31159
31473
31847
32303
32775
33209
33514
33828
33999
34007
33957
33787
33524
33169
32758
32245
31730
31362
31111
31086
31205
31513
31852
32327
32796
33191
33526
33825
33975
34082
34077
33830
33524
33099
32677
32206
31774
31430
31204
31169
31273
31562
31948
32398
32901
33346
33671
33866
34012
33988
33898
33707
33473
33158
32724
32337
31964
31630
31326
31167
31212
31458
31805
32263
32769
33279
33684
33956
34122
34175
34085
33852
33582
33227
32786
32330
31899
31513
31270
31183
31230
31546
31926
32481
33005
33422
33759
34002
34176
34143
33966
33741
33469
33135
32742
32284
31879
31647
31451
31367
31415
31660
31973
32390
32870
33308
33693
34049
34199
34220
34172
33943
33671
33324
32918
32414
31975
31625
31425
31327
31346
31576
31915
32399
32921
33343
33655
33937
34144
34215
34081
33924
33708
33367
32922
32407
31932
31579
31324
31255
31333
31596
31979
32481
33071
33524
33787
34040
34148
34070
34000
33813
33518
33231
32883
32473
32056
31717
31438
31335
31421
31684
32079
32484
32975
33403
33757
34055
34281
34334
34257
34030
33746
33375
32965
32410
31959
31617
31366
31279
31351
31681
32146
32668
33151
33582
33907
34108
34119
34129
34047
33829
33580
33303
32952
32511
32067
31691
31478
31455
31557
31820
32159
32567
33031
33437
33775
34019
34124
34159
34102
33919
33636
33279
32857
32398
31946
31606
31399
31363
31435
31727
32070
32615
33111
33516
33883
34141
34306
34340
34229
33988
33671
33284
32846
32335
31908
31574
31385
31367
31545
31932
32370
32863
33405
33879
34255
34526
34559
34516
34455
34220
33932
33578
33205
32797
32349
32035
31795
31701
31775
32037
32430
32927
33409
33799
34143
34340
34447
34468
34348
34144
33863
33551
33110
32656
32223
31895
31623
31527
31608
31879
32260
32713
33159
33495
33760
33930
34023
34047
33917
33670
33396
33004
32580
32133
31711
31406
31279
31228
31391
31719
32077
32533
32975
33357
33637
33860
33973
34009
33987
33820
33551
33191
32831
32356
31940
31611
31391
31279
31391
31673
32004
32471
32935
33332
33624
33864
33991
34021
33956
33767
33514
33146
32718
32313
31871
31580
31357
31307
31418
31695
32074
32534
32992
33402
33694
33940
34119
34215
34167
33910
33575
33121
32701
32263
31840
31597
31367
31265
31279
31428
31638
31862
32034
32155
32220
32213
32113
31952
31711
31383
31002
30640
30390
30332
30412
30580
30858
31385
32132
33060
34108
35370
36776
38242
39712
41381
42956
44783
46589
48252
49951
51645
53156
54471
55748
56646
57239
57274
56966
56415
55625
54701
53520
52102
50479
48562
46481
44384
42348
40163
38074
36039
34157
32279
30368
28602
27329
26663
26476
26669
27020
27471
27904
28236
28475
28670
28743
28772
28665
28469
28278
28114
27929
27684
27509
27397
27360
27444
27683
28049
28538
29111
29635
30071
30367
30558
30661
30687
30586
30391
30172
29868
29503
29036
28679
28388
28225
28231
28404
28735
29174
29722
30196
30587
30903
31167
31324
31379
31309
31079
30804
30454
30049
29643
29301
29022
28854
28867
29015
29338
29767
30300
30805
31192
31524
31739
31834
31879
31804
31583
31278
30920
30522
30111
29807
29479
29287
29233
29383
29703
30132
30633
31111
31493
31795
32044
32231
32263
32254
32063
31780
31439
31007
30517
30116
29871
29695
29654
29786
30119
30535
31119
31625
32033
32292
32455
32563
32584
32463
32327
32109
31786
31359
30871
30439
30141
29967
29927
30074
30388
30820
31321
31818
32263
32628
32900
33063
33067
32916
32659
32337
31918
31482
31035
30637
30367
30276
30294
30487
30828
31276
31767
32177
32567
32881
33098
33201
33201
33127
32929
32727
32357
31896
31418
31023
30714
30545
30520
30662
31016
31459
32038
32559
32988
33301
33484
33603
33599
33468
33212
32916
32551
32077
31611
31208
30958
30804
30781
30975
31334
31839
32411
32924
33380
33685
33900
34034
34025
33829
33613
33277
32908
32495
32092
31782
31614
31479
31494
31685
32031
32429
32940
33420
33991
34326
34527
34604
34618
34439
34210
33927
33580
33189
32775
32413
32194
32141
32231
32487
32817
33224
33642
34129
34561
34896
35148
35327
35463
35311
35108
34885
34597
34241
33846
33432
33151
33018
33058
33284
33644
34095
34602
35079
35471
35714
35892
35937
35847
35653
35335
34958
34487
33943
33404
32927
32519
32325
32241
32364
32673
33018
33391
33799
34044
34262
34380
34404
34378
34172
33862
33579
33127
32590
32053
31553
31127
30927
30881
31008
31277
31650
32103
32487
32775
33020
33175
33247
33245
33066
32794
32485
32131
31674
31201
30788
30462
30278
30234
30404
30699
31148
31633
32111
32519
32831
33044
33124
33119
33014
32743
32427
32047
31619
31169
30782
30476
30317
30300
30471
30839
31324
31818
32244
32588
32876
33099
33223
33195
33074
32911
32607
32193
31769
31284
30888
30591
30428
30416
30602
30899
31343
31910
32417
32862
33143
33338
33390
33348
33179
32873
32577
32201
31746
31325
30952
30672
30575
30618
30847
31212
31647
32126
32528
32844
33112
33299
33383
33399
33285
33055
32775
32389
31978
31556
31132
30821
30635
30607
30823
31208
31723
32203
32630
32947
33198
33375
33444
33411
33379
33157
32818
32439
32001
31564
31116
30727
30581
30695
30955
31295
31687
32091
32535
32911
33196
33383
33463
33447
33284
33022
32720
32396
32019
31586
31175
30882
30752
30766
30930
31269
31700
32162
32584
32949
33311
33498
33627
33655
33500
33255
32943
32559
32015
31637
31277
30982
30877
30910
31165
31515
31911
32340
32784
33148
33533
33796
33851
33765
33526
33255
32924
32519
32133
31793
31404
31101
30937
30940
31103
31448
31948
32543
33009
33366
33628
33758
33847
33799
33625
33370
33110
32813
32372
31902
31455
31180
31055
31063
31274
31646
32107
32666
33180
33538
33839
34036
34074
34025
33901
33668
33338
32940
32439
31947
31564
31270
31119
31148
31369
31783
32363
32895
33354
33709
33983
34133
34196
34146
33965
33700
33374
32948
32503
32068
31687
31438
31262
31284
31509
31823
32261
32735
33182
33660
33996
34142
34074
34013
33848
33566
33247
32868
32436
32054
31740
31457
31303
31318
31493
31822
32263
32735
33191
33645
33970
34150
34186
34102
33854
33575
33244
32823
32383
32017
31727
31453
31348
31334
31487
31834
32293
32844
33350
33767
33988
34094
34119
34068
33884
33709
33443
33058
32530
32003
31654
31408
31340
31366
31596
31951
32450
32999
33511
33863
34075
34203
34235
34129
33965
33701
33373
33044
32684
32214
31815
31557
31426
31455
31651
31981
32510
33085
33571
33919
34118
34253
34239
34207
34009
33812
33558
33150
32701
32231
31846
31556
31430
31468
31725
32063
32588
33113
33543
33924
34158
34263
34231
34174
33991
33738
33391
32980
32529
32094
31772
31565
31538
31620
31838
32188
32626
33093
33503
33781
34036
34173
34217
34150
33979
33778
33481
33090
32561
32084
31719
31450
31379
31546
31837
32199
32666
33137
33607
33950
34180
34280
34253
34167
33979
33711
33351
33031
32646
32214
31812
31541
31450
31494
31747
32060
32509
32975
33415
33757
34074
34311
34346
34263
34055
33687
33326
32932
32463
32060
31810
31571
31484
31510
31751
32107
32558
33005
33444
33759
34002
34278
34375
34324
34083
33812
33463
33079
32623
32182
31831
31532
31439
31495
31741
32087
32565
33028
33438
33823
34169
34370
34452
34388
34175
33877
33507
33123
32714
32303
31928
31681
31589
31623
31874
32202
32626
33103
33535
33870
34137
34390
34428
34313
34076
33831
33492
33072
32607
32198
31847
31579
31506
31599
31940
32380
32973
33597
34051
34304
34455
34605
34653
34695
34516
34149
33705
33274
32791
32333
31988
31751
31734
31847
32164
32528
32999
33445
33857
34204
34444
34615
34666
34567
34311
33951
33570
33134
32676
32244
31891
31651
31575
31660
31913
32292
32731
33183
33550
33823
34002
34166
34237
34207
33998
33762
33425
32993
32444
32018
31679
31427
31331
31436
31751
32135
32583
33076
33550
33886
34086
34111
34123
34046
33839
33543
33204
32901
32508
32101
31711
31423
31313
31386
31655
32033
32527
33023
33456
33830
34127
34278
34324
34189
33903
33615
33223
32817
32373
31926
31588
31423
31398
31486
31794
32186
32650
33079
33491
33748
33958
34076
34126
34151
34031
33751
33391
32943
32470
32028
31647
31273
31103
31063
31123
31257
31406
31628
31879
32023
32075
32072
31995
31847
31599
31457
31489
31567
31623
31714
31955
32370
32988
33799
34847
35989
37224
38746
40297
41964
43695
45462
47235
48986
50658
52215
53573
54670
55462
55860
55773
55344
54689
53812
52775
51536
50207
48769
47092
45228
43429
41615
39756
38101
36394
34845
33127
31335
29540
28135
27271
26805
26670
26812
27092
27446
27885
28314
28663
28919
29087
29185
29183
29107
28987
28848
28698
28492
28251
28054
27884
27825
27896
28099
28471
28903
29428
29981
30447
30772
31044
31182
31215
31137
30915
30625
30275
29943
29591
29197
28874
28679
28647
28773
29055
29457
29973
30479
30916
31283
31557
31694
31717
31639
31444
31176
30867
30495
30108
29768
29542
29344
29311
29443
29763
30191
30717
31157
31565
31897
32166
32347
32378
32263
32055
31746
31394
30976
30563
30199
29923
29759
29717
29893
30236
30606
31086
31529
31951
32346
32590
32695
32679
32541
32295
32020
31691
31285
30906
30554
30263
30079
30080
30175
30487
30831
31287
31771
32195
32537
32771
32880
32876
32772
32575
32335
31957
31567
31148
30796
30507
30293
30241
30356
30652
31068
31552
32007
32420
32799
33078
33199
33165
33077
32879
32606
32271
31902
31493
31116
30815
30647
30620
30758
31021
31423
31931
32424
32879
33248
33511
33660
33663
33564
33375
33094
32767
32313
31925
31471
31134
30917
30874
31007
31310
31699
32192
32668
33071
33423
33721
33862
33903
33793
33557
33231
32927
32607
32199
31855
31579
31399
31377
31503
31802
32245
32767
33280
33707
33973
34151
34270
34293
34223
34033
33789
33562
33218
32794
32453
32169
32035
32031
32180
32506
32933
33463
33919
34332
34611
34820
34927
34959
34877
34691
34445
34127
33719
33290
32935
32647
32490
32471
32623
32932
33343
33831
34303
34735
35066
35316
35470
35494
35392
35215
34932
34628
34241
33839
33561
33307
33132
33119
33244
33517
33899
34346
34781
35124
35355
35495
35562
35492
35279
34961
34601
34148
33648
33158
32682
32263
31957
31889
32004
32255
32591
32986
33325
33601
33741
33838
33827
33780
33564
33285
32936
32498
32015
31543
31111
30775
30537
30452
30519
30786
31239
31740
32174
32528
32756
32977
33070
33070
32924
32660
32329
31906
31467
31006
30599
30250
30048
29983
30123
30436
30870
31391
31861
32303
32607
32801
32877
32862
32729
32497
32175
31769
31357
30948
30564
30270
30132
30134
30291
30606
31044
31527
32044
32492
32766
32919
32989
32999
32853
32642
32349
31995
31535
31108
30711
30410
30250
30215
30357
30655
31075
31574
32020
32372
32644
32828
32932
32975
32870
32620
32330
31988
31610
31279
30919
30630
30500
30498
30637
30935
31342
31764
32175
32511
32756
32931
33067
33094
32967
32775
32495
32135
31677
31220
30789
30436
30215
30139
30260
30503
30839
31311
31733
32101
32373
32567
32676
32684
32615
32447
32186
31893
31495
31111
30764
30470
30328
30332
30462
30761
31194
31704
32167
32511
32794
33052
33175
33223
33145
33083
32975
32839
32604
32375
32231
32279
32524
33039
33829
34549
35440
36300
37189
38044
38857
39528
40149
40687
41020
41400
41767
42125
42628
43138
43764
44548
45455
46415
47573
48876
50380
51920
53464
54908
56308
57511
58671
59654
60476
61057
61397
61518
61127
60679
59975
59343
58830
58345
58004
57831
57518
57119
56511
55714
54807
53812
52686
51387
49998
48543
47111
45529
44089
42535
41065
39751
38766
37785
37070
36420
36031
35727
35507
35263
34982
34662
34276
33831
33305
32775
32294
31840
31386
30926
30501
30077
29897
29885
30079
30348
30694
31167
31595
31870
32033
32081
32071
31834
31396
30770
30064
29314
28544
27772
26987
26278
25685
25246
24981
24861
24856
24890
24932
24923
24868
24769
24596
24372
24053
23729
23360
22944
22495
22031
21633
21327
21134
21044
21146
21402
21821
22295
22693
23041
23316
23508
23620
23633
23445
23220
22924
22571
22200
21863
21555
21327
21218
21202
21419
21790
22212
22693
23153
23500
23789
24005
24103
24103
23989
23750
23462
23142
22775
22406
22119
21921
21847
21896
22100
22433
22861
23367
23836
24205
24473
24681
24807
24817
24690
24513
24236
23889
23498
23103
22765
22535
22460
22487
22697
23069
23532
24026
24468
24815
25087
25282
25372
25349
25223
25013
24745
24418
24052
23649
23294
23060
22968
22990
23223
23540
23970
24463
24902
25242
25510
25699
25785
25779
25670
25460
25202
24885
24519
24155
23847
23603
23540
23590
23834
24199
24682
25162
25635
25994
26272
26487
26615
26623
26527
26374
26119
25823
25506
25184
24910
24783
24743
24862
25184
25605
26130
26690
27202
27643
28015
28284
28473
28545
28514
28407
28269
28061
27824
27578
27349
27203
27201
27371
27727
28212
28791
29415
29977
30481
30943
31324
31576
31783
31874
31882
31774
31599
31365
31153
31001
30972
31122
31431
31853
32359
32980
33613
34232
34773
35207
35549
35769
35887
35855
35754
35507
35303
35014
34783
34603
34520
34600
34895
35224
35581
36006
36579
37095
37590
37984
38214
38379
38375
38277
38076
37823
37478
37101
36661
36247
36031
35996
36088
36462
36743
37127
37549
37917
38144
38279
38323
38372
38254
38040
37733
37397
37021
36580
36094
35743
35487
35335
35307
35471
35708
36035
36421
36666
36862
36967
36923
36975
36860
36615
36234
35805
35375
34785
34378
33924
33585
33405
33365
33514
33849
34293
34703
35054
35303
35431
35476
35413
35195
34986
34663
34335
33919
33452
33003
32631
32363
32227
32362
32629
32927
33345
33796
34059
34277
34471
34607
34763
34796
34593
34311
33879
33557
33207
32786
32390
32064
31935
31961
32186
32495
32954
33441
33977
34259
34468
34580
34537
34415
34215
34004
33775
33516
33084
32680
32311
32036
31910
31972
32157
32460
32882
33322
33753
34127
34436
34636
34663
34580
34379
34155
33820
33439
33029
32628
32311
32048
31972
31993
32196
32596
33062
33502
33863
34205
34399
34551
34578
34407
34204
33956
33618
33239
32823
32404
32089
31981
31938
32010
32239
32540
32902
33351
33773
34084
34326
34437
34575
34506
34367
34140
33781
33422
32996
32604
32230
31939
31836
31893
32135
32440
32871
33346
33765
34068
34349
34546
34630
34567
34383
34118
33761
33345
32893
32477
32135
31853
31765
31828
32076
32421
32871
33371
33756
34091
34299
34495
34527
34492
34310
34052
33711
33321
32868
32433
32052
31772
31679
31738
31970
32330
32855
33297
33638
33933
34071
34183
34205
34174
33973
33767
33439
33127
32741
32375
32063
31825
31709
31765
32026
32358
32823
33305
33711
33994
34207
34359
34340
34286
34003
33779
33423
33048
32671
32308
31967
31741
31639
31671
31883
32198
32643
33098
33524
33831
34055
34233
34348
34307
34118
33825
33455
33076
32585
32216
31920
31684
31593
31694
31953
32396
32916
33367
33740
33997
34137
34261
34300
34260
34055
33767
33439
33064
32660
32276
31966
31766
31751
31876
32145
32484
32964
33413
33764
34070
34302
34409
34439
34355
34055
33797
33463
33069
32637
32231
31909
31663
31587
31718
32065
32455
32932
33389
33759
34055
34239
34327
34396
34325
34108
33844
33478
32967
32535
32150
31820
31604
31668
31785
32037
32364
32828
33287
33687
33998
34164
34301
34374
34177
34005
33804
33463
33040
32602
32167
31860
31676
31628
31700
31981
32295
32730
33217
33634
33959
34193
34311
34343
34263
34045
33785
33448
33061
32614
32221
31897
31670
31621
31700
31987
32359
32800
33249
33635
33956
34167
34288
34294
34195
33975
33703
33356
32889
32465
32095
31786
31567
31549
31645
31895
32295
32813
33236
33713
33977
34188
34326
34337
34220
33991
33683
33349
32948
32456
32079
31749
31517
31469
31591
31879
32228
32679
33135
33514
33791
33988
34155
34179
34057
33856
33586
33243
32852
32436
32077
31751
31559
31567
31643
31886
32253
32687
33145
33543
33843
34087
34273
34279
34188
33993
33671
33279
32903
32508
32149
31845
31689
31618
31733
32040
32406
32875
33327
33703
34021
34206
34311
34279
34131
33823
33596
33251
32852
32430
32061
31751
31685
31661
31782
32029
32326
32710
33172
33540
33975
34183
34311
34300
34138
33868
33564
33227
32804
32383
31986
31693
31605
31588
31654
31917
32291
32710
33154
33556
33836
34034
34127
34178
34084
33855
33519
33191
32812
32357
32006
31716
31541
31476
31669
31969
32367
32805
33120
33479
33790
34071
34281
34266
34141
33902
33597
33182
32763
32330
31958
31647
31503
31564
31671
31895
32244
32712
33143
33588
33955
34148
34204
34101
34002
33799
33588
33354
32956
32501
32105
31769
31540
31529
31664
31877
32233
32733
33190
33591
33852
34081
34205
34283
34158
33879
33488
33173
32764
32329
31965
31786
31631
31559
31593
31863
32220
32678
33113
33489
33785
33982
34136
34199
34116
33855
33541
33217
32799
32343
31987
31700
31535
31612
31745
32042
32410
32895
33359
33703
33951
34135
34220
34204
34031
33793
33535
33207
32772
32358
32095
31839
31658
31594
31701
31964
32321
32763
33130
33476
33761
33982
34098
34130
34074
33966
33695
33319
32901
32467
32063
31723
31501
31456
31575
31860
32291
32862
33331
33687
33906
34001
34137
34154
34068
33956
33621
33300
32877
32470
32077
31791
31640
31603
31743
32031
32391
32877
33319
33702
33934
34134
34183
34078
33975
33743
33458
33111
32712
32308
31926
31630
31453
31405
31532
31842
32236
32720
33124
33488
33783
34099
34229
34252
34140
33900
33597
33195
32768
32349
31943
31660
31477
31432
31549
31847
32255
32757
33252
33628
33927
34120
34220
34214
34065
33814
33511
33166
32775
32386
31975
31614
31420
31383
31524
31781
32173
32710
33217
33640
33916
34129
34230
34223
34089
33892
33605
33254
32831
32404
32031
31764
31533
31501
31622
31925
32295
32735
33148
33511
33824
34029
34170
34228
34096
33882
33623
33236
32805
32365
31957
31655
31431
31423
31574
31901
32285
32756
33184
33511
33778
33964
34071
34086
33930
33698
33415
33111
32801
32400
31991
31684
31477
31382
31565
31884
32263
32727
33175
33543
33846
34023
34087
34079
33946
33789
33557
33215
32830
32365
31975
31670
31504
31480
31654
31956
32343
32796
33232
33595
33819
34022
34023
34063
33949
33771
33476
33090
32654
32204
31797
31495
31340
31318
31481
31789
32180
32671
33134
33503
33727
33905
34012
34043
33907
33773
33501
33154
32725
32314
31932
31637
31453
31404
31512
31845
32184
32626
33054
33390
33672
33927
34132
34223
34126
33908
33642
33302
32919
32531
32167
31889
31708
31701
31902
32221
32607
33067
33553
33967
34255
34455
34502
34476
34319
34081
33752
33244
32812
32433
32138
31860
31634
31595
31809
32189
32687
33154
33616
33983
34211
34334
34293
34252
34123
33991
33703
33335
32916
32453
32071
31719
31450
31391
31537
31879
32335
32804
33233
33583
33810
33951
33969
33948
33799
33542
33231
32852
32439
32033
31693
31401
31252
31253
31445
31782
32180
32714
33202
33559
33787
33953
33984
34040
33927
33628
33306
32937
32500
32028
31652
31364
31210
31207
31381
31689
32116
32593
33036
33415
33809
33989
33903
33839
33703
33485
33195
32811
32401
31989
31642
31362
31271
31273
31451
31772
32146
32605
33051
33372
33543
33607
33543
33287
32852
32281
31708
31101
30589
30041
29580
29230
29037
29031
29373
30059
30941
31847
32700
33626
34437
35231
36023
36767
37511
38324
39255
40259
41294
42538
43852
45349
46980
48810
50746
52684
54524
56199
57218
57924
58055
57607
56631
55303
53511
51470
49343
47000
44452
42031
39826
37767
35882
34221
32893
31685
30631
29754
29202
28997
29045
29169
29264
29202
29039
28781
28463
28067
27559
27092
26702
26427
26358
26453
26791
27253
27814
28431
29049
29559
29959
30226
30413
30487
30410
30214
29927
29527
29084
28665
28295
28063
27978
27990
28217
28551
28999
29500
29974
30357
30686
30963
31084
30956
30823
30612
30356
30024
29646
29249
28946
28741
28658
28743
28996
29384
29828
30308
30725
31087
31366
31556
31660
31663
31594
31408
31125
30775
30329
29899
29610
29372
29229
29258
29479
29837
30292
30807
31270
31668
31974
32199
32295
32228
31954
31684
31390
31037
30631
30229
29908
29687
29642
29703
29919
30265
30727
31255
31700
32036
32327
32484
32511
32472
32271
32021
31708
31361
30913
30535
30209
29951
29847
29884
30078
30452
30932
31413
31866
32175
32420
32595
32678
32650
32487
32262
31972
31591
31164
30770
30420
30223
30126
30206
30468
30782
31204
31711
32143
32473
32708
32929
32989
32926
32753
32519
32202
31823
31431
31045
30719
30492
30404
30445
30663
31041
31518
32007
32431
32764
32972
33139
33204
33179
33069
32823
32519
32103
31685
31255
30916
30645
30548
30615
30863
31269
31766
32271
32703
33052
33287
33463
33492
33478
33337
33070
32767
32421
31956
31553
31231
30983
30918
30965
31186
31545
32033
32559
33004
33355
33612
33794
33834
33839
33766
33497
33165
32807
32358
31961
31669
31487
31493
31581
31841
32204
32676
33180
33647
34031
34295
34508
34548
34555
34407
34213
33954
33629
33191
32803
32495
32263
32196
32276
32595
32999
33495
34015
34476
34823
35116
35327
35452
35404
35322
35102
34823
34442
34043
33652
33351
33127
33063
33118
33369
33692
34135
34599
35134
35414
35604
35678
35660
35566
35318
34985
34614
34135
33616
33106
32679
32351
32199
32179
32308
32607
32958
33359
33700
34003
34158
34226
34177
34093
33846
33523
33144
32709
32241
31794
31399
31101
30948
30983
31183
31513
31959
32447
32924
33242
33428
33526
33569
33467
33255
32998
32615
32228
31778
31335
30945
30661
30573
30631
30892
31220
31643
32100
32516
32885
33159
33409
33447
33342
33127
32737
32367
31997
31567
31190
30839
30625
30553
30649
30892
31292
31737
32162
32585
32929
33143
33287
33351
33278
33118
32825
32487
32092
31655
31269
30930
30708
30613
30668
30907
31295
31758
32223
32701
32969
33265
33439
33473
33389
33203
32902
32540
32116
31647
31167
30756
30424
30253
30258
30453
30727
31113
31500
31886
32211
32445
32581
32620
32591
32463
32262
32085
31767
31391
30983
30656
30455
30351
30343
30513
30829
31252
31723
32090
32453
32698
32816
32865
32849
32803
32763
32697
32548
32281
32167
32238
32491
32990
33671
34449
35344
36268
37218
38104
38876
39468
40148
40723
41237
41767
42358
42884
43508
44223
45231
46183
47270
48389
49628
51036
52576
54284
55998
57652
59209
60679
61916
62844
63028
63220
63156
63255
63160
63091
62959
62855
62720
62260
61348
60675
59844
59013
58119
57215
56153
55014
53748
52439
51063
49671
48284
46862
45380
43908
42444
41028
39775
38751
37924
37364
36929
36703
36546
36279
36024
35728
35425
35092
34735
34343
33966
33526
32958
32352
31805
31391
31073
30894
30844
30980
31217
31485
31703
31863
31887
31784
31557
31207
30671
30015
29309
28519
27639
26709
25825
24977
24273
23719
23314
23118
23025
23060
23145
23197
23196
23143
23079
22991
22798
22527
22236
21829
21419
20926
20496
20132
19927
19840
19890
20117
20475
20919
21362
21745
22041
22254
22411
22433
22370
22185
21924
21623
21248
20838
20452
20215
20035
20029
20127
20447
20871
21357
21860
22290
22603
22876
23039
23075
23039
22876
22675
22391
22050
21668
21303
21017
20879
20851
20994
21310
21726
22226
22697
23103
23457
23721
23875
23925
23851
23701
23469
23172
22820
22396
22020
21727
21562
21548
21685
22002
22398
22887
23372
23790
24127
24348
24493
24536
24473
24289
24071
23782
23393
22987
22633
22318
22156
22124
22241
22538
22932
23410
23886
24293
24627
24859
25036
25100
25061
24885
24665
24365
24019
23633
23288
23036
22898
22886
23036
23387
23799
24295
24806
25255
25588
25849
26031
26135
26148
25997
25798
25551
25229
24906
24625
24405
24313
24369
24581
24958
25435
26021
26587
27090
27513
27885
28158
28394
28430
28364
28251
28102
27854
27567
27323
27167
27145
27247
27501
27952
28531
29159
29809
30404
30897
31291
31667
31953
32087
32125
32084
31950
31780
31572
31380
31290
31300
31475
31781
32263
32823
33432
34033
34620
35150
35612
35954
36212
36334
36375
36319
36167
35910
35570
35250
35047
34896
35099
35301
35571
35996
36644
37127
37469
37813
38123
38423
38560
38502
38391
38230
37942
37521
37089
36661
36389
36211
36175
36265
36542
36857
37315
37711
38025
38272
38423
38431
38247
38084
37804
37493
37015
36547
36039
35623
35223
34983
34847
34903
35109
35412
35774
36158
36445
36632
36751
36790
36724
36532
36159
35801
35335
34872
34338
33881
33500
33268
33149
33221
33447
33765
34162
34606
34999
35335
35433
35310
35333
35295
35079
34694
34232
33750
33342
33054
32702
32451
32334
32446
32727
33093
33646
34129
34471
34716
34751
34893
34906
34860
34663
34386
33982
33495
32964
32567
32276
32090
32113
32363
32607
32943
33348
33813
34268
34623
34756
34727
34781
34660
34596
34257
33783
33375
32987
32712
32385
32072
32057
32284
32643
32879
33367
33884
34337
34511
34599
34732
34757
34756
34535
34223
33799
33332
32895
32519
32276
32206
32159
32231
32447
32812
33259
33810
34235
34503
34692
34735
34703
34503
34292
34029
33767
33397
32948
32494
32140
31972
31991
32254
32582
32871
33252
33700
34175
34418
34722
34796
34723
34457
34256
33999
33660
33387
32919
32452
32084
31921
31972
32177
32421
32817
33205
33655
34114
34487
34628
34667
34599
34490
34325
34119
33719
33156
32722
32346
32124
32047
32007
32037
32334
32912
33383
33671
34068
34397
34679
34766
34724
34529
34205
33967
33602
33175
32867
32484
32038
31853
31949
32137
32301
32698
33212
33791
34079
34213
34441
34627
34671
34459
34095
33822
33476
33227
32774
32325
31952
31811
31908
32002
32220
32613
33106
33567
34095
34375
34484
34535
34529
34311
34101
33815
33447
33040
32621
32235
31935
31781
31771
31904
32221
32597
33031
33471
33866
34112
34284
34382
34399
34260
34031
33713
33383
32979
32538
32151
31855
31695
31680
31828
32232
32693
33160
33591
33958
34215
34394
34498
34506
34356
34086
33764
33373
32900
32494
32103
31870
31683
31654
31814
32093
32495
33004
33525
33930
34211
34382
34485
34456
34311
34063
33789
33437
33038
32566
32183
31854
31701
31698
31900
32238
32638
33061
33507
33895
34158
34353
34439
34412
34247
33974
33651
33313
32903
32506
32135
31852
31675
31666
31825
32143
32517
32991
33448
33905
34223
34467
34564
34549
34368
34113
33854
33500
33070
32642
32249
31975
31815
31785
31958
32278
32674
33151
33550
33892
34079
34233
34367
34326
34215
33962
33679
33316
32919
32501
32118
31819
31690
31721
31892
32242
32691
33182
33556
33939
34188
34359
34461
34439
34299
34121
33780
33347
32893
32476
32142
31887
31743
31738
31817
32134
32575
33007
33447
33819
34012
34199
34303
34301
34123
33862
33653
33347
32955
32557
32186
31863
31680
31655
31846
32143
32534
33031
33468
33844
34171
34396
34451
34404
34183
33847
33582
33204
32804
32388
32004
31768
31706
31704
31878
32167
32558
32975
33343
33703
33935
34129
34212
34210
34035
33847
33542
33185
32759
32324
31962
31726
31569
31623
31823
32159
32605
33061
33514
33870
34097
34276
34341
34303
34151
33887
33527
33236
32805
32348
32007
31727
31559
31548
31730
32047
32446
32922
33319
33687
33941
34158
34291
34268
34127
33919
33596
33207
32773
32279
31914
31655
31522
31548
31743
32052
32460
32935
33431
33812
34042
34215
34279
34286
34093
33860
33567
33143
32650
32251
31878
31614
31495
31501
31689
32020
32435
32871
33311
33637
33863
34020
34074
34073
33935
33773
33410
33050
32647
32263
31925
31679
31561
31599
31751
32021
32421
32871
33287
33654
33871
34044
34118
34087
33930
33684
33372
33030
32631
32228
31897
31646
31551
31535
31784
32187
32585
33067
33466
33785
34046
34217
34263
34234
34101
33852
33550
33202
32752
32373
31995
31697
31571
31570
31783
32091
32450
32916
33335
33649
33886
34047
34119
34152
33978
33826
33574
33133
32646
32234
31872
31608
31571
31686
31922
32251
32666
33100
33510
33844
34087
34205
34222
34127
33903
33695
33383
33050
32647
32234
31917
31652
31589
31638
31810
32114
32559
33076
33499
33831
34054
34229
34279
34271
34116
33883
33550
33189
32753
32333
31922
31668
31580
31589
31795
32119
32513
32963
33396
33724
33940
34087
34158
34124
33900
33744
33410
33111
32717
32319
31942
31657
31535
31599
31823
32135
32511
32951
33363
33671
33931
34076
34173
34124
33967
33687
33343
32990
32596
32255
31996
31793
31709
31727
31945
32255
32693
33142
33510
33828
34097
34225
34351
34279
34127
33853
33535
33167
32773
32381
32033
31791
31702
31736
31943
32290
32650
33076
33430
33726
33965
34123
34168
34039
33933
33705
33367
33099
32706
32314
31978
31681
31622
31718
31946
32290
32710
33132
33532
33851
34095
34247
34268
34154
34004
33687
33404
33031
32620
32241
31916
31674
31603
31639
31814
32151
32519
32952
33347
33653
33876
34043
34087
34038
33895
33670
33374
33009
32633
32237
31901
31730
31640
31629
31801
32090
32512
32950
33428
33796
34012
34175
34214
34173
33994
33636
33311
32950
32531
32151
31847
31614
31551
31596
31783
32113
32518
33018
33355
33734
33958
34111
34181
34108
33952
33739
33436
33074
32639
32190
31846
31607
31511
31540
31741
32056
32471
32925
33323
33623
33925
34105
34193
34191
33948
33634
33277
32903
32471
32199
31932
31724
31661
31618
31732
32045
32473
32908
33308
33707
34011
34181
34223
34215
33915
33612
33323
32950
32535
32215
31951
31732
31633
31661
31846
32152
32587
33020
33405
33713
33957
34183
34332
34292
34206
34076
33799
33469
33091
32661
32326
32071
31959
31995
32231
32516
32855
33243
33740
34087
34181
34284
34326
34340
34072
33845
33575
33233
32816
32431
32125
31943
31892
31949
32151
32412
32767
33183
33488
33775
34039
34104
34086
33967
33759
33490
33159
32789
32389
32007
31684
31450
31397
31449
31668
31981
32472
32900
33302
33662
33827
33887
33847
33775
33608
33441
33177
32853
32466
32028
31687
31450
31388
31455
31732
32086
32542
32975
33279
33520
33732
33867
33965
33910
33735
33487
33195
32812
32359
31924
31599
31396
31385
31517
31770
32095
32509
32916
33310
33589
33764
33892
33914
33878
33705
33516
33223
32846
32388
31835
31459
31143
30919
30773
30819
30874
31047
31332
31565
31764
31838
31878
31885
31899
32015
32190
32263
32310
32454
32677
33057
33567
34267
35207
36328
37565
39025
40526
42109
43756
45405
47047
48679
50271
51648
52767
53767
54287
54383
54119
53477
52636
51526
50132
48684
47171
45631
44087
42494
40964
39546
38053
36652
35228
33663
31991
30396
29175
28260
27638
27248
27053
27028
27150
27399
27735
28100
28487
28749
28911
29038
29111
29150
29155
29075
28975
28815
28624
28388
28191
28071
28007
28060
28234
28581
28964
29450
29915
30269
30534
30716
30883
30948
30931
30753
30543
30295
29984
29634
29303
29029
28828
28750
28863
29135
29500
29991
30479
30876
31182
31403
31549
31663
31614
31511
31357
31121
30801
30421
30103
29802
29597
29549
29667
29922
30294
30748
31184
31570
31861
32085
32239
32307
32271
32007
31740
31504
31221
30851
30409
30150
30025
30031
30102
30240
30612
31139
31525
31933
32248
32483
32607
32644
32591
32318
32068
31751
31367
30983
30623
30359
30225
30158
30263
30524
30888
31347
31845
32214
32460
32634
32844
32879
32820
32623
32431
32138
31809
31430
31084
30801
30632
30544
30604
30842
31188
31620
32050
32422
32747
32970
33115
33132
33013
32838
32606
32281
31927
31537
31189
30898
30725
30686
30787
31078
31428
31860
32302
32687
33031
33251
33415
33431
33380
33205
32922
32537
32167
31769
31421
31159
30996
30971
31087
31364
31767
32237
32673
33048
33340
33570
33725
33764
33679
33447
33162
32810
32437
32033
31663
31396
31255
31206
31294
31566
31912
32334
32770
33149
33437
33655
33886
33940
33927
33791
33551
33246
32788
32383
32090
31838
31668
31625
31751
32147
32543
32837
33319
33775
34147
34391
34505
34583
34310
34119
33940
33671
33351
32959
32664
32469
32319
32286
32423
32696
32999
33403
33847
34242
34509
34742
34878
34923
34908
34694
34463
34167
33846
33534
33287
33044
32978
32988
33148
33479
33831
34255
34651
34972
35175
35411
35562
35580
35524
35292
34919
34576
34187
33757
33372
33025
32788
32668
32714
32935
33279
33671
34036
34286
34546
34692
34705
34652
34479
34103
33724
33332
32916
32443
32029
31684
31463
31391
31456
31645
31901
32253
32614
32943
33195
33348
33436
33439
33297
33044
32735
32388
32062
31646
31263
30960
30804
30743
30859
31083
31388
31745
32087
32440
32685
32853
32993
32996
32895
32774
32540
32228
31833
31455
31097
30799
30639
30593
30704
30997
31350
31781
32217
32613
32887
33083
33204
33168
33031
32823
32532
32196
31761
31352
30972
30711
30591
30587
30727
31041
31417
31860
32263
32615
32866
33017
33031
32989
32877
32647
32391
32051
31678
31302
30970
30690
30541
30526
30669
30908
31287
31791
32174
32340
32646
32861
32919
32730
32511
32284
32037
31639
31207
30727
30339
30005
29779
29724
29883
30160
30571
31085
31556
31922
32200
32389
32494
32485
32369
32071
31764
31423
31083
30783
30465
30215
30068
30064
30246
30596
31060
31721
32432
32959
33407
33914
34453
34991
35535
35988
36342
36563
36732
36935
37127
37323
37692
38160
38755
39516
40439
41583
42790
44148
45495
46695
47743
48712
49508
50212
50915
51560
52217
52831
53435
54144
54836
55632
56486
57457
58356
59173
59730
60039
60130
60153
59951
59655
59081
58311
57306
56071
54588
53083
51590
50180
48787
47494
46367
45441
44641
43991
43337
42596
41803
41005
40138
39225
38277
37313
36303
35304
34340
33378
32504
31708
31076
30599
30369
30357
30552
30909
31229
31399
31516
31647
31723
31722
31594
31367
31080
30748
30343
29959
29582
29222
28903
28679
28584
28548
28516
28533
28525
28463
28333
28116
27815
27450
27012
26474
25831
25145
24438
23767
23179
22662
22295
22068
22133
22278
22521
22852
23245
23498
23685
23833
23874
23836
23684
23463
23198
22854
22498
22129
21791
21502
21372
21375
21494
21762
22111
22559
22957
23318
23599
23788
23894
23916
23782
23622
23378
23071
22708
22330
22023
21820
21757
21761
21889
22202
22599
23039
23434
23799
24092
24282
24361
24376
24266
24111
23910
23661
23330
22989
22691
22475
22371
22365
22533
22837
23253
23708
24082
24431
24688
24873
24951
24959
24870
24702
24479
24191
23863
23559
23324
23140
23082
23131
23369
23719
24145
24620
25052
25377
25605
25783
25884
25886
25753
25561
25293
24959
24599
24222
23919
23693
23595
23604
23799
24120
24522
24943
25390
25733
26000
26209
26331
26341
26252
26077
25857
25593
25303
25005
24716
24519
24468
24580
24851
25217
25695
26183
26609
26988
27269
27458
27628
27727
27714
27615
27463
27249
27031
26789
26595
26459
26491
26628
26943
27333
27858
28422
28934
29419
29855
30176
30455
30649
30698
30661
30533
30399
30184
29924
29794
29742
29791
30001
30359
30815
31348
31967
32519
33031
33482
33852
34125
34297
34373
34383
34342
34118
33981
33824
33718
33630
33684
33866
34170
34623
35108
35630
36084
36508
36841
37086
37295
37503
37511
37439
37250
36967
36631
36282
35928
35715
35652
35717
35943
36287
36665
37099
37483
37832
38063
38255
38297
38277
38123
37928
37624
37286
36847
36469
36103
35857
35623
35542
35665
35913
36229
36549
36847
37088
37215
37281
37186
37069
36823
36639
36292
35900
35461
34983
34554
34202
34002
33911
34018
34237
34442
34727
35004
35247
35406
35492
35459
35381
35199
34892
34567
34180
33721
33277
32917
32631
32473
32455
32599
32854
33222
33703
34111
34460
34623
34707
34676
34597
34431
34172
33827
33414
33015
32610
32270
32059
31964
31977
32200
32533
32995
33404
33796
34117
34287
34348
34391
34357
34192
33909
33642
33277
32913
32498
32161
31914
31824
31828
32026
32325
32728
33176
33571
33869
34185
34431
34509
34381
34167
33901
33602
33242
32846
32462
32182
31966
31879
31926
32167
32540
32986
33415
33796
34079
34303
34394
34382
34330
34154
33956
33666
33319
32916
32508
32199
32007
31935
31988
32252
32564
32965
33379
33692
33983
34159
34310
34341
34274
34108
33870
33574
33214
32823
32455
32134
31979
31897
31927
32117
32444
32895
33348
33727
34034
34255
34425
34415
34364
34164
33876
33563
33236
32823
32420
32129
32014
31938
31887
31977
32303
32738
33249
33676
33844
34067
34268
34398
34212
34034
33813
33515
33183
32836
32519
32230
32036
31911
31871
32063
32396
32893
33428
33703
33963
34165
34399
34511
34343
34108
33886
33579
33287
32935
32572
32279
32023
31870
31873
32092
32442
32853
33372
33828
34145
34382
34495
34436
34309
34126
33860
33630
33321
32955
32535
32140
31903
31853
31919
32260
32612
32999
33416
33775
33980
34162
34280
34297
34235
34160
33959
33659
33315
32805
32428
32135
31924
31917
32020
32263
32580
32963
33286
33644
33930
34177
34247
34308
34222
34042
33818
33482
33109
32699
32335
32044
31830
31750
31806
32036
32343
32775
33191
33645
34016
34266
34378
34414
34357
34191
33927
33596
33253
32879
32500
32167
31940
31820
31859
32050
32384
32798
33212
33594
33879
34170
34356
34404
34383
34183
33907
33607
33250
32858
32482
32183
31974
31903
31957
32196
32519
32948
33375
33783
34039
34245
34374
34370
34349
34179
33852
33528
33140
32704
32284
31990
31814
31791
31909
32167
32511
32863
33199
33569
33860
34170
34343
34394
34311
34084
33767
33407
33062
32671
32318
32021
31818
31760
31823
32052
32457
32910
33349
33733
34033
34239
34378
34416
34340
34124
33907
33606
33237
32814
32429
32105
31853
31743
31809
32031
32383
32775
33155
33542
33917
34114
34186
34212
34127
33924
33671
33372
33037
32693
32353
32063
31891
31809
31883
32046
32316
32764
33176
33580
33831
34034
34183
34196
34100
33911
33676
33417
33075
32681
32284
31970
31799
31750
31846
32079
32410
32767
33211
33576
33844
34079
34182
34182
34069
33890
33654
33342
32965
32615
32293
32023
31807
31614
31657
31947
32308
32729
33123
33499
33875
34071
34188
34212
34123
33956
33751
33446
33087
32709
32327
32053
31847
31774
31858
32052
32404
32836
33281
33623
33830
33996
34119
34158
34107
33909
33640
33407
33083
32687
32317
32023
31830
31780
31852
32138
32441
32871
33206
33553
33797
33965
34113
34119
33999
33842
33631
33335
33026
32655
32271
31985
31785
31636
31663
31932
32300
32769
33246
33636
33939
34145
34251
34271
34132
33892
33615
33274
32899
32467
32118
31801
31637
31613
31759
32099
32489
32879
33209
33524
33774
33974
34107
34122
34064
33933
33719
33391
32967
32453
32105
31833
31703
31676
31767
32036
32296
32677
33109
33466
33745
34050
34233
34193
34028
33799
33540
33226
32884
32494
32185
31953
31796
31714
31736
31995
32292
32727
33167
33524
33855
34059
34196
34257
34204
33978
33662
33231
32828
32451
32157
31926
31734
31716
31821
32033
32340
32731
33165
33537
33799
34077
34221
34247
33973
33796
33556
33232
32929
32575
32230
31924
31687
31611
31682
31938
32263
32695
33212
33654
33932
34146
34233
34183
34039
33791
33527
33201
32836
32482
32167
31942
31749
31605
31711
31950
32290
32734
33129
33556
33893
34110
34195
34159
34055
33783
33497
33160
32772
32364
31999
31741
31623
31609
31751
32007
32287
32703
33149
33535
33815
34102
34219
34262
34137
33799
33464
33127
32749
32320
31967
31716
31613
31597
31737
32046
32452
32879
33262
33656
33983
34217
34358
34457
34423
34270
34007
33607
33141
32730
32396
32191
32028
32011
32129
32333
32591
33023
33437
33809
34172
34360
34483
34518
34426
34188
33799
33407
33015
32596
32305
32081
31932
31863
31937
32138
32446
32863
33279
33634
34009
34242
34336
34285
34148
33909
33611
33102
32647
32219
31858
31556
31412
31380
31591
31909
32294
32690
33052
33382
33640
33767
33842
33823
33711
33514
33315
33044
32671
32270
31907
31554
31367
31362
31479
31751
32093
32517
32897
33243
33508
33707
33799
33839
33796
33578
33321
33020
32647
32199
31767
31523
31367
31332
31479
31834
32231
32687
33079
33393
33582
33764
33836
33843
33709
33519
33247
32930
32553
32172
31887
31654
31526
31495
31581
31870
32175
32529
32878
33152
33276
33303
33194
32903
32460
31975
31455
30964
30466
30001
29599
29319
29239
29513
30119
30878
31695
32658
33660
34567
35532
36461
37378
38377
39340
40332
41367
42541
43863
45232
46678
48276
49996
51711
53379
54975
56215
57039
57383
57294
56829
55815
54416
52647
50682
48479
46037
43564
41174
38949
36852
34886
33235
31772
30421
29321
28644
28401
28473
28703
28947
29167
29244
29252
29100
28831
28516
28127
27711
27285
26931
26708
26654
26762
27029
27438
27990
28586
29135
29630
30027
30295
30447
30521
30431
30251
29989
29671
29295
28905
28599
28382
28263
28254
28448
28766
29153
29631
30104
30449
30679
30882
31006
31047
30964
30805
30575
30278
29948
29620
29321
29076
28969
28994
29175
29481
29906
30366
30798
31158
31463
31693
31817
31823
31732
31533
31252
30937
30556
30175
29891
29669
29571
29589
29740
30002
30374
30825
31253
31605
31911
32151
32253
32263
32141
31853
31554
31207
30855
30504
30172
29945
29852
29881
30079
30399
30754
31134
31574
31945
32233
32485
32595
32631
32519
32252
31940
31582
31191
30831
30508
30278
30167
30215
30430
30742
31182
31634
31967
32239
32511
32719
32896
32948
32821
32580
32212
31855
31506
31143
30818
30579
30508
30536
30739
31052
31471
31951
32373
32700
32934
33031
33088
33107
33007
32812
32575
32311
31929
31544
31180
30919
30759
30761
30933
31221
31628
32124
32567
32933
33238
33429
33506
33489
33335
33110
32798
32369
31982
31594
31260
31044
30964
31030
31218
31514
31907
32303
32654
32998
33310
33581
33703
33666
33439
33170
32916
32620
32263
31925
31644
31396
31223
31239
31456
31804
32213
32702
33141
33511
33799
34007
34152
34191
34055
33854
33656
33351
32959
32606
32321
32111
32039
32093
32274
32618
33031
33443
33845
34157
34418
34745
34927
34951
34709
34603
34366
34083
33750
33415
33127
32950
32831
32809
33031
33374
33826
34330
34823
35220
35554
35765
35847
35729
35578
35351
35089
34867
34489
34147
33791
33415
33226
33221
33454
33735
34116
34519
34884
35013
35087
35172
35159
35061
34823
34581
34252
33860
33382
32849
32421
32103
31916
31833
31972
32197
32543
32908
33228
33494
33692
33848
33902
33841
33668
33382
33028
32585
32117
31625
31263
31039
30959
30951
31125
31423
31770
32167
32487
32769
32933
33081
33151
33095
32948
32793
32469
32011
31676
31321
30967
30647
30511
30543
30727
31049
31468
32007
32442
32735
32856
33006
33053
33105
33009
32728
32284
31940
31517
31140
30846
30615
30518
30599
30830
31134
31548
32021
32427
32783
33056
33199
33266
33225
33087
32846
32547
32201
31812
31404
31044
30811
30693
30717
30916
31227
31640
32058
32447
32744
33001
33228
33311
33275
33129
32865
32516
32118
31692
31301
31002
30801
30716
30795
31023
31303
31721
32220
32647
32978
33209
33334
33397
33350
33159
32903
32555
32182
31786
31418
31103
30884
30799
30879
31111
31446
31855
32308
32700
32930
33119
33247
33316
33276
33111
32887
32598
32261
31864
31455
31142
30909
30821
30870
31157
31478
31791
32276
32775
32967
33191
33491
33385
33332
33263
33015
32673
32335
31973
31599
31262
31039
30991
31015
31239
31582
32013
32359
32727
33011
33255
33404
33532
33523
33386
33167
32860
32491
32093
31687
31354
31108
30990
31028
31239
31538
31944
32370
32721
33029
33287
33443
33502
33481
33370
33087
32774
32391
31980
31622
31348
31164
31087
31134
31366
31687
32082
32516
32938
33281
33519
33671
33759
33735
33558
33303
32976
32597
32070
31729
31521
31239
31101
31189
31514
31829
32252
32689
33079
33397
33607
33783
33834
33782
33573
33263
32906
32556
32179
31863
31581
31388
31332
31391
31623
31935
32308
32655
32991
33319
33551
33780
33839
33811
33668
33431
33093
32730
32305
31906
31517
31295
31218
31284
31509
31837
32271
32677
33064
33429
33722
33895
33957
33844
33637
33329
33053
32687
32310
31950
31644
31418
31330
31359
31583
31894
32298
32746
33170
33519
33757
33967
34055
34055
33893
33632
33355
33025
32644
32316
32039
31852
31798
31878
32097
32423
32884
33355
33753
34027
34205
34306
34348
34199
34055
33743
33533
33217
32845
32468
32158
31943
31840
31910
32119
32423
32869
33283
33613
33900
34097
34095
34081
33998
33797
33537
33217
32842
32445
32069
31719
31458
31399
31452
31711
32039
32478
32954
33340
33644
33850
33947
33970
33830
33588
33276
32925
32572
32143
31750
31470
31259
31201
31303
31597
31955
32421
32869
33251
33515
33703
33844
33918
33853
33637
33371
32936
32549
32133
31751
31462
31292
31221
31317
31590
31905
32333
32750
33151
33438
33695
33789
33866
33815
33659
33435
33124
32770
32319
31956
31647
31475
31367
31407
31697
32056
32490
32932
33287
33598
33783
33932
33951
33841
33623
33380
33070
32688
32287
31916
31590
31340
31159
31097
31142
31194
31284
31413
31541
31700
31749
31791
31743
31635
31415
31329
31373
31431
31504
31575
31814
32181
32775
33587
34660
35786
37091
38513
40039
41492
43182
44989
46653
48284
49967
51654
53068
54274
55137
55575
55576
55240
54701
53935
52829
51496
50039
48430
46791
44804
42872
40886
39226
37478
35820
34152
32180
30313
28780
27704
27015
26686
26597
26730
26991
27343
27740
28133
28447
28690
28853
28935
28942
28885
28835
28746
28625
28486
28303
28135
28015
27994
28082
28287
28622
29032
29502
29978
30351
30583
30810
30935
31023
31009
30880
30676
30320
29956
29554
29236
29002
28853
28854
28999
29276
29627
30100
30580
31004
31347
31594
31751
31780
31673
31467
31289
31061
30775
30367
30025
29757
29574
29534
29645
29935
30295
30773
31247
31663
31951
32156
32239
32231
32155
31973
31740
31460
31136
30759
30431
30228
30084
29993
30042
30307
30678
31141
31603
32028
32375
32624
32748
32699
32581
32385
32151
31875
31575
31205
30895
30603
30352
30294
30410
30685
31055
31531
32033
32439
32743
32855
32933
32935
32845
32679
32503
32234
31804
31326
31002
30838
30583
30636
30816
31057
31377
31761
32207
32668
33031
33197
33233
33219
33129
32957
32789
32548
32180
31729
31324
31036
30913
30948
31106
31438
31789
32181
32580
32960
33231
33526
33703
33745
33534
33305
33036
32741
32391
32023
31735
31495
31343
31270
31315
31606
32020
32516
32951
33365
33630
33724
33816
33847
33870
33716
33345
33089
32900
32527
32071
31787
31664
31687
31895
32245
32639
33055
33407
33788
34148
34439
34593
34600
34460
34245
33991
33724
33376
33031
32775
32564
32450
32397
32439
32740
33151
33616
34147
34580
34727
34895
35071
35244
35106
34847
34554
34247
33915
33639
33391
33167
32887
32902
33038
33431
33834
34154
34694
34980
35234
35627
35563
35772
35485
35428
35079
34732
34398
33990
33585
33316
33161
33091
33058
33211
33477
33864
34326
34655
34740
34766
34801
34711
34547
34353
34031
33627
33191
32615
32100
31767
31573
31491
31540
31782
32028
32311
32644
32943
33167
33377
33451
33287
33062
32828
32549
32202
31853
31421
30990
30618
30445
30391
30492
30750
31111
31548
31927
32183
32406
32590
32775
32775
32646
32423
32101
31700
31394
31050
30687
30371
30209
30178
30319
30637
31037
31465
31841
32116
32351
32568
32688
32796
32692
32542
32212
31787
31398
31029
30708
30452
30305
30305
30489
30798
31175
31575
31913
32247
32539
32772
32924
32960
32839
32528
32181
31893
31556
31214
30914
30631
30438
30369
30547
30887
31283
31751
32224
32527
32724
32895
32970
32940
32820
32604
32374
32076
31791
31440
31127
30839
30663
30596
30737
31009
31367
31844
32357
32724
32909
32998
33116
33239
33006
32774
32519
32263
31927
31558
31176
30828
30653
30671
30863
31187
31607
32047
32447
32772
32987
33108
33184
33191
33082
32934
32735
32418
31962
31485
31114
30874
30789
30833
31017
31319
31671
32004
32426
32843
33088
33175
33443
33274
33191
33087
32669
32473
31975
31732
31260
31078
30850
30933
31026
31335
31718
32229
32615
32957
33151
33295
33344
33365
33246
33044
32847
32591
32226
31823
31479
31206
31045
30940
31122
31404
31791
32261
32712
33082
33444
33660
33704
33694
33530
33217
32950
32623
32271
31951
31657
31394
31239
31183
31290
31511
31903
32382
32800
33122
33413
33608
33708
33761
33663
33460
33212
32874
32503
32108
31727
31451
31321
31327
31466
31782
32141
32520
32906
33214
33431
33641
33719
33727
33603
33413
33216
32883
32539
32162
31825
31557
31445
31416
31528
31727
32047
32494
32895
33242
33498
33681
33775
33791
33753
33620
33350
32990
32598
32166
31781
31462
31352
31410
31631
31900
32249
32613
33001
33271
33536
33724
33893
33955
33855
33604
33236
32863
32445
32076
31745
31506
31450
31449
31540
31772
32196
32644
33071
33484
33768
33887
33886
33982
33943
33556
33244
32895
32502
32151
31854
31620
31492
31495
31692
32032
32387
32847
33180
33543
33839
34155
34308
34343
34277
34082
33732
33353
32978
32634
32280
32039
31888
31910
32101
32437
32839
33258
33654
34018
34257
34443
34460
34334
34197
34017
33722
33386
33047
32675
32357
32132
31868
31950
32159
32318
32660
33184
33535
33693
33911
34094
34236
34207
34046
33828
33508
33131
32705
32227
31803
31538
31380
31383
31564
31886
32308
32767
33164
33487
33720
33911
33992
33871
33668
33343
33059
32716
32337
31983
31695
31463
31395
31458
31639
31879
32213
32596
32948
33287
33531
33734
33857
33876
33755
33555
33191
32775
32334
31928
31612
31409
31311
31354
31585
31914
32319
32749
33151
33479
33703
33879
33937
33833
33636
33415
33107
32750
32391
32037
31700
31491
31383
31398
31593
31908
32298
32732
33185
33493
33766
33953
34047
34007
33886
33543
33149
32735
32248
31795
31325
30879
30493
30205
30154
30281
30524
30885
31221
31461
31629
31771
32064
32559
32820
32895
33198
33479
33583
34043
34589
35101
35844
36823
38021
39455
40985
42973
44865
46752
48695
50613
52383
53907
55118
55982
56215
55942
55196
54151
52743
51132
49310
47476
45514
43730
41961
40415
38968
37670
36359
35155
33832
32349
30852
29687
28839
28209
27735
27375
27134
26935
26845
26871
27032
27268
27582
27974
28385
28700
28967
29185
29373
29501
29553
29556
29507
29372
29127
28878
28674
28522
28503
28590
28813
29121
29534
29974
30382
30708
30951
31129
31239
31219
31142
30955
30711
30405
29997
29639
29364
29158
29091
29125
29324
29660
30114
30615
31069
31465
31751
31961
32007
31975
31785
31564
31332
31022
30635
30300
30017
29797
29716
29762
29987
30337
30814
31271
31572
31846
32130
32335
32479
32499
32321
32071
31695
31383
31041
30717
30453
30215
30125
30108
30324
30670
31079
31553
32007
32383
32645
32728
32732
32703
32558
32324
32065
31759
31415
31093
30836
30630
30567
30607
30780
31076
31552
31996
32354
32635
32859
33024
33121
33053
32865
32670
32447
32116
31777
31425
31148
30911
30799
30823
31031
31343
31719
32156
32565
32884
33127
33265
33329
33295
33140
32935
32663
32349
31989
31694
31449
31282
31205
31269
31495
31819
32166
32604
32989
33287
33526
33703
33820
33821
33695
33473
33144
32735
32336
32007
31711
31516
31461
31502
31788
32149
32593
33082
33506
33837
34087
34234
34324
34292
34154
33908
33658
33311
32896
32482
32199
31987
31922
32015
32298
32681
33167
33671
34109
34463
34725
34902
35012
35007
34847
34605
34246
33916
33531
33201
32935
32762
32693
32772
33017
33364
33789
34262
34676
34999
35228
35378
35470
35463
35382
35172
34927
34638
34283
33966
33679
33480
33415
33452
33662
33902
34292
34695
35105
35411
35624
35756
35757
35827
35675
35335
35009
34507
33991
33574
33207
32934
32734
32673
32813
33108
33499
33825
34063
34268
34356
34309
34263
34106
33861
33540
33101
32679
32205
31766
31367
31089
30950
30947
31111
31343
31796
32211
32519
32767
32878
32891
32887
32832
32623
32287
31959
31555
31111
30723
30420
30191
30109
30143
30318
30628
31009
31453
31915
32180
32378
32478
32487
32380
32194
31914
31644
31383
31023
30631
30295
30044
29973
30019
30267
30596
31087
31581
32009
32310
32527
32647
32678
32601
32407
32149
31850
31549
31216
30815
30466
30267
30215
30290
30559
30910
31361
31791
32146
32387
32551
32676
32724
32683
32493
32282
31995
31686
31357
31004
30698
30490
30383
30411
30620
30965
31390
31927
32324
32587
32725
32828
32895
32836
32663
32474
32247
31975
31582
31201
30855
30629
30524
30557
30778
31087
31532
31949
32418
32751
33006
33133
33127
33044
32789
32517
32215
31900
31506
31166
30881
30687
30637
30684
30920
31239
31662
32094
32404
32731
33031
33218
33244
33182
32988
32743
32437
32045
31612
31261
30941
30725
30662
30724
30951
31270
31684
32155
32636
32960
33159
33313
33347
33221
33001
32749
32447
32064
31738
31431
31151
30919
30829
30860
31055
31378
31799
32246
32615
32929
33183
33349
33399
33382
33191
32922
32566
32236
31831
31460
31165
30965
30919
30980
31199
31516
31933
32382
32809
33194
33404
33533
33587
33516
33286
33022
32724
32388
31996
31651
31335
31137
31107
31187
31450
31775
32189
32612
32982
33221
33397
33564
33617
33633
33463
33221
32933
32574
32212
31815
31495
31290
31229
31275
31525
31834
32293
32722
33146
33447
33669
33702
33735
33701
33567
33233
32932
32607
32272
31936
31623
31406
31303
31379
31586
31909
32277
32708
33085
33380
33593
33831
33921
33875
33699
33410
33104
32787
32381
32021
31705
31495
31415
31486
31693
32031
32471
32887
33277
33580
33794
33839
33807
33740
33573
33423
33191
32693
32274
31895
31582
31468
31431
31509
31740
32039
32441
32874
33255
33525
33735
33853
33798
33727
33527
33282
32963
32607
32204
31820
31543
31351
31291
31431
31726
32127
32559
32976
33359
33638
33814
33835
33844
33773
33575
33333
33063
32710
32338
31983
31729
31637
31607
31762
31927
32319
32869
33309
33600
33911
34311
34271
34439
34240
34023
33945
33449
33218
32692
32407
32029
31867
31881
31809
32180
32533
32975
33399
33775
33973
34117
34215
34247
34183
34003
33775
33551
33204
32797
32300
31925
31722
31636
31748
32007
32367
32785
33098
33332
33567
33746
33929
33999
33859
33608
33329
33055
32775
32422
31903
31587
31407
31370
31479
31703
32013
32356
32743
33098
33381
33588
33727
33781
33765
33605
33402
33069
32719
32327
31956
31654
31455
31391
31457
31665
31975
32375
32759
33127
33402
33620
33725
33756
33677
33503
33260
32985
32589
32221
31901
31613
31430
31367
31461
31693
32068
32501
32942
33299
33584
33729
33852
33799
33737
33585
33356
33100
32749
32399
32041
31719
31461
31399
31447
31679
31999
32428
32844
33223
33540
33727
33788
33750
33588
33244
32772
32213
31559
30895
30325
29871
29543
29366
29343
29493
29772
30307
31047
31860
32636
33287
33985
34651
35259
35815
36416
37044
37681
38367
39157
40122
41442
42975
44649
46583
48764
50797
53060
54944
56549
57519
57908
57639
56943
55743
54143
52424
50333
47988
45447
42986
40804
38858
37148
35639
34389
33401
32380
31215
30197
29527
29185
29038
28947
28793
28557
28283
27943
27553
27130
26796
26580
26487
26543
26831
27287
27844
28443
29014
29468
29836
30134
30357
30427
30348
30209
29981
29660
29294
28940
28687
28517
28482
28600
28852
29212
29685
30136
30527
30855
31111
31271
31346
31305
31133
30933
30626
30292
29927
29636
29364
29217
29213
29311
29602
29978
30413
30862
31225
31503
31711
31838
31871
31792
31607
31419
31127
30791
30407
30087
29830
29672
29626
29725
29958
30320
30767
31183
31564
31884
32085
32234
32287
32223
32050
31850
31562
31235
30852
30511
30267
30135
30101
30201
30434
30748
31188
31638
32021
32301
32533
32636
32695
32612
32429
32187
31878
31532
31135
30779
30537
30377
30350
30457
30721
31069
31509
31961
32312
32589
32796
32945
32994
32898
32712
32472
32143
31797
31409
31055
30796
30635
30598
30721
31017
31362
31823
32276
32665
32985
33183
33287
33323
33247
33068
32839
32518
32167
31810
31471
31195
31028
30981
31105
31398
31750
32196
32629
33043
33379
33575
33767
33809
33716
33468
33205
32903
32545
32156
31812
31565
31438
31459
31582
31870
32259
32729
33193
33600
33917
34116
34135
34165
34106
33964
33750
33448
33113
32759
32452
32185
32023
32036
32207
32499
32865
33413
33901
34295
34633
34880
35047
35079
35033
34854
34524
34205
33909
33507
33238
32983
32845
32775
32893
33159
33498
33973
34431
34823
35105
35322
35548
35639
35572
35450
35255
34967
34628
34228
33852
33522
33330
33271
33358
33599
33974
34404
34790
35143
35370
35591
35711
35717
35468
35111
34770
34365
33952
33559
33125
32707
32317
32192
32199
32373
32637
32999
33404
33703
33853
33885
33877
33764
33591
33287
32959
32583
32213
31751
31375
31035
30709
30607
30667
30883
31156
31535
31918
32228
32460
32659
32722
32707
32589
32386
32103
31724
31343
30957
30566
30287
30095
30057
30192
30455
30822
31276
31712
32076
32319
32517
32658
32559
32406
32181
31951
31676
31329
30997
30663
30378
30215
30205
30335
30610
30950
31429
31857
32204
32420
32599
32719
32697
32610
32421
32236
31989
31572
31170
30867
30595
30462
30430
30575
30865
31212
31647
32073
32455
32742
32913
33014
32991
32895
32672
32455
32101
31732
31319
30983
30695
30477
30468
30599
30868
31239
31713
32137
32479
32760
32975
33076
33095
32991
32774
32538
32204
31815
31415
31050
30788
30628
30589
30711
30977
31356
31802
32255
32600
32878
33071
33220
33241
33117
32873
32548
32231
31839
31419
31079
30791
30628
30583
30719
30977
31332
31795
32218
32573
32895
33178
33268
33295
33209
32991
32732
32406
31989
31572
31220
30953
30799
30747
30885
31136
31522
31959
32421
32871
33169
33381
33478
33428
33311
33084
32799
32482
32116
31700
31348
31111
30929
30855
30988
31277
31665
32149
32564
32903
33220
33460
33559
33588
33488
33274
32998
32634
32192
31796
31447
31204
31119
31100
31244
31535
31924
32345
32721
33052
33335
33602
33733
33716
33614
33453
33111
32710
32303
31937
31575
31305
31159
31135
31298
31615
31976
32460
32918
33279
33553
33662
33702
33732
33671
33473
33228
32900
32532
32175
31814
31536
31359
31319
31428
31751
32172
32606
32958
33278
33513
33718
33798
33807
33703
33486
33207
32927
32565
32174
31839
31567
31430
31419
31549
31817
32199
32650
33092
33468
33639
33775
33886
33839
33727
33537
33282
32924
32518
32110
31788
31510
31357
31365
31489
31740
32103
32559
32956
33318
33587
33791
33911
33914
33845
33682
33428
33100
32743
32343
31977
31668
31487
31429
31575
31844
32218
32685
33108
33427
33675
33871
33959
33946
33831
33635
33420
33111
32739
32318
31943
31664
31525
31527
31718
32039
32405
32828
33236
33558
33851
34036
34050
33999
33859
33671
33402
33103
32678
32237
31876
31623
31500
31468
31612
31921
32292
32721
33133
33453
33708
33876
33953
33942
33830
33612
33351
33027
32628
32314
32007
31740
31572
31471
31564
31871
32272
32716
33131
33507
33781
34007
34141
33992
33833
33602
33347
33031
32691
32340
32039
31684
31530
31567
31797
32156
32529
32906
33229
33514
33763
33943
34046
34151
34023
33841
33565
33244
32820
32381
31983
31718
31572
31556
31705
31975
32332
32750
33148
33480
33758
33943
34036
34055
34003
33870
33645
33375
33029
32687
32364
32068
31917
31899
32046
32330
32727
33128
33508
33837
34127
34293
34399
34405
34279
33986
33600
33277
32874
32493
32175
31916
31814
31870
32063
32348
32741
33136
33517
33838
34012
34183
34207
34183
34024
33765
33489
33110
32681
32249
31884
31628
31487
31455
31615
31901
32387
32865
33311
33683
33935
34053
34111
34098
33863
33589
33287
32975
32601
32210
31901
31671
31556
31522
31700
31996
32399
32862
33253
33556
33799
33951
33953
33888
33763
33533
33254
32967
32618
32235
31916
31663
31557
31569
31725
31996
32335
32761
33180
33532
33791
33943
34028
34010
33833
33607
33276
32972
32596
32225
31909
31644
31523
31527
31693
32068
32491
32975
33381
33726
33943
34105
34196
34104
33915
33603
33169
32650
31973
31207
30533
29994
29663
29508
29569
29754
30069
30471
30940
31532
32215
32903
33423
33919
34417
34823
35188
35671
36159
36801
37671
38692
39910
41380
43383
45711
47839
50324
52702
54903
56839
58488
59516
59911
59535
58813
57523
55943
54111
52058
49806
47404
45020
42879
41006
39284
37764
36461
35370
34303
33111
31799
30626
29773
29196
28830
28494
28134
27750
27322
26916
26599
26414
26374
26527
26815
27292
27853
28404
28929
29351
29673
29918
30063
30063
29989
29790
29500
29141
28775
28444
28223
28099
28105
28327
28647
29026
29463
29883
30233
30543
30737
30831
30847
30720
30536
30287
29990
29677
29327
29047
28852
28787
28836
29023
29343
29763
30230
30663
30966
31217
31456
31535
31543
31452
31239
31005
30704
30322
29925
29605
29375
29295
29349
29532
29827
30223
30671
31101
31445
31711
31886
31952
31970
31863
31667
31373
31034
30686
30310
30009
29796
29718
29754
29946
30291
30701
31141
31594
31931
32196
32404
32461
32455
32335
32109
31815
31420
31026
30637
30342
30122
30034
30021
30211
30550
30951
31414
31816
32201
32503
32684
32742
32751
32612
32379
32057
31725
31318
30932
30623
30407
30374
30447
30644
30964
31351
31798
32237
32563
32809
32924
32967
32986
32843
32626
32386
32089
31748
31375
31073
30876
30788
30807
31013
31351
31782
32182
32554
32853
33110
33327
33473
33479
33363
33137
32842
32421
32031
31674
31369
31169
31070
31121
31362
31697
32141
32620
33055
33384
33516
33671
33764
33756
33635
33440
33201
32933
32582
32263
32007
31703
31623
31705
32001
32399
32870
33345
33700
34005
34271
34479
34675
34719
34596
34411
34166
33788
33389
32970
32677
32463
32439
32514
32829
33216
33682
34134
34457
34743
35009
35207
35311
35397
35285
35143
34900
34583
34191
33749
33381
33212
33143
33187
33421
33751
34215
34721
35108
35458
35733
35919
35844
35783
35500
35228
34973
34647
34233
33700
33206
32909
32747
32668
32825
33079
33389
33754
34070
34231
34259
34311
34303
34271
34095
33672
33202
32874
32471
31874
31473
31215
31090
31087
31255
31525
31900
32276
32609
32767
32957
33147
33201
33145
32974
32701
32324
31879
31399
30979
30679
30463
30367
30387
30623
30912
31204
31620
32052
32444
32623
32705
32811
32811
32690
32406
32035
31654
31284
30949
30613
30387
30354
30383
30559
30853
31252
31719
32223
32599
32815
32901
32879
32875
32743
32567
32303
31943
31472
31077
30767
30565
30479
30567
30825
31103
31490
31879
32300
32660
32935
33104
33150
32991
32833
32658
32397
31953
31528
31147
30879
30704
30620
30599
30812
31180
31667
32172
32567
32723
32988
33215
33263
33151
32927
32709
32487
32125
31623
31215
30919
30734
30695
30701
30864
31200
31639
32154
32514
32740
32980
33191
33317
33175
32916
32693
32439
32180
31791
31359
30991
30782
30747
30845
31109
31423
31751
32161
32581
32895
33178
33363
33412
33345
33071
32804
32523
32180
31863
31485
31077
30825
30761
30902
31189
31490
31818
32220
32639
33031
33282
33316
33324
33311
33189
32999
32716
32251
31782
31444
31185
31034
30906
30885
31095
31451
31921
32375
32805
33075
33251
33360
33391
33377
33261
33093
32775
32391
31911
31634
31207
31105
31011
31034
31384
31605
32076
32574
32847
33159
33491
33651
33612
33540
33398
33193
32948
32636
32230
31762
31445
31257
31158
31239
31548
31967
32406
32766
33070
33389
33652
33886
33975
33873
33605
33340
33068
32766
32404
31959
31615
31373
31340
31501
31787
32107
32415
32787
33176
33489
33722
33949
34034
33927
33607
33423
33252
32887
32373
31996
31720
31551
31511
31541
31674
31999
32420
32899
33359
33718
33911
33929
33911
33869
33783
33626
33243
32775
32391
32111
31832
31535
31422
31516
31834
32191
32550
32887
33287
33695
33937
33953
33901
33855
33718
33588
33278
32801
32374
32028
31748
31566
31524
31641
31879
32103
32492
32987
33473
33734
33812
33948
34055
34029
33863
33543
33131
32775
32453
32076
31716
31548
31580
31676
31832
32141
32583
33098
33519
33781
33847
34026
34183
34045
33704
33474
33172
32879
32518
32142
31764
31595
31583
31724
32004
32335
32663
33053
33442
33868
34111
34079
34023
33959
33783
33637
33348
32977
32495
32060
31747
31598
31641
31749
31970
32229
32693
33196
33607
33751
33935
34064
34090
34106
33935
33559
33197
32839
32454
32164
31902
31719
31685
31705
31920
32255
32747
33219
33647
33985
34181
34282
34253
34089
33839
33564
33262
32934
32584
32244
31964
31692
31603
31703
32031
32430
32871
33194
33526
33878
34150
34265
34165
34038
33885
33724
33429
32967
32492
32134
31889
31734
31671
31693
31933
32298
32798
33278
33597
33746
33932
34064
34191
34170
33988
33636
33247
32948
32565
32199
31832
31600
31579
31726
32052
32367
32711
33136
33557
33905
34131
34095
34052
33980
33878
33667
33193
32838
32503
32198
31876
31618
31586
31732
32074
32462
32807
33116
33473
33870
34063
34026
34134
34141
33845
33491
33230
32956
32594
32135
31855
31813
31879
32076
32359
32682
33047
33503
33940
34287
34503
34559
34405
34292
34114
33975
33628
33134
32745
32450
32180
31901
31847
31986
32321
32697
33141
33454
33771
34055
34343
34465
34307
34180
34111
33849
33427
32969
32593
32282
32005
31804
31649
31692
31962
32335
32799
33215
33564
33853
33991
34039
34052
33948
33844
33617
33279
32773
32391
32047
31773
31646
31604
31729
32001
32359
32736
33130
33426
33711
33940
34044
34121
34012
33743
33375
33047
32680
32307
32007
31748
31495
31454
31591
31924
32321
32771
33085
33388
33720
33999
34132
34106
33908
33613
33322
33028
32711
32357
32002
31727
31513
31457
31589
31890
32272
32745
33190
33556
33823
34004
34086
34044
33876
33649
33406
33163
32823
32396
31991
31719
31571
31525
31663
31933
32263
32711
33094
33405
33639
33713
33535
33173
32728
32271
31844
31343
30822
30310
29891
29579
29405
29510
29983
30716
31518
32375
33349
34344
35375
36351
37332
38215
39047
39828
40691
41595
42687
44107
45465
46951
48614
50380
52160
53852
55332
56570
57311
57560
57223
56452
55231
53476
51775
49639
47201
44780
42300
40007
37815
35794
34202
32861
31624
30421
29403
28845
28661
28717
28903
29142
29277
29271
29127
28895
28583
28231
27856
27460
27118
26840
26730
26823
27094
27507
28023
28607
29223
29740
30119
30400
30574
30639
30590
30398
30172
29880
29544
29182
28880
28652
28533
28532
28711
29031
29389
29822
30280
30671
31011
31213
31296
31291
31199
31043
30807
30532
30203
29868
29557
29311
29183
29207
29398
29722
30096
30512
30917
31282
31548
31749
31872
31878
31811
31636
31388
31119
30778
30388
30058
29797
29646
29610
29761
30057
30455
30934
31391
31776
32056
32288
32414
32397
32295
32103
31842
31498
31143
30727
30433
30226
30100
30107
30249
30511
30868
31287
31729
32060
32348
32549
32673
32668
32583
32431
32212
31927
31516
31066
30727
30487
30344
30363
30514
30807
31183
31668
32103
32465
32759
32876
32893
32897
32838
32651
32413
32113
31751
31388
31046
30785
30681
30725
30883
31182
31588
32085
32509
32841
33095
33294
33350
33329
33214
33005
32741
32462
32124
31751
31415
31191
31091
31087
31267
31556
31945
32363
32773
33091
33359
33575
33685
33700
33615
33486
33231
32935
32568
32192
31838
31597
31516
31519
31688
32042
32413
32881
33272
33559
33833
34065
34260
34373
34311
34138
33908
33623
33261
32797
32458
32225
32144
32197
32456
32805
33261
33756
34191
34530
34727
34893
35013
35046
34969
34772
34601
34311
34001
33655
33359
33149
33063
33087
33238
33488
33847
34417
34873
35060
35389
35666
35786
35810
35686
35527
35303
35039
34655
34222
33849
33570
33421
33429
33572
33857
34247
34649
35049
35356
35580
35732
35780
35726
35523
35189
34750
34236
33708
33272
32868
32574
32375
32250
32292
32468
32657
32934
33213
33439
33642
33729
33735
33694
33527
33123
32702
32301
31875
31423
31044
30736
30550
30495
30620
30862
31188
31590
31970
32221
32405
32519
32615
32598
32457
32238
31921
31461
31055
30662
30327
30090
29925
29895
30082
30374
30782
31247
31642
31947
32080
32231
32291
32292
32202
32007
31764
31455
31060
30653
30333
30111
30010
30053
30271
30556
30887
31295
31686
32084
32396
32599
32661
32540
32402
32246
31971
31657
31327
30990
30654
30417
30252
30244
30393
30708
31130
31564
31999
32377
32644
32773
32751
32693
32540
32364
32154
31847
31416
30980
30683
30480
30420
30378
30509
30819
31231
31703
32143
32519
32767
32917
32999
32985
32766
32535
32230
31894
31508
31152
30871
30658
30537
30521
30676
30967
31340
31780
32202
32583
32875
33050
33015
32959
32793
32581
32311
31990
31604
31239
30955
30741
30620
30628
30812
31111
31540
31959
32308
32604
32805
32954
33043
33078
33023
32767
32399
32060
31692
31319
31037
30822
30753
30751
30897
31199
31620
32055
32510
32860
33135
33319
33284
33204
33096
32892
32661
32343
31946
31533
31175
30919
30793
30839
31070
31399
31820
32255
32587
32847
33102
33287
33429
33477
33287
32935
32655
32310
32003
31655
31367
31077
30909
30924
31125
31481
31936
32432
32876
33175
33368
33439
33479
33460
33345
33148
32886
32580
32197
31812
31454
31176
31037
31082
31294
31633
32051
32519
32938
33258
33557
33722
33751
33675
33447
33208
32945
32618
32239
31905
31615
31375
31257
31265
31375
31692
32095
32532
32953
33300
33595
33797
33878
33793
33591
33311
33021
32683
32292
31888
31575
31364
31317
31371
31584
31903
32286
32691
33060
33397
33653
33836
33888
33845
33700
33451
33087
32704
32309
31943
31654
31437
31351
31412
31634
31918
32324
32750
33125
33471
33630
33770
33791
33773
33635
33396
33158
32833
32445
32067
31729
31484
31378
31399
31540
31846
32233
32681
33098
33457
33751
33900
33926
33799
33660
33360
33079
32774
32439
32087
31761
31545
31457
31471
31673
31979
32326
32741
33088
33391
33652
33867
33921
33903
33745
33420
33044
32716
32362
32001
31727
31553
31487
31531
31728
31975
32351
32757
33140
33420
33663
33826
33924
33948
33838
33584
33286
32941
32470
32098
31749
31527
31450
31456
31652
31960
32363
32862
33250
33598
33809
33914
33895
33813
33671
33439
33148
32853
32498
32157
31860
31623
31516
31514
31721
32043
32458
32954
33375
33701
33926
34103
34135
34023
33873
33607
33259
32903
32556
32191
31897
31674
31571
31640
31860
32169
32575
33015
33433
33726
33951
34023
34019
33919
33743
33615
33362
32871
32476
32199
31800
31578
31508
31535
31762
32095
32492
32977
33399
33722
33911
34015
34053
34007
33815
33529
33194
32860
32502
32118
31795
31591
31505
31584
31780
32104
32463
32931
33337
33665
33901
34026
34031
33945
33775
33543
33260
32969
32583
32222
31874
31666
31519
31539
31730
32029
32415
32863
33342
33697
33778
33919
34086
34050
33765
33543
33279
32967
32599
32236
31879
31575
31487
31548
31815
32161
32519
32902
33213
33612
33900
34055
34078
33898
33732
33589
33351
33031
32646
32263
31916
31637
31549
31572
31751
32055
32423
32827
33205
33509
33733
33901
34007
33986
33882
33649
33391
33079
32751
32396
32121
31897
31884
31903
32135
32454
32852
33261
33565
33846
34085
34265
34327
34287
34087
33879
33583
33215
32774
32362
32021
31804
31693
31734
31938
32258
32665
33132
33557
33839
34055
34227
34279
34212
34014
33723
33338
32989
32581
32172
31839
31591
31479
31500
31703
32013
32405
32774
33136
33453
33713
33867
33935
33914
33652
33359
33116
32839
32467
32039
31706
31484
31411
31452
31668
32017
32412
32882
33277
33597
33839
33955
33927
33815
33669
33414
33166
32876
32487
32065
31707
31500
31429
31508
31748
32065
32487
32821
33153
33487
33796
33947
33934
33842
33652
33428
33151
32835
32454
32057
31776
31501
31397
31471
31751
32117
32565
32997
33327
33543
33770
33958
34055
33985
33799
33437
33110
32786
32391
32040
31751
31583
31541
31623
31871
32190
32613
33047
33404
33673
33826
33895
33671
33358
32927
32389
31780
31209
30628
30137
29737
29445
29316
29329
29626
30247
31135
32076
32959
33717
34494
35300
36044
36908
37655
38443
39286
40100
40927
41967
43460
45050
46791
48675
50671
52644
54460
56264
57624
58266
58229
57703
56583
55412
53756
51834
49617
46952
44285
42076
40022
37988
35999
34317
33168
32263
31271
30303
29532
29110
28970
28994
29031
28989
28811
28568
28239
27844
27380
26996
26698
26478
26420
26535
26886
27399
27979
28553
29111
29579
29959
30210
30352
30415
30356
30188
29928
29583
29215
28902
28633
28452
28399
28489
28743
29098
29543
30015
30367
30687
30956
31135
31255
31260
31050
30821
30532
30212
29837
29535
29273
29135
29133
29237
29498
29840
30261
30703
31138
31454
31679
31759
31831
31784
31652
31447
31117
30781
30417
30090
29830
29641
29613
29717
29964
30292
30741
31212
31555
31817
32077
32251
32300
32163
31971
31792
31536
31190
30765
30413
30177
30042
29984
30052
30311
30691
31148
31543
31909
32247
32511
32668
32711
32556
32343
32126
31871
31540
31161
30803
30471
30287
30230
30340
30612
30991
31378
31783
32161
32508
32762
32930
32923
32815
32615
32379
32151
31849
31415
31036
30773
30643
30662
30759
30958
31291
31746
32231
32643
32967
33173
33270
33223
33110
32930
32751
32527
32203
31783
31358
31095
30954
30956
31087
31338
31650
32050
32536
32997
33247
33414
33497
33531
33567
33438
33149
32787
32447
32093
31783
31533
31364
31244
31383
31717
32121
32564
33015
33311
33620
33881
34130
34213
34087
33823
33620
33399
33114
32736
32324
32127
32044
32074
32177
32429
32741
33214
33703
34133
34517
34773
34959
35050
34986
34772
34518
34191
33831
33519
33261
33051
32888
32799
32895
33182
33609
34108
34623
35011
35230
35393
35548
35703
35740
35538
35175
34978
34703
34290
33871
33639
33505
33479
33660
33940
34266
34593
34986
35459
35754
35937
35970
35839
35655
35423
35132
34751
34332
33896
33510
33143
32841
32604
32580
32812
33103
33431
33743
33966
34050
34058
34107
34167
34005
33663
33209
32794
32391
31980
31591
31177
30871
30774
30866
31089
31389
31751
32043
32324
32575
32789
32903
32775
32608
32383
32191
31817
31346
30942
30592
30311
30116
30031
30103
30351
30714
31165
31590
31899
32084
32334
32450
32401
32302
32145
31946
31627
31228
30812
30449
30188
30037
30031
30164
30431
30772
31212
31660
32059
32367
32581
32706
32687
32535
32293
32071
31814
31470
31095
30749
30468
30302
30257
30384
30663
31074
31519
31934
32279
32479
32694
32825
32884
32823
32564
32263
31974
31655
31296
30944
30647
30503
30465
30599
30909
31231
31588
32041
32447
32739
32935
33020
33036
32945
32757
32514
32220
31807
31372
31015
30711
30562
30540
30655
30950
31282
31703
32109
32459
32767
33012
33113
33127
33036
32804
32519
32167
31783
31374
31031
30735
30589
30543
30671
30932
31298
31735
32131
32490
32763
32954
33082
33082
33015
32903
32570
32147
31840
31517
31157
30895
30737
30684
30831
31103
31476
31898
32327
32668
32927
33087
33182
33207
33077
32938
32671
32354
31974
31568
31215
30942
30823
30837
30983
31276
31648
32100
32549
32906
33216
33408
33498
33476
33348
33086
32807
32460
32101
31742
31453
31229
30996
30949
31115
31447
31836
32282
32706
33061
33328
33540
33650
33553
33396
33204
32999
32763
32405
31948
31559
31319
31189
31202
31397
31635
31929
32343
32853
33233
33516
33709
33697
33655
33511
33334
33121
32868
32504
32102
31731
31403
31234
31205
31347
31650
32034
32501
32967
33338
33571
33650
33711
33729
33648
33511
33275
32911
32450
32055
31716
31504
31388
31418
31542
31740
32099
32599
33057
33403
33619
33695
33767
33778
33743
33617
33349
32930
32500
32095
31769
31544
31455
31415
31482
31740
32109
32582
33110
33447
33561
33726
33861
33958
33879
33677
33287
32942
32545
32173
31860
31679
31529
31509
31590
31838
32199
32664
33094
33450
33746
33901
33906
33854
33759
33665
33260
32947
32675
32158
31903
31679
31468
31455
31573
31863
32283
32760
33193
33476
33667
33834
33956
34036
33940
33734
33436
33015
32604
32213
31894
31668
31538
31558
31717
31972
32252
32678
33125
33559
33838
33987
34036
34018
33823
33619
33383
33091
32770
32316
31915
31647
31511
31555
31751
32057
32422
32796
33127
33479
33772
34040
34132
34119
33903
33655
33375
33031
32684
32332
32027
31804
31660
31653
31767
31998
32389
32865
33206
33520
33770
33956
34053
34101
34025
33812
33594
33221
32764
32348
31985
31737
31623
31643
31846
32149
32482
32868
33220
33583
33876
34084
34183
34019
33876
33743
33482
33183
32793
32357
31943
31686
31575
31583
31791
32084
32486
32928
33302
33590
33789
33930
34031
34019
33895
33765
33520
33151
32644
32277
31975
31769
31559
31503
31693
32060
32492
32940
33237
33572
33799
33991
34150
34170
34021
33700
33378
33061
32759
32396
32007
31680
31540
31566
31789
32111
32471
32820
33220
33660
33991
34134
34120
34035
33886
33686
33466
33153
32756
32380
32004
31681
31557
31583
31804
32159
32554
32941
33287
33583
33844
34103
34258
34220
33943
33681
33413
33172
32799
32418
32071
31783
31591
31626
31855
32195
32571
32935
33300
33681
34047
34186
34093
34109
34061
33893
33508
33156
32814
32459
32135
31871
31664
31628
31828
32186
32591
32961
33311
33727
33991
34188
34161
34098
33975
33799
33595
33154
32694
32377
32096
31831
31641
31648
31814
32142
32559
33012
33434
33770
34027
34162
34154
34055
33876
33683
33429
33188
32796
32398
32071
31765
31595
31609
31820
32210
32613
32964
33302
33634
33933
34131
34204
34114
33853
33644
33386
33101
32774
32420
31983
31713
31598
31637
31844
32183
32591
32989
33287
33693
34037
34207
34209
34103
33935
33711
33492
33187
32733
32274
31927
31719
31648
31670
31836
32036
32449
32928
33365
33817
34114
34183
34274
34375
34340
34000
33716
33487
33164
32727
32286
32060
31951
31988
32161
32433
32751
33137
33476
33819
34108
34330
34437
34412
34269
34055
33717
33327
32895
32468
32153
31884
31824
31873
32076
32367
32745
33075
33438
33775
34033
34241
34307
34260
34084
33830
33476
32999
32556
32191
31924
31708
31581
31597
31827
32106
32500
32861
33214
33498
33762
33957
34110
34087
33940
33732
33419
33079
32684
32207
31839
31599
31503
31575
31814
32103
32503
32915
33245
33517
33764
33920
34046
34079
33948
33687
33261
32861
32465
32111
31830
31599
31500
31540
31680
31943
32333
32791
33223
33599
33874
34039
34042
33895
33730
33541
33253
32953
32584
32231
31895
31647
31561
31560
31764
32041
32444
32897
33252
33561
33752
33889
33958
33944
33799
33613
33287
32975
32628
32239
31962
31708
31519
31444
31561
31751
31989
32196
32284
32253
32195
32099
31974
31760
31532
31213
30903
30599
30409
30395
30580
30820
31196
31858
32743
33711
34919
36244
37575
38981
40412
41835
43380
45120
46806
48733
50492
52181
53699
55092
56216
57038
57511
57527
57223
56524
55647
54606
53316
51756
49799
47558
45680
43754
41824
39651
37447
35574
33910
32263
30511
28874
27713
27130
27019
27175
27482
27881
28207
28476
28605
28683
28721
28660
28508
28332
28140
27974
27725
27543
27427
27377
27494
27668
27975
28387
28852
29340
29772
30078
30279
30462
30543
30521
30385
30171
29903
29620
29271
28943
28668
28478
28402
28460
28695
29025
29438
29882
30299
30630
30887
31105
31223
31188
31034
30817
30563
30276
29919
29571
29294
29117
29026
29071
29303
29654
30108
30548
30931
31212
31455
31628
31702
31730
31628
31452
31174
30807
30404
30041
29762
29560
29489
29521
29759
30065
30470
30895
31321
31648
31934
32084
32075
32033
31919
31767
31526
31167
30765
30390
30110
29917
29871
29926
30126
30416
30828
31300
31744
32117
32340
32383
32455
32485
32381
32181
31876
31477
31051
30670
30411
30244
30183
30253
30447
30761
31200
31714
32167
32468
32588
32734
32830
32859
32729
32516
32192
31775
31385
31038
30759
30575
30497
30541
30716
31059
31493
31996
32455
32798
33047
33195
33237
33143
32943
32724
32454
32119
31803
31447
31072
30845
30769
30839
31117
31483
31854
32258
32631
32987
33330
33478
33494
33407
33234
33039
32844
32518
32103
31711
31406
31176
31145
31266
31513
31811
32175
32647
33131
33518
33678
33817
33943
34023
33895
33655
33341
32995
32639
32317
32056
31968
31946
32019
32242
32567
33017
33532
33908
34193
34466
34740
34875
34911
34660
34439
34248
33983
33513
33135
32885
32722
32748
32892
33151
33447
33849
34326
34818
35223
35501
35676
35687
35590
35402
35235
34985
34687
34426
34092
33831
33661
33551
33564
33700
33988
34396
34821
35253
35550
35768
35870
35730
35532
35263
35055
34743
34340
33780
33260
32813
32519
32418
32404
32508
32621
32999
33399
33725
33959
34017
33978
33937
33828
33629
33367
32974
32453
31988
31558
31180
30901
30812
30842
31006
31280
31607
31971
32307
32550
32707
32812
32815
32766
32605
32332
32009
31658
31239
30826
30501
30256
30151
30231
30457
30735
31135
31516
31928
32295
32570
32698
32586
32519
32362
32162
31939
31623
31236
30860
30500
30308
30237
30327
30584
30954
31378
31751
32116
32391
32597
32775
32825
32811
32637
32436
32084
31675
31322
31015
30793
30559
30439
30505
30749
31060
31456
31908
32299
32642
32877
33031
33083
33001
32774
32463
32161
31850
31521
31172
30851
30612
30531
30582
30813
31136
31556
32045
32463
32756
32839
32955
32998
32960
32844
32647
32355
32007
31548
31141
30836
30665
30615
30727
30989
31274
31643
32015
32352
32620
32852
33018
33091
33087
32887
32549
32188
31847
31487
31134
30854
30707
30654
30725
30943
31230
31615
32047
32428
32775
33063
33186
33141
33001
32806
32580
32317
32015
31623
31239
30934
30708
30649
30751
31042
31427
31868
32275
32578
32849
33061
33180
33232
33287
33149
32832
32415
32038
31687
31402
31159
30942
30871
30909
31173
31529
31989
32474
32887
33067
33257
33329
33439
33363
33109
32897
32676
32353
31943
31490
31199
31054
31084
31157
31311
31636
32119
32622
32951
33155
33372
33534
33647
33620
33356
33047
32775
32497
32135
31725
31358
31143
31102
31206
31505
31879
32237
32631
32977
33301
33619
33765
33676
33588
33479
33277
32908
32444
32053
31734
31502
31356
31255
31290
31581
31993
32447
32772
33072
33383
33646
33837
33892
33762
33494
33193
32905
32600
32273
31958
31626
31348
31262
31358
31658
32075
32500
32871
33175
33452
33740
33871
33775
33669
33490
33260
33015
32700
32295
31872
31524
31347
31329
31445
31751
32147
32530
32907
33207
33492
33735
33895
33961
33759
33489
33335
33093
32620
32230
31973
31679
31421
31422
31581
31813
32047
32480
32964
33399
33638
33717
33825
33935
33939
33612
33335
33116
32774
32380
31924
31579
31528
31373
31507
31869
32049
32575
33080
33404
33639
33743
33837
33874
33819
33705
33463
33189
32828
32409
31972
31647
31493
31442
31622
31893
32135
32583
33046
33490
33787
33981
34081
34029
33869
33660
33423
33126
32817
32455
32034
31676
31495
31503
31676
31988
32228
32620
33058
33532
33871
34044
34049
33967
33894
33734
33556
33284
32922
32437
32059
31743
31598
31583
31694
31996
32391
32692
33087
33458
33751
34027
34183
34196
33956
33679
33447
33195
32914
32516
32095
31783
31615
31603
31783
32074
32436
32828
33137
33423
33708
33935
34149
34175
34093
33799
33467
33165
32820
32463
32163
31927
31738
31660
31681
31934
32286
32759
33214
33620
33847
33922
34007
34013
33930
33799
33615
33300
32775
32373
32044
31796
31677
31629
31676
31911
32259
32689
33121
33556
33852
33920
34014
34116
34055
33844
33470
33151
32799
32487
32151
31861
31655
31554
31646
31956
32319
32836
33272
33598
33747
33857
33958
33973
33927
33819
33575
33273
32927
32532
32119
31773
31612
31593
31764
32053
32359
32692
33140
33582
33919
34091
34111
34055
33946
33756
33502
33220
32876
32510
32167
31879
31677
31586
31695
31980
32356
32865
33303
33636
33774
33932
34028
34037
33956
33830
33583
33287
32935
32528
32085
31759
31588
31551
31684
32007
32445
32879
33310
33671
33865
33999
34028
34063
34029
33868
33534
33134
32756
32389
32103
31871
31594
31510
31701
32007
32412
32874
33279
33543
33783
34138
34231
34215
34021
33750
33477
33162
32789
32423
32127
31886
31707
31655
31777
32025
32378
32812
33311
33692
33788
33994
34157
34221
34133
33918
33567
33164
32804
32476
32151
31861
31599
31549
31697
32012
32409
32882
33275
33508
33735
33927
34046
34120
34113
33914
33587
33108
32720
32357
32080
31866
31599
31556
31711
32068
32464
32816
33135
33513
33879
34055
34007
33996
33991
33881
33596
33140
32730
32351
32070
31841
31644
31519
31650
31941
32335
32791
33212
33596
33888
34084
34117
34036
33916
33647
33400
33103
32775
32430
32119
31855
31592
31519
31623
31924
32359
32850
33268
33471
33738
34000
34152
34199
34124
33967
33722
33281
32943
32691
32399
32159
32047
32022
32052
32423
32809
33055
33542
33886
34053
34169
34257
34255
34199
34013
33774
33420
32974
32559
32223
31964
31914
31844
31881
32138
32502
33005
33428
33809
34045
34111
34172
34189
34149
33954
33711
33348
32858
32327
31961
31718
31591
31604
31740
31943
32244
32663
33205
33557
33679
33830
33903
33894
33789
33573
33301
33066
32700
32323
32004
31719
31581
31575
31718
31987
32312
32671
33008
33367
33711
33945
34043
34039
33852
33574
33277
32949
32607
32319
32004
31628
31450
31456
31646
31956
32350
32772
33038
33365
33725
33988
33889
33907
33911
33724
33314
32967
32703
32309
31861
31605
31529
31578
31654
31910
32383
32759
33088
33543
33630
33974
33937
33959
33902
33543
33388
33116
32652
32228
31990
31791
31570
31484
31681
31965
32203
32644
33004
33127
33060
32941
32653
32343
32080
31570
31201
30833
30306
29859
29545
29421
29553
30036
30746
31489
32297
33430
34575
35650
36604
37764
39023
40269
41332
42407
43943
45575
47140
48615
50287
52004
53636
55100
56451
57564
58154
58167
57691
56879
55860
54393
52564
50574
48294
45962
43540
41376
39260
36882
34868
33346
31860
30314
29047
28179
27863
27946
28204
28478
28737
28872
28908
28847
28636
28350
28039
27704
27361
27052
26853
26767
26810
26967
27292
27755
28247
28803
29334
29795
30070
30265
30406
30464
30324
30092
29863
29618
29231
28836
28541
28343
28270
28293
28467
28774
29191
29689
30146
30509
30760
30891
31011
31060
31007
30759
30502
30227
29922
29602
29292
29047
28935
28971
29188
29543
29889
30316
30807
31180
31487
31603
31647
31711
31637
31367
31055
30783
30479
30069
29737
29500
29420
29442
29617
29902
30279
30756
31231
31628
31918
32030
32073
32040
31941
31799
31556
31149
30750
30455
30191
29951
29799
29821
30023
30348
30775
31180
31551
31905
32231
32468
32538
32423
32299
32156
31950
31599
31121
30743
30470
30279
30197
30201
30313
30570
30988
31525
31940
32183
32453
32686
32848
32831
32551
32382
32199
31918
31462
31033
30736
30558
30471
30511
30725
31015
31378
31805
32245
32607
32910
33131
33231
33081
32946
32813
32615
32287
31879
31431
31079
30842
30773
30878
31120
31402
31701
32144
32625
32983
33153
33236
33414
33479
33249
32965
32756
32525
32171
31732
31359
31139
31066
31140
31388
31717
32116
32506
32906
33244
33512
33711
33892
33955
33743
33489
33236
33054
32708
32351
31943
31777
31836
31855
32038
32340
32789
33325
33828
34179
34292
34508
34711
34811
34708
34437
34154
33855
33570
33300
32999
32678
32578
32621
32892
33331
33821
34186
34559
34903
35174
35476
35627
35511
35374
35194
35038
34753
34450
34119
33683
33469
33418
33540
33799
34154
34559
34876
35207
35517
35766
36055
36130
36015
35669
35388
35110
34783
34290
33697
33287
33055
32926
32788
32797
32998
33397
33781
34039
34138
34279
34415
34438
34183
33882
33625
33341
32935
32436
31847
31434
31146
31077
31066
31105
31396
31789
32166
32404
32670
32935
33099
32992
32899
32735
32564
32132
31710
31381
31007
30580
30295
30215
30251
30444
30780
31104
31467
31892
32285
32479
32506
32539
32583
32453
32270
31852
31484
31151
30824
30533
30245
30116
30166
30406
30790
31153
31538
31927
32244
32472
32623
32732
32719
32596
32353
32003
31644
31286
30970
30678
30495
30337
30325
30526
30855
31307
31803
32251
32501
32647
32791
32855
32826
32739
32556
32227
31764
31420
31093
30811
30532
30367
30413
30660
30983
31466
31894
32199
32452
32645
32798
32932
32949
32834
32452
32181
31868
31573
31174
30783
30634
30581
30575
30720
31012
31447
31935
32383
32727
32853
32906
32959
33012
32927
32707
32383
31937
31532
31175
30895
30700
30633
30567
30749
31109
31539
32030
32455
32653
32818
32981
33154
33149
32813
32588
32434
31972
31527
31177
30964
30799
30629
30670
30988
31303
31591
32072
32605
32940
33020
33115
33212
33255
33143
32852
32472
32157
31775
31489
31210
30982
30797
30831
31084
31447
31943
32391
32758
32995
33183
33342
33454
33463
33316
32972
32652
32327
32044
31631
31213
31012
31031
31142
31313
31585
31999
32516
32923
33252
33436
33477
33484
33448
33396
33244
32810
32439
32091
31804
31484
31172
31065
31180
31436
31788
32135
32537
32916
33227
33569
33768
33631
33551
33415
33321
33014
32530
32127
31796
31544
31367
31228
31220
31475
31815
32356
32621
33135
33295
33638
33707
33698
33783
33679
33335
32983
32647
32348
32023
31573
31361
31315
31440
31596
31877
32361
32860
33047
33422
33732
33790
33724
33707
33660
33375
32963
32663
32386
31908
31603
31473
31316
31391
31727
32062
32351
32837
33319
33429
33655
33945
33924
33757
33606
33492
33007
32700
32409
32029
31619
31371
31361
31484
31742
31898
32343
32866
33307
33519
33635
33867
33976
33844
33587
33359
33139
32828
32413
31916
31639
31509
31503
31472
31677
32023
32510
32969
33215
33516
33876
34053
33946
33871
33823
33597
33164
32734
32407
32165
31802
31543
31564
31660
31767
32116
32635
33063
33287
33655
33985
34047
33980
33924
33866
33679
33165
32821
32539
32129
31776
31673
31624
31584
31829
32240
32734
33047
33365
33685
33999
34158
34109
33948
33773
33606
33357
33017
32599
32106
31835
31700
31669
31611
31919
32303
32724
32999
33357
33677
34008
34177
34087
33962
33774
33605
33354
33023
32631
32174
31834
31617
31584
31683
31975
32329
32725
33080
33396
33700
33896
34101
34185
34111
33845
33490
33164
32817
32509
32203
31914
31665
31527
31572
31828
32147
32567
33064
33519
33839
34036
34042
34037
33919
33709
33463
33269
32964
32567
32163
31767
31534
31489
31596
31911
32293
32730
33014
33367
33738
33997
34151
34033
33951
33796
33671
33397
32934
32428
32025
31743
31578
31620
31711
31871
32135
32585
33125
33484
33696
33862
33985
34122
34135
33799
33493
33209
32947
32437
32081
31910
31776
31575
31638
31988
32387
32660
33023
33399
33734
34033
34196
34206
34151
33905
33537
33231
32967
32631
32128
31833
31677
31663
31826
32023
32230
32690
33254
33600
33746
33919
34135
34230
34102
33790
33575
33411
32860
32506
32263
31991
31687
31620
31727
32044
32408
32740
33096
33543
33863
34098
34132
34074
34068
33932
33623
33231
32881
32573
32226
31807
31630
31622
31770
32022
32244
32607
33046
33497
33831
34010
34001
34019
34075
33878
33483
33174
32935
32566
32159
31751
31546
31507
31693
31947
32153
32574
33069
33511
33747
33819
33959
34001
33983
33799
33577
33182
32741
32375
32083
31872
31537
31519
31710
31944
32165
32678
33167
33467
33644
33908
34107
33980
33855
33813
33414
33111
32890
32338
32026
31819
31543
31468
31635
31967
32173
32638
33148
33496
33614
33827
34110
34037
33895
33689
33565
33180
32715
32407
32122
31713
31583
31621
31604
31893
32263
32748
33223
33402
33723
34060
34123
33996
33911
33733
33575
33280
32791
32373
32094
31865
31663
31479
31633
31988
32381
32729
33085
33458
33804
34074
34023
34011
33913
33856
33548
33111
32773
32495
32167
31766
31634
31700
31811
31927
32259
32703
33248
33533
33702
33905
34150
34116
33901
33707
33553
33329
32844
32447
32131
31942
31870
31896
31950
32185
32600
33151
33645
33874
34087
34277
34375
34439
34394
34140
33753
33388
32991
32686
32365
31971
31751
31761
31951
32263
32531
32911
33316
33678
34024
34279
34282
34196
34081
34019
33612
33260
33019
32568
32123
31850
31719
31708
31764
31887
32215
32682
33161
33372
33628
33903
34053
34100
33837
33660
33468
33207
32825
32320
31892
31621
31469
31539
31676
31916
32185
32591
33027
33467
33823
33978
33909
33940
33821
33719
33497
33113
32677
32250
31920
31647
31495
31524
31623
31802
32122
32583
33012
33492
33807
33884
33951
34055
33979
33647
33415
33157
32819
32375
31900
31692
31591
31471
31621
32000
32391
32660
33099
33513
33855
33988
33957
34039
34017
33675
33390
33211
32859
32335
31937
31701
31607
31619
31760
32022
32270
32580
32991
33287
33559
33593
33358
33000
32577
32059
31572
31112
30631
30124
29691
29330
29148
29262
29723
30510
31384
32311
33268
34153
35055
35919
36860
37887
38903
39967
40967
41911
43149
44741
46316
47925
49684
51353
53276
55111
56764
57958
58500
58604
58178
57338
56095
54471
52498
50062
47818
45447
43109
40660
38308
36350
34645
33219
31892
30639
29603
28929
28679
28718
28846
28977
29037
29031
28935
28735
28416
28005
27594
27193
26882
26668
26593
26718
26987
27393
27911
28525
29124
29555
29901
30189
30415
30523
30442
30199
29910
29631
29287
28957
28655
28431
28300
28269
28420
28746
29166
29532
29974
30406
30718
30965
31032
31030
30966
30852
30652
30366
29972
29573
29268
29076
28992
28969
29081
29377
29803
30309
30757
31079
31367
31608
31782
31769
31573
31366
31143
30898
30579
30224
29812
29566
29462
29485
29698
29967
30286
30718
31188
31612
31908
32047
32106
32102
31996
31823
31602
31347
30996
30551
30213
29963
29859
29885
30069
30377
30686
31074
31512
31892
32228
32453
32644
32580
32366
32175
31959
31735
31301
30823
30519
30300
30228
30181
30299
30587
30989
31492
31975
32335
32487
32639
32865
32767
32719
32440
32144
31909
31607
31084
30831
30657
30418
30446
30711
30903
31268
31838
32241
32519
32860
33143
33119
33094
33111
32922
32505
32210
31920
31602
31172
30885
30816
30893
31015
31231
31646
32164
32611
32979
33250
33418
33445
33404
33287
33119
32940
32694
32252
31780
31452
31196
31135
31234
31420
31595
31967
32431
32879
33319
33677
33902
33964
33879
33775
33598
33447
33181
32863
32379
32041
31835
31809
31907
32063
32299
32742
33236
33753
34169
34265
34438
34554
34692
34711
34455
34143
33975
33617
33134
32841
32651
32647
32722
32829
33066
33469
33938
34492
34901
35253
35360
35372
35365
35400
35285
35112
34687
34300
34039
33823
33534
33307
33355
33687
33916
34254
34775
35285
35495
35692
35819
36022
36079
35819
35511
35277
35007
34454
33968
33732
33253
33082
33097
33180
33183
33487
33902
34311
34438
34497
34559
34702
34554
34199
33975
33688
33116
32606
32122
31744
31468
31232
31042
31157
31451
31801
32039
32345
32645
32937
33121
33071
32885
32674
32422
32164
31844
31390
30864
30479
30265
30112
30019
30151
30465
30884
31239
31589
31930
32158
32383
32455
32455
32373
32052
31711
31397
31042
30660
30355
30117
30038
30052
30182
30420
30847
31381
31796
31999
32292
32549
32684
32524
32375
32187
31928
31662
31340
30996
30626
30332
30203
30214
30429
30772
31227
31719
32092
32379
32571
32763
32846
32920
32810
32543
32159
31828
31508
31188
30849
30556
30395
30399
30609
30977
31406
31845
32163
32390
32647
32898
33070
33093
32905
32595
32284
31973
31617
31293
31017
30797
30574
30548
30753
31127
31564
32052
32465
32772
32996
33093
33092
33053
32911
32708
32539
32276
31932
31459
31078
30852
30804
30793
30888
31177
31653
32161
32533
32787
33052
33242
33415
33479
33238
32938
32660
32325
32049
31671
31277
30939
30855
30892
31072
31429
31879
32334
32683
32935
33121
33284
33381
33346
33199
33068
32849
32514
32007
31623
31302
31080
31007
31047
31190
31437
31829
32292
32697
32999
33232
33503
33611
33620
33410
33095
32784
32453
32119
31798
31489
31159
30983
31015
31269
31639
32020
32363
32757
33062
33287
33518
33612
33629
33439
33075
32825
32519
32212
31915
31609
31320
31165
31135
31304
31626
32107
32612
33015
33277
33406
33579
33630
33691
33619
33420
33105
32635
32210
31829
31500
31357
31284
31207
31387
31760
32234
32686
33006
33228
33442
33605
33679
33748
33672
33308
32967
32625
32351
32013
31644
31335
31174
31204
31421
31828
32325
32710
33040
33303
33605
33823
33892
33767
33538
33308
33119
32831
32303
31946
31646
31436
31395
31284
31479
31796
32252
32722
33118
33287
33527
33818
33917
33828
33568
33287
33005
32771
32455
31972
31622
31406
31413
31380
31450
31771
32260
32773
33122
33306
33522
33757
33876
33857
33559
33371
33217
32903
32381
31951
31725
31473
31281
31367
31670
31977
32221
32677
33234
33405
33618
33863
33938
33764
33670
33526
33157
32748
32374
32053
31782
31442
31281
31332
31675
31895
32227
32743
33228
33408
33615
33844
33985
33783
33623
33527
33287
32762
32374
32105
31703
31383
31306
31398
31685
32017
32308
32741
33118
33483
33743
33947
33914
33793
33614
33377
33216
32910
32420
31966
31700
31568
31510
31450
31634
31940
32329
32795
33253
33603
33848
33976
33903
33799
33741
33583
33330
32897
32400
32036
31741
31606
31551
31570
31719
31964
32401
32844
33287
33634
33862
33894
33964
33978
33903
33694
33247
32893
32508
32156
31855
31707
31591
31527
31692
32010
32519
32980
33234
33492
33743
33976
34125
34036
33799
33511
33228
32973
32620
32186
31751
31515
31463
31594
31705
31970
32380
32951
33348
33576
33735
33884
33948
34007
33902
33655
33271
32887
32498
32231
31876
31532
31448
31509
31766
32133
32542
32879
33207
33511
33814
34016
34109
34049
33741
33498
33240
32973
32628
32131
31774
31613
31627
31523
31866
32021
32426
32956
33388
33710
33780
33927
34073
34069
33729
33481
33239
32989
32647
32150
31822
31603
31540
31675
31895
32041
32450
32962
33405
33734
33827
33954
34086
34100
33905
33559
33251
32903
32639
32303
31881
31567
31513
31618
31906
32118
32484
32907
33389
33737
33909
33957
33975
34036
33941
33716
33451
33023
32561
32146
31831
31633
31623
31684
31870
32082
32433
32976
33444
33687
33831
33987
34149
34105
33775
33535
33252
33062
32632
32111
31764
31611
31604
31685
31785
32121
32588
33081
33305
33616
34005
34102
34011
33940
33905
33677
33207
32885
32607
32261
31813
31573
31558
31711
31831
32084
32491
33067
33343
33589
33924
34079
33965
33984
33917
33535
33187
32927
32561
32046
31772
31671
31582
31531
31846
32263
32547
32961
33403
33745
33995
34050
34015
33949
33811
33619
33310
32815
32418
32071
31911
31714
31540
31533
31774
32151
32604
33060
33325
33564
33765
34020
34119
33940
33692
33461
33183
32917
32567
32160
31736
31517
31506
31586
31911
32188
32509
32951
33398
33797
33885
33979
33999
34052
33932
33532
33153
32804
32475
32152
31820
31481
31455
31528
31873
32247
32709
33191
33511
33853
34088
34270
34471
34393
34100
33871
33583
33301
32917
32420
32028
31815
31807
31931
32128
32375
32754
33206
33569
33897
34185
34311
34255
34155
33973
33751
33558
33223
32703
32260
31949
31750
31725
31812
31985
32199
32629
33055
33477
33829
34026
33974
33934
33860
33671
33431
33199
32887
32500
32111
31691
31469
31413
31540
31828
32143
32415
32805
33197
33491
33765
33981
34001
33799
33620
33465
33236
32804
32363
31967
31703
31529
31516
31573
31768
32007
32385
32829
33217
33583
33855
33989
33932
33831
33716
33516
33227
32884
32351
31921
31642
31493
31447
31559
31793
32004
32423
32871
33239
33624
33921
34037
33948
33895
33855
33637
33335
32973
32518
32047
31751
31599
31613
31741
31907
32109
32477
32953
33137
33295
33324
33235
33112
32568
32196
31738
31220
30805
30296
29959
29515
29380
29386
29871
30471
31386
32225
33135
34172
35267
36095
36994
38053
39126
40186
41190
42191
43420
44902
46380
47958
49634
51348
52955
54584
56119
57279
57863
57903
57415
56468
55144
53562
51711
49629
47270
44838
42375
39991
38023
36078
34220
32620
31317
30116
29079
28446
28263
28380
28627
28884
28964
29006
28951
28727
28432
28046
27688
27300
26926
26663
26573
26647
26856
27263
27750
