ECG
32564
32551
32586
32599
32596
32615
32661
32669
32618
32716
32775
32792
32869
32903
32927
32951
32943
32890
32813
32772
32717
32637
32511
32427
32420
32443
32551
32679
32786
32863
32849
32837
32839
32869
32903
32965
32983
32960
32932
32874
32791
32687
32615
32567
32551
32548
32607
32678
32788
32912
32986
32992
32971
32954
32972
32925
32887
32830
32811
32837
32855
32798
32741
32710
32639
32652
32647
32684
32735
32831
32911
32961
33046
33083
33095
33073
33067
33050
33031
32988
32892
32755
32679
32669
32687
32796
32855
32908
32962
32975
32966
32964
33006
33061
33159
33180
33156
33095
33077
33003
32946
32862
32807
32772
32740
32775
32837
32884
32977
33087
33117
33167
33227
33153
33095
33163
33175
32972
32927
32965
32964
32902
32807
32738
32771
32891
32935
32895
32885
32939
33004
33051
33092
33127
33135
33115
33090
33053
32986
32951
32886
32868
32882
32908
32911
32938
32933
32972
32997
33031
33103
33143
33182
33225
33253
33277
33301
33277
33242
33188
33135
33103
33143
33163
33190
33207
33231
33271
33298
33341
33348
33332
33364
33350
33357
33338
33353
33282
33193
33127
33031
32959
32914
32935
32869
32865
32877
32905
32941
33003
33051
33130
33202
33159
33133
33133
33031
32922
32917
32879
32770
32708
32655
32667
32647
32671
32700
32791
32840
32852
32867
32888
32948
32932
32927
32873
32831
32775
32759
32703
32683
32676
32663
32622
32627
32653
32724
32762
32799
32820
32832
32799
32775
32729
32756
32753
32712
32652
32590
32543
32526
32474
32423
32367
32379
32391
32434
32551
32629
32716
32762
32791
32774
32788
32763
32751
32699
32575
32514
32477
32430
32391
32364
32300
32326
32309
32373
32495
32542
32551
32587
32606
32641
32653
32620
32508
32404
32207
31988
31724
31508
31293
31078
30903
30757
30677
30662
30677
30700
30685
30595
30463
30335
30213
30324
30751
31374
32229
33367
34591
35844
37136
38416
39620
40703
41750
42663
43463
44206
44727
45031
45100
44775
44189
43250
42030
40684
39317
38183
37287
36527
35911
35399
34941
34591
34290
34044
33871
33783
33791
33710
33615
33470
33242
32972
32718
32491
32204
31980
31847
31687
31559
31439
31317
31211
31121
31111
31148
31199
31257
31341
31342
31322
31327
31286
31248
31223
31127
31078
31016
31002
30980
30944
30940
30926
30958
30981
31047
31095
31159
31207
31220
31222
31206
31170
31167
31142
31103
31135
31139
31080
31061
30997
30983
30999
31060
31087
31124
31239
31310
31361
31405
31439
31435
31463
31453
31443
31423
31387
31340
31293
31239
31174
31143
31166
31227
31277
31343
31404
31485
31561
31599
31668
31751
31778
31807
31783
31749
31702
31655
31618
31556
31486
31433
31451
31495
31551
31554
31607
31654
31676
31733
31725
31737
31770
31751
31732
31735
31741
31747
31717
31683
31622
31578
31610
31655
31681
31751
31769
31855
31903
31929
31972
31982
31989
32010
31988
31946
31889
31846
31773
31730
31700
31670
31622
31642
31671
31707
31781
31860
31967
32036
32084
32119
32086
32047
31997
31945
31903
31847
31845
31831
31836
31879
31887
31915
31952
31990
32043
32072
32133
32159
32226
32362
32228
32386
32246
32359
32214
32304
32183
32208
32210
32091
32293
32196
32255
32375
32332
32557
32615
32654
32699
32690
32711
32692
32631
32607
32567
32529
32518
32495
32508
32479
32514
32540
32620
32742
32767
32853
32958
32962
32986
33055
33082
33127
33129
33172
33178
33167
33151
33149
33151
33141
33126
33154
33191
33225
33236
33308
33378
33407
33415
33431
33445
33412
33377
33347
33316
33337
33305
33275
33227
33156
33087
33014
33005
33029
33055
33127
33259
33351
33394
33391
33317
33236
33191
33172
33111
33063
33029
32984
32932
32923
32882
32927
32917
33015
33063
33127
33194
33207
33207
33155
33047
32993
32968
32962
32978
32967
32916
32868
32831
32811
32771
32775
32791
32759
32801
32871
32898
32929
32935
32951
32948
32942
32895
32898
32951
32783
32927
32742
32839
32679
32721
32785
32672
32895
32791
33012
32927
33023
33094
32975
33109
32919
33084
32887
33028
32861
32900
32850
32715
32772
32638
32793
32695
32844
32895
32813
32974
32993
33015
33015
33007
32943
32945
32962
32926
32827
32794
32727
32684
32668
32656
32663
32652
32701
32758
32823
32860
32876
32886
32884
32869
32836
32791
32740
32707
32670
32644
32592
32569
32581
32559
32551
32548
32606
32668
32698
32754
32817
32831
32831
32844
32811
32775
32765
32698
32639
32612
32572
32596
32581
32629
32629
32623
32623
32615
32714
32774
32770
32764
32802
32823
32799
32789
32775
32813
32775
32775
32737
32710
32676
32732
32767
32796
32839
32889
32935
32923
32877
32919
32919
32922
32914
32918
32931
32887
32817
32774
32771
32766
32751
32744
32735
32772
32810
32901
32992
33076
33108
33121
33102
33097
33101
33074
33036
32943
32902
32860
32887
32886
32866
32847
32831
32797
32863
32901
32967
32974
33068
33087
33087
33031
32986
32959
32912
32894
32847
32787
32769
32791
32859
32855
32860
32873
32909
32903
32966
33076
33124
33127
33142
33155
33167
33159
33127
33077
33009
32967
32934
32905
32893
32871
32879
32876
32903
32880
32948
33022
33053
33057
33057
33036
33039
33025
32983
32930
32879
32898
32935
32788
32756
32737
32740
32726
32769
32840
32879
32932
32975
33006
33015
33004
32972
32925
32887
32871
32845
32807
32751
32719
32695
32708
32748
32782
32901
32926
32934
32911
32941
32989
32996
33005
32994
33012
32967
32870
32863
32815
32758
32767
32743
32757
32741
32723
32775
32773
32843
32910
32946
32962
32975
32989
32986
32988
32999
33025
32991
32935
32848
32884
32887
32860
32879
32869
32877
32931
32975
33045
33071
33052
33031
33029
33099
33167
33212
33222
33196
33165
33095
33058
32969
32955
32965
32954
32997
33049
33109
33171
33223
33268
33338
33357
33337
33321
33226
33151
33148
33130
33063
33000
32982
32972
33026
33059
33039
33101
33157
33211
33261
33216
33196
33143
33110
33082
33037
32978
32912
32872
32871
32889
32862
32863
32860
32858
32869
32914
32949
33010
32996
32994
33005
32988
32979
32979
32948
32932
32891
32836
32783
32743
32725
32731
32730
32725
32719
32784
32846
32871
32919
32916
32915
32913
32890
32877
32863
32836
32815
32874
32851
32799
32742
32711
32717
32711
32714
32766
32805
32871
32911
32950
32943
32933
32953
32942
32913
32846
32818
32775
32772
32759
32753
32772
32775
32817
32838
32906
32981
33046
33080
33111
33143
33127
33087
33007
32967
32883
32802
32711
32547
32346
32158
31943
31723
31588
31444
31343
31276
31257
31236
31211
31161
31084
30939
30773
30545
30364
30381
30783
31429
32303
33409
34633
35917
37252
38593
39844
41061
42204
43188
43970
44564
45055
45266
45316
45063
44484
43623
42516
41269
39863
38613
37604
36839
36252
35815
35469
35191
34957
34708
34523
34327
34216
34054
33828
33612
33329
33055
32751
32450
32204
31999
31843
31743
31668
31633
31663
31661
31661
31615
31591
31543
31485
31419
31367
31286
31204
31138
31063
30981
30950
30926
30894
30905
30933
30970
31051
31102
31173
31207
31239
31276
31335
31394
31407
31395
31375
31315
31275
31239
31192
31175
31172
31170
31214
31303
31259
31305
31407
31482
31513
31552
31541
31530
31506
31431
31418
31388
31340
31300
31277
31266
31257
31276
31279
31346
31434
31507
31552
31588
31628
31631
31649
31646
31621
31585
31532
31487
31430
31396
31372
31357
31311
31345
31380
31420
31484
31543
31611
31655
31681
31693
31682
31660
31675
31641
31663
31621
31588
31543
31511
31543
31551
31591
31635
31681
31710
31759
31770
31798
31831
31859
31870
31888
31874
31832
31831
31740
31674
31637
31635
31603
31589
31616
31641
31679
31709
31767
31816
31847
31859
31889
31911
31923
31936
31911
31895
31803
31751
31730
31747
31742
31771
31751
31759
31799
31878
31968
32026
32091
32067
32075
32055
32048
32023
31996
31998
31976
31967
31964
31941
31943
31975
32036
32085
32157
32199
32259
32335
32372
32380
32420
32397
32405
32388
32385
32394
32365
32317
32286
32255
32243
32232
32298
32308
32381
32449
32538
32621
32701
32740
32795
32810
32831
32871
32919
32911
32885
32850
32835
32693
32709
32775
32803
32876
32933
33005
33098
33155
33223
33287
33312
33332
33324
33333
33308
33255
33211
33168
33112
33055
32989
32959
32972
32974
32993
33047
33102
33140
33165
33165
33167
33167
33127
33087
33023
32949
32829
32764
32729
32615
32560
32530
32524
32524
32551
32639
32725
32862
32863
32820
32719
32726
32836
32694
32603
32647
32637
32583
32573
32545
32519
32509
32503
32508
32548
32598
32652
32723
32767
32738
32748
32745
32725
32724
32701
32679
32623
32487
32423
32378
32349
32347
32341
32367
32404
32455
32537
32619
32655
32695
32711
32724
32755
32728
32719
32710
32655
32652
32641
32682
32647
32652
32652
32692
32704
32713
32748
32791
32853
32903
32935
32959
32909
32873
32807
32751
32683
32614
32507
32460
32415
32385
32420
32469
32509
32558
32690
32716
32742
32775
32789
32815
32793
32773
32754
32723
32732
32679
32610
32551
32532
32515
32554
32606
32711
32722
32789
32861
32911
32959
32980
32986
32966
32955
32895
32830
32791
32735
32638
32644
32567
32551
32559
32577
32638
32707
32759
32825
32866
32887
32929
32915
32932
32931
32926
32913
32820
32733
32711
32683
32655
32693
32736
32722
32727
32762
32767
32799
32818
32844
32855
32877
32871
32849
32804
32742
32719
32685
32644
32583
32556
32569
32572
32588
32637
32684
32724
32759
32810
32855
32855
32865
32860
32834
32794
32763
32708
32684
32636
32623
32563
32564
32527
32577
32631
32693
32762
32844
32831
32844
32871
32884
32908
32904
32903
32999
32983
32940
32790
32747
32716
32717
32714
32748
32796
32865
32920
32999
33047
33103
33092
33111
33109
33076
33013
32964
32943
32911
32895
32843
32790
32765
32759
32799
32838
32874
32909
32962
32999
33043
33047
33075
33146
33118
33031
33014
32980
32941
32879
32835
32826
32807
32807
32831
32855
32907
32943
32976
33009
33042
33052
33059
33039
33028
33000
32955
32914
32879
32863
32840
32869
32844
32828
32830
32820
32853
32919
32947
32998
33092
33095
33086
33013
32966
32935
32914
32877
32861
32831
32820
32759
32727
32728
32758
32812
32805
32836
32887
32941
32967
32950
32967
32959
32964
32934
33002
32977
32807
32734
32710
32691
32671
32665
32666
32699
32756
32832
32915
32950
32991
33086
33124
33119
33034
32975
32916
32876
32843
32813
32772
32712
32698
32660
32716
32733
32788
32920
33028
33108
33148
33189
33194
33191
33188
33116
33073
33026
32980
32943
32892
32916
32919
33029
33062
33058
33079
33172
33229
33198
33179
33164
33207
33223
33242
33231
33151
33082
33039
32987
32959
32908
32858
32831
32820
32823
32798
32836
32861
32885
32900
32943
32922
32924
32919
32860
32832
32740
32727
32675
32590
32512
32519
32548
32519
32563
32685
32688
32771
32825
32884
32933
32935
32869
32817
32772
32759
32742
32717
32635
32570
32503
32468
32474
32497
32558
32608
32623
32752
32740
32767
32796
32775
32788
32743
32711
32677
32623
32586
32535
32487
32470
32431
32454
32512
32529
32583
32626
32725
32774
32775
32751
32710
32717
32655
32647
32629
32655
32697
32689
32639
32617
32574
32563
32557
32579
32602
32660
32745
32775
32794
32799
32761
32682
32636
32516
32398
32173
31947
31679
31438
31230
31030
30881
30822
30801
30799
30803
30809
30727
30636
30471
30322
30284
30527
31057
31866
32895
34055
35262
36511
37786
38976
40096
41214
42207
43071
43782
44341
44692
44843
44724
44167
43407
42329
41263
40066
38788
37709
36841
36203
35663
35241
34930
34603
34295
34131
34023
33935
33842
33731
33598
33438
33247
32999
32741
32461
32198
31991
31845
31723
31584
31471
31394
31334
31338
31385
31429
31457
31456
31449
31417
31394
31359
31324
31293
31236
31173
31108
31038
30964
30926
30913
30919
30939
30938
30980
31075
31141
31205
31262
31286
31308
31283
31217
31171
31132
31077
31031
30983
30946
30937
30919
30959
31006
31052
31119
31199
31311
31356
31433
31466
31538
31559
31591
31572
31535
31527
31488
31448
31420
31405
31431
31467
31487
31517
31564
31626
31726
31830
31905
31919
31912
31919
31890
31868
31838
31794
31751
31681
31636
31638
31648
31698
31726
31780
31799
31886
31908
31975
31991
31972
32063
32077
32055
32059
32039
31989
31950
31859
31815
31775
31769
31724
31766
31863
31977
32070
32097
32202
32273
32270
32252
32196
32179
32167
32113
32084
31983
31927
31879
31865
31935
31863
32003
31919
32124
32036
32117
32212
32172
32385
32231
32258
32295
32243
32274
32152
32191
32007
32135
31997
32001
32067
31981
32182
32130
32351
32254
32419
32366
32463
32487
32415
32556
32366
32462
32428
32315
32462
32295
32255
32413
32292
32358
32577
32497
32556
32732
32675
32728
32766
32785
32788
32819
32799
32764
32767
32759
32764
32767
32743
32725
32863
32929
32774
32943
33109
33045
33084
33253
33287
33287
33298
33269
33253
33206
33149
33082
33055
33060
32971
32948
32999
32999
33015
33179
33308
33359
33363
33446
33488
33564
33557
33530
33476
33321
33215
33159
33111
33020
32951
32911
32954
32943
32983
32991
33031
33058
33071
33137
33137
33125
33159
33162
33062
33061
32985
32860
32719
32687
32655
32589
32574
32583
32587
32618
32671
32721
32742
32775
32817
32809
32850
32910
32903
32846
32804
32724
32652
32647
32620
32604
32610
32639
32628
32665
32697
32740
32766
32741
32758
32758
32751
32741
32719
32695
32645
32599
32561
32526
32492
32458
32446
32431
32547
32621
32715
32803
32839
32865
32884
32884
32882
32873
32810
32753
32714
32591
32647
32588
32561
32557
32558
32554
32594
32561
32615
32675
32741
32799
32816
32837
32852
32829
32775
32733
32692
32639
32607
32578
32559
32543
32525
32527
32647
32716
32770
32861
32904
32937
32967
32960
32991
32948
32948
32926
32890
32820
32775
32738
32687
32679
32666
32690
32732
32817
32893
32927
32916
32939
32939
32923
32925
32871
32820
32767
32647
32613
32553
32518
32495
32471
32471
32475
32500
32548
32590
32666
32731
32775
32791
32812
32823
32822
32783
32746
32706
32706
32646
32610
32575
32575
32583
32655
32743
32858
32910
32940
32971
32980
32939
32938
32917
32927
32905
32841
32788
32735
32687
32628
32657
32659
32695
32752
32775
32810
32861
32943
32959
32895
32941
32957
32935
32923
32912
32903
32868
32855
32853
32831
32767
32746
32743
32727
32764
32853
32940
33077
33175
33206
33199
33241
33219
33175
33158
33066
33003
32982
32851
32819
32825
32749
32719
32742
32775
32799
32848
32908
32946
32999
33031
33021
32997
32951
32913
32865
32863
32821
32767
32717
32695
32677
32687
32693
32725
32799
32855
32922
32991
33052
33090
33043
33052
33060
33039
32977
32909
32877
32811
32763
32727
32707
32679
32703
32727
32775
32850
32922
32999
33016
33041
33081
33146
33231
33231
33168
33093
33031
32964
32909
32887
32876
32915
32935
32940
32977
33018
33031
33121
33134
33139
33155
33147
33128
33127
33054
33031
32957
32902
32855
32807
32756
32759
32804
32826
32823
32868
32921
32972
33014
33063
33082
33055
33031
32999
32997
32963
32929
32874
32846
32824
32831
32839
32876
32980
33095
33179
33233
33303
33319
33338
33323
33348
33343
33334
33306
33301
33255
33205
33181
33170
33140
33065
33063
33066
33131
33231
33351
33423
33448
33487
33508
33485
33460
33396
33345
33284
33252
33274
33252
33212
33218
33210
33195
33241
33287
33343
33369
33323
33293
33309
33300
33279
33252
33220
33183
33119
33029
32983
33031
32993
32938
32932
32911
32864
32909
32973
33020
33115
33117
33135
33126
33111
33077
33052
33004
32965
32907
32828
32793
32764
32735
32710
32701
32724
32767
32841
32925
33007
33052
33041
33055
33043
33052
33092
33061
32884
32786
32722
32669
32623
32599
32599
32614
32635
32749
32835
32933
32998
33084
33095
33108
33053
32934
32884
32932
32956
32837
32794
32748
32742
32744
32743
32755
32796
32879
32895
32959
32967
33012
33028
33071
33089
33031
33028
32983
32945
32887
32813
32700
32615
32495
32369
32196
32046
31953
31794
31662
31647
31634
31660
31623
31598
31604
31635
31599
31539
31411
31374
31453
31711
32245
33081
34134
35300
36415
37551
38711
39887
40934
41847
42548
43125
43412
43438
43280
42752
41898
40846
39604
38308
37168
36380
35695
35173
34823
34564
34381
34260
34173
34095
33975
33805
33703
33634
33604
33644
33500
33360
33305
33098
32959
32765
32550
32357
32200
32105
32062
32015
31956
31907
31843
31776
31732
31679
31643
31588
31575
31533
31471
31403
31362
31311
31311
31360
31437
31555
31613
31663
31684
31679
31629
31593
31583
31579
31495
31460
31423
31399
31451
31439
31462
31382
31397
31411
31500
31567
31611
31670
31702
31703
31736
31732
31764
31772
31791
31757
31717
31700
31694
31592
31527
31548
31615
31627
31709
31767
31893
31951
31994
32007
31991
31974
31934
31844
31810
31783
31717
31650
31609
31599
31607
31591
31618
31655
31709
31751
31815
31882
31951
31991
32006
32007
32018
32032
32053
32063
31998
31936
31838
31748
31703
31729
31679
31718
31790
31871
31939
32001
32079
32135
32180
32179
32165
32145
32087
32032
31989
31925
31885
31834
31831
31816
31804
31815
31868
31918
31991
32071
32115
32151
32153
32188
32219
32309
32263
32180
32090
32036
32007
32015
31998
31929
31953
31975
32035
32089
32149
32204
32247
32277
32277
32303
32321
32325
32286
32234
32214
32191
32151
32205
32163
32220
32263
32326
32334
32405
32506
32701
32746
32775
32805
32829
32841
32847
32822
32815
32797
32740
32703
32708
32701
32713
32738
32799
32850
32886
32967
33032
33113
33143
33159
33158
33140
33155
33143
33201
33131
33067
33002
32961
32956
32980
33007
33031
33067
33116
33191
33236
33369
33423
33451
33457
33467
33391
33287
33163
33113
33079
33005
32947
32860
32836
32823
32841
32865
32868
32908
32927
32948
32923
32929
32903
32888
32839
32792
32732
32682
32628
32581
32519
32508
32489
32496
32519
32551
32607
32667
32711
32732
32737
32723
32711
32721
32716
32669
32615
32551
32470
32411
32359
32309
32276
32297
32323
32359
32394
32436
32575
32614
32641
32643
32646
32647
32591
32556
32519
32473
32454
32435
32422
32381
32352
32303
32340
32364
32428
32532
32596
32639
32667
32661
32660
32660
32637
32580
32535
32549
32561
32576
32525
32492
32460
32476
32506
32557
32598
32647
32715
32782
32827
32845
32870
32847
32796
32702
32615
32582
32538
32556
32588
32570
32535
32533
32571
32654
32730
32792
32839
32860
32860
32841
32813
32850
32831
32795
32740
32637
32585
32543
32513
32505
32480
32492
32551
32623
32684
32735
32786
32831
32881
32903
32876
32879
32836
32798
32759
32709
32661
32599
32574
32564
32580
32655
32665
32743
32775
32822
32874
32918
32969
32940
32951
32927
32935
32922
32914
32879
32879
32867
32827
32775
32742
32717
32769
32839
32871
32837
32877
32886
32916
32891
32859
32812
32849
32853
32871
32843
32763
32684
32718
32703
32676
32647
32660
32607
32623
32716
32775
32797
32801
32805
32789
32761
32746
32732
32731
32727
32663
32549
32498
32465
32447
32525
32575
32645
32702
32789
32867
32922
32949
32933
32882
32759
32714
32679
32671
32653
32659
32561
32519
32471
32434
32479
32495
32551
32657
32740
32791
32817
32851
32863
32884
32825
32798
32722
32647
32540
32476
32416
32396
32428
32415
32431
32483
32535
32613
32623
32652
32664
32676
32671
32685
32691
32684
32704
32660
32601
32532
32455
32398
32396
32367
32427
32490
32502
32557
32631
32710
32789
32791
32796
32761
32727
32679
32591
32551
32472
32391
32327
32263
32263
32283
32271
32282
32325
32372
32582
32613
32543
32567
32733
32758
32743
32740
32676
32622
32577
32496
32456
32431
32404
32436
32439
32453
32518
32634
32719
32767
32819
32829
32855
32895
32903
32884
32860
32814
32836
32775
32745
32730
32659
32635
32647
32652
32693
32771
32843
32927
33001
33053
33087
33122
33055
33074
33023
33027
32989
33052
33052
33039
33010
32972
32908
32847
32853
32922
32979
33031
33055
33062
33047
33041
33020
32983
32935
32884
32823
32791
32807
32773
32756
32739
32767
32764
32822
32837
32895
32964
32996
33001
32982
32940
32911
32863
32814
32719
32623
32561
32526
32495
32526
32527
32562
32627
32623
32558
32593
32669
32711
32823
32838
32911
32903
32903
32871
32815
32647
32566
32510
32476
32444
32423
32412
32391
32421
32466
32547
32639
32695
32794
32799
32794
32799
32812
32806
32809
32753
32671
32516
32458
32422
32421
32455
32462
32519
32573
32647
32762
32841
32919
32919
32823
32735
32698
32671
32715
32705
32694
32677
32667
32677
32613
32549
32517
32547
32587
32724
32812
32810
32724
32647
32507
32155
31961
31751
31557
31404
31262
31142
31135
31134
31116
31148
31206
31231
31188
31195
31253
31395
31719
32356
33125
34102
35201
36336
37400
38549
39678
40607
41446
41918
42672
43065
43244
43308
43204
42519
41438
40239
38951
37940
36996
36263
35687
35146
34671
34328
34068
33834
33650
33475
33359
33287
33359
33434
33498
33451
33354
33302
33227
33097
32917
32786
32598
32367
32080
31933
31807
31671
31612
31527
31474
31340
31308
31339
31370
31356
31375
31392
31397
31455
31468
31468
31457
31415
31335
31228
31125
31120
31087
31140
31204
31239
31250
31205
31218
31263
31349
31394
31423
31436
31467
31462
31501
31468
31439
31459
31444
31428
31423
31381
31305
31278
31287
31340
31427
31484
31563
31622
31671
31694
31771
31803
31826
31805
31771
31724
31719
31598
31516
31483
31471
31524
31556
31623
31656
31733
31875
31946
32007
32018
31997
31902
31900
31879
31871
31848
31811
31750
31723
31694
31679
31690
31730
31844
31911
31940
32047
32076
32041
32060
32058
32079
32097
32063
32062
31943
31957
31943
31939
31940
31941
31950
31957
32021
31980
31986
32053
32129
32141
32135
32143
32135
32143
32113
32070
32044
32007
31972
31934
31925
31941
32024
32091
32161
32261
32311
32310
32384
32350
32423
32407
32356
32318
32283
32231
32196
32167
32112
32066
32069
32069
32119
32135
32257
32308
32387
32519
32598
32644
32692
32615
32599
32639
32600
32586
32572
32655
32637
32662
32678
32678
32652
32675
32716
32764
32839
32921
32964
33006
33101
33030
33039
33124
33103
33079
33026
33014
32976
32997
33018
33013
33012
33053
33093
33149
33199
33269
33342
33401
33428
33439
33413
33415
33391
33415
33340
33219
33151
33086
33071
33071
33075
33092
33122
33173
33215
33316
33330
33343
33332
33359
33406
33369
33314
33233
33159
33063
32967
32899
32837
32811
32805
32801
32823
32851
32895
32909
32921
32938
32912
32877
32836
32800
32766
32756
32691
32677
32537
32396
32372
32452
32442
32431
32478
32511
32533
32623
32743
32770
32775
32791
32790
32764
32764
32733
32627
32580
32483
32461
32407
32391
32399
32428
32479
32518
32558
32637
32660
32692
32703
32687
32692
32691
32647
32647
32663
32594
32546
32495
32466
32475
32489
32535
32581
32660
32759
32823
32879
32906
32919
32825
32764
32726
32701
32679
32635
32671
32683
32701
32671
32616
32559
32559
32607
32623
32655
32693
32741
32756
32775
32789
32771
32756
32724
32689
32624
32593
32519
32470
32423
32442
32438
32471
32485
32522
32569
32673
32793
32819
32828
32845
32831
32818
32797
32775
32761
32702
32667
32660
32606
32597
32615
32639
32701
32775
32847
32873
32924
32981
33017
33044
33031
32999
32942
32885
32837
32802
32692
32631
32581
32563
32562
32575
32607
32667
32727
32817
32964
33007
33038
33045
33053
33028
32998
32977
32927
32890
32775
32734
32671
32594
32598
32609
32660
32733
32796
32859
32901
32983
32991
32946
32972
32971
32940
32935
32896
32850
32828
32708
32645
32554
32548
32555
32615
32665
32715
32818
32877
32940
32902
32926
32894
32870
32806
32790
32735
32695
32641
32612
32581
32567
32575
32607
32706
32763
32823
32919
32990
33063
33079
33031
32940
32867
32804
32747
32783
32753
32759
32703
32695
32704
32705
32708
32727
32743
32724
32815
32849
32847
32847
32839
32812
32790
32756
32710
32647
32622
32666
32614
32566
32558
32599
32629
32644
32718
32774
32798
32843
32863
32902
32925
32935
32935
32916
32872
32809
32735
32667
32637
32615
32613
32638
32677
32721
32752
32807
32855
32878
32903
32903
32835
32812
32803
32842
32708
32655
32615
32602
32588
32604
32607
32647
32669
32702
32770
32869
32922
32967
32965
32932
32943
32942
32836
32805
32817
32827
32727
32577
32564
32690
32727
32734
32757
32775
32855
32923
32984
32956
32942
32891
32903
32891
32956
32847
32808
32769
32769
32756
32751
32711
32670
32677
32743
32781
32868
32964
33076
33167
33253
33287
33327
33333
33343
33356
33319
33257
33191
33087
32970
32927
32917
32911
32902
33030
33116
33147
33231
33279
33319
33351
33354
33306
33301
33229
33178
33127
33082
33047
32973
32934
32885
32900
32849
32871
32884
32922
32980
33012
33043
33027
33031
32999
32983
32903
32849
32843
32775
32806
32775
32764
32761
32775
32765
32775
32775
32775
32831
32842
32903
32935
32926
32927
32903
32873
32850
32820
32798
32797
32739
32687
32603
32527
32498
32525
32611
32687
32740
32767
32791
32803
32807
32791
32775
32765
32683
32628
32608
32570
32535
32501
32468
32460
32470
32493
32549
32603
32674
32718
32745
32743
32775
32785
32786
32751
32738
32729
32735
32713
32700
32671
32647
32663
32653
32642
32669
32647
32760
32737
32790
32714
32531
32445
32279
32044
31793
31598
31423
31253
31082
30932
30807
30761
30727
30679
30561
30447
30319
30234
30347
30788
31446
32388
33554
34834
36089
37439
38572
39775
40964
42061
42974
43738
44351
44876
45172
45235
45001
44407
43588
42449
41168
39771
38503
37413
36682
36065
35519
35071
34695
34348
34054
33870
33732
33598
33535
33407
33319
33175
33077
32851
32629
32436
32276
32143
32004
31879
31735
31596
31466
31350
31271
31255
31239
31207
31196
31209
31235
31314
31311
31271
31294
31286
31252
31237
31179
31156
31134
31108
31084
31079
31028
31057
31116
31166
31239
31249
31274
31330
31382
31371
31349
31346
31364
31351
31335
31294
31262
31209
31178
31158
31138
31143
31165
31215
31255
31319
31392
31463
31506
31532
31548
31543
31580
31519
31503
31469
31404
31364
31358
31346
31343
31381
31418
31406
31424
31550
31634
31687
31719
31650
31653
31673
31751
31743
31714
31668
31650
31659
31654
31609
31582
31568
31647
31613
31647
31727
31790
31871
31892
31867
31868
31846
31867
31886
31852
31815
31745
31685
31622
31582
31551
31565
31581
31599
31683
31761
31818
31858
31917
31942
32018
32031
32041
32007
32039
32022
31987
31972
31945
31899
31785
31744
31751
31779
31818
31860
31916
31996
32038
32055
32067
32060
32061
32059
31999
31955
31908
31845
31868
31923
31876
31887
31894
31938
32069
32167
32285
32364
32415
32427
32447
32468
32454
32454
32428
32345
32271
32215
32204
32167
32169
32204
32277
32334
32419
32452
32538
32599
32671
32705
32697
32711
32710
32693
32687
32682
32647
32634
32615
32614
32606
32599
32639
32688
32865
32908
32998
33086
33147
33150
33183
33190
33189
33186
33175
33143
33127
33105
33093
33063
33021
33039
33108
33182
33266
33351
33428
33485
33507
33492
33477
33455
33450
33406
33324
33263
33238
33191
33110
33068
33060
33062
33071
33113
32964
33065
33194
33057
33143
33189
33205
33105
32997
32959
32895
32835
32855
32864
32812
32763
32610
32543
32562
32605
32685
32734
32788
32836
32869
32871
32869
32871
32826
32789
32720
32676
32645
32573
32469
32429
32459
32472
32511
32515
32590
32633
32671
32702
32807
32859
32844
32835
32823
32819
32767
32741
32716
32647
32614
32599
32543
32503
32438
32461
32519
32570
32636
32677
32695
32724
32836
32877
32906
32903
32877
32871
32815
32748
32709
32683
32633
32618
32606
32623
32661
32710
32660
32676
32690
32711
32711
32711
32709
32695
32655
32645
32634
32663
32643
32677
32679
32665
32703
32763
32796
32855
32938
32995
33020
33031
32975
33004
32967
32918
32836
32729
32690
32655
32623
32604
32586
32675
32647
32647
32663
32709
32753
32807
32846
32871
32891
32905
32945
32927
32889
32887
32888
32823
32775
32741
32714
32732
32751
32775
32824
32887
32915
32959
33018
33029
33020
33039
33023
32987
32967
32897
32902
32901
32829
32788
32791
32836
32852
32866
32901
32975
33049
33107
33127
33147
33118
33123
33135
33133
33093
33066
33005
32943
32901
32855
32802
32877
32793
32826
32943
32879
33111
32986
33143
33078
33063
33143
33018
33146
32986
32979
32999
32895
33015
32900
32802
32863
32948
32818
33039
32937
33015
33148
33047
33218
33058
33115
33044
33041
33017
32987
32910
32879
32862
32928
32897
32853
32871
32902
32967
33011
33031
33028
33045
33039
32986
33051
32979
32965
32919
32898
32876
32850
32813
32775
32749
32718
32735
32769
32887
32964
33021
33083
33141
33157
33127
33103
33069
32991
32900
32848
32817
32791
32751
32730
32742
32739
32748
32783
32810
32859
32927
32982
32991
32995
33012
33013
33063
33087
33092
33061
33043
32988
32948
32917
32846
32772
32727
32775
32831
32879
32938
32988
33047
33045
33049
33021
32983
32950
32939
32919
32889
32903
32847
32810
32837
32813
32806
32742
32851
32911
32959
32975
33132
33174
33150
33094
33089
33079
33068
33002
32962
32896
32808
32775
32841
32853
32905
32975
33061
33122
33177
33258
33287
33276
33241
33205
33183
33175
33170
33159
33140
33119
33074
33057
33071
33084
33086
33143
33180
33212
33250
33303
33317
33342
33355
33364
33352
33332
33267
33233
33203
33159
33127
33079
32938
32871
32891
32973
33079
33136
33178
33209
33234
33244
33247
33227
33193
33132
33100
33038
32969
32869
32823
32775
32746
32669
32681
32684
32714
32749
32796
32841
32847
32857
32850
32829
32831
32821
32762
32740
32759
32797
32756
32725
32687
32674
32692
32695
32742
32799
32842
32863
32903
32903
32867
32789
32754
32724
32690
32647
32607
32567
32532
32519
32466
32431
32468
32527
32575
32683
32756
32804
32838
32870
32869
32847
32823
32807
32727
32711
32658
32645
32608
32527
32498
32487
32498
32503
32540
32577
32662
32655
32704
32757
32818
32812
32815
32773
32751
32679
32623
32566
32540
32437
32295
32146
31971
31782
31655
31508
31367
31254
31189
31124
31063
30996
30873
30696
30494
30259
30042
29991
30273
30876
31734
32797
33968
35237
36534
37727
38999
40183
41388
42431
43274
44029
44644
44960
45063
44934
44490
43765
42726
41393
40012
38678
37524
36757
36167
35702
35323
35127
34925
34668
34254
34199
34021
33791
33748
33408
33377
32983
32850
32435
32188
32075
31814
31863
31687
31697
31654
31596
31551
31495
31518
31487
31413
31396
31318
31236
31148
31076
31024
31018
30939
30911
30896
30930
30959
31010
31047
31116
31207
31239
31199
31239
31278
31255
31220
31202
31189
31145
31099
31077
31083
31079
31093
31107
31173
31239
31311
31367
31414
31436
31437
31433
31418
31363
31303
31230
31183
31158
31117
31054
31050
31017
31018
31037
31079
31143
31249
31319
31439
31471
31516
31529
31549
31574
31537
31457
31398
31309
31276
31251
31271
31255
31279
31326
31422
31487
31572
31655
31692
31719
31737
31772
31759
31767
31711
31711
31687
31658
31628
31623
31623
31634
31663
31687
31676
31719
31817
31843
31890
31892
31894
31910
31911
31909
31880
31854
31895
31908
31888
31877
31775
31718
31666
31687
31780
31859
31911
32025
32119
32180
32223
32153
32124
32063
32023
31983
31934
31910
31939
31924
31916
31885
31903
31911
31948
32023
32079
32129
32153
32175
32195
32188
32191
32188
32166
32157
32159
32141
32135
32119
32126
32126
32143
32191
32257
32324
32367
32427
32493
32527
32575
32597
32573
32580
32556
32497
32491
32460
32414
32397
32397
32391
32437
32484
32519
32591
32687
32758
32785
32820
32823
32842
32838
32836
32835
32818
32806
32783
32747
32718
32751
32756
32819
32903
33004
33084
33133
33218
33278
33293
33350
33415
33421
33407
33367
33327
33275
33238
33177
33148
33095
33067
33052
33055
33115
33137
33127
33159
33188
33180
33194
33176
33154
33124
33116
33068
32997
32951
32890
32863
32866
32865
32852
32830
32833
32942
32990
33108
33125
33095
33116
33095
33081
33048
32988
32821
32695
32647
32607
32567
32554
32540
32548
32551
32583
32647
32678
32726
32774
32796
32836
32815
32783
32709
32652
32621
32545
32519
32628
32549
32459
32558
32628
32489
32518
32683
32757
32775
32863
32872
32859
32848
32831
32715
32663
32623
32594
32551
32517
32516
32487
32479
32487
32549
32629
32758
32699
32744
32920
32796
32942
32895
32812
32959
32765
32771
32775
32808
32645
32775
32610
32639
32716
32627
32815
32697
32796
32927
32851
33028
32865
32967
32963
32827
32918
32819
32692
32823
32615
32705
32561
32621
32671
32604
32801
32692
32893
32757
32942
32788
32948
32780
32927
32855
32847
32827
32707
32786
32647
32743
32574
32670
32662
32609
32775
32717
32948
32809
32921
32972
32877
32986
32839
32983
32797
32922
32728
32767
32713
32679
32623
32685
32689
32677
32807
32741
32947
32871
33044
32884
33067
32880
32934
32949
32820
32934
32751
32881
32695
32838
32671
32799
32671
32861
32740
32955
32852
33029
32902
32997
32899
32984
32873
33005
32810
32949
32757
32805
32734
32615
32773
32621
32751
32727
32738
32882
32839
33062
32930
33126
32962
33124
32967
32934
33057
32879
32951
32876
32732
32847
32647
32793
32756
32711
32911
32826
33042
32946
32999
33127
32972
33020
33059
32977
33103
32906
32999
32799
32893
32875
32736
32893
32748
32774
32936
32861
33084
32948
33106
33043
32963
33143
32958
33084
32903
32927
32962
32821
32923
32849
32743
32914
32775
32862
33013
32936
33135
32991
33143
33046
33042
33039
33012
33018
32989
32954
32919
32868
32850
32839
32842
32927
32948
32981
32991
33075
32954
33157
33140
33063
33217
33111
33088
33151
32990
32922
32897
33038
32807
32798
32812
32761
32863
32783
32999
32871
33020
32998
32967
33093
32972
33115
32971
33111
32883
32974
32775
32903
32708
32855
32672
32827
32733
32763
32926
32818
33017
32884
32943
33007
32900
33055
32967
33026
33014
32996
32926
32848
32737
32655
32757
32820
32846
32871
32823
32835
32876
32913
32939
32943
32959
32967
33004
32968
32943
32929
32863
32775
32733
32718
32730
32735
32797
32854
32942
33021
33094
33159
33207
33223
33251
33237
33220
33194
33190
33140
33116
33095
33068
33079
33036
33050
33079
33098
33109
33142
33209
33220
33268
33267
33239
33287
33286
33247
33214
33164
33055
32951
32918
32874
32871
32902
32900
32936
33020
33063
33107
33132
33130
33135
33098
33065
33055
33047
33009
33004
32949
32911
32819
32775
32762
32753
32759
32718
32740
32774
32823
32864
32905
32930
32933
32914
32892
32863
32826
32775
32742
32795
32807
32792
32735
32682
32692
32738
32721
32789
32847
32900
32906
32964
32999
33082
33069
33021
33024
32988
32878
32898
32847
32756
32703
32645
32623
32655
32676
32721
32758
32814
32890
32983
32906
32832
32748
32715
32692
32651
32720
32757
32707
32657
32556
32517
32527
32555
32659
32669
32598
32455
32279
32068
31914
31633
31588
31314
31268
31159
30981
31045
30861
30889
30694
30531
30460
30364
30582
30919
31767
32559
33852
34855
36255
37339
38617
39687
40857
41734
42535
43167
43573
43959
44175
44047
43683
43046
42252
41223
40038
38952
37812
37167
36359
36033
35397
35284
34788
34671
34375
34062
34042
33765
33810
33487
33451
33327
33111
33090
32759
32717
32349
32203
32092
32047
31911
31743
31615
31463
31358
31258
31186
31082
31049
31055
31044
30996
30990
31039
31077
31099
31149
31148
31159
31215
31161
31206
31270
31104
31023
31007
31066
31079
30934
30917
30978
31111
31191
31141
31206
31335
31431
31412
31451
31461
31463
31461
31441
31383
31303
31265
31108
31231
31121
31252
31141
31319
31258
31362
31484
31428
31589
31511
31572
31616
31501
31623
31460
31566
31431
31527
31357
31471
31401
31329
31503
31421
31495
31617
31676
31762
31721
31903
31780
31875
31875
31793
31897
31780
31663
31775
31599
31718
31593
31554
31727
31650
31879
31948
32007
32069
32101
32085
32046
32065
32101
32129
32084
32035
31933
31879
31814
31846
31889
31893
31951
31966
32025
32129
32196
32166
32139
32145
32156
32173
32164
32169
32119
32130
32118
32087
32101
32094
32102
32107
32097
32108
32134
32116
32167
32210
32258
32252
32342
32361
32367
32350
32297
32263
32199
32167
32085
32071
32071
32053
32138
32167
32180
32263
32263
32351
32442
32495
32567
32644
32585
32567
32491
32469
32434
32429
32415
32422
32463
32543
32601
32671
32751
32827
32895
32959
32964
32986
33022
33050
33063
33031
32982
32966
32931
32906
32866
32791
32809
32847
32887
32956
33107
33255
33353
33375
33403
33365
33287
33301
33335
33355
33295
33287
33380
33196
33252
33261
33141
33276
33108
33182
33356
33283
33485
33318
33491
33348
33477
33399
33351
33446
33223
33286
33200
33077
33111
32933
32996
33020
32911
33059
33082
33078
33234
33148
33302
33151
33221
33249
33071
33091
33161
32981
33089
32871
32809
32883
32727
32720
32722
32751
32762
32775
32830
32877
32903
32891
32868
32811
32805
32863
32863
32828
32754
32695
32567
32548
32541
32559
32582
32615
32754
32789
32759
32823
32857
32858
32865
32839
32821
32764
32724
32743
32724
32739
32719
32743
32727
32763
32775
32796
32839
32895
32937
32948
32991
32974
32919
33063
32949
32861
32955
32801
32913
32727
32823
32651
32791
32708
32631
32820
32719
32828
32955
32862
33047
32901
33063
32922
33098
32886
33013
32890
32804
32876
32683
32655
32644
32676
32702
32709
32738
32785
32859
32930
33085
33128
33151
33164
33113
33064
33055
33005
32943
32860
32785
32760
32743
32754
32770
32812
32903
33053
33109
33154
33177
33170
33140
33135
33082
33041
32967
32879
32854
32804
32757
32692
32668
32692
32687
32775
32916
32967
33031
33107
33159
33146
33092
33073
33041
32922
32895
32839
32895
32911
32851
32739
32730
32709
32647
32661
32690
32775
32842
32884
32922
32911
32917
32919
32943
33031
33023
32978
32915
32874
32844
32775
32772
32782
32764
32798
32818
32911
32986
33023
33048
33055
33085
33098
33059
33015
32967
32884
32799
32677
32643
32580
32587
32606
32602
32615
32629
32637
32713
32774
32831
32828
32813
32824
32800
32788
32769
32793
32810
32847
32782
32735
32677
32660
32613
32647
32725
32784
32835
32911
32974
32990
33095
33078
33052
33011
32956
32931
32903
32822
32813
32789
32775
32724
32743
32752
32784
32858
32926
32991
32999
33043
33119
33168
33189
33172
33111
33044
32967
32903
32836
32800
32751
32747
32687
32718
32749
32805
32863
32884
32943
33016
33075
33060
33015
33012
32943
32932
32871
32827
32732
32703
32700
32697
32746
32807
32896
32998
33066
33057
33047
33044
33026
33001
32967
32941
32895
32853
32759
32716
32663
32619
32566
32550
32564
32568
32623
32662
32723
32807
32962
32990
32959
32934
32865
32775
32763
32775
32737
32742
32711
32719
32743
32749
32736
32749
32801
32793
32850
32934
32988
33027
33046
33061
33060
33103
33151
33127
33091
33052
32983
32919
32868
32813
32822
32751
32775
32821
32885
32919
32934
32935
32924
32951
33006
33031
33048
32981
32957
32895
32809
32711
32578
32543
32551
32593
32639
32694
32719
32723
32799
32895
32802
32783
32782
32693
32647
32594
32586
32514
32462
32378
32323
32254
32260
32276
32326
32396
32439
32495
32535
32562
32590
32651
32743
32734
32640
32551
32399
32320
32293
32295
32252
32231
32227
32217
32255
32304
32375
32493
32604
32636
32594
32534
32513
32435
32412
32367
32334
32420
32383
32292
32220
32209
32170
32225
32263
32413
32571
32628
32487
32633
32569
32637
32660
32646
32631
32486
32593
32433
32543
32365
32359
32439
32377
32483
32506
32542
32512
32575
32546
32484
32372
32242
32069
31911
31802
31564
31306
31079
30950
30986
30864
30882
30852
30921
30910
31027
30964
31145
31143
31479
31772
32506
33390
34358
35583
36604
37630
38602
39678
40734
41503
42170
42694
42963
43068
42895
42319
41303
40385
39399
38242
37230
36401
35700
35111
34675
34308
34004
33723
33586
33476
33414
33415
33487
33476
33464
33372
33421
33410
33302
33306
33022
32939
32557
32466
32120
32127
31844
31878
31607
31611
31444
31426
31486
31598
31607
31619
31569
31595
31565
31593
31679
31666
31611
31536
31415
31377
31363
31306
31341
31375
31377
31357
31331
31291
31333
31399
31469
31514
31535
31526
31516
31511
31493
31484
31452
31423
31407
31396
31427
31437
31428
31422
31435
31476
31555
31607
31650
31669
31676
31653
31655
31623
31570
31542
31518
31472
31446
31454
31452
31495
31551
31543
31556
31546
31593
31653
31721
31775
31855
31956
31992
31952
31932
31887
31831
31815
31727
31677
31650
31655
31665
31705
31825
31886
31903
31927
31911
31951
31965
32034
32092
32163
32111
32039
31949
31907
31847
31818
31814
31818
31827
31956
31999
32034
32047
32005
32055
32088
32117
32215
32301
32282
32247
32213
32135
32023
31953
31928
31914
31887
31887
31913
31983
32119
32228
32279
32357
32413
32450
32455
32467
32446
32386
32334
32287
32197
32185
32161
32214
32263
32327
32180
32346
32263
32463
32490
32487
32695
32587
32770
32695
32615
32687
32527
32665
32543
32470
32439
32442
32437
32415
32449
32487
32603
32756
32820
32831
32892
32978
32959
32964
32910
32942
32785
32943
32759
32860
32697
32815
32789
32751
32875
32791
33012
32981
33012
33239
33143
33167
33188
33212
33257
33257
33270
33257
33277
33260
33236
33182
33178
33201
33218
33247
33306
33347
33407
33455
33456
33461
33438
33389
33372
33336
33265
33207
33150
33070
32982
32884
32839
32736
32725
32750
32766
32775
32820
32847
32883
32869
32855
32862
32860
32807
32772
32735
32654
32594
32542
32542
32514
32450
32543
32554
32524
32579
32615
32706
32775
32764
32796
32703
32695
32636
32588
32555
32594
32511
32485
32407
32324
32242
32255
32255
32319
32467
32574
32645
32646
32657
32644
32637
32582
32581
32494
32462
32389
32346
32316
32274
32263
32286
32289
32339
32486
32599
32671
32735
32715
32691
32713
32719
32682
32597
32575
32578
32544
32486
32451
32407
32476
32516
32597
32625
32647
32693
32744
32792
32813
32847
32871
32865
32839
32809
32775
32702
32653
32652
32620
32589
32550
32516
32500
32527
32591
32586
32711
32748
32785
32820
32758
32753
32724
32690
32660
32628
32604
32573
32514
32503
32571
32563
32583
32609
32671
32761
32852
32903
32927
32935
32951
32945
32934
32887
32855
32819
32799
32769
32735
32670
32641
32616
32653
32668
32639
32703
32764
32810
32852
32854
32889
32943
32938
32967
32935
32839
32815
32807
32761
32783
32754
32757
32759
32801
32839
32863
32860
32909
32867
32876
32892
32889
32915
32998
32974
32903
32838
32775
32719
32620
32625
32613
32671
32740
32815
32842
32910
32947
32982
33001
33015
32991
32957
32924
32871
32785
32727
32605
32633
32577
32500
32503
32504
32516
32577
32636
32676
32745
32796
32807
32788
32764
32740
32721
32690
32655
32636
32613
32609
32539
32511
32515
32508
32622
32716
32789
32727
32755
32894
32914
32913
32908
32873
32842
32812
32762
32716
32613
32551
32535
32529
32519
32551
32577
32686
32847
32911
32940
32929
32959
32951
32967
32919
32841
32804
32765
32726
32671
32647
32606
32599
32588
32604
32583
32663
32724
32775
32855
32925
32941
32966
32989
32970
32927
32839
32772
32732
32691
32683
32679
32624
32614
32598
32615
32668
32711
32718
32695
32739
32735
32767
32846
32843
32816
32787
32715
32655
32614
32577
32540
32492
32540
32519
32526
32607
32593
32665
32718
32756
32801
32775
32759
32805
32838
32855
32839
32783
32811
32819
32783
32724
32703
32647
32645
32702
32775
32775
32927
32935
33037
33062
33099
33013
32999
32967
32939
32873
32836
32789
32739
32711
32721
32705
32727
32764
32810
32846
32924
32966
32986
32985
32982
32959
32939
32895
32823
32770
32716
32676
32615
32644
32645
32654
32679
32717
32735
32735
32709
32717
32764
32725
32700
32675
32615
32595
32572
32516
32471
32429
32389
32354
32351
32351
32349
32449
32514
32590
32630
32649
32692
32719
32692
32679
32647
32610
32550
32519
32471
32437
32413
32403
32409
32423
32447
32492
32537
32582
32640
32663
32685
32657
32646
32604
32663
32639
32605
32526
32423
32390
32340
32311
32327
32316
32279
32324
32372
32407
32476
32505
32517
32548
32559
32661
32589
32476
32516
32559
32419
32327
32319
32412
32465
32381
32407
32519
32548
32551
32534
32496
32471
32390
32247
32068
31869
31623
31383
31191
31015
30867
30727
30667
30633
30591
30575
30566
30556
30499
30426
30432
30698
31182
31953
32933
34090
35278
36514
37764
38919
40072
41094
41856
42540
43335
43806
44133
44289
44167
43702
42959
41922
40631
39371
38120
37114
36245
35778
35290
34900
34605
34367
34125
33943
33799
33681
33542
33435
33362
33263
33162
33015
32807
32581
32367
32169
32005
31874
31788
31697
31587
31479
31415
31343
31257
31180
31177
31200
31231
31263
31295
31301
31303
31287
31314
31276
31210
31175
31137
31111
31068
31057
31068
31071
31078
31087
31127
31180
31236
31303
31345
31394
31400
31397
31407
31380
31367
31340
31305
31274
31221
31261
31288
31316
31348
31383
31411
31461
31518
31582
31597
31631
31650
31650
31624
31612
31561
31534
31479
31449
31439
31396
31329
31334
31353
31367
31418
31487
31575
31644
31673
31689
31715
31671
31678
31655
31623
31652
31635
31647
31637
31613
31599
31575
31603
31611
31639
31686
31721
31732
31828
31846
31847
31852
31871
31937
31929
31887
31836
31785
31773
31751
31695
31690
31647
31642
31663
31718
31791
31855
31879
31912
31927
31951
31964
31968
31999
32023
32023
32014
31980
31928
31953
31943
31952
31975
32021
32055
32127
32212
32228
32241
32262
32263
32246
32207
32173
32175
32199
32191
32139
32116
32136
32185
32191
32224
32289
32381
32430
32463
32489
32567
32548
32551
32519
32425
32605
32409
32449
32434
32341
32480
32319
32340
32462
32391
32647
32526
32648
32739
32737
32841
32900
32924
32900
32868
32883
32863
32837
32815
32772
32757
32721
32759
32790
32828
32889
32922
32919
32991
33124
33172
33140
33157
33162
33247
33245
33222
33271
33274
33250
33300
33303
33314
33348
33406
33430
33487
33565
33603
33613
33539
33442
33457
33475
33404
33415
33397
33298
33253
33207
33180
33159
33143
33122
33130
33152
33158
33211
33215
33253
33332
33353
33358
33339
33316
33282
33252
33218
33163
33135
33103
33075
33041
33071
33053
33085
33094
33127
33159
33174
33183
33215
33181
33146
33117
33072
33109
33073
33013
32890
32847
32871
32935
32935
32937
32939
32821
32844
32874
32893
32914
32974
32975
33014
33030
33012
32986
32952
32868
32843
32798
32780
32788
32831
32802
32810
32839
32861
32903
32902
32943
32966
33014
33030
33012
32989
33012
32989
32955
32871
32823
32839
32802
32806
32823
32871
32900
32874
32887
32902
32893
32881
32895
32913
32882
32911
32928
32927
32890
32828
32814
32767
32689
32694
32727
32738
32774
32849
32954
33071
33127
33130
33127
33103
33054
33031
32993
32943
32902
32801
32792
32787
32791
32764
32774
32813
32846
32894
32941
32967
33001
33037
33099
33108
33066
33023
32993
32959
32886
32848
32807
32791
32812
32842
32863
32887
32941
32981
33059
33111
33167
33167
33130
33089
33079
33076
33067
33031
33004
32987
33036
33028
33021
33023
33047
33062
33095
33130
33143
33171
33171
33132
33047
33031
33029
32997
32966
32943
32919
32862
32832
32798
32861
32866
32893
32955
33007
33084
33151
33187
33205
33202
33167
33133
33041
33021
32959
32947
32900
32877
32900
32949
32901
32883
32901
32951
33020
33076
33183
33238
33249
33255
33277
33250
33199
33214
33214
33167
33127
33094
33084
33056
33026
33014
33031
33095
33095
33135
33173
33215
33221
33207
33154
33060
33023
33010
32951
32892
32903
32879
32863
32869
32879
32892
32911
32935
33022
33066
33081
33117
33179
33162
33167
33139
33182
33159
33125
33070
32987
32916
32859
32867
32844
32837
32865
32900
32946
32983
33039
33068
33149
33173
33183
33159
33134
33098
33001
32983
32943
32917
32896
32893
32882
32873
32901
32929
32967
33004
33108
33159
33151
33180
33114
33119
33087
33047
33018
32983
32971
32951
32909
32888
32868
32901
32951
33013
33067
33101
33170
33186
33190
33181
33134
33031
33031
33012
33006
33020
32990
32975
32983
32953
32978
32978
32986
32999
33023
33058
33103
33179
33279
33287
33354
33329
33296
33258
33229
33202
33164
33162
33176
33206
33268
33309
33374
33415
33455
33503
33527
33579
33604
33595
33646
33631
33582
33564
33559
33475
33394
33347
33313
33317
33277
33284
33213
33207
33250
33283
33311
33380
33444
33486
33512
33465
33430
33414
33378
33287
33221
33165
33048
33001
32983
32972
32975
33001
33012
33020
33070
33095
33205
33279
33262
33233
33204
33186
33127
33047
32897
32879
32852
32819
32805
32783
32805
32805
32900
33047
33095
33115
33100
33111
33119
33111
33115
33071
33061
33031
32967
32916
32876
32791
32683
32653
32647
32676
32712
32746
32772
32813
32853
32847
32844
32807
32815
32790
32823
32871
32846
32843
32794
32799
32724
32697
32637
32683
32724
32728
32810
32911
33007
33049
33031
33015
33028
33047
32999
32926
32875
32855
32808
32762
32724
32604
32513
32438
32331
32180
32023
31822
31664
31535
31366
31227
31126
31060
30978
30887
30740
30567
30361
30150
30036
30215
30783
31635
32674
33860
35117
36351
37668
38796
40022
41205
42175
42959
43713
44402
44789
44877
44766
44399
43734
42924
41732
40439
39187
38133
37282
36628
36126
35646
35275
34919
34644
34387
34195
33964
33841
33706
33517
33319
33100
32892
32647
32409
32233
32098
31981
31906
31759
31627
31518
31357
31282
31218
31135
31072
31071
30999
30967
30927
30890
30843
30804
30791
30757
30788
30853
30879
30895
30912
30938
30924
30947
30917
30931
30871
30847
30847
30820
30827
30834
30855
30858
30893
30929
30977
31040
31070
31103
31187
31189
31221
31226
31147
31057
31031
31017
30992
30991
30995
31015
31012
31069
31149
31204
31207
31239
31341
31381
31387
31422
31438
31436
31458
31420
31367
31359
31351
31367
31389
31431
31445
31476
31512
31548
31492
31471
31509
31545
31559
31548
31564
31553
31542
31531
31487
31471
31447
31452
31471
31495
31503
31562
31614
31648
31708
31760
31783
31807
31747
31745
31770
31742
31794
31735
31740
31747
31705
31702
31681
31647
31685
31702
31781
31831
31787
31813
31871
31860
31845
31861
31879
31876
31876
31901
31860
31828
31797
31772
31769
31771
31781
31775
31789
31835
31911
31972
32070
32181
32092
32060
32059
32063
32039
32033
32015
32012
31980
31974
31975
31951
31975
31976
32021
32071
32117
32203
32318
32405
32449
32455
32452
32376
32318
32252
32255
32231
32295
32303
32351
32389
32401
32431
32443
32391
32455
32507
32573
32687
32740
32759
32790
32787
32726
32623
32612
32600
32588
32580
32583
32551
32586
32595
32623
32695
32843
32903
33006
33079
33116
33123
33140
33173
33159
33094
33079
33031
33025
32997
32999
32975
32977
32990
33031
33054
33092
33142
33151
33159
33155
33141
33126
33191
33186
33167
33127
33101
32958
32893
32854
32869
32836
32842
32903
32997
33055
33071
33063
33027
32990
32943
32949
32931
32895
32855
32798
32748
32871
32687
32627
32728
32652
32574
32746
32654
32638
32852
32737
32849
32762
32714
32903
32727
32737
32831
32671
32628
32725
32615
32567
32585
32669
32572
32574
32571
32591
32631
32746
32762
32823
32811
32811
32812
32791
32775
32735
32717
32695
32629
32629
32615
32613
32612
32628
32677
32731
32678
32634
32647
32656
32640
32623
32618
32593
32542
32527
32503
32543
32487
32463
32478
32457
32462
32471
32505
32558
32615
32668
32663
32667
32699
32633
32623
32595
32583
32559
32564
32574
32542
32503
32461
32438
32441
32463
32583
32620
32567
32618
32655
32807
32804
32762
32727
32671
32639
32626
32615
32617
32647
32654
32647
32613
32609
32580
32614
32653
32695
32762
32775
32786
32773
32725
32671
32638
32710
32618
32604
32592
32566
32511
32492
32508
32528
32612
32666
32728
32790
32851
32836
32871
32866
32874
32859
32837
32805
32801
32757
32693
32613
32526
32514
32513
32543
32607
32653
32700
32728
32751
32757
32770
32766
32750
32775
32760
32727
32709
32695
32646
32590
32573
32558
32549
32647
32623
32658
32735
32775
32837
32815
32810
32791
32791
32755
32743
32738
32703
32678
32638
32604
32593
32575
32595
32687
32727
32790
32893
32871
32839
32903
32999
32812
32876
32914
32940
32909
32895
32854
32825
32814
32824
32735
32658
32682
32725
32762
32775
32813
32853
32871
32908
32916
32932
32921
32877
32859
32909
32860
32767
32747
32732
32735
32743
32767
32787
32807
32853
32885
32899
32909
32975
33030
33047
33020
32990
32939
32867
32757
32834
32795
32684
32687
32685
32753
32750
32791
32813
32879
32950
32959
32990
33018
33049
33031
33021
32991
32975
32949
32903
32890
32859
32839
32884
32895
32837
32847
32855
32862
32903
32907
32916
32939
32919
32871
32840
32815
32797
32751
32742
32763
32797
32789
32786
32809
32814
32882
32942
33052
33082
33066
33057
33074
33079
33060
33031
33021
33006
32960
32936
32934
32927
32951
32948
32950
32942
32951
32961
32996
33077
33129
33183
33226
33247
33279
33274
33280
33271
33244
33232
33196
33157
33157
33218
33243
33287
33315
33357
33408
33479
33502
33475
33375
33351
33333
33287
33263
33312
33259
33191
33159
33156
33124
33165
33126
33037
33055
33066
33073
33207
33205
33206
33207
33241
33231
33114
32989
32927
32857
32908
32943
32962
32921
32879
32775
32766
32938
32999
32962
32903
32903
32876
32870
32846
32836
32910
32923
32927
32906
32855
32740
32667
32618
32623
32688
32718
32791
32841
32884
32903
32860
32767
32745
32735
32711
32687
32675
32640
32595
32556
32593
32582
32604
32610
32635
32675
32702
32719
32739
32698
32699
32659
32669
32636
32631
32620
32583
32555
32516
32474
32420
32390
32359
32359
32399
32383
32511
32582
32642
32703
32705
32724
32714
32647
32557
32478
32376
32143
31838
31671
31566
31310
31139
31018
30932
30915
30919
30892
30892
30917
30877
30778
30756
30774
30963
31559
32334
33131
34188
35262
36300
37412
38556
39687
40657
41638
42375
42735
43087
43430
43399
42945
42238
41351
40107
38999
37860
36893
36223
35684
35203
34810
34540
34340
34118
33937
33799
33732
33659
33599
33670
33610
33565
33437
33255
33079
32837
32551
32302
32159
31996
31868
31767
31624
31503
31418
31381
31394
31388
31347
31308
31294
31255
31250
31215
31231
31215
31215
31175
31030
31005
30982
30983
30983
31071
31102
31154
31146
31175
31246
31294
31308
31301
31287
31279
31290
31238
31212
31148
31069
31004
30983
30991
31023
31035
31047
31087
31158
31183
31204
31269
31283
31340
31389
31389
31426
31388
31279
31251
31237
31212
31278
31325
31358
31391
31414
31348
31333
31390
31417
31447
31487
31519
31519
31526
31551
31529
31535
31553
31567
31582
31631
31612
31623
31620
31514
31559
31688
31796
31823
31860
31897
31924
31939
31948
31934
31934
31903
31855
31870
31879
31870
31884
31878
31895
31879
31852
31870
31870
31893
31923
31906
31911
31991
31981
32004
32049
31977
31896
31853
31852
31840
31854
31850
31855
31871
31914
31932
31943
31999
32047
32071
32071
32069
32076
32088
32063
32036
32015
32026
32031
32016
32007
32045
32153
32244
32313
32302
32341
32396
32428
32460
32438
32433
32459
32447
32431
32421
32432
32343
32347
32327
32346
32391
32423
32463
32602
32663
32719
32775
32762
32775
32717
32704
32699
32690
32741
32770
32775
32806
32815
32827
32830
32853
32861
32820
32759
32762
32839
32895
32925
32939
32966
32924
33036
33089
33079
33044
33010
33025
33003
33010
33031
33048
33047
33031
32967
32956
32993
33003
32999
32973
32956
32953
32917
32915
32878
32838
32837
32839
32819
32794
32748
32705
32635
32604
32584
32591
32609
32630
32621
32596
32563
32577
32557
32551
32501
32411
32404
32375
32327
32305
32294
32279
32299
32308
32321
32317
32316
32342
32359
32348
32357
32353
32314
32327
32313
32284
32348
32287
32263
32255
32246
32290
32324
32391
32427
32433
32469
32501
32531
32519
32501
32533
32491
32391
32407
32385
32388
32397
32381
32396
32385
32373
32383
32405
32423
32466
32487
32519
32563
32560
32546
32548
32567
32548
32540
32503
32471
32452
32455
32469
32465
32455
32449
32468
32492
32515
32558
32590
32659
32678
32678
32620
32615
32593
32583
32565
32556
32527
32519
32583
32631
32657
32679
32725
32713
32737
32762
32769
32795
32805
32731
32683
32682
32687
32671
32667
32676
32730
32743
32770
32717
32695
32689
32687
32623
32634
32649
32682
32655
32640
32616
32647
32646
32648
32605
32670
32677
32734
32735
32743
32699
32669
32615
32639
32613
32791
32803
32749
32765
32769
32775
32815
32828
32855
32884
32818
32765
32730
32692
32666
32673
32653
32636
32629
32671
32677
32705
32829
32895
32964
33005
33044
33039
33019
33007
32994
32930
32983
32910
32892
32815
32805
32817
32826
32863
32884
32905
32903
32927
32919
32911
32997
32982
32977
32970
32965
32950
32978
32994
32988
32982
32962
32975
32975
33004
33013
33001
32948
32898
32913
32948
32922
32887
32903
32865
32839
32820
32895
32909
32807
32790
32814
32763
32775
32788
32799
32829
32831
32871
32955
32863
32871
32854
32855
32861
32853
32824
32803
32822
32815
32822
32836
32839
32860
32855
32909
33007
32999
33073
33049
33028
33029
32975
32966
32928
32945
32903
32895
32859
32855
32885
32799
32895
32923
32962
32991
33031
33025
33021
33049
33063
33054
33019
32943
32941
32893
32911
32959
32950
32929
32911
32913
32891
32874
32885
32876
32871
32920
32922
32932
32909
32886
32857
32813
32796
32791
32775
32801
32797
32836
32900
32909
32885
32854
32884
32852
32753
32775
32810
32810
32879
32898
32911
32990
33012
32998
32998
32982
32987
32967
32973
33009
33022
32947
32934
32962
33108
33199
33165
33127
33231
33336
33335
33327
33365
33359
33203
33130
33231
33227
33197
33094
33093
33144
33218
33256
33287
33272
33287
33308
33287
33300
33300
33244
33211
33167
33137
33141
33148
33147
33100
33111
33180
33166
33126
33015
33031
33052
33073
33060
33052
33047
33044
33014
32967
32972
32946
32939
32897
32879
32868
32853
32851
32839
32911
33012
32975
32961
32959
32999
32927
33071
32879
32976
33018
32937
33050
32916
33041
32839
32907
32980
33053
33061
33103
33122
33124
33143
33126
33105
33094
33104
33092
33092
33087
33060
33007
32990
32982
32964
32962
32964
32951
32962
32983
32996
33004
32991
32967
32868
32863
32899
32903
32903
32965
32954
32926
32895
32885
32870
32863
32869
32852
32891
32935
32965
32977
32988
33007
32959
32934
32932
32894
32826
32703
32556
32358
32135
31957
31783
31612
31451
31335
31230
31229
31289
31284
31226
31230
31210
31177
31167
31178
31351
31813
32480
33338
34381
35474
36580
37698
38863
40007
40917
41733
42268
42812
43103
43166
43085
42631
41871
40918
39743
38625
37495
36521
35911
35317
34868
34463
34207
33996
33855
33767
33656
33556
33507
33465
33423
33391
33287
33255
33177
33031
32828
32604
32358
32133
32021
31913
31823
31740
31716
31634
31623
31586
31553
31527
31491
31433
31389
31399
31357
31341
31334
31316
31309
31300
31247
31266
31282
31323
31340
31356
31356
31306
31239
31239
31257
31239
31239
31258
31236
31258
31345
31367
31381
31372
31362
31377
31394
31399
31419
31428
31432
31407
31447
31458
31483
31429
31415
31444
31460
31519
31591
31638
31608
31565
31631
31647
31591
31567
31578
31585
31596
31716
31751
31783
31780
31672
31823
31658
31796
31611
31698
31695
31652
31773
31683
31802
31679
31847
31687
31876
31751
31863
31898
31819
31972
31812
31879
31860
31775
31890
31783
31942
31781
31853
31847
31786
31898
31807
31992
31837
31935
32042
31895
32071
31925
32036
32036
31968
32123
31960
32098
32025
31951
31975
31985
31999
32001
31998
31991
31974
32041
32020
32066
32151
32190
32231
32234
32255
32191
32116
32158
32179
32169
32205
32263
32340
32336
32308
32369
32303
32303
32275
32292
32276
32317
32299
32337
32422
32477
32503
32476
32421
32345
32369
32396
32415
32423
32455
32476
32499
32500
32541
32551
32556
32566
32591
32591
32604
32607
32612
32617
32679
32671
32669
32703
32703
32769
32839
32836
32826
32831
32847
32847
32869
32919
32918
32945
32919
32902
32879
32929
32999
32991
32915
32928
32902
32951
33007
33031
33068
33060
33071
33107
33120
33116
33135
33170
33204
33223
33172
33143
33109
33054
33015
32933
32903
32958
33034
33047
33063
33004
33031
32927
32875
32948
32836
32940
32807
32943
32754
32941
32730
32807
32775
32679
32742
32670
32820
32597
32758
32554
32647
32700
32638
32739
32612
32747
32556
32625
32611
32524
32621
32483
32628
32447
32588
32497
32455
32555
32484
32668
32511
32609
32687
32551
32727
32647
32605
32602
32568
32625
32661
32666
32659
32628
32587
32602
32633
32691
32721
32740
32739
32688
32650
32631
32716
32725
32679
32654
32591
32594
32599
32588
32569
32573
32581
32604
32639
32660
32695
32720
32769
32807
32804
32783
32796
32767
32775
32791
32690
32628
32629
32626
32634
32647
32677
32702
32605
32586
32613
32643
32684
32687
32682
32660
32663
32668
32679
32660
32658
32631
32725
32714
32634
32743
32570
32750
32663
32635
32797
32716
32645
32798
32748
32722
32860
32749
32734
32736
32741
32719
32739
32754
32787
32766
32764
32756
32766
32775
32807
32847
32844
32832
32831
32823
32836
32849
32869
32876
32883
32878
32867
32885
32932
32966
32935
32917
32940
32998
33001
33053
33028
33022
33011
32988
32938
32858
32866
32901
32906
32894
32884
32884
32855
32844
32832
32838
32885
33007
33045
33055
33031
33022
33002
32926
32906
32822
32911
32817
32817
32847
32835
32892
32939
32955
32944
32933
32934
32919
32900
32823
32911
32931
32927
32906
32822
32804
32775
32789
32775
32775
32791
32787
32797
32775
32775
32797
32823
32845
32877
32893
32926
32941
32933
32860
32869
32903
32894
32909
32927
32903
32795
32780
32846
32863
32855
32851
32884
32926
32958
32957
32975
32956
32957
32958
32919
32861
32939
32962
32926
32935
32920
32927
32916
32913
32895
32903
32834
32847
32849
32823
32838
32861
32881
32876
32843
32936
32935
32965
32970
32989
32990
33009
33024
33009
33015
33029
33017
33009
33018
32927
32861
33031
32902
32949
33032
32895
32901
32902
32903
32850
32815
32811
32798
32795
32863
32901
32916
32911
32944
32941
32956
32999
33044
32999
32990
32948
32950
32931
32947
32900
32842
32867
32890
32900
32866
32858
32847
32833
32928
32983
33045
33077
33151
33191
33152
33141
33063
33071
33063
32961
32919
32943
32938
32919
32955
32998
33031
33045
33043
33071
33039
33059
33158
33183
33225
33220
33187
33153
33122
33092
33078
33078
33071
33073
33074
33092
33111
33092
33055
33003
33015
33007
32943
32920
32917
32916
32901
32945
32967
32975
32963
32956
32951
32948
32920
32901
32853
32775
32788
32766
32827
32775
32723
32701
32690
32685
32660
32647
32607
32580
32551
32539
32543
32539
32503
32519
32519
32535
32558
32551
32554
32574
32608
32642
32609
32710
32740
32707
32686
32614
32621
32638
32623
32598
32548
32566
32538
32636
32655
32659
32655
32668
32669
32663
32687
32691
32667
32637
32508
32457
32436
32423
32399
32399
32412
32401
32421
32419
32415
32418
32443
32463
32474
32459
32441
32447
32516
32514
32495
32517
32533
32515
32519
32508
32327
32223
32084
31880
31675
31535
31371
31223
31079
30951
30890
30805
30739
30690
30598
30502
30287
30057
29944
29979
30320
30893
31733
32903
34140
35513
36885
38196
39455
40626
41680
42543
43308
43935
44407
44660
44727
44499
43918
43102
42172
40903
39597
38376
37407
36639
36019
35486
35110
34803
34487
34183
34005
33799
33647
33442
33396
33279
33113
32892
32646
32417
32193
32028
31908
31788
31663
31554
31457
31433
31365
31291
31278
31164
31111
31093
31053
31022
31105
30942
31047
30908
31025
30869
30940
31023
30926
31050
30995
31022
31104
30990
31111
30959
31011
31095
30997
31077
31085
30996
31149
31014
31012
31173
31111
31095
31254
31165
31326
31179
31239
31301
31205
31278
31334
31239
31323
31359
31275
31228
31363
31277
31237
31409
31260
31255
31276
31310
31335
31402
31418
31429
31439
31431
31413
31347
31363
31359
31375
31413
31468
31536
31543
31527
31536
31543
31519
31535
31541
31535
31565
31575
31598
31569
31588
31612
31668
31669
31677
31675
31697
31695
31716
31695
31716
31726
31765
31778
31791
31781
31770
31767
31796
31791
31798
31815
31849
31819
31816
31789
31858
31882
31892
31911
31927
31975
31987
32007
32012
31977
31980
31901
31900
31910
31903
31887
31849
31847
31860
31839
31830
31871
31923
31902
31876
32004
31908
32029
32057
31957
32087
32020
31950
32125
31950
32039
32051
31998
32126
32089
32122
32156
32200
32241
32306
32371
32404
32413
32391
32405
32449
32487
32476
32481
32470
32487
32471
32451
32436
32478
32517
32519
32532
32484
32444
32486
32518
32556
32588
32622
32647
32751
32772
32742
32770
32799
32832
32828
32804
32806
32802
32741
32855
32887
32943
33066
33157
33196
33159
33210
33231
33237
33271
33255
33207
33190
33183
33199
33180
33167
33172
33158
33162
33171
33155
33199
33190
33194
33178
33161
33159
33159
33109
33157
33135
33148
33106
33071
33063
33052
33038
33074
33077
33048
33058
33083
33004
32924
32892
32995
33009
32948
32942
32881
32809
32782
32763
32724
32687
32669
32676
32762
32748
32739
32751
32790
32857
32887
32914
32847
32795
32791
32747
32748
32742
32723
32725
32695
32677
32687
32668
32672
32646
32652
32671
32714
32809
32798
32825
32869
32877
32879
32908
32895
32862
32841
32809
32764
32727
32711
32670
32637
32716
32799
32857
32807
32749
32747
32783
32763
32839
32891
32891
32748
32751
32714
32789
32833
32835
32833
32711
32647
32643
32640
32630
32724
32735
32758
32775
32805
32829
32845
32828
32804
32725
32657
32628
32614
32601
32576
32563
32556
32551
32606
32678
32674
32698
32694
32695
32606
32706
32746
32772
32791
32731
32719
32694
32653
32643
32631
32663
32685
32729
32743
32767
32767
32775
32743
32685
32651
32669
32639
32627
32703
32739
32775
32672
32609
32563
32500
32619
32678
32718
32735
32774
32801
32820
32826
32821
32772
32673
32658
32670
32670
32658
32631
32596
32692
32739
32742
32735
32734
32798
32775
32729
32653
32679
32702
32743
32747
32719
32710
32792
32842
32897
32916
32898
32858
32834
32719
32678
32681
32725
32711
32765
32789
32810
32843
32857
32871
32857
32871
32901
32887
32903
32911
32876
32903
32965
32976
32977
32963
32949
32954
32990
32991
32988
32983
33017
33042
33026
33031
33012
33012
33005
32965
32961
32901
32902
32910
32890
32884
32869
32818
32820
32837
32848
32881
32862
32839
32831
32843
32908
32899
32828
32820
32775
32795
32804
32807
32804
32823
32851
32849
32863
32872
32875
32871
32851
32846
32847
32839
32819
32820
32798
32775
32807
32804
32799
32775
32796
32775
32775
32775
32794
32813
32788
32890
32943
32983
32988
33007
33002
33018
32955
32935
32897
32863
32848
32813
32809
32820
32782
32775
32775
32781
32822
32903
32937
32994
33003
33047
32967
32986
32884
32895
32858
32818
32820
32887
32903
32903
32926
32927
32939
32964
32993
33023
33018
33063
33045
33045
33050
33029
33018
33031
32933
32908
32834
32959
33029
32955
32867
32839
32946
33044
33087
32959
32896
33063
33042
32964
32959
33140
33199
33060
32994
33183
33237
33118
33105
33098
33089
33106
33115
33133
33167
33181
33175
33199
33185
33159
33175
33154
33138
33143
33151
33123
33091
33041
32989
32977
33001
33060
33065
33083
33135
33171
33162
33038
32981
32943
33023
33079
33081
33075
33067
33029
32973
32844
32837
32846
32863
32841
32839
32810
32799
32814
32817
32901
32876
32884
32805
32903
32910
32903
32892
32889
32881
32847
32829
32810
32807
32866
32868
32900
32927
32903
32967
32954
32943
32918
32922
32892
32847
32831
32806
32762
32789
32775
32723
32751
32767
32775
32796
32822
32861
32877
32852
32849
32847
32775
32767
32758
32721
32703
32775
32789
32806
32832
32892
32839
32799
32735
32718
32749
32775
32773
32759
32757
32775
32761
32871
32853
32835
32802
32789
32733
32645
32503
32350
32177
31971
31782
31628
31505
31368
31287
31215
31151
31087
30968
30843
30680
30493
30260
30129
30375
30956
31706
32687
33813
35018
36294
37623
38868
40076
41298
42271
43079
43775
44362
44727
44906
44843
44411
43844
42876
41664
40394
39050
37991
36982
36347
35853
35458
35252
35011
34767
34578
34415
34257
34109
34007
33845
33631
33303
33015
32754
32452
32231
32052
31910
31798
31709
31695
31631
31607
31574
31538
31488
31395
31327
31270
31197
31185
31158
31123
31077
31073
31063
31070
31093
31094
31238
31324
31334
31354
31387
31343
31303
31277
31250
31209
31239
31215
31207
31204
31218
31223
31207
31212
31226
31259
31270
31314
31385
31450
31471
31538
31560
31572
31588
31566
31524
31484
31452
31415
31450
31434
31421
31495
31527
31591
31690
31726
31738
31751
31772
31743
31752
31693
31679
31637
31670
31663
31701
31719
31782
31795
31799
31743
31669
31670
31756
31828
31894
31879
31788
31831
31810
31900
31943
31958
31991
31943
31877
31877
31804
31821
31847
31870
31907
31932
31855
31834
31861
31941
32028
32065
32052
31945
31967
31894
32043
32103
32051
31905
31911
31878
31889
31962
31999
32063
32107
32110
32071
32022
32036
32079
32149
32161
32221
32199
32233
32222
32230
32207
32210
32217
32215
32222
32219
32237
32241
32284
32314
32335
32359
32357
32359
32391
32388
32399
32383
32353
32289
32310
32339
32337
32366
32361
32391
32483
32587
32639
32670
32677
32640
32629
32669
32693
32710
32751
32769
32775
32739
32711
32771
32748
32751
32785
32839
32887
32893
32907
32946
32979
32956
32943
32934
32935
32940
32935
32943
32991
32973
32964
32973
33027
33084
33068
33086
33145
33143
33158
33171
33213
33259
33280
33287
33287
33260
33273
33271
33213
33116
33063
33068
33063
33087
33047
33005
33000
33098
33079
32975
32996
33002
32990
32978
32987
32979
32948
32903
32864
32832
32802
32810
32844
32798
32763
32726
32717
32765
32761
32834
32839
32746
32695
32635
32543
32506
32501
32510
32503
32492
32449
32431
32467
32462
32428
32404
32356
32396
32386
32399
32463
32407
32444
32419
32385
32403
32402
32388
32365
32340
32295
32482
32476
32391
32390
32388
32442
32447
32471
32411
32449
32452
32452
32430
32423
32377
32386
32388
32360
32354
32436
32415
32423
32486
32469
32515
32551
32559
32598
32625
32637
32629
32639
32636
32644
32645
32631
32627
32613
32591
32494
32455
32460
32468
32391
32367
32485
32518
32543
32615
32628
32639
32647
32657
32655
32703
32647
32631
32555
32467
32474
32455
32396
32372
32356
32340
32431
32464
32517
32594
32633
32671
32677
32687
32671
32685
32668
32701
32714
32612
32581
32557
32551
32517
32516
32488
32407
32415
32551
32583
32635
32697
32668
32660
32630
32625
32613
32589
32564
32556
32620
32667
32691
32689
32693
32644
32588
32615
32579
32561
32676
32751
32775
32860
32831
32830
32793
32813
32756
32714
32727
32708
32688
32726
32751
32725
32749
32745
32775
32767
32807
32859
32820
32813
32751
32722
32718
32647
32617
32604
32671
32710
32751
32748
32753
32739
32727
32661
32642
32649
32641
32591
32584
32710
32787
32797
32833
32851
32816
32754
32689
32629
32642
32619
32647
32631
32631
32663
32653
32756
32775
32804
32839
32853
32863
32903
32900
32881
32854
32869
32843
32772
32740
32757
32762
32743
32773
32754
32767
32746
32735
32802
32800
32791
32775
32855
32859
32866
32867
32875
32844
32843
32750
32740
32725
32729
32706
32724
32750
32719
32757
32750
32844
32859
32870
32944
32941
32929
32908
32863
32841
32839
32820
32815
32821
32810
32839
32871
32868
32911
32909
32911
32941
32940
32925
32881
32853
32817
32793
32766
32855
32833
32804
32692
32767
32751
32746
32704
32709
32775
32815
32811
32791
32861
32873
32893
32883
32886
32892
32882
32871
32863
32863
32823
32806
32783
32767
32751
32743
32679
32711
32728
32830
32828
32875
32938
32860
32722
32703
32697
32819
32868
32919
32861
32813
32775
32771
32720
32741
32775
32886
32948
33031
33052
33056
33044
33001
32941
32876
32857
32826
32911
33015
33081
33079
33125
33144
33164
33178
33182
33222
33260
33207
33151
33172
33159
33180
33131
33107
33087
33064
33055
33047
33031
33028
32988
32965
32957
32935
32974
32998
33004
32978
32924
32863
32828
32807
32765
32722
32668
32716
32719
32722
32713
32695
32675
32689
32692
32724
32728
32732
32738
32719
32729
32722
32663
32637
32582
32574
32583
32569
32535
32497
32553
32527
32516
32503
32505
32495
32509
32551
32554
32550
32528
32559
32631
32631
32653
32655
32667
32641
32511
32477
32447
32458
32411
32410
32399
32422
32447
32487
32503
32519
32553
32537
32503
32543
32588
32561
32555
32505
32538
32631
32548
32492
32465
32447
32459
32384
32495
32439
32548
32471
32467
32447
32441
32401
32406
32383
32372
32445
32420
32446
32483
32439
32438
32443
32338
32175
32039
31864
31698
31496
31312
31223
31192
31182
31159
31056
31018
30967
30901
30759
30644
30612
30673
31068
31751
32661
33789
35012
36165
37416
38652
39848
40895
41783
42519
43087
43487
43627
43625
43339
42684
41788
40855
39831
38721
37516
36679
35975
35444
35039
34838
34585
34373
34271
34137
34003
33990
33903
33799
33687
33510
33431
33301
33143
32949
32695
32465
32263
32116
32007
31902
31809
31718
31714
31636
31573
31516
31473
31454
31511
31389
31276
31314
31316
31337
31347
31361
31428
31478
31460
31498
31487
31478
31458
31463
31476
31469
31353
31314
31287
31231
31317
31335
31383
31426
31468
31519
31579
31554
31567
31581
31580
31631
31686
31729
31727
31668
31660
31609
31556
31543
31551
31561
31591
31596
31607
31644
31666
31672
31669
31687
31678
31685
31696
31717
31717
31739
31740
31751
31814
31817
31817
31855
31893
31935
31957
31950
31943
31971
31983
31951
31925
31847
31850
31851
31915
31879
31868
31855
31876
31897
31913
31899
31947
31866
31879
31887
31916
31967
32076
32095
32126
32135
32143
32165
32115
32030
32008
31911
31983
31991
32036
32064
32106
32119
32151
32102
32103
32015
31983
32059
32075
32119
32164
32181
32176
32164
32149
32137
32127
32203
32200
32214
32263
32263
32294
32332
32363
32367
32359
32339
32294
32255
32285
32292
32279
32263
32279
32254
32263
32277
32279
32295
32295
32358
32327
32471
32557
32596
32666
32719
32719
32714
32702
32702
32671
32684
32619
32615
32584
32591
32559
32525
32646
32719
32772
32805
32841
32874
32902
32932
32964
32919
32903
32934
32927
32919
32957
32975
33070
33031
33132
33049
33156
33017
33285
33164
33268
33336
33322
33387
33230
33412
33463
33317
33526
33426
33332
33347
33343
33366
33308
33279
33175
33168
33205
33235
33247
33274
33278
33375
33439
33455
33423
33399
33340
33279
33265
33214
33219
33180
33118
33087
33057
33013
32988
32987
32972
32992
33014
32967
32947
32925
32899
32893
32887
32878
32917
32871
32836
32775
32782
32807
32819
32867
32719
32743
32794
32711
32855
32718
32721
32876
32727
32741
32836
32725
32559
32717
32737
32634
32567
32519
32612
32647
32737
32775
32797
32819
32814
32775
32766
32775
32773
32739
32709
32671
32687
32711
32693
32700
32698
32662
32682
32686
32703
32721
32758
32794
32775
32791
32821
32807
32823
32789
32796
32749
32726
32743
32737
32707
32707
32686
32649
32649
32699
32709
32714
32721
32757
32719
32740
32775
32789
32775
32772
32684
32705
32668
32684
32591
32561
32567
32565
32561
32633
32681
32719
32759
32820
32797
32788
32775
32761
32745
32788
32861
32876
32849
32671
32677
32802
32652
32841
32805
32774
32914
32766
32785
32807
32644
32870
32848
32740
32800
32843
32842
32861
32879
32887
32825
32804
32775
32743
32769
32790
32794
32820
32799
32799
32797
32733
32716
32791
32797
32838
32832
32892
32871
32775
32743
32611
32685
32742
32775
32841
32772
32751
32789
32767
32767
32732
32756
32720
32775
32772
32767
32771
32767
32663
32676
32679
32701
32724
32806
32829
32802
32799
32837
32818
32791
32758
32782
32879
32871
32829
32844
32819
32807
32762
32708
32739
32749
32753
32737
32723
32735
32718
32704
32752
32759
32807
32840
32815
32775
32767
32731
32708
32687
32660
32655
32626
32567
32636
32663
32751
32823
32843
32852
32833
32783
32721
32703
32711
32681
32663
32605
32544
32495
32487
32489
32516
32463
32476
32499
32605
32604
32666
32663
32685
32686
32685
32671
32698
32668
32655
32582
32487
32375
32423
32466
32465
32513
32541
32483
32495
32397
32418
32546
32649
32687
32691
32702
32666
32647
32583
32501
32503
32451
32423
32415
32411
32404
32518
32551
32570
32602
32631
32661
32655
32679
32750
32727
32702
32683
32655
32615
32631
32567
32519
32436
32374
32478
32548
32560
32617
32691
32731
32751
32726
32733
32790
32815
32815
32849
32820
32807
32772
32735
32743
32743
32661
32631
32631
32668
32697
32735
32775
32767
32729
32702
32796
32876
32903
32933
32927
32967
32992
32963
32924
32881
32871
32823
32788
32772
32887
32965
32999
33062
33093
33074
32927
32905
32903
32775
32834
32863
32883
32915
32879
32853
32804
32775
32767
32725
32711
32706
32695
32694
32679
32657
32614
32536
32606
32673
32687
32707
32596
32561
32491
32490
32405
32383
32471
32485
32515
32528
32558
32615
32565
32562
32566
32477
32473
32626
32658
32646
32498
32500
32422
32363
32424
32476
32533
32589
32590
32583
32542
32529
32447
32420
32394
32367
32486
32547
32573
32414
32403
32356
32315
32250
32167
32148
32252
32295
32375
32428
32440
32494
32478
32389
32363
32311
32239
32233
32244
32244
32242
32234
32238
32213
32325
32436
32508
32426
32429
32464
32473
32407
32359
32276
32191
32074
31909
31677
31479
31303
31100
30962
30919
30822
30855
30826
30844
30861
30914
30929
30935
30991
31105
31319
31757
32457
33348
34443
35502
36569
37624
38789
39916
40892
41743
42373
42852
43055
43078
42943
42447
41612
40568
39399
38265
37137
36212
35531
34999
34605
34305
34021
33812
33591
33476
33389
33363
33340
33375
33305
33223
33135
33156
33069
33015
32860
32633
32412
32196
32025
31871
31782
31682
31583
31545
31479
31356
31305
31236
31285
31319
31334
31338
31325
31254
31231
31173
31127
31124
31044
31101
31102
31143
31181
31172
31198
31207
31102
31148
31132
31207
31276
31362
31383
31327
31303
31249
31225
31247
31172
31250
31252
31306
31313
31330
31357
31397
31431
31437
31452
31448
31423
31428
31460
31463
31487
31463
31495
31490
31495
31476
31457
31518
31542
31580
31610
31604
31655
31698
31714
31727
31694
31751
31719
31740
31749
31733
31668
31621
31615
31578
31639
31579
31586
31631
31742
31772
31816
31861
31903
31961
32003
32030
32048
32020
32037
32026
32007
31963
31941
31959
31925
31895
31920
31918
31943
31937
31895
31915
31937
31925
31955
31966
31966
32063
32100
32127
32149
32170
32173
32167
32173
32067
32017
32148
32042
32085
32091
32045
32127
32196
32287
32342
32334
32303
32207
32217
32226
32207
32175
32132
32122
32159
32141
32119
32145
32173
32286
32286
32291
32313
32397
32446
32426
32490
32540
32569
32592
32578
32533
32486
32484
32503
32437
32420
32486
32529
32599
32638
32652
32706
32757
32796
32799
32839
32832
32761
32738
32642
32735
32751
32746
32716
32733
32721
32756
32819
32845
32881
32914
32953
32965
32956
32968
32989
33003
33036
33015
33001
33023
33015
33023
33028
33025
32975
32943
32934
32939
32935
32948
32991
32999
32998
32986
32954
32943
32911
32916
32914
32917
32839
32911
32959
32943
32893
32867
32871
32871
32828
32820
32831
32815
32799
32775
32756
32647
32617
32602
32571
32519
32482
32455
32471
32426
32398
32475
32387
32439
32487
32519
32567
32636
32663
32676
32686
32642
32626
32553
32548
32497
32448
32427
32519
32569
32577
32627
32644
32631
32652
32635
32602
32615
32655
32644
32602
32554
32537
32537
32634
32642
32662
32669
32710
32687
32660
32678
32682
32669
32705
32711
32766
32807
32839
32829
32818
32818
32809
32807
32797
32796
32795
32742
32735
32724
32741
32750
32759
32764
32741
32743
32685
32668
32613
32590
32626
32695
32653
32675
32677
32703
32680
32654
32618
32631
32631
32633
32679
32708
32711
32753
32797
32823
32826
32845
32845
32820
32807
32794
32769
32719
32673
32634
32501
32507
32511
32515
32550
32572
32610
32625
32678
32617
32607
32637
32623
32647
32621
32754
32753
32724
32743
32740
32756
32757
32770
32703
32658
32668
32727
32724
32746
32735
32718
32740
32836
32847
32862
32892
32881
32899
32995
32990
32964
32903
32838
32855
32957
32971
32991
32999
33031
33052
33031
32967
32927
32949
32946
32937
32916
32931
32911
32921
32879
32863
32877
32806
32843
32855
32903
32887
32900
32928
32918
32933
32925
32938
32911
32874
32863
32834
32795
32741
32711
32699
32674
32751
32774
32820
32849
32858
32858
32828
32837
32823
32815
32775
32707
32686
32669
32667
32663
32647
32660
32657
32668
32644
32662
32687
32703
32719
32743
32747
32709
32701
32713
32734
32774
32775
32783
32789
32757
32743
32730
32731
32724
32714
32726
32734
32751
32743
32793
32751
32786
32782
32767
32753
32757
32757
32751
32764
32717
32717
32704
32679
32628
32635
32642
32660
32676
32700
32697
32615
32639
32638
32725
32724
32764
32791
32796
32829
32861
32832
32794
32750
32719
32679
32695
32637
32613
32647
32676
32698
32697
32714
32766
32803
32810
32812
32759
32717
32664
32654
32702
32663
32703
32731
32765
32817
32858
32885
32909
32911
32900
32842
32812
32807
32833
32866
32805
32755
32767
32838
32876
32884
32895
32928
32849
32863
32871
32866
32847
32846
32943
32998
33044
33022
32938
32924
33044
33095
32947
32859
32994
33015
32871
32932
33029
33055
33106
33172
33165
33146
33117
33097
33087
33026
33023
32956
33047
33090
33088
33110
33053
32916
32892
32919
32915
32902
32882
32933
32938
32967
32959
32925
32927
32857
32903
32922
32954
32951
32938
32999
32981
32951
32875
32842
32821
32788
32819
32826
32808
32756
32757
32761
32756
32836
32815
32790
32743
32710
32719
32709
32689
32647
32633
32645
32638
32647
32636
32663
32653
32703
32703
32699
32798
32783
32807
32839
32844
32895
32866
32815
32757
32755
32701
32649
32636
32647
32638
32675
32694
32613
32726
32775
32800
32831
32831
32823
32827
32801
32823
32795
32758
32733
32694
32691
32663
32588
32602
32615
32644
32736
32755
32809
32823
32835
32857
32828
32718
32638
32472
32326
32163
31976
31771
31576
31473
31362
31236
31126
31115
31086
31052
31013
30948
30855
30711
30546
30428
30450
30757
31326
32142
33185
34407
35663
36924
38212
39493
40695
41759
42671
43454
44015
44430
44638
44623
44332
43749
42917
41889
40636
39335
38123
37154
36403
35772
35295
34892
34639
34397
34183
34018
33799
33671
33671
33556
33447
33310
33063
32846
32599
32377
32122
32044
31927
31818
31751
31679
31637
31599
31572
31543
31540
31413
31348
31303
31252
31181
31103
31044
30989
30972
30936
30926
30950
30946
31023
31035
30975
31011
31101
31103
31131
31124
31132
31132
31141
31071
31085
31099
31074
31056
31063
31045
31065
31058
31100
31126
31191
31212
31226
31239
31274
31270
31296
31305
31319
31379
31390
31435
31507
31455
31375
31319
31332
31343
31326
31357
31375
31483
31515
31532
31564
31597
31626
31611
31607
31577
31487
31548
31540
31569
31607
31604
31607
31590
31621
31649
31694
31631
31635
31735
31790
31860
31857
31848
31884
31887
31895
31849
31828
31816
31815
31822
31820
31807
31813
31836
31871
31918
31959
31955
31893
31888
31903
31902
31867
31817
31835
31820
31798
31751
31747
31743
31732
31734
31775
31812
31855
31879
31914
31930
31927
31972
32067
32103
32119
32135
32147
32101
32059
32028
32059
32079
32097
32110
32103
32142
32160
32188
32223
32216
32271
32278
32292
32297
32288
32284
32279
32287
32263
32253
32229
32230
32189
32180
32223
32241
32244
32253
32295
32318
32423
32471
32479
32519
32518
32513
32535
32550
32526
32542
32552
32547
32519
32474
32487
32499
32527
32566
32552
32679
32615
32697
32719
32774
32871
32918
32819
32743
32751
32837
32856
32860
32909
32919
32991
33031
33108
33157
33142
33099
33111
33102
33063
33053
33031
33023
33012
33066
33042
33031
32988
32985
32974
33007
33012
33031
33087
33113
33102
33042
32997
32967
32919
32917
32911
32878
32849
32908
32882
32881
32871
32865
32874
32775
32756
32754
32730
32748
32855
32943
32988
32916
32878
32832
32773
32748
32678
32703
32743
32771
32743
32724
32733
32686
32646
32601
32612
32638
32663
32686
32680
32703
32704
32717
32695
32641
32728
32759
32819
32858
32871
32866
32854
32847
32828
32812
32854
32853
32903
32855
32860
32879
32869
32887
32882
32891
32889
32836
32797
32806
32759
32801
32817
32871
32905
32941
32865
32869
32844
32868
32850
32927
33017
33023
32981
32965
32955
32926
32812
32759
32732
32709
32666
32647
32643
32646
32759
32788
32708
32797
32821
32828
32873
32863
32878
32906
32923
32867
32813
32717
32727
32692
32658
32770
32788
32804
32869
32921
32983
33009
32941
32928
32879
32925
32876
32858
32842
32822
32812
32800
32806
32792
32767
32759
32770
32802
32801
32780
32818
32812
32920
32918
32934
32949
32855
32934
32911
32867
32870
32855
32847
32858
32864
32872
32870
32775
32775
32768
32788
32789
32791
32879
32881
32887
32788
32775
32796
32742
32805
32775
32775
32769
32800
32849
32892
32926
32951
32995
32993
32983
32989
32965
32917
32974
33047
32855
32913
32948
32917
32917
32910
32854
32840
32828
32861
32919
32910
32935
32916
32927
32924
32835
32839
32827
32859
32910
32885
32895
32879
32861
32840
32826
32804
32843
32908
32935
32922
32929
32977
32999
33062
33060
32987
32907
32868
32830
32822
32815
32791
32767
32734
32711
32699
32686
32705
32724
32725
32748
32745
32766
32815
32836
32734
32731
32722
32719
32775
32770
32740
32665
32637
32700
32708
32703
32746
32763
32788
32783
32823
32826
32871
32917
32925
32934
32903
32935
32915
32871
32815
32772
32725
32699
32647
32765
32786
32863
32921
32928
32939
32925
32844
32829
32799
32775
32791
32786
32741
32718
32707
32727
32715
32689
32647
32647
32743
32754
32773
32796
32826
32881
32901
32943
32966
32965
32955
32911
32916
32893
32840
32807
32790
32731
32686
32680
32674
32687
32707
32748
32782
32787
32763
32770
32759
32811
32903
32837
32837
32895
32866
32856
32863
32848
32853
32852
32810
32817
32827
32836
32842
32865
32844
32820
32831
32847
32957
33022
33043
33060
33058
33006
32966
32996
33007
32979
32951
32984
32999
33037
33047
33031
33159
33164
33212
33205
33061
33041
32999
32966
33039
33055
33092
33079
33095
32965
32957
32937
32954
32935
33015
33067
33094
33094
33101
33087
33084
33049
33003
32972
32986
32951
32923
32884
32775
32692
32679
32699
32709
32700
32710
32863
32862
32775
32762
32818
32829
32857
32770
32687
32641
32615
32607
32607
32607
32600
32691
32718
32775
32821
32863
32910
32852
32771
32746
32748
32703
32663
32721
32742
32767
32740
32625
32519
32509
32500
32489
32593
32682
32749
32737
32644
32621
32599
32596
32598
32583
32559
32556
32495
32470
32453
32431
32427
32420
32436
32447
32467
32486
32450
32499
32519
32556
32555
32567
32518
32511
32476
32436
32392
32352
32321
32236
32137
31961
31745
31445
31252
31129
31053
31047
30974
30823
30765
30799
30790
30533
30346
30143
30045
30215
30744
31501
32455
33606
34813
36212
37540
38807
39980
41093
42111
43149
43798
44335
44807
45015
44975
44676
44031
43172
41972
40639
39321
38220
37324
36645
36108
35655
35333
35052
34749
34548
34383
34195
34012
33817
33637
33452
33124
32896
32620
32342
32108
31942
31815
31724
31647
31581
31525
31470
31425
31413
31393
31355
31367
31329
31275
31234
31185
31115
31060
31092
31018
31079
31111
31118
31159
31204
31276
31316
31295
31236
31235
31217
31221
31177
31213
31229
31231
31203
31199
31178
31239
31278
31354
31383
31398
31450
31503
31507
31540
31454
31492
31506
31503
31510
31516
31539
31532
31611
31628
31667
31652
31699
31687
31698
31695
31741
31791
31819
31833
31851
31799
31802
31783
31789
31727
31719
31714
31700
31685
31674
31670
31684
31702
31721
31743
31775
31777
31799
31790
31804
31827
31831
31838
31854
31856
31872
31847
31834
31831
31812
31807
31846
31844
31887
31931
31983
32027
32066
32084
32097
32079
31974
31935
31942
31931
31949
31926
31949
31989
31980
31970
31987
31919
31907
31935
31935
31912
31965
32015
32031
32031
32020
32015
32020
32034
31996
31964
31972
31974
32027
32013
32031
32034
32079
32119
32180
32222
32254
32262
32286
32324
32337
32300
32319
32287
32248
32231
32247
32303
32301
32298
32295
32306
32351
32376
32434
32453
32500
32449
32384
32401
32419
32423
32420
32413
32415
32417
32461
32475
32479
32439
32511
32492
32575
32564
32594
32634
32667
32704
32722
32732
32734
32740
32749
32743
32748
32747
32767
32807
32813
32837
32847
32879
32950
33005
33058
33094
33126
33178
33315
33401
33375
33280
33287
33423
33482
33468
33433
33420
33390
33363
33382
33396
33319
33220
33207
33221
33213
33324
33343
33351
33316
33251
33172
33156
33078
33031
32980
32943
32934
32915
32876
32854
32852
32852
32871
32951
32948
32967
32972
33043
33026
33001
32964
32933
32928
32892
32857
32815
32735
32679
32663
32674
32676
32669
32668
32682
32751
32771
32775
32775
32788
32790
32823
32838
32833
32828
32805
32786
32791
32788
32767
32767
32723
32666
32653
32693
32743
32764
32849
32849
32861
32839
32847
32855
32829
32839
32798
32809
32801
32767
32769
32634
32615
32630
32647
32672
32686
32687
32695
32719
32735
32727
32719
32710
32767
32770
32799
32823
32822
32799
32795
32771
32756
32743
32748
32775
32797
32842
32881
32903
32895
32911
32898
32847
32854
32847
32815
32804
32775
32746
32708
32679
32683
32691
32733
32759
32774
32862
32903
32903
32892
32775
32775
32720
32692
32669
32634
32637
32611
32596
32591
32610
32625
32639
32658
32767
32786
32838
32871
32783
32695
32679
32647
32629
32715
32763
32724
32670
32635
32607
32626
32643
32663
32743
32773
32805
32865
32917
32950
32933
32935
32930
32895
32842
32749
32709
32713
32733
32743
32723
32727
32718
32732
32751
32754
32772
32795
32815
32841
32908
32860
32909
32887
32871
32866
32902
32911
32911
32891
32871
32900
32886
32866
32877
32867
32911
32967
32993
33000
32998
32990
32945
32911
32899
32863
32826
32807
32769
32765
32775
32735
32721
32755
32726
32759
32727
32703
32711
32687
32691
32678
32695
32693
32662
32636
32692
32679
32671
32588
32583
32581
32588
32567
32584
32603
32608
32655
32677
32709
32676
32682
32707
32727
32707
32689
32692
32668
32663
32671
32647
32692
32709
32775
32799
32834
32860
32827
32799
32804
32805
32807
32829
32831
32838
32874
32857
32871
32894
32883
32879
32815
32717
32731
32759
32775
32823
32942
32979
33031
33074
33103
33106
33026
32951
32911
32870
32822
32803
32775
32765
32834
32839
32845
32879
32948
32994
32998
32967
32930
32875
32892
32994
32999
33026
32993
32937
32845
32822
32775
32775
32775
32852
32885
32909
32945
32983
32999
32993
33003
32951
32755
32758
32743
32756
32814
32814
32813
32814
32820
32792
32775
32775
32806
32829
32799
32791
32812
32817
32844
32762
32739
32725
32722
32715
32695
32672
32743
32743
32791
32786
32772
32774
32788
32823
32895
32943
32996
33043
32965
32972
33001
33020
33031
33057
33119
33148
33164
33146
33135
33134
33167
33188
33193
33167
33183
33198
33178
33192
33220
33124
33120
33127
33210
33188
33135
33063
33020
32999
32943
32942
32981
33007
32995
32945
32941
32954
32967
32959
32937
32932
32891
32926
32862
32897
32884
32882
32868
32879
32844
32831
32807
32747
32698
32742
32741
32743
32759
32775
32770
32770
32754
32734
32751
32775
32791
32831
32847
32823
32820
32790
32775
32759
32767
32757
32727
32775
32791
32786
32759
32771
32733
32721
32719
32706
32687
32678
32655
32615
32687
32707
32729
32747
32738
32739
32788
32863
32863
32860
32879
32863
32847
32857
32855
32850
32817
32797
32782
32764
32775
32803
32813
32820
32831
32823
32831
32861
32775
32743
32775
32879
32832
32738
32662
32499
32346
32175
32007
31807
31643
31460
31302
31166
31103
31023
30972
30922
30855
30743
30598
30439
30343
30502
30945
31612
32537
33655
34865
36076
37346
38540
39642
40766
41900
42786
43493
44165
44631
44789
44703
44264
43593
42735
41559
40239
38951
37991
37112
36465
35919
35485
35163
34821
34453
34222
34105
33975
33911
33807
33638
33504
33327
33104
32873
32593
32329
32141
31918
31751
31607
31462
31338
31268
31228
31234
31236
31268
31255
31268
31271
31254
31215
31150
31140
31111
31103
31103
31057
31058
31025
30964
30941
30930
30956
30983
31006
31019
31060
31093
31118
31127
31124
31111
31123
31143
31142
31119
31087
31077
31119
31141
31172
31164
31161
31199
31239
31295
31319
31340
31343
31367
31367
31383
31403
31399
31377
31367
31295
31278
31267
31239
31239
31289
31279
31294
31291
31320
31317
31348
31362
31380
31393
31406
31411
31439
31455
31475
31409
31420
31394
31425
31471
31444
31428
31461
31517
31527
31575
31612
31613
31623
31621
31603
31537
31528
31530
31523
31492
31487
31479
31501
31546
31579
31585
31604
31647
31693
31733
31779
31764
31771
31731
31691
31670
31687
31669
31655
31661
31667
31655
31657
31662
31649
31667
31692
31726
31740
31774
31778
31804
31815
31829
31823
31838
31879
31886
31922
31913
31919
31918
31943
31924
31916
31916
31964
32007
32061
32100
32121
32169
32188
32212
32231
32233
32220
32157
32107
32059
32089
32098
32103
32100
32125
32165
32191
32213
32279
32391
32452
32512
32548
32540
32550
32478
32516
32531
32516
32515
32489
32475
32476
32458
32479
32500
32531
32546
32589
32629
32685
32698
32716
32764
32773
32802
32788
32794
32797
32815
32854
32885
32922
32997
33068
33125
33135
33159
33181
33188
33164
33183
33175
33178
33183
33175
33160
33126
33123
33091
33063
33068
33091
33092
33127
33131
33132
33116
33100
33073
33021
33031
32991
32992
32996
32996
33001
32999
32967
32937
32893
32862
32845
32828
32812
32813
32791
32794
32811
32831
32839
32849
32839
32818
32791
32788
32786
32723
32679
32676
32655
32639
32615
32609
32609
32612
32621
32656
32700
32718
32699
32682
32668
32687
32731
32759
32758
32738
32669
32622
32585
32574
32540
32524
32556
32577
32620
32644
32677
32709
32756
32801
32832
32817
32815
32810
32791
32775
32749
32762
32775
32751
32761
32757
32757
32759
32743
32741
32743
32735
32757
32724
32725
32701
32693
32677
32687
32671
32679
32734
32733
32718
32687
32658
32526
32676
32548
32673
32689
32655
32788
32651
32791
32727
32676
32782
32666
32839
32703
32831
32791
32718
32869
32742
32754
32871
32739
32908
32862
32785
32960
32871
32895
32873
32887
32863
32825
32811
32788
32759
32756
32766
32811
32825
32836
32841
32858
32852
32754
32774
32820
32855
32908
32945
32943
32900
32871
32830
32861
32820
32807
32811
32821
32815
32868
32911
32956
32988
32999
33061
33089
33090
33100
33127
33137
33075
33030
32986
32956
32951
32970
32972
32945
32909
32889
32881
32914
32917
32924
32945
32980
32975
32977
32989
33047
33007
33052
33028
33044
33031
33018
32980
32945
32958
32984
32952
32966
32994
33043
33063
33090
33102
33116
33098
33090
33071
33057
33055
33031
33020
32999
32983
32980
32982
32963
32947
32949
33019
33060
33098
33111
33127
33127
33086
33082
33074
33073
33083
33078
33047
33014
33007
33011
32996
32988
32995
33015
33012
33012
32943
32920
32937
32951
32961
32987
32972
32952
32939
32910
32887
32894
32876
32903
32870
32905
32935
32969
33012
33065
33109
33151
33157
33131
33115
33095
33062
33007
32934
32903
32879
32879
32863
32861
32902
32959
32961
33004
33010
32958
32935
32919
32967
33044
33107
33111
33119
33125
33111
33079
32999
32892
32835
32831
32828
32852
32910
32903
32947
33019
33040
32999
32956
32965
32966
32966
32934
32911
32927
32982
32980
32978
32971
32948
32919
32906
32956
32968
32991
33018
33047
33060
33073
33073
33031
32991
32964
32970
32919
32842
32820
32813
32803
32786
32790
32791
32775
32791
32829
32883
32895
32911
32919
32906
32963
32991
33007
33023
33003
32959
32887
32799
32818
32845
32889
32913
32948
32975
33003
33042
33071
33094
33076
33062
33103
33092
33047
33029
33007
32991
32966
32950
32951
32973
33021
33062
33122
33172
33228
33255
33287
33263
33185
33166
33159
33151
33150
33148
33147
33159
33135
33095
33073
33024
32983
32971
33007
33015
33057
33071
33095
33118
33067
33041
33046
33031
33021
33013
33023
33021
33054
33031
33038
33002
32962
32956
32943
32943
32911
32911
32935
32960
32971
33007
33024
33028
32988
32879
32825
32800
32820
32797
32772
32775
32741
32748
32749
32751
32775
32868
32903
32935
32959
32958
32963
32943
32906
32884
32902
32927
32879
32839
32807
32815
32751
32721
32749
32748
32774
32795
32820
32868
32932
32964
32972
32986
32847
32844
32927
32919
32767
32815
32871
32866
32836
32726
32724
32775
32828
32850
32908
32954
32967
32964
32981
32958
32959
32965
32887
32856
32836
32853
32883
32878
32863
32821
32815
32802
32841
32878
32916
32916
32844
32679
32499
32278
32071
31858
31675
31487
31343
31260
31212
31149
31076
31028
30945
30823
30653
30536
30521
30743
31233
31991
32971
34141
35322
36503
37619
38789
39937
40985
41876
42532
43143
43796
44167
44276
44167
43626
42863
41895
40815
39607
38407
37451
36708
36103
35631
35253
34940
34671
34422
34206
34042
33904
33860
33772
33661
33551
33428
33247
33005
32687
32409
32180
32007
31879
31749
31615
31503
31423
31364
31314
31251
31197
31149
31132
31135
31129
31143
31165
31188
31176
31151
31143
31105
31097
31077
31075
31063
31041
31033
31045
31054
31079
31111
31133
31116
31121
31151
31188
31233
31285
31313
31298
31323
31297
31258
31278
31301
31299
31303
31279
31268
31239
31228
31234
31284
31319
31377
31446
31495
31534
31527
31501
31490
31479
31436
31455
31489
31507
31522
31516
31509
31504
31495
31512
31521
31556
31581
31591
31643
31694
31733
31748
31745
31750
31717
31657
31623
31608
31625
31642
31628
31652
31663
31651
31623
31666
31695
31727
31773
31807
31847
31863
31884
31892
31879
31871
31884
31855
31791
31743
31717
31727
31821
31879
31895
31847
31951
32015
32006
31979
31954
31975
31999
32031
32054
31996
31932
31862
31830
31861
31892
31895
31950
31969
31968
31996
31959
31999
32038
32103
32150
32169
32149
32087
32030
32039
32059
32098
32116
32103
32069
32063
32071
32116
32188
32271
32315
32353
32384
32418
32418
32403
32383
32365
32391
32395
32406
32437
32482
32484
32470
32412
32417
32469
32527
32609
32677
32734
32797
32807
32796
32743
32747
32802
32836
32844
32849
32876
32842
32778
32746
32743
32754
32801
32863
32940
32965
33031
33054
33073
33071
33092
33096
33108
33111
33075
33094
33084
33084
33037
33012
32999
33046
33089
33103
33182
33205
33258
33287
33236
33158
33139
33134
33140
33138
33158
33147
33130
33115
33117
33061
33018
32974
32943
33001
33039
33044
33098
33124
33111
33067
33068
33045
33058
33047
33020
32959
32926
32871
32844
32770
32724
32724
32726
32788
32831
32835
32869
32878
32926
32919
32886
32859
32844
32797
32767
32675
32623
32590
32615
32647
32654
32665
32679
32714
32711
32725
32732
32740
32747
32751
32747
32766
32775
32793
32770
32698
32660
32618
32623
32684
32707
32715
32697
32660
32658
32711
32711
32718
32767
32795
32821
32852
32837
32802
32775
32727
32671
32613
32575
32567
32600
32660
32550
32615
32655
32721
32774
32796
32811
32807
32791
32735
32705
32727
32750
32719
32682
32631
32614
32615
32631
32605
32645
32684
32737
32775
32774
32785
32799
32732
32723
32703
32655
32659
32697
32687
32669
32657
32655
32643
32663
32651
32660
32657
32636
32617
32633
32671
32711
32701
32699
32716
32733
32751
32791
32772
32751
32700
32637
32607
32583
32601
32612
32635
32684
32740
32748
32718
32727
32730
32738
32735
32735
32657
32595
32554
32587
32612
32612
32643
32679
32706
32728
32736
32754
32795
32839
32868
32849
32863
32843
32832
32874
32836
32823
32796
32767
32743
32707
32700
32650
32636
32589
32598
32654
32682
32711
32717
32735
32704
32746
32775
32775
32809
32831
32854
32845
32828
32775
32743
32682
32695
32740
32799
32838
32850
32807
32791
32812
32826
32859
32851
32871
32868
32818
32855
32876
32847
32833
32832
32851
32841
32846
32879
32899
32930
32972
32977
32967
32948
32926
32889
32867
32861
32871
32853
32842
32895
32903
32895
32923
32895
32890
32901
32884
32912
32917
32908
32903
32942
32941
32931
32945
32917
32947
32937
32930
32917
32903
32887
32887
32893
32913
32932
32940
32913
32933
32927
32919
32913
32946
32917
32935
32963
32938
32946
32933
32909
32891
32890
32829
32834
32828
32871
32886
32895
32934
32943
32931
32927
32954
32997
32972
32969
32964
32980
32979
32910
32827
32825
32843
32887
32951
33013
33023
33012
32999
32958
32933
32935
32911
32922
32959
32942
32929
32775
32789
32827
32727
32680
32725
32761
32775
32796
32806
32810
32830
32841
32883
32889
32877
32911
32935
32947
32940
32927
32839
32794
32759
32775
32810
32839
32876
32921
32942
32999
33021
32983
32944
32919
32977
33004
32999
32943
32926
32903
32895
32902
32919
32922
32932
32939
32966
33014
33090
33115
33140
33178
33194
33164
33122
33071
33045
33030
33031
33069
33082
33046
32947
32927
32949
33015
33020
32938
32935
33017
33069
33086
33109
33109
33100
33060
32965
32931
32903
32889
32895
32921
32896
32879
32882
32892
32912
32911
32852
32820
32810
32831
32859
32870
32863
32895
32902
32867
32807
32700
32654
32622
32628
32670
32677
32711
32732
32705
32701
32698
32709
32741
32764
32772
32791
32823
32812
32819
32807
32823
32773
32742
32727
32732
32726
32671
32669
32772
32826
32851
32775
32801
32791
32775
32774
32789
32798
32806
32738
32719
32731
32721
32708
32697
32663
32663
32701
32737
32775
32836
32848
32881
32862
32823
32837
32783
32775
32732
32726
32713
32724
32711
32658
32580
32519
32466
32335
32199
32015
31879
31731
31619
31505
31423
31415
31405
31340
31313
31307
31308
31268
31300
31309
31378
31551
31959
32633
33430
34398
35479
36534
37686
38814
39903
41010
41799
42453
42912
43071
43034
42871
42383
41527
40443
39285
38096
36964
36097
35399
34849
34422
34147
33927
33775
33686
33625
33580
33543
33476
33444
33383
33318
33193
33101
32989
32903
32775
32629
32437
32239
32103
31972
31876
31765
31657
31583
31518
31462
31414
31357
31303
31225
31194
31203
31217
31231
31252
31271
31290
31278
31304
31302
31345
31348
31375
31366
31365
31350
31325
31303
31302
31293
31285
31269
31273
31313
31343
31361
31403
31418
31437
31471
31509
31548
31558
31577
31565
31579
31557
31551
31519
31521
31495
31457
31425
31437
31435
31459
31487
31495
31533
31596
31663
31668
31687
31659
31655
31637
31630
31599
31607
31597
31620
31655
31697
31725
31751
31747
31783
31815
31864
31893
31890
31898
31895
31874
31871
31873
31885
31876
31857
31856
31844
31855
31863
31871
31845
31862
31900
31931
31975
32007
32038
32075
32117
32165
32199
32183
32175
32165
32167
32164
32151
32135
32113
32141
32200
32252
32303
32351
32383
32433
32436
32471
32455
32409
32414
32412
32394
32436
32469
32470
32471
32483
32498
32508
32479
32479
32486
32503
32535
32564
32574
32572
32582
32598
32646
32703
32733
32765
32787
32746
32686
32644
32641
32682
32711
32759
32804
32844
32887
32893
32935
32951
32970
32975
32998
32999
32979
32974
32972
32990
32999
33015
33031
33077
33094
33114
33094
33129
33204
33240
33321
33369
33388
33360
33322
33284
33215
33172
33150
33175
33171
33153
33144
33191
33287
33327
33399
33457
33489
33493
33537
33527
33479
33471
33464
33367
33349
33340
33313
33312
33307
33303
33351
33367
33373
33301
33283
33271
33266
33229
33215
33198
33170
33128
33099
33030
33004
32968
32958
32940
32921
32938
32956
32941
32949
32955
32932
32943
32970
32972
32942
32926
32876
32807
32757
32702
32679
32692
32679
32655
32623
32601
32583
32593
32628
32645
32655
32659
32700
32699
32629
32615
32584
32582
32560
32533
32511
32530
32495
32462
32431
32426
32452
32470
32504
32524
32561
32556
32580
32601
32591
32614
32631
32655
32626
32582
32532
32500
32454
32427
32409
32439
32441
32457
32494
32534
32572
32607
32600
32602
32605
32621
32647
32681
32692
32660
32630
32641
32628
32618
32627
32637
32629
32676
32711
32717
32723
32695
32703
32719
32734
32766
32769
32767
32800
32799
32756
32718
32694
32687
32733
32747
32745
32767
32772
32790
32807
32839
32862
32873
32860
32807
32804
32751
32775
32765
32761
32727
32669
32631
32610
32610
32630
32640
32624
32620
32635
32662
32679
32670
32679
32687
32718
32723
32724
32690
32711
32715
32711
32719
32714
32694
32658
32598
32596
32612
32639
32671
32697
32756
32790
32822
32823
32791
32759
32748
32766
32756
32735
32708
32715
32733
32755
32790
32766
32717
32717
32727
32722
32736
32740
32701
32692
32673
32689
32649
32647
32647
32623
32626
32627
32627
32609
32629
32599
32604
32607
32639
32639
32659
32688
32713
32732
32734
32720
32719
32721
32727
32758
32759
32756
32756
32760
32762
32743
32733
32759
32755
32713
32702
32724
32726
32730
32735
32731
32766
32739
32727
32707
32695
32679
32651
32619
32604
32591
32614
32629
32656
32697
32735
32767
32748
32745
32719
32709
32711
32687
32676
32655
32642
32647
32655
32647
32658
32677
32671
32669
32700
32681
32692
32655
32631
32615
32612
32612
32615
32605
32573
32551
32527
32525
32527
32540
32545
32567
32567
32569
32606
32639
32657
32700
32711
32737
32759
32739
32709
32693
32634
32591
32527
32515
32539
32555
32551
32567
32596
32584
32582
32604
32647
32703
32737
32731
32785
32788
32767
32747
32709
32654
32647
32655
32658
32671
32671
32675
32681
32685
32700
32746
32749
32766
32796
32821
32851
32879
32918
32897
32884
32817
32796
32775
32759
32743
32757
32787
32842
32872
32934
33039
33074
33108
33126
33133
33140
33140
33155
33095
33078
33006
32975
32980
32948
32955
33020
33015
33010
33023
33038
33063
33058
33058
33038
32989
32988
33012
33015
32999
32936
32903
32869
32837
32827
32813
32799
32811
32898
32913
32947
32964
32919
32882
32880
32849
32833
32764
32727
32690
32671
32702
32721
32736
32746
32727
32703
32692
32711
32731
32756
32820
32854
32889
32927
32898
32897
32887
32887
32845
32807
32761
32735
32726
32718
32701
32711
32733
32757
32788
32807
32819
32831
32843
32870
32884
32884
32902
32871
32831
32806
32788
32804
32794
32788
32741
32696
32702
32698
32707
32737
32770
32825
32843
32874
32903
32903
32879
32866
32855
32831
32822
32775
32760
32754
32749
32740
32759
32735
32756
32724
32727
32687
32650
32572
32425
32263
32084
31878
31700
31528
31359
31225
31201
31199
31191
31151
31178
31207
31236
31276
31311
31388
31521
31826
32401
33182
34180
35218
36286
37369
38516
39676
40708
41575
42261
42820
43119
43247
43216
42839
42126
41117
39896
38671
37479
36508
35766
35213
34767
34455
34210
33927
33748
33634
33534
33455
33382
33359
33370
33372
33340
33343
33247
33159
33044
32861
32653
32399
32196
32029
31903
31798
31714
31666
31617
31583
31534
31527
31535
31540
31551
31572
31564
31553
31567
31575
31572
31549
31532
31517
31502
31476
31421
31407
31410
31420
31380
31389
31435
31479
31492
31527
31533
31532
31548
31566
31550
31553
31534
31515
31501
31511
31524
31551
31578
31575
31545
31548
31604
31622
31645
31663
31677
31701
31703
31711
31701
31709
31701
31689
31662
31604
31602
31636
31665
31692
31700
31739
31771
31811
31827
31879
31942
31924
31901
31879
31866
31879
31884
31870
31878
31868
31845
31867
31896
31909
31919
31923
31947
31967
31992
31990
31991
31982
32028
32047
32047
32036
32038
32069
32079
32099
32095
32091
32103
32135
32135
32141
32158
32164
32172
32170
32223
32227
32212
32199
32177
32167
32180
32185
32180
32155
32139
32167
32217
32252
32247
32225
32247
32244
32294
32309
32359
32403
32423
32456
32444
32428
32415
32399
32405
32399
32399
32459
32484
32503
32511
32550
32605
32647
32674
32686
32692
32676
32703
32741
32764
32820
32812
32867
32872
32861
32842
32815
32808
32818
32846
32843
32884
32933
32964
32988
33009
33004
33013
33031
33047
33060
33054
33052
33093
33071
33055
33039
33052
33075
33108
33159
33172
33174
33207
33249
33222
33236
33260
33257
33287
33316
33326
33348
33346
33348
33351
33353
33391
33455
33457
33484
33519
33524
33523
33506
33470
33447
33382
33359
33319
33263
33226
33190
33143
33121
33063
33009
32970
32949
32935
32963
32955
32988
33034
33047
33060
33077
33055
33031
33010
32950
32853
32798
32770
32743
32724
32707
32679
32647
32628
32619
32682
32702
32732
32706
32699
32767
32694
32668
32706
32690
32620
32672
32636
32541
32550
32610
32543
32535
32551
32583
32612
32644
32703
32742
32757
32755
32755
32700
32676
32649
32655
32647
32645
32615
32628
32613
32596
32549
32551
32551
32571
32595
32623
32656
32661
32645
32612
32598
32583
32514
32491
32476
32500
32527
32507
32460
32420
32407
32427
32467
32505
32543
32589
32621
32636
32620
32571
32572
32540
32500
32487
32471
32475
32455
32455
32477
32468
32508
32511
32565
32604
32631
32663
32670
32649
32646
32617
32636
32639
32612
32607
32597
32605
32580
32584
32614
32588
32519
32533
32561
32623
32646
32679
32691
32715
32709
32711
32687
32642
32629
32621
32591
32593
32561
32541
32516
32533
32561
32550
32588
32628
32642
32671
32723
32749
32743
32714
32705
32718
32710
32703
32703
32673
32653
32639
32598
32567
32575
32587
32607
32647
32694
32740
32756
32751
32730
32703
32687
32647
32625
32595
32587
32583
32562
32564
32559
32575
32607
32623
32663
32710
32742
32760
32793
32807
32780
32788
32801
32790
32784
32753
32743
32727
32733
32726
32717
32655
32655
32622
32647
32660
32689
32688
32695
32732
32742
32755
32775
32835
32815
32804
32815
32783
32783
32769
32753
32694
32698
32708
32716
32769
32811
32839
32839
32871
32893
32917
32942
32937
32921
32897
32838
32805
32775
32780
32767
32756
32764
32804
32831
32871
32903
32940
32967
32962
32943
32954
32935
32903
32884
32875
32805
32805
32796
32815
32803
32795
32825
32823
32852
32884
32896
32941
32959
32967
32967
32953
32954
32938
32933
32893
32846
32807
32789
32783
32775
32775
32795
32785
32791
32829
32893
32927
32927
32933
32881
32843
32839
32793
32773
32730
32712
32721
32722
32708
32690
32672
32660
32647
32663
32679
32702
32743
32787
32800
32814
32805
32751
32743
32733
32736
32772
32775
32799
32807
32807
32839
32863
32876
32889
32897
32895
32921
32966
33007
33039
33055
33063
33085
33097
33079
33100
33116
33125
33119
33110
33084
33093
33063
33060
33041
33046
33090
33125
33132
33135
33135
33109
33119
33112
33094
33063
33020
32998
32975
32951
32925
32905
32908
32926
32932
32948
32964
32983
32972
32958
32935
32927
32913
32898
32848
32807
32775
32754
32720
32718
32715
32715
32729
32727
32724
32751
32789
32805
32806
32806
32807
32775
32769
32757
32746
32767
32767
32748
32689
32651
32636
32639
32629
32647
32701
32727
32740
32742
32753
32751
32762
32770
32758
32766
32758
32747
32731
32708
32722
32720
32724
32727
32724
32726
32735
32762
32775
32807
32791
32793
32783
32773
32790
32770
32785
32775
32757
32730
32705
32704
32703
32702
32737
32783
32815
32871
32907
32933
32943
32921
32895
32855
32775
32671
32530
32342
32111
31885
31663
31489
31339
31207
31162
31151
31147
31166
31157
31140
31124
31068
31023
31012
31078
31390
31980
32799
33788
34912
36033
37151
38308
39514
40596
41521
42270
42916
43375
43767
43860
43677
43095
42247
41217
40040
38821
37711
36795
36047
35484
35012
34633
34332
34122
33957
33815
33727
33671
33616
33573
33511
33426
33338
33226
33111
32941
32719
32455
32207
32029
31900
31782
31684
31594
31519
31468
31430
31421
31436
31417
31406
31373
31375
31367
31343
31317
31277
31239
31229
31231
31218
31194
31215
31237
31235
31278
31319
31367
31383
31378
31389
31396
31391
31377
31397
31405
31378
31369
31362
31348
31358
31357
31364
31389
31407
31434
31471
31517
31551
31569
31590
31591
31584
31583
31576
31550
31524
31495
31482
31488
31482
31503
31536
31559
31590
31610
31657
31652
31684
31690
31679
31671
31679
31687
31699
31670
31631
31615
31591
31581
31575
31580
31591
31631
31644
31668
31716
31743
31774
31804
31799
31811
31821
31827
31808
31815
31796
31803
31783
31789
31803
31825
31823
31845
31868
31892
31906
31927
31959
31955
31960
31973
31960
31958
31943
31909
31927
31936
31918
31911
31913
31916
31944
31951
31933
31950
31959
31991
32020
32038
32054
32043
32037
32029
32025
32037
32015
32023
31991
31998
31989
32023
32047
32065
32091
32135
32179
32214
32250
32255
32263
32269
32287
32313
32308
32303
32303
32311
32308
32302
32303
32327
32345
32373
32418
32452
32509
32554
32580
32591
32628
32644
32657
32647
32645
32647
32661
32678
32695
32729
32727
32732
32753
32791
32817
32893
32931
32953
32978
33007
33038
33073
33062
33055
33047
33071
33093
33107
33146
33169
33172
33173
33185
33215
33263
33319
33351
33340
33321
33327
33335
33329
33332
33350
33315
33267
33220
33191
33159
33132
33119
33092
33095
33069
33063
33058
33092
33095
33103
33101
33086
33062
33029
33007
32974
32935
32905
32900
32871
32839
32815
32793
32759
32764
32804
32821
32825
32815
32807
32796
32772
32788
32775
32771
32759
32730
32711
32678
32627
32586
32559
32550
32549
32545
32556
32590
32647
32711
32727
32722
32731
32736
32722
32733
32703
32703
32699
32682
32672
32646
32630
32639
32679
32671
32684
32700
32739
32757
32787
32768
32789
32798
32792
32759
32751
32765
32756
32767
32709
32682
32687
32700
32709
32723
32739
32757
32764
32799
32794
32804
32823
32791
32754
32761
32756
32751
32724
32711
32710
32695
32671
32660
32673
32700
32718
32708
32733
32762
32794
32823
32818
32807
32799
32799
32793
32793
32763
32767
32732
32715
32698
32697
32727
32732
32746
32783
32819
32848
32879
32884
32892
32884
32899
32904
32909
32885
32884
32863
32844
32825
32815
32799
32793
32807
32830
32847
32871
32903
32911
32918
32919
32930
32941
32954
32948
32932
32967
32947
32936
32919
32918
32895
32909
32916
32902
32919
32922
32940
32965
32952
32950
32975
32977
32975
32967
32935
32932
32911
32871
32865
32854
32860
32873
32897
32902
32926
32951
32967
32981
33012
33023
33036
33055
33047
33027
33012
32985
32966
32951
32952
32957
32967
33003
33006
33005
33022
33074
33126
33125
33107
33078
33095
33090
33103
33090
33079
33059
33068
33060
33031
33023
33028
33022
33046
33060
33119
33139
33161
33159
33175
33159
33157
33108
33092
33095
33073
33079
33071
33063
33026
33026
33023
33031
33079
33073
33086
33088
33119
33137
33146
33137
33109
33108
33095
33109
33102
33104
33082
33067
33036
33031
33031
33066
33084
33074
33118
33154
33195
33189
33175
33159
33151
33129
33119
33114
33119
33127
33109
33089
33061
33051
33060
33047
33027
33047
33065
33075
33133
33141
33154
33182
33183
33164
33150
33121
33095
33066
33031
32996
32966
32951
32933
32927
32909
32906
32957
32976
32997
33016
33028
33012
33013
33020
33015
32999
32986
32976
32994
32972
32977
32956
32967
32945
32941
32951
32987
33020
33047
33085
33186
33191
33133
33127
33121
33085
33068
33046
33029
33028
33052
33089
33097
33087
33098
33117
33155
33175
33223
33244
33241
33276
33284
33280
33265
33253
33279
33248
33215
33207
33169
33141
33149
33141
33135
33143
33157
33185
33182
33176
33185
33159
33164
33146
33140
33110
33097
33050
33024
33023
33013
32994
32959
32919
32913
32900
32900
32902
32901
32918
32911
32908
32902
32921
32903
32879
32865
32852
32826
32825
32783
32762
32732
32726
32737
32759
32771
32799
32828
32837
32833
32822
32814
32814
32807
32754
32748
32726
32703
32660
32636
32641
32639
32631
32607
32601
32626
32666
32668
32683
32721
32706
32711
32724
32739
32727
32708
32695
32662
32632
32631
32631
32623
32623
32629
32647
32647
32652
32679
32708
32724
32709
32679
32660
32652
32631
32615
32615
32598
32586
32567
32563
32519
32517
32463
32427
32373
32236
32075
31890
31708
31556
31417
31273
31159
31061
31008
30965
30906
30823
30740
30599
30494
30410
30505
30897
31531
32389
33504
34756
36025
37274
38524
39700
40867
41863
42683
43303
43791
44191
44389
44347
43983
43258
42374
41276
40196
38971
37839
36818
36074
35553
35135
34804
34529
34183
33940
33755
33630
33498
33396
33268
33146
33017
32909
32759
32558
32328
32124
31980
31845
31751
31623
31524
31455
31379
31308
31239
31175
31125
31118
31095
31077
31037
31029
31014
31031
31046
31075
31107
31108
31095
31096
31095
31119
31108
31111
31101
31081
31079
31068
31055
31057
31071
31103
31107
31131
31183
31233
31239
31231
31212
31234
31239
31256
31228
31235
31250
31233
31206
31191
31164
31173
31175
31223
31214
31269
31308
31363
31391
31412
31412
31448
31437
31434
31433
31446
31440
31442
31451
31412
31402
31412
31451
31493
31503
31527
31559
31609
31651
31639
31631
31654
31647
31652
31647
31619
31621
31605
31597
31567
31581
31602
31623
31648
31711
31737
31767
31775
31811
31818
31843
31854
31846
31836
31849
31821
31842
31815
31795
31777
31783
31787
31791
31787
31804
31853
31903
31927
31935
31933
31974
31980
31988
31967
31942
31944
31943
31909
31885
31889
31903
31922
31921
31934
31960
31997
32030
32060
32095
32091
32071
32076
32102
32103
32076
32060
32042
32047
32076
32088
32095
32119
32120
32131
32151
32204
32250
32315
32381
32412
32454
32445
32476
32491
32484
32466
32479
32464
32455
32446
32495
32515
32556
32607
32606
32652
32716
32759
32791
32807
32803
32775
32786
32775
32820
32839
32843
32845
32858
32841
32836
32846
32871
32901
32926
32980
33062
33114
33151
33183
33211
33228
33244
33296
33317
33315
33301
33287
33255
33249
33242
33255
33293
33324
33324
33322
33338
33339
33357
33351
33349
33327
33245
33223
33199
33195
33178
33167
33151
33118
33081
33020
32985
32953
32938
32943
32950
32989
33013
33020
33012
33006
32987
32941
32895
32839
32807
32772
32764
32741
32748
32719
32694
32703
32702
32687
32708
32727
32745
32751
32775
32775
32758
32751
32718
32670
32663
32671
32659
32636
32647
32628
32626
32635
32675
32703
32712
32737
32762
32774
32763
32763
32737
32711
32670
32654
32636
32668
32660
32676
32678
32670
32698
32724
32748
32759
32751
32765
32775
32791
32842
32847
32855
32789
32751
32751
32775
32789
32756
32682
32656
32658
32647
32658
32688
32713
32725
32735
32775
32767
32759
32750
32739
32748
32767
32750
32741
32701
32677
32647
32637
32619
32623
32650
32675
32684
32732
32756
32806
32836
32826
32795
32769
32763
32744
32748
32740
32706
32697
32685
32705
32694
32671
32653
32676
32687
32731
32774
32791
32788
32786
32787
32763
32771
32752
32734
32689
32678
32685
32656
32647
32646
32630
32651
32711
32724
32742
32745
32769
32798
32807
32797
32796
32799
32788
32765
32724
32703
32683
32697
32677
32653
32639
32687
32720
32751
32774
32813
32817
32844
32854
32879
32895
32887
32855
32843
32837
32815
32807
32797
32787
32788
32785
32805
32823
32879
32899
32931
32957
32966
32960
32955
32943
32926
32916
32875
32830
32814
32798
32795
32764
32742
32727
32739
32766
32805
32841
32871
32911
32916
32903
32910
32875
32820
32862
32890
32879
32876
32870
32837
32791
32775
32742
32737
32772
32775
32791
32823
32845
32861
32866
32855
32807
32815
32812
32783
32771
32730
32743
32747
32743
32750
32751
32763
32751
32788
32815
32828
32871
32880
32868
32887
32877
32876
32868
32877
32859
32843
32827
32815
32815
32809
32871
32887
32903
32924
32962
32980
32997
33015
32998
32987
32958
32948
32935
32909
32877
32855
32833
32821
32829
32822
32809
32842
32855
32899
32930
32948
32971
32966
32957
32950
32939
32923
32875
32863
32855
32865
32855
32847
32823
32819
32823
32822
32817
32852
32863
32864
32892
32927
32911
32903
32892
32862
32839
32812
32801
32762
32764
32750
32751
32775
32807
32835
32852
32886
32916
32956
32968
32982
32996
32994
33025
33058
33031
33013
32999
32974
32975
32967
32959
32986
33009
33008
33001
32978
32991
33012
33023
33052
33071
33095
33135
33145
33141
33143
33127
33127
33117
33098
33087
33089
33084
33090
33123
33173
33211
33248
33271
33282
33271
33274
33287
33295
33254
33249
33246
33217
33162
33165
33175
33157
33143
33152
33158
33151
33153
33159
33159
33170
33167
33149
33119
33081
33051
32992
32940
32871
32838
32802
32775
32786
32792
32815
32831
32826
32839
32842
32865
32854
32885
32901
32908
32900
32892
32902
32911
32919
32916
32869
32845
32812
32827
32895
32871
32884
32935
32954
32950
33055
33030
33010
33058
33041
32983
32965
33009
32943
32970
32983
32903
32892
32936
32893
32897
32897
32927
32970
32996
33029
33036
33034
33021
33006
32983
32946
32925
32927
32873
32863
32854
32863
32865
32868
32866
32901
32943
32959
32991
32999
32983
33002
32975
33006
32975
32932
32855
32767
32623
32443
32226
32007
31799
31610
31463
31322
31239
31172
31122
31102
31039
30911
30749
30565
30359
30311
30589
31163
31934
32965
34191
35478
36751
38054
39313
40478
41633
42663
43495
44198
44799
45207
45415
45428
45122
44463
43527
42277
40749
39361
38209
37348
36679
36092
35494
35111
34798
34517
34330
34150
33956
33860
33711
33511
33335
33095
32833
32567
32332
32100
31913
31791
31665
31604
31527
31465
31426
31414
31407
31403
31379
31335
31281
31252
31217
31172
31158
31124
31095
31063
31035
31034
31033
31043
31052
31082
31129
31157
31140
31175
31191
31204
31198
31185
31183
31178
31180
31186
31167
31155
31158
31162
31180
31170
31213
31210
31250
31271
31297
31322
31329
31320
31333
31314
31340
31311
31277
31271
31267
31239
31244
31239
31249
31255
31293
31324
31372
31418
31450
31465
31468
31479
31503
31485
31484
31491
31483
31446
31460
31442
31463
31471
31494
31519
31526
31560
31594
31623
31645
31652
31668
31687
31691
31683
31660
31665
31661
31655
31663
31639
31637
31623
31615
31639
31685
31715
31715
31723
31751
31747
31759
31751
31751
31772
31791
31802
31814
31810
31807
31807
31789
31804
31818
31845
31844
31855
31892
31907
31932
31927
31931
31932
31929
31934
31927
31919
31925
31913
31895
31903
31914
31924
31931
31950
31961
31975
31987
32013
32039
32076
32095
32085
32076
32073
32078
32086
32102
32078
32080
32084
32097
32135
32153
32145
32167
32199
32220
32263
32308
32348
32391
32411
32437
32453
32487
32478
32508
32498
32484
32459
32513
32469
32548
32525
32607
32557
32652
32606
32733
32703
32774
32775
32807
32862
32825
32927
32954
32967
32970
32983
33010
33012
33020
33071
33105
33159
33208
33245
33285
33319
33357
33367
33381
33364
33356
33341
33332
33350
33333
33308
33278
33247
33266
33270
33282
33294
33294
33325
33319
33342
33350
33295
33263
33242
33231
33159
33143
33117
33099
33055
33047
33031
33010
33073
32967
33077
33016
33031
33047
32994
33068
32973
33051
32926
32994
32903
32935
32877
32871
32884
32789
32840
32735
32813
32756
32843
32775
32839
32811
32823
32838
32756
32813
32719
32756
32695
32646
32667
32556
32588
32541
32514
32614
32586
32542
32636
32620
32611
32729
32670
32673
32675
32655
32635
32638
32603
32590
32583
32606
32605
32572
32567
32546
32519
32533
32567
32590
32600
32674
32693
32695
32711
32693
32665
32663
32679
32690
32669
32639
32613
32606
32575
32565
32541
32548
32580
32593
32615
32604
32597
32618
32647
32652
32643
32687
32690
32678
32673
32666
32621
32594
32614
32605
32591
32582
32585
32607
32660
32687
32733
32732
32717
32730
32735
32722
32709
32713
32703
32663
32646
32660
32647
32660
32709
32757
32791
32786
32810
32811
32825
32817
32793
32796
32812
32806
32815
32806
32795
32767
32735
32708
32690
32663
32685
32718
32734
32762
32790
32785
32813
32838
32867
32892
32907
32914
32876
32846
32843
32815
32821
32829
32839
32803
32813
32840
32847
32863
32870
32909
32911
32877
32887
32892
32889
32893
32915
32891
32846
32839
32836
32837
32844
32852
32860
32863
32886
32943
32975
32996
32999
33020
33031
33041
33036
33052
33071
33071
33039
32996
32967
32941
32943
32951
32971
32999
33016
33070
33143
33195
33212
33204
33185
33188
33198
33185
33159
33127
33105
33065
33031
33004
32997
32991
33018
33063
33079
33068
33106
33134
33148
33156
33151
33131
33112
33143
33159
33148
33121
33151
33146
33111
33122
33150
33167
33176
33204
33231
33246
33284
33310
33308
33295
33278
33250
33253
33189
33131
33100
33071
33057
33027
33031
33044
33042
33007
33001
33034
33089
33135
33144
33145
33140
33131
33127
33090
33014
32963
32986
32983
32997
33001
33015
33031
33008
32999
33015
33045
33020
32999
32998
32990
32970
32972
32991
33030
33020
33027
33030
33018
32996
32941
32902
32908
32889
32865
32882
32873
32919
32926
32959
32975
32981
32967
32964
32956
32975
32974
32967
32955
32910
32903
32882
32919
32908
32931
32954
32961
32978
32975
32980
32958
32975
32975
32943
32931
32903
32869
32889
32880
32879
32861
32903
32903
32855
32804
32813
32801
32835
32876
32900
32958
32975
33034
33053
33039
33082
33086
33082
33082
33045
33015
32975
32934
32938
32976
33039
33088
33103
33115
33184
33211
33158
33164
33133
33081
33059
33053
33049
33063
33045
33055
33005
33007
33047
33083
33119
33116
33119
33098
33104
33089
33015
32971
32967
32974
32962
32965
32918
32911
32882
32852
32828
32823
32806
32834
32875
32884
32891
32854
32851
32822
32801
32785
32767
32783
32783
32773
32775
32802
32799
32790
32775
32751
32735
32709
32743
32798
32846
32893
32935
32961
32975
32951
32884
32865
32807
32789
32791
32797
32821
32826
32818
32839
32855
32882
32919
32943
32964
32973
32892
32851
32837
32836
32839
32839
32851
32839
32806
32804
32799
32811
32791
32783
32788
32805
32788
32759
32775
32807
32839
32855
32845
32815
32775
32774
32759
32695
32644
32543
32399
32221
32015
31804
31630
31444
31281
31159
31077
31021
30981
30916
30796
30639
30435
30237
30139
30351
30855
31558
32535
33700
34930
36232
37568
38874
40039
41192
42277
43177
43903
44551
45031
45255
45300
45092
44495
43567
42359
41004
39582
38383
37527
36788
36201
35724
35335
35031
34759
34508
34272
34036
33858
33654
33465
33295
33076
32834
32551
32298
32087
31927
31782
31660
31556
31463
31426
31387
31375
31350
31351
31316
31295
31279
31250
31214
31166
31129
31111
31089
31087
31108
31097
31102
31111
31122
31137
31158
31199
31231
31235
31198
