ECG
33111
33129
32980
32972
33051
33098
32970
32951
32999
32989
32826
32951
32822
32910
32852
32935
33037
33023
32934
33042
33154
33203
33115
33044
33124
33164
32970
33047
33083
33004
32879
32884
32988
33015
33007
32945
32897
32959
33125
33087
33029
33130
33178
33079
33004
33063
33113
32994
32975
32944
32926
32903
32932
32848
32775
32815
32926
32958
32972
32869
32935
33079
33110
33036
32923
32918
32983
32945
32775
32697
32719
32749
32790
32818
32867
32756
32770
32855
33004
32934
32980
33116
33135
33012
33176
33067
33053
33140
33095
32952
33031
32956
32934
33028
33015
32939
32994
33109
33111
32972
33053
33223
33092
33119
33238
33236
33039
33015
33092
32980
32894
32943
32994
32836
32919
33031
32906
32973
33107
33044
33009
33092
33117
32956
32964
33028
32877
32844
32914
32855
32724
32737
32839
32727
32714
32828
32902
32809
32839
32975
33038
32931
33016
33119
32968
32916
33013
32924
32783
32830
32854
32724
32807
32845
32804
32751
32756
32807
32893
32923
32815
32839
32943
33026
33015
32911
32852
32861
32941
32933
32813
32717
32719
32797
32791
32703
32711
32824
32908
32790
32853
32948
33007
32954
32857
32841
32877
32879
32701
32692
32711
32813
32839
32748
32725
32820
32900
32829
32842
32954
33031
33050
32988
32960
33031
33039
32797
32628
32541
32444
32079
31764
31542
31444
31341
31225
31172
31284
31363
31309
31356
31579
31940
32263
32509
32764
33102
33583
34172
34749
35207
35647
36085
36715
37377
38148
39140
40148
40979
41471
41701
41991
41951
41439
40510
39440
38604
37166
35487
33996
32532
31308
30549
30359
30607
31139
31815
32446
32978
33429
33779
34018
34102
34043
33921
33943
34070
34188
34171
34151
34191
34272
34183
33927
33703
33553
33526
33406
33185
33146
33170
33134
32927
32881
32887
32851
32687
32500
32397
32324
32207
32039
31913
31930
32039
31945
31975
32129
32158
32080
32140
32249
32340
32205
32231
32284
32290
32263
32108
32079
32103
32121
32135
32063
32055
32140
32237
32173
32161
32212
32338
32332
32263
32380
32399
32292
32234
32255
32295
32290
32279
32145
32107
32127
32172
32259
32315
32302
32246
32271
32333
32412
32451
32442
32322
32327
32399
32415
32373
32319
32214
32191
32127
32135
32167
32204
32317
32314
32263
32330
32423
32538
32592
32606
32559
32427
32352
32337
32297
32276
32298
32308
32305
32301
32286
32253
32245
32263
32332
32415
32463
32498
32542
32559
32559
32519
32416
32291
32207
32202
32204
32228
32230
32248
32217
32152
32157
32247
32348
32409
32357
32263
32234
32263
32311
32324
32327
32257
32100
32039
31943
31879
31868
31908
31967
32028
32048
32028
31943
31991
32068
32111
32021
31970
31946
31982
31983
31852
31780
31751
31781
31801
31748
31615
31606
31691
31751
31736
31663
31668
31701
31766
31829
31811
31729
31713
31770
31783
31654
31559
31516
31516
31533
31562
31486
31461
31558
31674
31721
31678
31648
31718
31759
31823
31828
31733
31666
31669
31701
31590
31503
31533
31552
31619
31597
31527
31572
31661
31767
31851
31802
31782
31860
31971
31983
31892
31847
31903
31931
31813
31772
31866
31918
31853
31972
32071
32028
32043
32183
32286
32309
32235
32307
32409
32452
32346
32319
32332
32390
32410
32279
32229
32259
32373
32431
32366
32397
32484
32615
32687
32607
32615
32701
32783
32767
32670
32710
32775
32788
32644
32584
32666
32689
32596
32543
32612
32761
32719
32730
32862
32950
32865
32866
32975
32997
32977
32805
32746
32771
32854
32822
32652
32667
32785
32699
32786
32737
32838
32799
32970
33013
32959
32909
32993
33068
33074
33061
32941
32820
32845
32911
32903
32775
32774
32824
32887
32951
32970
32913
32923
33025
33127
33161
33031
32996
33071
33123
33073
32907
32895
32953
32946
32935
32806
32828
32890
33005
33023
32941
32956
33091
33191
33031
33095
33183
33187
33012
32985
33044
33068
32847
32963
32989
32797
32835
32954
33026
32934
32935
33010
33139
33132
32992
33054
33159
32998
32948
32974
33063
32895
32860
32916
32821
32760
32802
32883
32926
32870
32853
32900
33008
33111
33124
32980
32992
33015
33095
33055
32907
32872
32908
32924
32849
32719
32775
32901
32958
32884
32879
32956
33065
33150
33115
32991
33012
33143
33167
33047
32871
32807
32811
32855
32862
32764
32725
32775
32844
32965
33001
32948
32907
32925
32959
33065
33078
32965
32878
32852
32863
32933
32895
32771
32756
32791
32884
32876
32794
32831
32877
32982
33015
33015
33038
33045
33011
32924
32863
32783
32780
32791
32804
32815
32796
32809
32732
32692
32711
32725
32802
32844
32918
33007
32951
32831
32839
32888
32974
32887
32747
32685
32679
32767
32705
32597
32647
32702
32780
32821
32726
32774
32857
32959
33021
32900
32838
32840
32865
32828
32858
32866
32870
32725
32700
32706
32758
32821
32863
32769
32746
32833
32940
33045
33046
32910
32932
33031
33030
33029
32983
32876
32743
32709
32719
32807
32836
32866
32852
32839
32837
32883
33018
33071
33018
32951
32929
32923
32991
33028
32942
32770
32746
32849
32858
32695
32696
32775
32884
32930
32958
32878
32847
32858
32887
32942
33055
32938
32832
32855
32928
32912
32812
32678
32663
32709
32764
32863
32767
32763
32823
32847
32991
33027
32887
32884
32935
32990
33003
32943
32793
32753
32772
32812
32798
32731
32663
32641
32679
32719
32805
32905
32908
32807
32794
32838
32839
32913
32850
32700
32599
32615
32669
32655
32604
32507
32570
32708
32770
32661
32728
32908
32887
32867
32933
33019
33121
33082
32950
32967
33050
33087
33025
32953
32959
33012
33011
32964
32894
32941
33031
33183
33233
33261
33214
33116
33141
33196
33194
33191
33036
32981
33060
33094
32941
32922
32962
33103
33135
33092
33027
33066
33159
33239
33169
33108
33139
33175
33050
32940
32925
32917
32931
32903
32933
32871
32775
32775
32827
32875
32961
33030
33076
33012
32962
32982
33090
33124
33084
32919
32935
32997
32999
32847
32767
32757
32852
32903
32800
32861
32964
33021
32908
32983
33106
33101
32935
32895
32999
32925
32792
32752
32790
32850
32856
32775
32721
32789
32893
32932
32932
32852
32885
32996
33092
33051
32943
33020
33044
32865
32852
32921
32863
32756
32689
32754
32855
32855
32727
32735
32824
32959
33018
33015
32898
32847
32836
32775
32740
32612
32345
32036
31780
31517
31290
31050
30797
30727
30751
30849
30851
30759
30849
31077
31397
31610
31867
32183
32657
33128
33606
34181
34815
35416
35989
36799
37690
38753
39775
40767
41953
42791
43072
43047
43154
42677
41735
40711
39861
38662
37205
35492
33644
32282
31494
31162
31339
31860
32537
33103
33429
33647
33903
34055
33989
33889
33915
34087
34175
34247
34124
34036
33951
33940
33730
33431
33362
33055
33002
32964
32703
32663
32663
32593
32423
32305
32228
32175
32135
31940
31740
31639
31591
31577
31435
31402
31463
31519
31564
31559
31526
31599
31719
31775
31687
31655
31701
31803
31836
31804
31648
31631
31623
31658
31682
31682
31610
31588
31612
31763
31839
31751
31790
31896
31964
31963
31891
31847
31819
31800
31840
31872
31750
31669
31699
31783
31793
31825
31781
31804
31855
31977
32036
32033
31983
31976
31990
32039
32058
32067
31965
31857
31836
31834
31879
31919
31861
31809
31886
32014
32015
31965
31977
32028
32093
32165
32173
32060
31982
31975
32036
32056
31919
31855
31918
31975
31937
31852
31860
31927
32039
32103
32148
32087
32035
32033
32036
32087
32105
32071
31948
31873
31890
31915
31815
31740
31769
31846
31906
31926
31882
31831
31831
31874
31905
31969
31995
31972
31842
31745
31695
31652
31638
31642
31590
31476
31491
31607
31574
31517
31580
31702
31621
31551
31635
31701
31668
31533
31525
31572
31479
31321
31319
31343
31367
31364
31275
31196
31239
31311
31322
31262
31279
31313
31399
31321
31274
31311
31338
31263
31127
31133
31177
31178
31107
31065
31109
31183
31167
31100
31167
31277
31334
31276
31275
31295
31367
31351
31253
31268
31308
31327
31261
31198
31204
31307
31353
31351
31302
31387
31500
31555
31532
31564
31627
31727
31820
31818
31704
31751
31805
31875
31828
31788
31809
31825
31955
32069
32020
32173
32293
32283
32466
32412
32500
32638
32711
32730
32615
32576
32650
32708
32703
32563
32631
32732
32675
32643
32748
32908
33001
33015
32956
33004
33082
33184
33269
33287
33251
33184
33093
33089
33181
33219
33144
33017
33024
33147
33247
33282
33156
33155
33229
33373
33218
33303
33373
33216
33320
33215
33147
33108
33172
33192
33017
33006
33121
33056
33049
33166
33263
33269
33180
33223
33330
33420
33346
33193
33178
33255
33278
33082
32999
33015
33087
33085
33021
32959
32967
33020
33175
33225
33103
33142
33228
33287
33231
33127
33081
33089
33183
33208
33024
32999
33063
33115
32964
33005
33087
33156
33207
33086
33095
33137
33255
33287
33257
33124
33094
33171
33212
33195
33154
33097
32986
32964
32991
33103
33172
33135
33079
33130
33207
33242
33319
33359
33375
33379
33303
33229
33134
33129
33129
33191
33207
33140
33019
33038
33090
33158
33305
33351
33420
33452
33425
33325
33300
33327
33300
33276
33316
33325
33306
33191
33111
33092
33172
33259
33287
33317
33210
33242
33373
33438
33437
33319
33335
33423
33460
33399
33222
33195
33198
33260
33202
33047
33069
33206
33222
33119
33199
33324
33365
33353
33253
33323
33449
33271
33257
33284
33327
33171
33111
33119
33191
33196
33105
33050
33097
33214
33287
33238
33200
33244
33361
33444
33381
33235
33251
33351
33359
33199
33094
33148
33162
33039
32991
33057
33195
33078
33112
33191
33278
33332
33207
33244
33338
33365
33310
33134
33131
33184
33083
32975
33003
33063
33067
32974
32960
33022
33119
33209
33271
33241
33199
33157
33188
33271
33299
33261
33092
33063
33129
33126
33044
32917
32967
33092
33140
33020
33076
33167
33239
33318
33317
33221
33181
33117
33115
33143
33205
33191
33102
32950
32911
32922
33042
33071
33101
33144
33165
33098
33132
33103
33095
33147
33212
33236
33212
33093
32998
32996
32977
32999
33027
33037
32919
32926
33039
33124
33151
33039
33072
33193
33223
33129
33060
33079
33131
33182
33158
33051
32947
32860
32876
32959
33023
32953
32933
32964
33050
33135
33077
33055
33125
33247
33152
33068
33071
33049
33104
33122
33020
32879
32881
32910
32996
32965
32838
32871
32924
33040
33093
33030
32954
32973
32970
33001
33045
33031
32981
32889
32775
32668
32679
32745
32805
32785
32719
32765
32830
32937
33021
33009
32999
32950
33053
33087
33103
33107
33085
33039
32969
32956
32967
33077
33120
33111
33102
33069
33081
33108
33151
33183
33287
33343
33360
33279
33231
33236
33188
33248
33252
33228
33061
33031
33052
33065
33190
33265
33325
33278
33190
33180
33229
33226
33287
33316
33189
33028
32999
32982
33039
32997
32863
32775
32794
32822
32940
33015
32933
32915
32967
33095
33147
33025
33036
33099
33127
33111
32969
32850
32839
32901
32937
32863
32727
32789
32914
32911
32804
32858
32967
33053
33024
32903
32885
32903
32966
32988
32965
32810
32711
32693
32702
32760
32815
32798
32739
32728
32775
32919
32973
32959
32918
32849
32848
32871
32913
32932
32775
32700
32692
32724
32736
32733
32625
32625
32692
32775
32828
32743
32713
32751
32783
32865
32887
32844
32692
32657
32598
32525
32391
32095
31815
31593
31367
31172
30886
30679
30668
30742
30799
30708
30591
30645
30813
31081
31324
31470
31727
32146
32794
33444
33994
34525
35335
36394
37366
38225
39189
40473
41924
42951
43552
44104
44484
44677
44180
43445
42836
41988
40596
38956
37388
35597
33772
32647
32335
32472
32725
33131
33601
33970
34177
34295
34245
34099
34092
34263
34311
34219
34196
34277
34188
33871
33708
33626
33415
33126
32956
32861
32807
32695
32468
32370
32341
32198
31987
31919
31815
31598
31426
31410
31230
31278
31142
31259
31185
31309
31416
31381
31427
31532
31596
31534
31492
31528
31562
31441
31434
31485
31473
31319
31313
31343
31422
31463
31397
31391
31453
31537
31627
31662
31606
31631
31676
31741
31683
31596
31590
31627
31631
31580
31469
31491
31537
31617
31582
31537
31631
31749
31709
31649
31725
31816
31873
31827
31751
31691
31655
31669
31699
31694
31644
31543
31492
31508
31596
31701
31794
31803
31793
31775
31797
31839
31914
31935
31896
31864
31823
31703
31674
31639
31620
31622
31696
31718
31773
31770
31751
31718
31745
31751
31796
31827
31893
31927
31951
31847
31701
31677
31683
31695
31644
31547
31511
31495
31501
31543
31628
31715
31781
31740
31664
31708
31772
31774
31700
31604
31525
31540
31527
31492
31463
31407
31341
31284
31305
31364
31431
31464
31428
31375
31367
31351
31339
31361
31367
31347
31249
31137
31111
31095
31108
31095
31057
31031
30974
30983
30997
31060
31125
31071
31076
31083
31079
31062
31089
31071
31028
30919
30869
30810
30826
30817
30823
30879
30913
30874
30863
30902
30980
31036
31076
31134
31127
31059
31030
31036
31079
31074
31005
30908
30932
30978
30996
31023
31048
31068
31077
31127
31173
31249
31328
31394
31446
31519
31547
31580
31583
31558
31537
31532
31521
31565
31652
31793
31892
31926
31943
32007
32148
32263
32423
32452
32412
32479
32576
32668
32687
32718
32703
32635
32593
32620
32663
32766
32844
32849
32823
32909
33058
33175
33172
33131
33260
33365
33245
33211
33189
33260
33295
33287
33172
33135
33151
33261
33361
33356
33287
33404
33496
33520
33433
33446
33531
33570
33569
33437
33340
33318
33364
33394
33356
33220
33182
33267
33352
33231
33332
33454
33332
33361
33467
33519
33421
33319
33383
33367
33166
33146
33191
33233
33107
32991
33022
33130
33183
33160
33063
33120
33247
33353
33383
33295
33188
33223
33316
33323
33251
33094
33044
33127
33127
32967
32975
33066
33173
33161
33060
33132
33263
33340
33225
33223
33248
33335
33353
33240
33169
33167
33191
33227
33176
33091
33023
33055
33188
33254
33307
33202
33191
33224
33255
33375
33415
33383
33255
33197
33189
33223
33215
33215
33159
33016
32999
33053
33158
33186
33131
33103
33135
33189
33242
33340
33345
33257
33178
33188
33300
33247
33202
33084
32998
33011
33090
33156
33151
33087
33087
33165
33271
33332
33329
33195
33206
33279
33305
33307
33203
33089
33044
33084
33127
33049
32941
32971
33095
33159
33124
33050
33124
33262
33300
33166
33210
33311
33326
33259
33143
33062
33063
33007
32942
32951
32933
32961
33015
33031
33116
33158
33215
33255
33271
33227
33133
33099
33175
33209
33081
32983
32945
32916
32873
32931
32979
32982
32926
32883
32951
33065
33164
33215
33162
33127
33095
33092
33119
33170
33133
32974
32913
32916
32964
32964
32977
32858
32835
32885
32991
33063
33095
33072
33015
33044
33110
33165
33116
32966
32959
33025
33015
32996
32920
32839
32788
32767
32823
32895
32997
33045
33031
32943
33026
33148
33165
33071
32960
32983
33011
33045
33039
32973
32863
32834
32845
32912
32991
32997
32916
32895
32964
33031
33148
33143
33007
32999
33015
33044
33047
33007
32868
32791
32797
32857
32902
32866
32807
32887
33012
33039
32954
32970
33094
33142
33007
33031
33116
33125
33055
32905
32994
32997
32843
32828
32853
32943
32983
32916
32911
33077
32991
32996
33135
33163
33021
33030
33063
33123
33111
32960
32901
32927
32977
32859
32799
32906
32996
32902
32885
33023
33015
32911
33022
33071
33031
32915
32967
33005
32942
32792
32796
32820
32837
32775
32613
32638
32734
32859
32772
32795
32863
32991
32927
32873
32919
32951
32995
33031
33060
32958
32876
32895
32975
33028
32980
32903
32927
33006
33129
33159
33069
33212
33159
33164
33287
33230
33159
33263
33196
33079
33104
33189
33181
33012
33020
33090
33158
33146
33119
33187
33311
33236
33228
33268
33351
33316
33167
33065
33076
33092
32887
32829
32861
32927
32852
32736
32780
32899
32954
32836
32823
32887
33005
32964
32856
32915
32975
32898
32773
32834
32863
32657
32669
32719
32628
32556
32642
32792
32757
32689
32772
32869
32964
32897
32789
32806
32919
32775
32743
32868
32682
32756
32596
32670
32560
32612
32731
32639
32651
32719
32797
32893
32802
32759
32871
32933
32727
32721
32797
32807
32663
32573
32591
32682
32741
32655
32663
32743
32870
32908
32839
32844
32877
32954
33023
32916
32830
32829
32856
32775
32524
32357
32316
32107
31797
31533
31303
31157
30965
30790
30798
30868
30887
30727
30719
30833
31017
31180
31525
31854
32063
32445
33100
33765
34311
34823
35593
36543
37499
38332
39299
40552
41839
42894
43319
43615
43999
44087
43566
42692
42115
41105
39639
37855
36228
34577
33039
32263
32198
32486
32852
33319
33789
34223
34255
34241
34301
34220
34036
34151
34275
34118
34115
34204
34121
33879
33692
33620
33535
33238
33071
33001
32877
32665
32574
32539
32357
32147
32084
32020
31917
31697
31496
31463
31463
31463
31367
31371
31405
31527
31583
31495
31558
31641
31701
31669
31559
31585
31661
31668
31543
31473
31417
31417
31503
31523
31472
31517
31591
31651
31710
31768
31765
31716
31733
31807
31860
31742
31679
31687
31735
31721
31671
31609
31599
31639
31698
31807
31861
31886
31869
31836
31857
31887
31948
32001
31950
31844
31830
31847
31867
31849
31708
31716
31692
31684
31727
31820
31888
31958
31983
32006
31963
31975
31975
31954
31950
31952
31988
31960
31943
31902
31846
31745
31725
31774
31777
31774
31842
31887
31983
32033
32030
32039
31975
31943
31943
31972
31998
31982
31903
31863
31807
31735
31706
31716
31692
31732
31779
31799
31830
31949
31999
32005
31979
31919
31834
31818
31827
31743
31679
31613
31551
31589
31627
31631
31601
31572
31543
31548
31556
31649
31708
31759
31719
31599
31607
31614
31575
31407
31343
31339
31341
31294
31171
31140
31178
31228
31289
31248
31252
31271
31312
31365
31356
31255
31225
31239
31274
31207
31124
31074
31036
31021
31021
31082
31137
31143
31087
31094
31165
31215
31247
31156
31269
31295
31202
31274
31276
31207
31118
31066
31084
31131
31153
31047
31045
31111
31239
31325
31347
31347
31388
31518
31598
31538
31522
31565
31608
31624
31621
31571
31560
31632
31743
31807
31725
31830
31982
32111
32212
32246
32241
32300
32356
32431
32519
32584
32519
32501
32536
32647
32703
32732
32635
32654
32775
32898
32850
32839
33047
33039
33099
33267
33131
33151
33227
33279
33127
33085
33162
33193
33204
33063
33050
33132
33290
33284
33198
33295
33435
33396
33383
33508
33479
33359
33383
33479
33387
33263
33286
33319
33341
33240
33122
33151
33284
33223
33186
33259
33435
33524
33439
33302
33375
33476
33390
33314
33287
33287
33325
33318
33148
33090
33179
33225
33134
33110
33194
33322
33381
33358
33260
33247
33311
33398
33415
33252
33207
33159
33196
33228
33252
33187
33069
33071
33185
33257
33106
33161
33340
33299
33193
33252
33359
33389
33237
33198
33303
33271
33154
33042
33050
33149
33100
33013
33111
33231
33132
33063
33140
33287
33253
33226
33327
33362
33216
33190
33246
33259
33158
33023
33039
33116
33139
33019
33013
33132
33238
33279
33188
33142
33189
33268
33327
33370
33274
33141
33129
33173
33150
33147
33066
32942
32939
33012
33105
33028
33006
33095
33221
33199
33083
33158
33268
33213
33082
33058
33123
33119
33028
32893
32912
32958
32996
32903
32850
32921
33066
33107
33055
33014
33119
33168
33054
33004
33061
33131
33143
32935
32933
32974
33028
32903
32847
32943
32994
32996
32893
32933
33046
33148
33169
33186
33085
33007
33092
33135
33103
32980
32912
32901
32975
32988
32887
32785
32842
32949
32951
32852
32879
32993
33076
33134
33044
32966
32942
32955
33043
33012
32867
32763
32690
32737
32834
32875
32819
32783
32814
32871
32991
33052
32943
32932
33007
33095
33078
32958
32852
32879
32956
32935
32834
32735
32751
32826
32890
32783
32823
32895
32972
33052
33109
33042
32966
33042
33079
33068
32925
32884
32936
32935
32765
32805
32871
32903
32772
32838
32967
32997
32909
32948
33049
33103
33057
32943
32910
32911
32935
32964
33005
32817
32750
32756
32820
32852
32881
32807
32812
32903
32996
33007
32940
32965
33001
33073
33044
32916
32875
32840
32860
32885
32868
32781
32701
32691
32732
32839
32949
32922
32838
32910
32963
33063
33031
32932
32948
32989
33001
32958
32828
32680
32678
32739
32762
32740
32665
32684
32813
32911
32934
32895
32903
32860
32855
32903
32908
32920
32809
32685
32655
32628
32660
32652
32669
32541
32524
32639
32739
32670
32660
32761
32903
32875
32782
32825
32956
32901
32756
32764
32839
32866
32758
32677
32708
32807
32840
32800
32848
33007
33012
32926
32991
33110
33166
33220
33101
33031
33052
33060
33087
32954
32871
32877
32913
32980
33069
33086
32979
33039
33130
33172
33211
33090
33111
33173
33156
33133
33041
32909
32828
32856
32902
32885
32791
32735
32831
32909
32848
32810
32941
33028
32921
32972
33092
33073
32916
32916
32972
32917
32759
32748
32785
32836
32804
32687
32652
32709
32820
32862
32729
32793
32903
32948
32807
32818
32934
32902
32801
32775
32852
32797
32615
32654
32737
32775
32687
32640
32735
32812
32859
32775
32723
32756
32784
32775
32842
32855
32820
32775
32679
32609
32617
32651
32699
32631
32584
32615
32680
32783
32821
32760
32759
32775
32863
32864
32721
32743
32775
32564
32390
32308
32167
31903
31601
31321
31183
31140
31125
31127
31122
31151
31177
31311
31492
31708
32018
32368
32732
33080
33389
33936
34589
34982
35306
35882
36602
37358
38109
39031
39870
40663
41208
41711
41872
41895
41342
40485
39685
38703
37305
35527
33821
32370
31239
30452
30268
30572
31109
31650
32322
32969
33381
33589
33743
33820
33908
33873
33767
33668
33767
33965
34005
33877
33814
33735
33638
33607
33435
33183
33103
33063
32975
32899
32743
32567
32479
32415
32369
32314
32125
31918
31783
31679
31611
31605
31605
31659
31682
31662
31671
31703
31740
31787
31828
31863
31828
31748
31710
31730
31751
31751
31615
31533
31540
31604
31695
31714
31726
31701
31724
31828
31895
31875
31841
31836
31815
31812
31825
31817
31789
31733
31684
31644
31632
31698
31780
31772
31733
31781
31845
31943
32004
31980
31923
31999
32027
32006
31899
31808
31804
31850
31918
31876
31883
31809
31806
31862
31914
31903
31886
31980
32071
31993
32007
32071
32133
32067
31967
31962
31991
31929
31836
31819
31847
31853
31880
31940
31981
32007
31993
31989
32028
32081
32164
32193
32156
32081
32053
31983
31988
31983
32007
32020
31995
31924
31892
31942
32039
32049
32055
32047
32057
32110
32154
32151
32081
32028
32033
32032
32030
32007
31911
31835
31812
31881
31934
31937
31865
31850
31930
31983
31995
31931
31906
31949
31954
31858
31760
31738
31774
31733
31670
31572
31540
31557
31545
31602
31629
31582
31552
31601
31686
31693
31613
31575
31599
31617
31564
31479
31444
31418
31401
31396
31364
31317
31340
31367
31434
31495
31527
31506
31521
31569
31644
31668
31631
31536
31515
31495
31485
31495
31381
31309
31358
31423
31417
31375
31418
31518
31606
31609
31622
31697
31783
31793
31719
31671
31644
31713
31748
31676
31613
31609
31679
31716
31751
31735
31794
31853
31967
32085
32134
32157
32107
32131
32156
32228
32230
32235
32154
32083
32084
32122
32166
32183
32212
32215
32301
32413
32479
32487
32468
32498
32588
32636
32631
32531
32493
32527
32570
32547
32423
32497
32562
32543
32465
32501
32545
32649
32751
32671
32670
32767
32828
32851
32736
32721
32766
32740
32583
32510
32578
32596
32500
32573
32627
32554
32582
32724
32804
32759
32708
32784
32871
32836
32694
32739
32795
32743
32663
32708
32732
32618
32578
32683
32732
32655
32681
32826
32956
32945
32865
32902
32999
32988
32863
32947
32961
32859
32804
32863
32748
32687
32745
32807
32832
32724
32814
32943
33011
32966
32917
32973
33082
33091
33011
32938
32932
32962
32935
32854
32772
32716
32769
32836
32855
32775
32810
32933
33031
33046
32967
33026
33089
33145
33043
33031
33063
33078
32949
32885
32881
32879
32787
32763
32836
32941
32959
32869
32903
33036
33113
33068
32989
32999
33079
33077
32979
32909
32932
32913
32823
32733
32799
32869
32903
32823
32864
32996
32961
32919
33004
33084
32983
32934
33026
33029
32909
32836
32869
32868
32837
32729
32766
32855
32892
32852
32855
32983
32988
32913
33043
33151
33068
32967
32977
33052
33073
32988
32866
32922
32917
32902
32820
32773
32804
32935
33007
32963
33022
33159
33214
33198
33094
33069
33132
33143
32986
32943
32958
32974
32929
32844
32839
32908
32970
32969
32934
32985
33084
32994
33121
33012
33079
33015
33023
33116
32926
32953
32951
32850
32894
32724
32746
32798
32847
32775
32788
32815
32903
32999
33057
33041
32943
32938
33015
32997
32879
32866
32926
32843
32751
32757
32812
32820
32711
32826
32907
32853
32849
32960
33047
33059
32959
32928
32961
33007
32932
32830
32802
32815
32807
32719
32655
32703
32772
32753
32743
32880
32916
32926
32983
32919
32972
33055
32987
32879
32922
32919
32775
32738
32775
32775
32663
32684
32789
32692
32747
32879
32821
32858
32948
33022
32977
32927
32933
32967
32954
32829
32727
32757
32775
32714
32615
32667
32714
32761
32759
32692
32738
32851
32869
32812
32797
32844
32931
32933
32838
32743
32711
32733
32693
32615
32596
32620
32706
32791
32835
32828
32913
33027
33084
33071
33034
32983
33005
33044
33055
32988
32875
32830
32847
32871
32869
32834
32807
32852
32956
33015
32982
32974
33068
33126
33071
33012
32975
32983
33037
33000
32935
32826
32772
32811
32855
32865
32794
32781
32751
32775
32815
32876
32954
32939
32901
32993
33012
32961
32815
32769
32807
32750
32655
32716
32747
32724
32662
32644
32741
32839
32911
32887
32815
32900
32935
32862
32825
32908
32899
32757
32771
32764
32709
32612
32615
32699
32641
32637
32746
32699
32793
32865
32828
32854
32941
32927
32863
32937
32818
32762
32761
32789
32686
32623
32665
32713
32712
32666
32689
32785
32855
32903
32871
32843
32916
32966
32871
32835
32855
32855
32795
32685
32534
32444
32391
32309
32142
31913
31732
31562
31420
31349
31319
31316
31335
31340
31365
31462
31653
31916
32167
32431
32692
33079
33577
34180
34728
35191
35641
36247
36830
37438
38071
38894
39720
40495
40982
41209
41215
40887
40132
39251
38266
36982
35385
33797
32316
31153
30380
30029
30069
30404
30978
31628
32263
32827
33250
33493
33628
33633
33617
33556
33564
33572
33596
33706
33815
33927
33933
33862
33761
33662
33571
33495
33391
33287
33183
33030
32903
32716
32597
32490
32375
32300
32255
32173
32118
32069
32015
31971
31971
31985
32029
32065
32091
32135
32116
32059
32028
31981
31924
31876
31875
31877
31901
31916
31916
31934
31935
31978
32038
32092
32154
32198
32231
32209
32220
32191
32132
32099
32078
32042
32015
32007
32003
32031
32041
32063
32109
32191
32245
32247
32263
32281
32263
32224
32234
32260
32263
32276
32263
32216
32149
32128
32110
32142
32188
32223
32275
32290
32303
32315
32356
32375
32417
32412
32416
32361
32328
32317
32314
32285
32257
32244
32219
32215
32226
32224
32249
32294
32347
32376
32413
32439
32391
32385
32379
32375
32349
32308
32287
32271
32246
32236
32233
32255
32289
32311
32325
32326
32364
32385
32369
32380
32363
32365
32349
32337
32311
32263
32241
32199
32188
32197
32172
32185
32189
32225
32236
32263
32274
32297
32286
32298
32284
32253
32244
32226
32183
32143
32122
32142
32100
32026
31972
31962
31971
32007
32044
32079
32077
32101
32090
32096
32119
32164
32126
32068
32020
32001
31977
31966
31912
31870
31846
31841
31838
31871
31915
31959
31975
32031
32068
32062
32064
32061
32075
32081
32065
32025
32018
31996
31974
31940
31902
31897
31932
31942
31974
32022
32055
32088
32167
32224
32244
32222
32212
32212
32192
32175
32164
32167
32140
32173
32199
32199
32194
32218
32294
32327
32391
32445
32498
32508
32519
32541
32518
32527
32517
32519
32519
32488
32478
32461
32460
32487
32535
32596
32624
32682
32761
32787
32807
32836
32849
32857
32827
32812
32810
32807
32767
32741
32769
32757
32737
32718
32771
32841
32897
32916
32925
32913
32924
32935
32948
32979
32977
32957
32927
32869
32857
32835
32815
32828
32790
32775
32786
32850
32919
32940
32973
32980
32991
33036
33053
33031
33039
33047
33032
33005
32985
32935
32898
32873
32871
32867
32861
32847
32887
32932
32951
32999
33031
33077
33102
33106
33063
33095
33096
33050
32999
32992
32982
32941
33013
33012
32966
32927
32919
32967
32980
33031
33078
33106
33119
33099
33106
33086
33052
32983
32975
32966
32957
32950
32945
32909
32950
32970
32999
33050
33062
33093
33128
33135
33146
33134
33124
33107
33091
33063
33022
32974
32918
32897
32935
32967
32974
32958
33012
33087
33097
33159
33206
33250
33303
33247
33174
33172
33172
33142
33093
33028
32983
32967
32972
33029
33012
32982
33083
33115
33117
33093
33119
33179
33219
33215
33149
33151
33171
33096
33002
32967
32975
32987
32981
32956
32919
32897
32965
33018
33036
33044
33045
33073
33138
33165
33146
33137
33055
32999
32934
32926
32909
32903
32836
32866
32923
32863
32868
32916
33021
33044
33007
33068
33111
33121
33099
33061
32996
32959
32942
32942
32924
32900
32893
32852
32820
32831
32903
32972
32993
32952
32983
33047
33108
33094
33005
32970
32996
32991
32967
32877
32857
32863
32901
32898
32874
32898
32959
33039
33077
33063
33075
33126
33160
33167
33141
33061
32997
33010
33031
32957
32913
32938
32975
32919
32871
32885
32934
33004
33054
33114
33141
33127
33118
33127
33144
33143
33110
33080
32997
32935
32921
32948
32941
32973
33004
32985
33007
33053
33052
33103
33129
33143
33115
33127
33095
33099
33129
33099
33022
32981
32957
32983
32983
32927
32913
32916
32980
33031
33007
33022
33083
33130
33152
33113
33082
33062
33063
33057
33019
32965
32891
32882
32879
32864
32870
32868
32876
32877
32892
32925
32982
32991
32949
32994
32980
32988
32947
32903
32847
32829
32820
32831
32852
32869
32865
32831
32835
32907
32956
33007
33031
33022
33056
33135
33154
33135
33098
33129
33141
33151
33127
33079
33052
33069
33097
33125
33119
33135
33193
33245
33223
33236
33247
33300
33323
33287
33218
33177
33172
33180
33132
33018
32986
33002
33039
33076
33079
33118
33167
33191
33204
33189
33167
33164
33186
33191
33149
33059
33011
32966
32964
32950
32944
32917
32910
32938
32967
33027
33052
33042
33031
33070
33143
33127
33130
33055
32996
33039
32999
32943
32917
32882
32887
32915
32943
32951
32956
32971
33025
33092
33139
33151
33141
33130
33159
33159
33114
33071
32999
32955
32967
32949
32886
32877
32908
32973
32994
32979
32985
33046
33106
33148
33158
33141
33124
33117
33076
33050
32998
32967
32951
32930
32927
32900
32892
32859
32775
32670
32551
32405
32192
31943
31689
31485
31341
31263
31204
31156
31117
31079
31104
31220
31462
31751
32052
32343
32766
33373
34079
34722
35230
35789
36724
37676
38452
39244
40221
41298
42389
43116
43302
43277
43255
42817
42087
41073
40000
38919
37406
35644
34220
32991
32236
32103
32318
32724
33215
33735
34095
34264
34332
34303
34301
34330
34428
34505
34507
34580
34698
34757
34647
34494
34359
34193
33983
33778
33575
33402
33250
33085
32918
32751
32640
32556
32479
32418
32351
32279
32225
32202
32167
32149
32138
32135
32135
32125
32101
32086
32075
32063
32034
32006
31994
32007
32029
32066
32093
32133
32183
32239
32283
32280
32327
32372
32355
32317
32296
32293
32287
32263
32236
32212
32204
32226
32232
32269
32324
32348
32395
32434
32462
32517
32532
32518
32508
32503
32489
32474
32436
32407
32371
32388
32391
32399
32415
32431
32437
32480
32533
32550
32581
32619
32621
32591
32558
32526
32535
32494
32454
32421
32442
32412
32393
32375
32399
32423
32445
32487
32534
32580
32589
32626
32613
32612
32614
32594
32564
32558
32545
32486
32461
32438
32433
32391
32381
32394
32425
32465
32491
32482
32497
32529
32552
32524
32465
32453
32421
32384
32324
32294
32244
32230
32180
32153
32132
32145
32144
32181
32211
32229
32260
32252
32216
32181
32157
32111
32050
32023
31990
31920
31860
31847
31820
31785
31719
31716
31743
31741
31740
31764
31815
31804
31765
31726
31718
31748
31711
31628
31557
31550
31540
31491
31424
31372
31400
31423
31483
31513
31513
31533
31543
31578
31577
31610
31608
31609
31588
31556
31531
31521
31511
31440
31418
31401
31438
31487
31551
31585
31607
31629
31657
31687
31732
31764
31763
31738
31743
31757
31737
31741
31751
31783
31775
31771
31807
31879
31982
32078
32143
32231
32306
32391
32450
32513
32565
32611
32628
32622
32627
32639
32636
32637
32652
32684
32724
32808
32853
32903
32965
33015
33043
33057
33113
33175
33220
33200
33206
33210
33196
33209
33196
33207
33185
33169
33188
33241
33335
33374
33383
33415
33455
33504
33493
33472
33500
33525
33532
33469
33445
33381
33371
33356
33348
33325
33319
33375
33400
33402
33404
33439
33524
33583
33591
33575
33530
33511
33511
33462
33388
33335
33311
33331
33311
33308
33326
33310
33326
33368
33433
33468
33497
33509
33484
33470
33479
33477
33470
33444
33397
33330
33319
33318
33334
33335
33327
33313
33317
33343
33404
33458
33450
33457
33479
33526
33526
33477
33420
33407
33430
33415
33345
33303
33303
33287
33317
33341
33342
33365
33415
33476
33500
33505
33543
33557
33575
33543
33502
33466
33436
33433
33420
33381
33320
33348
33399
33439
33468
33480
33468
33507
33543
33598
33607
33559
33578
33620
33601
33549
33469
33456
33450
33451
33415
33397
33383
33383
33418
33462
33484
33503
33505
33559
33604
33609
33607
33519
33472
33461
33445
33434
33409
33375
33359
33343
33357
33375
33412
33490
33516
33516
33535
33564
33574
33577
33601
33599
33508
33456
33437
33415
33397
33378
33340
33341
33355
33399
33452
33473
33479
33511
33543
33551
33564
33575
33575
33575
33571
33532
33447
33412
33406
33419
33436
33421
33415
33435
33460
33485
33495
33519
33551
33556
33575
33591
33569
33565
33543
33503
33494
33452
33422
33393
33399
33391
33348
33382
33431
33465
33511
33527
33535
33557
33573
33592
33612
33587
33523
33463
33444
33439
33423
33394
33366
33356
33351
33423
33467
33508
33510
33498
33532
33553
33598
33613
33605
33574
33500
33460
33413
33415
33398
33383
33359
33353
33325
33321
33372
33414
33461
33467
33468
33503
33541
33542
33529
33495
33431
33383
33375
33340
33314
33279
33253
33226
33271
33311
33345
33391
33417
33479
33508
33472
33431
33405
33392
33404
33380
33318
33277
33252
33224
33183
33132
33096
33100
33127
33145
33162
33175
33191
33212
33254
33268
33299
33287
33255
33262
33262
33229
33223
33191
33138
33108
33116
33097
33113
33140
33149
33205
33193
33218
33267
33314
33356
33377
33367
33351
33361
33377
33369
33372
33372
33318
33277
33270
33322
33373
33415
33405
33415
33453
33495
33530
33577
33503
33444
33426
33422
33411
33367
33318
33302
33287
33295
33327
33324
33358
33389
33408
33454
33473
33467
33441
33407
33406
33405
33371
33319
33305
33275
33252
33205
33147
33124
33142
33167
33210
33215
33242
33285
33308
33326
33331
33316
33325
33321
33277
33199
33204
33185
33159
33159
33088
33068
33063
33111
33133
33195
33220
33211
33255
33287
33279
33282
33262
33244
33235
33180
33135
33081
33056
33023
33004
33012
33051
33071
33079
33132
33159
33220
33220
33207
33191
33213
33195
33157
33145
33142
33105
33044
33004
32975
32924
32876
32775
32617
32500
32371
32191
31967
31703
31473
31277
31156
31098
31117
31076
30979
30913
30935
31111
31333
31631
31962
32340
32919
33615
34183
34807
35565
36519
37567
38443
39355
40500
41913
43156
44089
44612
44900
45020
44711
44108
43383
42572
41599
40250
38657
36839
35076
33791
33124
32999
33225
33622
34000
34296
34446
34477
34405
34344
34289
34311
34351
34388
34383
34371
34362
34280
34119
33905
33708
33495
33271
33109
32946
32829
32644
32480
32342
32188
32042
31893
31742
31647
31580
31551
31511
31463
31438
31472
31583
31580
31575
31532
31523
31501
31500
31482
31468
31427
31375
31380
31407
31455
31484
31505
31487
31501
31572
31629
31686
31719
31724
31716
31714
31679
31685
31690
31663
31636
31602
31580
31564
31610
31647
31652
31683
31710
31799
31845
31868
31911
31893
31876
31895
31862
31833
31829
31841
31801
31733
31724
31791
31821
31776
31784
31799
31845
31943
31938
31941
31959
32039
32040
31996
31954
31877
31868
31853
31839
31799
31751
31719
31763
31821
31814
31855
31866
31903
31975
32021
32007
31996
32026
31996
31974
31956
31939
31879
31841
31806
31787
31796
31803
31804
31807
31775
31780
31846
31931
31949
31927
31911
31863
31805
31813
31793
31767
31710
31663
31599
31577
31594
31556
31569
31567
31542
31599
31654
31687
31674
31628
31580
31623
31565
31480
31479
31473
31382
31311
31223
31177
31189
31222
31205
31178
31172
31172
31225
31239
31255
31238
31206
31140
31170
31165
31100
31007
30965
30999
30922
30864
30829
30884
30904
30919
30921
30920
31011
31045
31044
31033
30991
31059
31081
31047
30997
30935
30940
30949
30949
30910
30886
30981
31014
31021
31050
31159
31167
31218
31207
31300
31387
31367
31339
31404
31407
31389
31391
31351
31356
31447
31519
31542
31597
31647
31765
31879
32006
32095
32140
32238
32286
32353
32415
32412
32388
32405
32418
32443
32469
32493
32516
32600
32668
32713
32735
32807
32876
32926
32983
33025
33079
33105
33131
33132
33126
33092
33066
33047
33054
33031
33066
33093
33119
33164
33214
33253
33279
33287
33356
33383
33382
33359
33349
33339
33311
33256
33216
33178
33151
33111
33118
33161
33207
33237
33187
33204
33234
33253
33287
33285
33286
33278
33265
33270
33284
33205
33143
33078
33061
33039
33044
33031
33046
33073
33105
33156
33195
33255
33279
33238
33249
33239
33186
33151
33139
33135
33103
33075
33029
33005
33010
33039
33038
33077
33121
33121
33188
33223
33196
33210
33252
33252
33244
33209
33191
33170
33138
33115
33053
33041
33095
33079
33084
33106
33183
33235
33262
33317
33342
33333
33319
33310
33287
33258
33238
33189
33151
33136
33100
33087
33071
33095
33123
33173
33191
33178
33228
33268
33287
33319
33324
33342
33308
33273
33263
33243
33206
33167
33132
33123
33114
33113
33114
33157
33222
33234
33252
33268
33277
33287
33325
33326
33316
33309
33268
33239
33206
33180
33145
33158
33167
33161
33199
33243
33230
33295
33318
33337
33366
33352
33359
33343
33361
33332
33281
33253
33206
33146
33130
33122
33090
33082
33121
33140
33159
33207
33271
33301
33300
33331
33324
33304
33302
33280
33244
33204
33149
33111
33103
33095
33103
33156
33143
33127
33127
33183
33222
33254
33259
33239
33232
33228
33210
33202
33167
33098
33031
33007
33005
32978
32977
32980
32965
32988
33024
33086
33133
33154
33171
33143
33173
33215
33191
33143
33067
33031
32982
32958
32971
32947
32906
32892
32900
32931
32970
32985
32997
33046
33071
33093
33092
33063
33027
33044
33039
33020
32980
32924
32884
32854
32827
32827
32845
32871
32925
32969
32996
33023
33030
33029
33021
32985
32966
32953
32954
32943
32905
32855
32820
32823
32810
32807
32838
32864
32886
32916
32927
32975
32999
32981
32991
32983
32958
32916
32865
32837
32839
32828
32820
32771
32741
32741
32782
32820
32819
32834
32848
32838
32877
32849
32822
32793
32764
32790
32747
32696
32660
32655
32635
32644
32629
32615
32638
32693
32729
32744
32759
32789
32788
32825
32831
32827
32804
32767
32754
32762
32797
32797
32766
32758
32807
32821
32851
32897
32921
32940
32969
32981
33015
33055
33044
32982
32981
32970
32956
32929
32881
32855
32860
32836
32805
32782
32789
32823
32855
32871
32916
32969
33006
33014
33038
33031
32991
32959
32871
32804
32763
32748
32671
32676
32663
32699
32719
32751
32788
32765
32791
32878
32891
32894
32903
32894
32828
32837
32795
32740
32716
32695
32644
32623
32613
32583
32642
32696
32721
32740
32775
32845
32871
32900
32868
32847
32795
32767
32740
32732
32703
32684
32647
32631
32615
32621
32641
32647
32697
32753
32770
32836
32866
32858
32839
32817
32807
32809
32805
32802
32765
32687
32636
32625
32639
32668
32687
32701
32699
32671
32684
32655
32607
32495
32348
32167
31958
31660
31332
31046
30874
30814
30715
30675
30647
30551
30663
30859
31088
31366
31708
32073
32484
32977
33603
34171
34749
35335
35956
36637
37428
38374
39377
40388
41455
42395
42983
43382
43455
43172
42842
42236
41385
40110
38673
37110
35388
33799
32679
32156
32151
32421
32863
33351
33733
33981
34080
34131
34132
34068
34077
34158
34237
34279
34291
34236
34102
33941
33736
33500
33259
33030
32805
32641
32469
32389
32309
32183
32123
32007
31943
31904
31829
31729
31646
31622
31580
31530
31444
31381
31407
31389
31330
31295
31312
31359
31363
31331
31411
31474
31468
31476
31488
31580
31605
31553
31525
31490
31492
31538
31495
31444
31405
31389
31353
31421
31466
31495
31481
31572
31650
31668
31662
31663
31731
31745
31708
31656
31608
31592
31621
31647
31598
31565
31532
31494
31524
31615
31699
31727
31762
31801
31811
31833
31799
31804
31812
31726
31757
31700
31619
31596
31637
31655
31610
31583
31594
31607
31641
31727
31764
31750
31773
31744
31791
31846
31791
31719
31676
31721
31744
31687
31605
31543
31525
31583
31650
31652
31655
31651
31650
31681
31763
31822
31853
31828
31786
31742
31666
31655
31646
31623
31562
31511
31457
31444
31534
31597
31637
31646
31662
31655
31677
31735
31781
31732
31700
31611
31540
31542
31494
31501
31447
31399
31335
31290
31320
31407
31390
31371
31326
31396
31495
31441
31431
31367
31399
31401
31381
31309
31229
31150
31091
31141
31169
31141
31127
31126
31140
31105
31104
31135
31226
31287
31279
31279
31198
31190
31213
31124
31023
31035
31077
31071
31061
31022
31038
31070
31031
31109
31223
31281
31296
31290
31279
31258
31215
31270
31314
31307
31275
31271
31211
31183
31181
31293
31332
31356
31408
31463
31597
31733
31769
31785
31803
31826
31852
31889
31951
31924
31943
31963
31971
31982
32076
32183
32221
32297
32327
32373
32490
32562
32606
32658
32664
32676
32709
32740
32742
32759
32736
32702
32686
32721
32775
32818
32877
32928
32992
33055
33092
33132
33179
33223
33245
33270
33286
33261
33230
33163
33131
33134
33123
33091
33037
33045
33073
33126
33146
33190
33218
33239
33269
33286
33269
33238
33199
33151
33127
33126
33095
33031
33004
33007
33046
33071
33069
33080
33128
33164
33172
33192
33246
33313
33285
33263
33226
33196
33159
33181
33175
33148
33127
33087
33047
33094
33121
33117
33109
33127
33218
33244
33287
33314
33311
33311
33333
33351
33360
33350
33361
33371
33413
33407
33425
33415
33422
33477
33553
33594
33632
33678
33729
33777
33807
33853
33836
33821
33850
33857
33836
33841
33831
33812
33807
33838
33887
33935
33996
34050
34086
34112
34183
34223
34247
34311
34350
34326
34301
34247
34245
34251
34271
34259
34271
34288
34327
34361
34420
34455
34471
34513
34531
34574
34586
34576
34589
34533
34509
34498
34492
34481
34446
34443
34423
34443
34501
34532
34585
34607
34623
34641
34692
34721
34716
34679
34653
34644
34594
34556
34567
34567
34519
34478
34502
34543
34543
34546
34567
34628
34668
34692
34703
34743
34732
34727
34732
34711
34665
34639
34635
34586
34517
34482
34452
34469
34508
34535
34551
34550
34593
34655
34708
34673
34653
34652
34673
34630
34599
34567
34533
34482
34438
34375
34348
34330
34363
34378
34396
34405
34423
34471
34518
34526
34530
34526
34495
34460
34449
34438
34348
34305
34269
34239
34228
34220
34225
34247
34271
34286
34342
34384
34447
34448
34442
34399
34373
34359
34304
34260
34213
34168
34125
34113
34098
34104
34149
34161
34159
34167
34204
34186
34198
34205
34221
34225
34236
34246
34196
34133
34079
34009
33994
34000
33958
33940
33934
33946
34004
34020
34063
34036
34037
34063
34086
34052
34020
33975
33937
33919
33900
33839
33782
33730
33716
33703
33748
33783
33784
33824
33863
33893
33912
33903
33895
33874
33855
33828
33783
33721
33688
33642
33607
33583
33564
33577
33610
33631
33650
33692
33700
33731
33739
33781
33748
33748
33743
33671
33621
33588
33494
33445
33412
33382
33375
33346
33348
33351
33388
33492
33561
33620
33671
33692
33741
33739
33735
33725
33709
33647
33608
33606
33546
33505
33519
33528
33535
33581
33591
33610
33610
33615
33600
33611
33644
33620
33604
33618
33588
33526
33511
33456
33425
33391
33366
33337
33305
33270
33313
33309
33284
33270
33364
33403
33367
33320
33366
33367
33319
33234
33159
33166
33180
33108
33065
33055
33057
33125
33222
33196
33194
33210
33204
33183
33211
33238
33215
33172
33148
33108
33076
33031
32983
33007
33016
32998
32984
32993
33009
33087
33119
33122
33108
33110
33143
33156
33132
33084
33012
32980
33021
33003
32949
32868
32805
32767
32832
32847
32843
32855
32850
32871
32880
32909
32941
32951
32922
32861
32759
32668
32609
32455
32261
32015
31751
31459
31287
31228
31167
31169
31239
31212
31173
31207
31380
31591
31927
32254
32501
32775
33139
33639
34201
34711
35127
35580
36242
36927
37572
38359
39313
40135
40788
41197
41311
41268
40991
40421
39575
38372
36977
35452
33823
32320
31139
30414
30222
30345
30780
31312
31910
32543
33084
33383
33525
33596
33543
33485
33463
33458
33479
33551
33609
33671
33729
33639
33519
33407
33256
33145
33052
32945
32829
32734
32609
32548
32504
32358
32188
32135
32071
31917
31751
31556
31451
31423
31422
31463
31523
31525
31535
31535
31544
31543
31580
31631
31676
31695
31630
31583
31503
31483
31463
31525
31508
31485
31470
31468
31457
31541
31644
31663
31655
31633
31631
31657
31719
31727
31691
31639
31580
31497
31549
31573
31528
31539
31559
31571
31546
31607
31719
31751
31791
31777
31751
31709
31692
31713
31715
31693
31660
31608
31577
31547
31558
31632
31646
31642
31647
31695
31695
31706
31732
31767
31780
31788
31818
31812
31847
31780
31713
31645
31601
31576
31638
31675
31717
31726
31727
31733
31725
31820
31874
31860
31823
31821
31774
31804
31810
31806
31744
31686
31623
31581
31590
31655
31656
31650
31615
31711
31773
31774
31797
31805
31772
31818
31859
31804
31761
31663
31699
31701
31654
31605
31567
31511
31569
31585
31591
31547
31503
31673
31610
31535
31590
31610
31574
31494
31453
31395
31395
31437
31417
31337
31277
31249
31270
31335
31359
31341
31335
31312
31327
31401
31461
31479
31421
31380
31287
31283
31331
31316
31249
31207
31179
31164
31247
31288
31271
31248
31223
31356
31387
31367
31332
31399
31295
31335
31387
31328
31238
31132
31108
31183
31209
31182
31206
31201
31212
31321
31399
31446
31459
31428
31415
31429
31400
31378
31463
31479
31463
31479
31412
31380
31381
31462
31551
31592
31615
31629
31610
31713
31815
31807
31787
31750
31795
31842
31847
31844
31751
31712
31698
31666
31623
31703
31810
31813
31823
31847
31927
32002
32092
32134
32119
32113
32087
32124
32162
32135
32077
32031
31993
31981
31990
32023
32127
32148
32198
32237
32233
32239
32263
32348
32386
32353
32302
32319
32358
32301
32182
32161
32180
32205
32160
32124
32095
32168
32289
32349
32358
32332
32326
32339
32356
32415
32402
32420
32399
32338
32287
32263
32251
32279
32281
32292
32295
32249
32218
32227
32303
32391
32470
32500
32455
32469
32473
32454
32417
32354
32340
32361
32364
32391
32374
32333
32324
32322
32358
32432
32483
32471
32473
32464
32474
32493
32510
32519
32519
32511
32492
32484
32463
32422
32407
32390
32391
32380
32426
32533
32573
32556
32535
32532
32527
32562
32564
32584
32581
32604
32551
32502
32479
32463
32479
32518
32524
32548
32593
32599
32600
32607
32591
32587
32596
32622
32615
32634
32650
32611
32547
32472
32482
32462
32410
32424
32479
32482
32511
32557
32615
32589
32652
32707
32702
32671
32628
32612
32635
32647
32636
32582
32529
32494
32447
32489
32551
32552
32573
32587
32607
32615
32678
32740
32735
32708
32674
32647
32626
32636
32620
32564
32546
32511
32431
32418
32428
32519
32574
32599
32611
32646
32665
32678
32686
32687
32646
32597
32579
32565
32519
32513
32518
32495
32516
32487
32466
32457
32503
32597
32655
32678
32687
32682
32717
32703
32655
32639
32622
32651
32588
32535
32501
32451
32415
32431
32486
32510
32543
32575
32538
32637
32684
32636
32709
32689
32605
32646
32644
32607
32554
32490
32481
32457
32420
32429
32462
32455
32508
32569
32605
32695
32697
32682
32679
32660
32638
32589
32574
32556
32519
32481
32472
32503
32474
32463
32489
32476
32517
32543
32551
32590
32660
32724
32756
32755
32693
32652
32583
32535
32481
32495
32519
32524
32489
32480
32458
32522
32569
32643
32671
32648
32639
32642
32644
32629
32599
32604
32616
32628
32603
32573
32511
32481
32444
32425
32397
32380
32390
32426
32473
32556
32584
32594
32603
32585
32593
32530
32508
32519
32463
32470
32452
32408
32375
32377
32334
32382
32421
32491
32511
32518
32518
32524
32519
32553
32590
32615
32594
32509
32455
32390
32430
32503
32541
32588
32607
32623
32607
32603
32647
32694
32756
32775
32797
32787
32747
32713
32674
32645
32662
32627
32591
32543
32539
32509
32508
32517
32556
32595
32642
32695
32740
32735
32703
32683
32630
32599
32583
32579
32575
32558
32541
32486
32445
32436
32397
32421
32503
32563
32580
32614
32617
32607
32623
32647
32641
32618
32612
32612
32596
32553
32545
32490
32453
32421
32407
32452
32496
32525
32588
32643
32661
32701
32692
32668
32652
32633
32611
32575
32556
32538
32509
32527
32496
32479
32476
32506
32519
32546
32565
32623
32710
32703
32676
32660
32642
32576
32567
32542
32551
32567
32492
32423
32460
32500
32463
32381
32287
32183
32084
31991
31780
31540
31269
31063
31006
30974
31015
30950
30879
30817
30886
31100
31452
31751
32015
32313
32791
33351
33959
34531
34999
35487
36139
36846
37457
38138
39053
39868
40567
41097
41303
41295
40934
40274
39417
38443
37244
35777
34262
32852
31725
30953
30622
30711
31042
31541
32209
32733
33124
33386
33519
33535
33528
33543
33542
33575
33652
33799
33937
34047
34055
33991
33914
33763
33603
33422
33242
33095
32924
32788
32663
32562
32429
32326
32263
32156
32070
32016
31970
31927
31860
31839
31797
31822
31783
31766
31735
31712
31637
31581
31562
31583
31644
31677
31674
31693
31703
31718
31751
31815
31886
31938
31959
31941
31921
31942
31879
31827
31875
31871
31839
31825
31801
31814
31809
31804
31830
31887
31967
32075
32099
32100
32084
32101
32100
32042
31984
31983
32044
32017
31980
31959
31919
31895
31937
31988
32021
32023
32019
32007
32031
32079
32078
32105
32095
32097
32078
32064
32034
32028
32060
32023
31987
31999
32023
32108
32142
32156
32181
32215
32218
32217
32229
32236
32229
32219
32189
32141
32111
32060
32007
31974
32006
32068
32060
32066
32102
32125
32114
32133
32168
32196
32199
32218
32247
32283
32250
32199
32142
32089
32055
32045
32054
32051
32055
32071
32083
32093
32113
32116
32125
32119
32123
32087
32020
31967
31925
31895
31943
31919
31876
31798
31743
31690
31684
31691
31751
31794
31815
31815
31812
31793
31783
31735
31697
31673
31652
31674
31639
31623
31588
31567
31562
31565
31566
31565
31544
31558
31548
31594
31612
31629
31629
31608
31639
31640
31679
31686
31631
31583
31532
31463
31420
31458
31543
31582
31604
31645
31684
31719
31751
31783
31775
31807
31769
31717
31716
31693
31690
31687
31698
31665
31655
31682
31759
31776
31848
31906
31973
32058
32129
32164
32187
32201
32215
32229
32286
32301
32297
32293
32263
32239
32244
32244
32234
32290
32388
32475
32506
32551
32609
32671
32702
32692
32694
32695
32693
32679
32639
32646
32629
32602
32615
32623
32668
32695
32742
32806
32873
32941
32985
32999
33013
33001
32999
33015
32986
32968
32935
32892
32834
32837
32831
32849
32852
32866
32863
32901
32956
33007
33018
33038
33093
33101
33095
33068
33055
32995
32988
32959
32942
32900
32895
32915
32927
32938
32950
32996
33027
33042
33065
33109
33116
33111
33084
33079
33081
33058
33030
33000
32984
32965
32928
32903
32889
32929
32948
32966
33013
33063
33113
33140
33129
33149
33161
33151
33142
33097
33063
33023
32959
32925
32897
32906
32919
32933
32969
33012
33047
33096
33135
33131
33133
33133
33106
33063
33040
33052
33022
32999
33013
32981
32948
32934
32935
32972
33006
33051
33103
33137
33132
33141
33111
33092
33091
33055
33052
33023
32977
32927
32879
32847
32863
32863
32918
32964
33009
33051
33079
33095
33086
33102
33092
33100
33115
33123
33076
33041
33013
33010
32974
32937
32906
32894
32885
32928
32953
33036
33084
33087
33099
33108
33133
33135
33119
33145
33126
33031
33023
32983
32930
32946
32914
32879
32865
32897
32967
32998
32997
33019
33047
33051
33063
33079
33069
33052
33031
32996
32934
32876
32835
32850
32863
32883
32866
32847
32857
32900
32952
32989
33022
33057
33071
33066
33072
33053
33017
32966
32955
32903
32877
32836
32835
32832
32831
32846
32855
32879
32951
32967
32996
33016
33020
33015
33041
33031
33023
32994
32954
32909
32868
32836
32834
32807
32839
32847
32885
32919
32908
32964
32980
32970
32997
33031
33034
33052
33013
32980
32953
32917
32902
32903
32892
32878
32881
32895
32935
32976
32980
33000
33042
33066
33069
33069
33095
33079
33039
33012
32987
32943
32919
32891
32872
32865
32868
32886
32903
32930
32975
33012
33031
33050
33025
33014
32992
33016
33013
32982
32930
32890
32871
32860
32855
32887
32895
32903
32917
32920
32929
32956
32996
33039
33022
33012
33009
33012
33027
32985
32953
32916
32903
32915
32873
32842
32859
32850
32872
32908
32910
32933
32923
32903
32892
32903
32892
32862
32846
32823
32818
32784
32783
32759
32741
32756
32722
32724
32724
32743
32774
32804
32823
32839
32876
32897
32845
32816
32775
32774
32765
32788
32812
32849
32868
32891
32907
32911
32938
32981
32998
33031
33098
33127
33103
33109
33082
33047
33039
33029
33004
32958
32894
32865
32863
32873
32893
32916
32942
32966
32972
33007
33070
33116
33070
33024
33011
32964
32931
32920
32908
32857
32804
32748
32725
32705
32695
32713
32743
32743
32775
32820
32861
32871
32867
32877
32863
32851
32868
32837
32823
32802
32759
32711
32679
32670
32649
32633
32643
32693
32751
32795
32823
32844
32852
32863
32863
32828
32794
32772
32752
32740
32709
32683
32645
32655
32681
32697
32695
32719
32749
32793
32814
32799
32830
32846
32832
32817
32811
32775
32737
32648
32623
32575
32567
32586
32526
32438
32327
32212
32064
31910
31698
31444
31231
31052
30882
30786
30755
30719
30591
30518
30525
30695
31015
31310
31573
31898
32377
33069
33660
34271
34983
35847
36757
37650
38551
39541
40692
41793
42685
43233
43662
43969
43930
43444
42681
41776
40788
39652
38149
36404
34690
33390
32695
32535
32725
33135
33555
33867
34022
34113
34143
34084
34026
34049
34120
34173
34254
34303
34278
34239
34079
33873
33671
33456
33268
33057
32851
32689
32490
32343
32203
32026
31927
31856
31732
31631
31533
31438
31395
31438
31462
31478
31457
31437
31422
31407
31380
31334
31298
31341
31380
31404
31380
31343
31348
31349
31380
31428
31439
31499
31564
31623
31644
31655
31655
31660
31620
31615
31594
31559
31489
31527
31559
31572
31575
31565
31591
31620
31639
31716
31807
31815
31836
31816
31792
31772
31742
31721
31700
31717
31724
31703
31690
31670
31663
31665
31703
31745
31779
31827
31867
31923
31914
31854
31871
31900
31935
31893
31837
31820
31797
31724
31746
31796
31796
31813
31813
31802
31823
31876
31919
31943
31940
31960
31942
31957
31929
31923
31859
31802
31771
31730
31708
31721
31773
31818
31828
31799
31778
31799
31838
31893
31898
31905
31879
31841
31828
31794
31750
31700
31694
31692
31690
31655
31636
31629
31615
31606
31654
31686
31715
31709
31684
31639
31583
31526
31538
31566
31471
31370
31391
31381
31324
31272
31201
31199
31207
31268
31244
31246
31238
31218
31234
31233
31187
31133
31102
31121
31095
31067
30997
30932
30905
30883
30860
30867
30934
30999
31047
31059
31038
31031
31105
31133
31102
31057
31039
31053
31078
31023
31007
30970
30928
30911
30886
30950
31034
31064
31068
31110
31122
31163
31198
31262
31303
31319
31317
31310
31309
31313
31282
31287
31341
31392
31476
31533
31626
31701
31775
31845
31921
32018
32089
32164
32192
32231
32279
32337
32381
32406
32426
32426
32446
32471
32519
32586
32638
32711
32793
32852
32940
32992
33043
33071
33091
33127
33145
33152
33178
33183
33160
33159
33151
33158
33197
33230
33284
33332
33389
33431
33444
33455
33498
33522
33535
33505
33495
33490
33463
33438
33391
33369
33334
33327
33327
33351
33378
33379
33396
33439
33463
33491
33495
33493
33487
33483
33450
33439
33414
33365
33287
33254
33249
33270
33278
33309
33314
33327
33357
33388
33413
33412
33415
33407
33399
33411
33379
33341
33324
33306
33252
33216
33209
33198
33207
33219
33234
33269
33287
33338
33364
33377
33382
33360
33367
33340
33313
33302
33274
33217
33182
33156
33148
33124
33155
33159
33169
33197
33255
33319
33316
33306
33302
33287
33326
33335
33300
33250
33222
33174
33143
33092
33084
33090
33088
33150
33186
33223
33233
33257
33277
33308
33325
33343
33350
33338
33319
33265
33226
33213
33175
33135
33142
33127
33121
33111
33119
33174
33190
33223
33230
33229
33245
33246
33265
33273
33255
33234
33201
33161
33136
33118
33087
33075
33077
33059
33079
33098
33116
33164
33205
33222
33237
33247
33235
33199
33176
33175
33159
33132
33101
33088
33067
33079
33059
33062
33094
33117
33154
33167
33207
33223
33233
33223
33215
33207
33190
33167
33143
33127
33097
33055
33030
33028
33047
33047
33093
33148
33173
33204
33204
33213
33255
33263
33251
33227
33217
33182
33145
33104
33076
33031
33018
33007
33028
33015
33059
33073
33127
33186
33259
33247
33245
33234
33215
33221
33207
33191
33180
33139
33109
33055
33026
32993
33013
33052
33084
33115
33142
33171
33181
33183
33188
33180
33172
33156
33127
33132
33076
33029
32986
32969
32958
32948
32957
32975
32985
33021
33063
33099
33127
33117
33143
33169
33175
33136
33090
33057
33027
32975
32949
32920
32914
32900
32905
32941
32970
32977
33025
33047
33077
33112
33121
33116
33117
33100
33084
33047
33006
32964
32941
32899
32879
32884
32893
32905
32941
33003
33023
33063
33079
33097
33107
33111
33091
33075
33045
33029
32994
32950
32914
32911
32911
32903
32861
32870
32889
32887
32931
32958
32967
32958
32964
32946
32937
32900
32884
32865
32836
32809
32807
32788
32775
32768
32775
32788
32786
32815
32832
32853
32886
32932
32981
32998
32967
32962
32932
32895
32842
32823
32828
32855
32839
32855
32894
32913
32967
32990
33019
33081
33100
33120
33133
33139
33156
33157
33092
33045
33001
32954
32933
32913
32903
32893
32902
32887
32915
32965
33009
33022
33057
33121
33117
33084
33071
33007
32970
32925
32892
32842
32813
32797
32765
32743
32716
32708
32744
32775
32778
32812
32815
32840
32873
32887
32893
32876
32879
32837
32822
32769
32749
32708
32703
32654
32647
32662
32679
32703
32737
32783
32784
32793
32823
32841
32839
32834
32783
32743
32725
32698
32679
32689
32682
32668
32664
32677
32700
32713
32735
32762
32799
32834
32868
32885
32839
32801
32764
32735
32727
32740
32730
32711
32652
32639
32624
32633
32639
32615
32558
32463
32338
32200
32004
31725
31411
31175
30958
30735
30755
30727
30657
30540
30495
30554
30735
31063
31399
31719
32155
32690
33346
33982
34606
35260
36044
36900
37777
38779
39933
41220
42462
43246
43818
44417
44698
44606
44141
43622
42935
41975
40537
38863
37086
35332
33924
33101
32849
32972
33298
33629
33908
34097
34252
34218
34113
34066
34117
34220
34325
34380
34311
34253
34212
34071
33831
33604
33361
33119
32919
32705
32524
32327
32166
32049
31975
31887
31790
31685
31579
31530
31506
31476
31455
31423
31388
31345
31323
31303
31316
31309
31290
31253
31257
31287
31239
31220
31284
31325
31359
31398
31433
31471
31487
31521
31523
31504
31495
31463
31493
31477
31523
31487
31429
31417
31430
31452
31489
31508
31543
31591
31680
31735
31792
31794
31791
31780
31774
31742
31734
31692
31644
31599
31575
31590
31630
31679
31695
31716
31742
31761
31797
31810
31803
31792
31799
31813
31823
31804
31800
31786
31764
31721
31693
31694
31719
31711
31749
31795
31823
31834
31863
31914
31943
31933
31919
31935
31909
31879
31852
31805
31767
31741
31716
31710
31695
31738
31777
31829
31857
31874
31892
31908
31911
31927
31908
31887
31849
31809
31782
31748
31719
31663
31626
31605
31580
31591
31611
31637
31622
31643
31665
31693
31690
31727
31710
31679
31625
31567
31513
31440
31402
31340
31279
31229
31215
31217
31250
31253
31236
31253
31236
31215
31217
31215
31239
31201
31162
31127
31085
31052
31010
30945
30901
30871
30901
30919
30900
30914
30911
30960
31015
31061
31079
31067
31038
31046
31036
31023
31040
30982
30946
30916
30886
30921
30927
30946
30973
31026
31073
31092
31133
31171
31199
31239
31262
31276
31268
31270
31261
31239
31212
31230
31252
31260
31295
31335
31415
31500
31579
31648
31728
31815
31893
31961
32047
32095
32135
32167
32183
32224
32241
32279
32320
32383
32439
32484
32555
32622
32669
32711
32796
32869
32935
32962
32987
33015
33012
33030
33053
33039
33023
33028
33049
33044
33066
33140
33188
33227
33280
33295
33319
33337
33373
33404
33436
33431
33421
33397
33354
33334
33287
33259
33201
33148
33166
33194
33233
33300
33345
33380
33342
33335
33364
33406
33410
33415
33386
33347
33308
33276
33239
33182
33164
33149
33182
33215
33239
33303
33332
33318
33343
33364
33391
33415
33400
33384
33359
33307
33274
33254
33258
33221
33223
33192
33179
33191
33239
33318
33302
33268
33317
33372
33427
33442
33412
33379
33375
33361
33335
33319
33317
33296
33237
33208
33218
33272
33322
33363
33366
33372
33389
33435
33428
33471
33501
33487
33391
33348
33382
33375
33375
33335
33255
33236
33257
33311
33302
33319
33350
33388
33431
33479
33487
33461
33424
33413
33383
33369
33337
33327
33303
33300
33307
33309
33302
33287
33263
33283
33307
33355
33369
33384
33405
33428
33479
33484
33454
33439
33420
33326
33260
33239
33240
33259
33256
33275
33281
33331
33349
33325
33347
33364
33415
33433
33433
33426
33415
33398
33373
33316
33230
33159
33143
33158
33190
33247
33263
33287
33287
33301
33319
33359
33391
33388
33367
33313
33281
33242
33223
33207
33205
33198
33172
33094
33107
33103
33127
33154
33167
33223
33273
33279
33245
33313
33322
33217
33238
33252
33255
33217
33180
33123
33047
33023
33024
33085
33126
33183
33226
33220
33191
33213
33250
33272
33268
33218
33183
33190
33197
33178
33114
33030
32999
33004
32998
33025
33055
33095
33161
33183
33191
33175
33170
33180
33174
33150
33151
33156
33173
33143
33097
33079
33068
33046
33012
33013
33046
33061
33104
33156
33169
33195
33168
33165
33172
33158
33147
33111
33086
33066
33040
32996
32972
32953
32939
32930
32960
33009
33062
33102
33138
33190
33182
33159
33156
33148
33139
33126
33066
33042
33002
32983
32980
32919
32895
32879
32907
32956
32998
33084
33114
33061
33053
33094
33088
33088
33068
33079
33007
32980
32957
32919
32871
32839
32855
32892
32935
32967
32977
32988
32991
32991
33022
33051
33068
33062
33005
32950
32967
32958
32894
32815
32775
32757
32788
32846
32855
32869
32870
32884
32893
32941
32972
32999
33024
32970
32924
32869
32876
32875
32810
32734
32748
32727
32738
32727
32757
32798
32789
32791
32829
32876
32893
32924
32950
32991
32995
32892
32836
32812
32822
32834
32839
32851
32871
32869
32879
32915
32996
33055
33164
33226
33282
33277
33259
33167
33103
33077
33049
33005
33009
32975
32958
32943
32965
32968
32968
33003
33018
33062
33092
33095
33106
33098
33053
33022
33003
32991
32940
32912
32861
32822
32785
32786
32817
32833
32869
32857
32871
32880
32911
32959
33007
33011
33028
32989
32966
32942
32925
32884
32827
32768
32757
32737
32711
32731
32772
32807
32839
32875
32870
32903
32935
32967
32908
32895
32932
32933
32910
32846
32773
32724
32707
32699
32722
32755
32759
32754
32775
32838
32866
32879
32885
32903
32953
32961
32947
32917
32882
32863
32796
32752
32694
32647
32659
32670
32677
32667
32615
32537
32423
32281
32097
31849
31572
31303
31076
30919
30871
30823
30762
30694
30614
30677
30860
31173
31518
31827
32156
32604
33229
33935
34596
35214
35927
36673
37498
38241
39258
40401
41564
42639
43342
43805
44117
44091
43615
42951
42375
41430
40092
38343
36567
35032
33656
32827
32586
32730
33097
33548
33926
34140
34197
34121
34078
34047
34057
34151
34237
34281
34327
34331
34230
34061
33839
33591
33355
33138
32957
32775
32608
32431
32277
32135
32027
31957
31860
31748
31644
31560
31502
31465
31423
31380
31398
31374
31340
31324
31311
31272
31239
31215
31210
31219
31247
31279
31286
31289
31350
31412
31442
31459
31484
31495
31527
31529
31517
31495
31503
31476
31460
31405
31359
31343
31375
31392
31434
31468
31522
31572
31563
31591
31647
31685
31676
31663
31653
31655
31657
31655
31607
31559
31564
31561
31540
31567
31591
31644
31706
31759
31791
31797
31852
31879
31868
31877
31857
31837
31806
31796
31783
31775
31792
31796
31782
31804
31815
31865
31893
31950
31994
32005
32002
32023
32060
32060
32039
31967
31910
31879
31872
31831
31804
31773
31788
31813
31831
31847
31894
31935
31975
31967
31954
31965
31959
31943
31934
31917
31908
31874
31831
31788
31759
31743
31743
31748
31780
31751
31766
31819
31853
31868
31839
31795
31780
31781
31743
31693
31658
31634
31582
31517
31475
31455
31446
31444
31435
31429
31432
31426
31414
31431
31424
31423
31422
31389
31354
31317
31289
31239
31165
31139
31102
31074
31066
31066
31049
31081
31129
31180
31215
31238
31228
31205
31193
31173
31135
31110
31111
31085
31069
31050
31033
31057
31053
31036
31030
31049
31103
31159
31190
31216
31260
31301
31335
31348
31339
31320
31335
31335
31303
31293
31294
31299
31342
31388
31426
31474
31557
31624
31701
31794
31882
31922
31940
31991
32041
32082
32115
32160
32202
32217
32250
32239
32287
32354
32406
32487
32578
32663
32743
32810
32839
32820
32849
32916
32964
32954
32942
32930
32913
32914
32918
32871
32898
32951
32995
33066
33158
33191
33205
33223
33241
33239
33283
33332
33342
33342
33227
33156
33191
33229
33198
33148
33139
33170
33225
33260
33323
33319
33303
33272
33287
33349
33351
33304
33287
33311
33324
33316
33281
33262
33232
33191
33154
33175
33231
33244
33275
33339
33381
33397
33389
33322
33295
33300
33301
33287
33287
33231
33237
33263
33228
33127
33110
33137
33159
33191
33231
33287
33358
33400
33416
33412
33383
33330
33307
33351
33337
33308
33281
33271
33235
33229
33252
33255
33319
33336
33351
33373
33383
33358
33348
33408
33453
33464
33480
33453
33425
33387
33379
33252
33191
33199
33185
33177
33228
33281
33319
33372
33439
33351
33469
33474
33378
33364
33342
33343
33340
33329
33317
33276
33214
33148
33110
33111
33173
33218
33303
33383
33379
33369
33401
33503
33596
33584
33415
33311
33287
33262
33221
33190
33192
33186
33199
33221
33254
33246
33227
33237
33261
33319
33394
33483
33479
33460
33432
33324
33279
33215
33165
33137
33094
33108
33174
33236
33215
33167
33181
33214
33271
33341
33391
33372
33261
33265
33308
33313
33285
33212
33167
33153
33137
33146
33191
33191
33157
33180
33191
33255
33324
33319
33221
33275
33359
33308
33199
33205
33212
33151
33058
33028
32992
33041
33047
32996
32974
33060
33045
33038
33172
33092
33166
33122
33087
33167
33080
33159
33126
33005
33047
33127
33126
33018
32940
32991
33095
33145
33127
33103
33104
33139
33174
33214
33217
33151
33119
33140
33125
33088
33015
32980
32950
32970
33015
33042
33084
33127
33164
33168
33194
33183
33185
33179
33235
33287
33241
33223
33207
33151
33125
33044
32957
32917
32925
32951
32981
33021
33071
33116
33122
33108
33114
33135
33188
33191
33175
33165
33158
33087
32996
32923
32871
32876
32894
32865
32861
32909
32940
32962
32980
33023
33052
33068
33031
33036
33055
33047
33029
33011
32967
32898
32891
32898
32916
32933
32923
32926
32932
32924
32939
32937
32955
33004
33055
33060
33029
32959
32891
32860
32865
32879
32897
32901
32933
32875
32830
32827
32847
32940
32999
32948
32909
32895
32911
32929
32928
32912
32903
32887
32879
32875
32847
32828
32860
32832
32797
32784
32831
32824
32853
32866
32859
32895
32935
32965
32938
32894
32899
32868
32855
32871
32863
32841
32849
32830
32863
32899
32908
32971
33043
33107
33182
33190
33191
33204
33199
33181
33109
33029
32957
32916
32895
32911
32909
32904
32895
32948
32979
32994
32998
32933
32910
32893
32887
32891
32841
32828
32770
32755
32751
32716
32684
32647
32631
32629
32657
32679
32707
32770
32783
32818
32863
32892
32894
32895
32910
32916
32860
32804
32760
32685
32631
32643
32619
32623
32647
32663
32687
32743
32728
32732
32750
32791
32798
32793
32773
32748
32716
32694
32698
32687
32673
32685
32667
32697
32716
32743
32746
32750
32799
32834
32855
32879
32857
32852
32834
32810
32773
32686
32639
32601
32661
32660
32608
32591
32543
32471
32386
32312
32172
31982
31778
31570
31404
31285
31238
31213
31231
31220
31167
31167
31252
31495
31839
32139
32390
32748
33221
33775
34355
34927
35391
35912
36615
37176
37807
38580
39431
40253
40863
41166
41340
41318
40993
40451
39705
38636
37373
35877
34367
32955
31879
31195
31007
31211
31652
32191
32694
33133
33466
33674
33748
33799
33779
33765
33767
33813
33921
34068
34215
34282
34237
34163
34019
33858
33665
33455
33287
33191
32957
32804
32686
32581
32455
32373
32321
32276
32213
32166
32124
32071
32007
31998
31963
31926
31905
31876
31846
31814
31799
31768
31747
31759
31782
31799
31810
31862
31932
31956
31973
31981
31991
32002
32006
32034
31990
31983
31986
31965
31945
31927
31947
31947
31994
32023
32090
32134
32121
32135
32157
32212
32239
32249
32239
32251
32239
32194
32153
32167
32119
32074
32053
32063
32132
32135
32165
32142
32161
32152
32204
32235
32262
32301
32329
32375
32391
32349
32291
32221
32191
32173
32190
32196
32213
32241
32260
32282
32303
32359
32391
32403
32431
32422
32421
32415
32452
32439
32422
32383
32318
32244
32248
32247
32293
32313
32319
32359
32349
32364
32423
32459
32462
32420
32391
32352
32345
32365
32325
32300
32235
32179
32126
32081
32079
32111
32098
32091
32113
32135
32167
32186
32215
32215
32255
32263
32263
32163
32076
32099
32051
32055
32004
31981
31946
31955
31942
31972
31996
31975
31995
31990
32007
32023
31965
31937
31919
31887
31868
31839
31825
31740
31676
31676
31658
31636
31676
31701
31745
31831
31860
31887
31878
31877
31826
31819
31799
31727
31711
31695
31657
31607
31586
31564
31583
31623
31658
31694
31705
31749
31796
31818
31860
31893
31916
31912
31917
31919
31884
31828
31780
31741
31719
31759
31786
31823
31825
31879
31938
32025
32092
32154
32197
32261
32279
32287
32284
32303
32303
32303
32325
32321
32366
32380
32389
32382
32423
32442
32425
32471
32524
32551
32604
32670
32756
32745
32712
32673
32687
32647
32620
32647
32694
32743
32804
32807
32791
32774
32831
32813
32800
32855
32895
32921
32914
32935
32967
32958
32919
32867
32842
32799
32733
32691
32674
32685
32728
32805
32868
32957
32980
33026
33055
33039
33031
32953
32870
32840
32821
32818
32799
32793
32807
32836
32871
32916
32900
32919
32996
32967
32967
33014
33066
33077
33050
33031
33048
33060
33039
33017
32986
32941
32892
32864
32852
32885
32906
32954
33031
33068
33111
33136
33143
33111
33083
33103
33132
33126
33105
33125
33126
33121
33092
32980
32932
32939
32959
33031
33120
33177
33180
33124
33145
33174
33229
33251
33262
33233
33212
33084
33020
33055
33084
33050
32999
32975
32993
33018
33084
33190
33220
33250
33277
33293
33316
33199
33149
33148
33146
33182
33127
33060
32940
32892
32913
32977
33069
33120
33186
33255
33268
33219
33189
33199
33156
33141
33143
33104
33127
33135
33122
33021
32970
32940
32941
32900
32931
32988
33012
33086
33156
33185
33214
33250
33247
33263
33237
33191
33165
33127
33080
33079
33058
33004
32937
32934
32915
32925
33001
33085
33127
33189
33194
33173
33090
33084
33172
33173
33127
33066
33055
32986
32920
32915
32898
32943
32981
33056
33167
33177
33116
33083
33091
33127
33164
33183
33175
33094
33071
32983
32935
32952
32979
32943
32951
32941
32869
32919
32999
33114
33180
33163
33135
33186
33157
33145
33118
33120
33100
33050
33015
32996
32951
32875
32849
32894
32964
33017
33055
33091
33150
33167
33171
33142
33137
33135
33091
32986
32926
32900
32863
32868
32839
32844
32845
32876
32923
32981
33039
33040
33061
33063
33031
32998
32992
32961
32991
32990
32962
32921
32859
32829
32839
32841
32863
32849
32805
32806
32834
32903
33004
33039
33031
33068
33068
33095
33110
33031
32916
32847
32850
32900
32892
32902
32919
32863
32844
32899
33025
32932
32967
33023
33078
33083
33021
32999
33030
33006
33028
32996
32945
32901
32804
32757
32732
32802
32853
32877
32916
32892
32871
32840
32908
32959
33009
33031
32974
32919
32910
32991
33031
32998
32908
32892
32916
32969
33004
33081
33156
33098
33118
33187
33255
33300
33299
33274
33217
33183
33151
33072
32989
32959
32900
32923
32960
33050
33119
33119
33049
33098
33207
33060
33045
33035
33022
33015
33007
33038
33055
32967
32868
32801
32791
32836
32903
32886
32843
32835
32891
32956
33004
33019
33049
33062
33068
33051
32967
32879
32860
32817
32785
32768
32756
32817
32789
32709
32682
32715
32783
32860
32917
32954
32974
32970
32943
32866
32806
32747
32708
32701
32679
32700
32684
32719
32735
32684
32675
32677
32729
32789
32887
32919
32972
32994
32916
32898
32876
32861
32839
32793
32719
32622
32581
32581
32542
32527
32452
32403
32327
32149
31959
31701
31471
31319
31239
31191
31164
31119
31097
31101
31201
31391
31668
31967
32220
32524
32965
33471
34086
34679
35172
35671
36326
36853
37351
37958
38779
39495
40268
40657
40806
40703
40281
39415
38501
37527
36268
34892
33516
32160
31117
30479
30275
30404
30783
31341
31943
32506
33031
33347
33477
33507
33479
33439
33414
33455
33543
33735
33911
34103
34156
34111
33960
33807
33684
33590
33434
33308
33191
33066
32889
32774
32652
32537
32459
32386
32300
32220
32177
32175
32071
31983
31975
31983
32036
32053
32074
32052
32006
31932
31874
31860
31870
31842
31833
31847
31897
31965
32002
32031
32071
32071
32066
32062
32038
32007
32018
32018
32034
32007
32007
31977
31961
31959
31953
31949
31959
31961
31993
32028
32048
32102
32139
32165
32180
32197
32196
32155
32118
32068
32061
32058
32045
32049
32046
32062
32065
32066
32095
32133
32185
32215
32238
32310
32314
32231
32167
32119
32062
32034
32027
32007
32015
32031
32039
32023
32031
32096
32138
32179
32219
32244
32262
32284
32259
32220
32199
32197
32137
32164
32133
32060
32042
31998
31994
32024
32039
32116
32196
32262
32270
32229
32212
32195
32185
32167
32171
32159
32156
32111
32043
31999
31974
31979
31925
31932
31967
31991
32026
32076
32109
32080
32071
32074
32071
32103
32117
32068
32038
31995
31966
31911
31823
31772
31719
31715
31719
31748
31751
31782
31801
31847
31891
31902
31908
31866
31799
31744
31711
31690
31639
31590
31583
31599
31631
31597
31582
31591
31636
31644
31694
31747
31790
31767
31743
31723
31695
31671
31663
31636
31613
31568
31546
31549
31548
31553
31588
31612
31629
31676
31662
31650
31679
31679
31719
31711
31729
31729
31724
31719
31751
31745
31701
31676
31676
31699
31759
31812
31850
31922
32004
32077
32124
32118
32151
32167
32175
32183
32127
32103
32059
32028
32047
32023
32050
32092
32142
32182
32263
32342
32367
32381
32453
32495
32525
32463
32456
32421
32437
32447
32444
32423
32407
32391
32374
32388
32391
32447
32497
32564
32607
32653
32711
32749
32775
32788
32759
32695
32611
32575
32585
32646
32669
32632
32599
32575
32637
32708
32785
32865
32932
32947
32940
32964
32967
32969
32926
32830
32790
32764
32735
32732
32743
32764
32799
32820
32785
32769
32839
32918
33007
33081
33103
33071
33015
32972
32950
32967
33031
33026
32982
32886
32831
32807
32780
32812
32844
32925
32993
33019
33049
33012
32998
33047
33093
33127
33114
33092
33019
32986
32931
32895
32852
32797
32803
32894
32919
32973
33029
33063
32993
33044
33153
33097
33029
33122
33158
33065
32986
33015
32978
32971
32958
32924
32924
32926
32964
33028
33058
33044
33009
32985
32988
33027
33095
33137
33125
33041
33001
32967
32927
32900
32884
32863
32887
32925
32973
33037
33092
33124
33095
33122
33103
33073
33063
33099
33092
33094
33093
33103
33085
32994
32886
32857
32853
32911
32962
33025
33068
33039
33031
32996
32999
33028
33073
33132
33129
33100
33045
33007
32903
32851
32859
32903
32969
33008
32982
32925
32924
32978
33023
33084
33159
33148
33114
33005
32946
32922
32922
32927
32902
32865
32822
32761
32727
32757
32846
32918
32959
32922
32934
32939
32964
32990
33044
33077
33022
33009
32985
32951
32887
32820
32787
32760
32823
32848
32891
32898
32903
32879
32890
32897
32920
32958
32984
33029
32967
32845
32847
32884
32806
32714
32719
32775
32804
32820
32823
32794
32806
32837
32900
32982
33027
33013
32944
32929
32903
32895
32916
32913
32898
32885
32796
32775
32775
32799
32775
32818
32867
32879
32926
32967
33047
33039
33051
33007
32943
32912
32865
32813
32789
32746
32754
32808
32834
32790
32775
32772
32794
32855
32936
33014
33071
33060
32977
32961
32919
32888
32893
32871
32878
32863
32857
32847
32839
32824
32773
32767
32806
32863
32903
32956
32979
32988
33014
33012
33019
32986
32900
32868
32838
32842
32837
32834
32846
32793
32737
32704
32736
32775
32810
32850
32886
32903
32871
32858
32814
32807
32802
32803
32767
32775
32775
32774
32772
32768
32751
32756
32744
32725
32731
32772
32832
32890
32919
32925
32937
32892
32893
32903
32874
32832
32824
32815
32831
32860
32876
32890
32919
32945
32941
32988
33069
33098
33107
33095
33089
33059
33028
32998
32959
32901
32901
32850
32841
32884
32959
33004
33012
32974
32974
33031
33068
33066
33076
33031
33004
32982
32942
32925
32875
32869
32875
32852
32852
32838
32852
32852
32838
32817
32873
32876
32861
32911
32919
32919
32900
32901
32860
32832
32845
32829
32815
32814
32836
32830
32806
32767
32791
32832
32903
32977
33031
33070
33051
33003
32983
32923
32876
32878
32862
32852
32835
32812
32763
32743
32748
32775
32873
32903
32950
32978
32958
32871
32953
32994
32879
32916
32925
32782
32871
32791
32731
32799
32807
32770
32773
32737
32693
32623
32554
32435
32280
32037
31764
31505
31287
31145
31082
31097
31078
31030
30967
31022
31211
31452
31716
32011
32396
32922
33574
34156
34722
35238
35924
36596
37228
37968
39007
40093
41124
41863
42191
42308
42267
42119
41574
40815
39998
38982
37718
36244
34678
33252
32150
31620
31652
31974
32473
33026
33469
33727
33812
33875
33820
33799
33886
34018
34175
34327
34468
34590
34625
34504
34347
34135
33902
33679
33452
33228
33031
32879
32742
32583
32484
32404
32347
32283
32192
32112
32058
32010
31975
31926
31897
31863
31831
31784
31775
31751
31767
31730
31696
31703
31733
31751
31808
31852
31862
31847
31861
31918
31948
31966
31991
31991
31999
31993
31997
31967
31903
31879
31876
31884
31906
31903
31911
31907
31941
31975
32007
32051
32090
32098
32108
32111
32107
32105
32052
31983
31969
31958
31938
31930
31948
31980
32047
32061
32040
32046
32055
32085
32156
32167
32195
32186
32180
32129
32060
32005
32006
31999
31998
31994
31980
31968
31951
31954
32031
32100
32175
32166
32178
32197
32233
32231
32169
32113
32108
32083
32051
32043
32042
32028
32035
32021
32059
32055
32054
32080
32100
32140
32167
32176
32179
32159
32134
32116
32100
32052
32007
31955
31932
31879
31839
31824
31820
31844
31870
31888
31916
31965
32023
32031
32007
31980
31927
31887
31861
31810
31768
31727
31646
31655
31650
31622
31591
31604
31655
31684
31706
31687
31665
31636
31604
31593
31564
31546
31548
31495
31436
31404
31366
31342
31325
31300
31267
31278
31332
31364
31402
31420
31436
31444
31449
31435
31422
31383
31367
31334
31300
31244
31207
31191
31225
31246
31267
31282
31343
31361
31381
31420
31469
31478
31488
31497
31518
31534
31527
31481
31444
31431
31439
31484
31521
31580
31671
31727
31780
31839
31937
32005
32047
32079
32132
32160
32200
32236
32239
32263
32279
32324
32367
32333
32307
32330
32407
32485
32558
32644
32692
32737
32783
32806
32775
32773
32790
32789
32807
32838
32859
32890
32918
32911
32922
32937
32927
32984
32999
33049
33092
33147
33180
33199
33205
33214
33279
33303
33293
33274
33219
33178
33183
33206
33198
33241
33255
33204
33207
33217
33259
33333
33393
33451
33449
33407
33348
33286
33213
33184
33138
33108
33147
33158
33174
33191
33124
33116
33149
33197
33243
33287
33354
33402
33378
33346
33316
33225
33191
33177
33166
33179
33143
33116
33121
33101
33113
33127
33146
33139
33156
33212
33322
33287
33222
33205
33189
33235
33241
33207
33160
33087
33018
32980
33030
33067
33126
33173
33158
33153
33164
33211
33248
33277
33295
33312
33323
33281
33253
33180
33124
33076
33125
33159
33167
33143
33167
33137
33150
33196
33239
33296
33359
33398
33392
33267
33277
33319
33324
33185
33191
33249
33227
33177
33132
33124
33164
33180
33183
33198
33227
33286
33335
33400
33426
33399
33385
33354
33287
33175
33090
33063
33044
33063
33065
33039
33053
33075
33090
33145
33223
33271
33334
33350
33388
33383
33381
33351
33343
33287
33219
33159
33094
33060
33071
33054
33064
33069
33088
33126
33170
33182
33189
33220
33217
33226
33180
33166
33133
33104
33056
33031
32998
33001
33012
33021
33013
33031
33050
33103
33176
33199
33223
33239
33199
33184
33182
33159
33135
33065
33068
33090
33090
33053
33047
33031
33020
33047
33031
33009
33015
33031
33050
33056
33059
33048
33047
33004
32943
32902
32895
32895
32893
32917
32921
32945
32956
32991
33044
33082
33132
33164
33168
33172
33154
33109
33085
33031
32982
32930
32884
32879
32916
32935
32947
32959
32963
32972
32987
32976
33017
33021
33043
33060
33079
33063
33086
33071
33060
33028
32967
32933
32876
32810
32863
32929
32959
32988
32967
32939
32941
32979
33004
33047
33108
33129
33113
33098
33064
33020
32975
32959
32924
32894
32824
32834
32813
32837
32856
32892
32954
33015
33053
33093
33119
33131
33063
32972
32934
32884
32859
32826
32791
32783
32804
32799
32809
32838
32846
32889
32908
32926
32946
32926
32916
32881
32887
32907
32931
32911
32863
32836
32813
32805
32825
32810
32815
32791
32807
32820
32839
32895
32935
32943
32959
32952
32954
32973
32959
32951
32940
32908
32893
32903
32967
33061
33096
33100
33139
33219
33242
33233
33237
33263
33271
33239
33191
33180
33152
33093
33070
33047
33028
32994
33015
32989
33004
32959
32935
33022
33092
33100
33090
33076
33063
33029
32961
32916
32898
32887
32877
32878
32869
32845
32863
32895
32898
32921
32949
32986
33020
33028
32972
32942
32911
32922
32903
32881
32854
32835
32808
32775
32746
32733
32709
32714
32755
32809
32876
32917
32948
32999
33007
33022
32975
32901
32886
32947
32954
32932
32827
32787
32725
32700
32706
32703
32710
32757
32800
32823
32890
32927
32985
33013
33027
33047
32987
32852
32811
32801
32767
32731
32651
32486
32314
32116
31945
31714
31463
31239
31102
31026
31013
31019
30989
30935
30923
31022
31213
31452
31669
31882
32214
32708
33311
33895
34487
35231
36039
36898
37774
38724
39814
41017
42157
42980
43431
43712
43783
43508
42919
42151
41293
40253
38838
37268
35521
33839
32582
31968
31999
32327
32804
33270
33636
33876
33927
33908
33870
33871
33908
33979
34100
34092
34119
34127
34111
34001
33863
33686
33520
33359
33191
33036
32895
32743
32617
32487
32343
32213
32066
31935
31820
31740
31647
31563
31551
31556
31590
31617
31646
31706
31758
31780
31784
31833
31836
31797
31740
31703
31668
31655
31639
31643
31635
31655
31689
31709
31740
31783
31826
31876
31902
31927
31925
31920
31890
31885
31867
31845
31834
31807
31767
31751
31765
31784
31807
31818
31831
31879
31931
31965
31997
31999
32020
32015
31999
31956
31935
31919
31882
31863
31863
31828
31818
31800
31846
31887
31924
31964
31965
31980
31971
31978
31957
31955
31959
31930
31908
31904
31916
31849
31807
31798
31812
31793
31783
31806
31818
31863
31881
31906
31932
31985
32017
32038
32007
31935
31901
31851
31792
31775
31767
31748
31719
31759
31839
31847
31879
31889
31921
31924
31940
31996
31963
31939
31888
31855
31853
31818
31751
31670
31631
31599
31567
31566
31562
31572
31628
31655
31671
31682
31684
31681
31666
31633
31575
31536
31503
31448
31418
31365
31343
31287
31253
31205
31177
31183
31206
31214
31239
31257
31239
31231
31221
31217
31239
31228
31172
31110
31048
31028
31023
31012
31006
31002
31028
31068
31067
31123
31135
31173
31204
31231
31267
31271
31272
31271
31224
31199
31184
31159
31140
31103
31079
31117
31151
31191
31276
31309
31355
31414
31445
31463
31494
31511
31551
31594
31631
31676
31649
31657
31695
31738
31770
31841
31942
31999
32095
32197
32252
32300
32366
32452
32519
32583
32619
32616
32647
32661
32663
32647
32680
32711
32756
32775
32767
32805
32840
32871
32933
32962
33012
33063
33079
33108
33125
33127
33110
33097
33073
33048
33043
33052
33062
33077
33094
33158
33194
33196
33191
33211
33253
33261
33281
33287
33310
33303
33225
33186
33189
33180
33141
33130
33159
33158
33178
33223
33263
33255
33252
33261
33308
33323
33311
33287
33285
33231
33222
33175
33159
33119
33087
33042
33053
33052
33089
33139
33141
33151
33187
33210
33220
33221
33231
33197
33138
33087
33042
33011
32990
32970
32962
32978
32932
32924
32934
32996
33039
33023
33031
33029
33089
33125
33155
33178
33175
33158
33126
33103
33062
33024
33023
33013
33004
33022
33039
33044
33081
33135
33172
33142
33141
33151
33186
33191
33191
33203
33208
33151
33113
33013
32940
32930
32911
32935
32971
33001
33044
33087
33105
33106
33126
33158
33143
33133
33135
33142
33106
33090
33042
33007
32975
32975
32959
32969
33009
32992
32991
33012
33074
33140
33132
33174
33255
33287
33317
33220
33181
33222
33151
33133
33095
33063
33062
33077
33109
33127
33123
33140
33179
33212
33185
33172
33173
33153
33135
33111
33100
33055
33005
32967
32927
32940
32920
32916
32980
33010
33071
33135
33164
33153
33191
33242
33226
33254
33241
33185
33150
33076
33074
33039
33003
32967
32962
32943
32935
32925
32958
32964
32996
32998
33021
33055
33063
33094
33110
33093
33091
33057
32983
32934
32916
32903
32927
32931
32933
32983
33042
33087
33100
33116
33129
33114
33098
33118
33110
33093
33053
33031
33017
32980
32945
32935
32913
32916
32914
32933
32959
32947
32964
32966
32999
33005
32982
32953
32939
32944
32931
32885
32871
32860
32827
32807
32828
32869
32890
32953
32989
33023
33093
33100
33102
33151
33159
33148
33123
33118
33075
33049
33031
33022
32972
32914
32889
32895
32911
32943
32966
32990
33028
33063
33057
33068
33089
33077
33020
33012
32949
32871
32833
32812
32791
32751
32727
32721
32732
32791
32812
32831
32866
32894
32933
32959
33027
33023
33016
32974
32943
32922
32871
32855
32805
32788
32745
32743
32734
32765
32773
32803
32813
32839
32871
32903
32907
32897
32801
32789
32774
32727
32703
32671
32647
32639
32638
32643
32687
32750
32804
32839
32855
32846
32894
32925
32879
32866
32834
32855
32815
32794
32738
32706
32703
32761
32792
32818
32852
32871
32895
32917
32943
32981
32998
33026
33094
33156
33284
33301
33252
33163
33106
33053
33023
33012
33003
33004
32991
33015
33047
33059
33069
33084
33097
33119
33087
33055
33073
33038
33056
32977
32949
32892
32871
32852
32838
32815
32844
32866
32889
32915
32909
32943
32971
32980
32990
33018
33015
32959
32869
32799
32788
32775
32775
32791
32797
32764
32775
32783
32809
32831
32855
32917
32931
32920
32892
32871
32844
32795
32796
32823
32822
32766
32712
32652
32586
32557
32607
32647
32676
32738
32791
32839
32919
32928
32895
32900
32879
32855
32854
32839
32836
32815
32775
32741
32732
32734
32704
32719
32764
32791
32732
32734
32639
32481
32276
32049
31735
31454
31214
31003
30868
30795
30755
30697
30639
30623
30695
30887
31202
31499
31807
32183
32703
33295
33861
34461
35259
36038
36892
37700
38521
39516
40527
41634
42535
43100
43461
43717
43663
43223
42417
41548
40526
39143
37587
35839
34148
32789
32098
31989
32180
32564
32997
33361
33607
33765
33805
33783
33764
33799
33879
34020
34123
34173
34255
34229
34079
33841
33621
33380
33124
32862
32660
32497
32369
32251
32157
32094
32026
31973
31876
31775
31709
31636
31574
31527
31488
31481
31471
31495
31508
31477
31453
31399
31373
31356
31407
31477
31558
31607
31642
31671
31686
31709
31703
31697
31687
31668
31639
31636
31630
31682
31642
31606
31573
31546
31549
31591
31623
31710
31814
31871
31903
31910
31940
31929
31943
31901
31862
31837
31827
31807
31786
31733
31727
31734
31751
31767
31813
31831
31835
31891
31908
31942
31923
31919
31919
31879
31860
31831
31822
31800
31813
31831
31818
31732
31713
31787
31876
31963
31973
32020
32020
32007
31997
31953
31929
31905
31867
31868
31855
31900
31861
31855
31863
31884
31876
31871
31895
31909
31941
31972
31975
32006
32005
31968
31935
31882
31890
31887
31855
31804
31751
31702
31701
31699
31670
31689
31687
31698
31724
31759
31796
31767
31747
31725
31679
31644
31607
31575
31586
31527
31468
31422
31383
31361
31359
31358
31364
31375
31368
31370
31404
31420
31445
31415
31391
31390
31400
31360
31263
31155
31087
31070
31044
31079
31124
31133
31146
31158
31177
31239
31233
31255
31244
31230
31223
31205
31191
31189
31151
31109
31079
31087
31044
31071
31057
31053
31090
31146
31183
31215
31271
31300
31295
31282
31239
31249
31284
31293
31278
31261
31271
31256
31295
31331
31351
31406
31471
31524
31599
31679
31822
31916
31978
32028
32063
32103
32157
32183
32196
32211
32239
32241
32300
32381
32421
32463
32550
32612
32691
32756
32828
32871
32892
32898
32876
32852
32850
32860
32866
32866
32887
32903
32970
33036
33050
33074
33063
33091
33149
33188
33297
33286
33313
33270
33231
33188
33167
33149
33155
33156
33109
33079
33089
33099
33148
33173
33201
33199
33190
33204
33184
33201
33204
33216
33213
33200
33171
33137
33143
33135
33087
33079
33041
33019
32990
33023
33108
33253
33331
33367
33391
33383
33364
33377
33367
33383
33333
33298
33287
33263
33217
33176
33148
33102
33049
33043
33045
33071
33135
33165
33230
33275
33333
33361
33321
33302
33278
33239
33220
33194
33154
33129
33121
33098
33118
33151
33196
33254
33273
33311
33329
33348
33356
33335
33306
33301
33286
33257
33234
33215
33191
33183
33153
33159
33164
33171
33188
33205
33199
33214
33253
33263
33351
33227
33194
33212
33198
33175
33117
33083
33057
33025
33043
33071
33141
33204
33204
33134
33130
33156
33172
33221
33263
33306
33302
33271
33263
33218
33192
33178
33151
33135
33145
33151
33143
33084
33044
33062
33100
33183
33252
33310
33298
33196
33141
33127
33176
33207
33197
33135
33012
32983
32975
32990
32999
33008
33042
33082
33125
33186
33190
33172
33176
33198
33221
33215
33197
33194
33170
33161
33130
32991
32921
32981
33083
33087
32970
33007
33094
33156
33196
33200
33199
33198
33165
33127
33127
33132
33133
33056
32981
32891
32917
32971
32979
32998
33022
33045
33088
33111
33142
33164
33159
33102
33055
33000
32995
32951
32929
32923
32868
32822
32810
32818
32847
32858
32892
32953
33028
33070
33028
33089
33095
33082
33095
33103
33072
33039
33039
33025
32983
32957
32943
32903
32865
32878
32911
32935
32983
33000
32997
32989
32996
32997
33012
33028
33013
32966
32933
32915
32936
32935
32922
32938
32965
33007
33021
33007
33017
33062
33063
33073
33055
33038
33007
33008
33007
32965
32940
32903
32863
32816
32837
32884
32912
32948
32964
33039
33096
33097
33079
33015
32996
32989
32973
32989
33063
33054
33038
32943
32889
32847
32839
32820
32813
32845
32871
32903
32927
32959
33063
33070
33015
32991
32957
32956
32957
32932
32918
32890
32879
32903
32940
32942
32937
32931
32946
32983
32994
32931
32933
32914
32927
32939
32923
32897
32851
32833
32806
32810
32767
32751
32804
32877
32857
32848
32819
32824
32858
32864
32849
32859
32852
32847
32821
32795
32735
32725
32702
32677
32654
32642
32654
32659
32686
32767
32791
32810
32871
32940
32955
32987
33012
33061
33068
33044
33007
32983
32967
33004
32956
32933
32943
32894
32957
32975
32949
32980
32951
32984
33036
33061
33036
32980
32965
32983
32973
32878
32822
32807
32788
32791
32806
32819
32820
32813
32813
32820
32824
32837
32847
32879
32881
32802
32775
32775
32758
32740
32714
32672
32647
32616
32628
32663
32645
32719
32775
32833
32887
32909
32908
32903
32852
32855
32825
32792
32759
32723
32683
32675
32638
32607
32631
32633
32631
32620
32661
32699
32734
32764
32901
32971
32961
32893
32836
32799
32759
32732
32711
32659
32645
32628
32638
32671
32679
32705
32700
32723
32751
32751
32722
32647
32516
32373
32211
31951
31637
31323
31060
30861
30713
30650
30651
30647
30652
30705
30855
31132
31439
31732
32030
32454
33015
33659
34153
34703
35417
36168
36973
37681
38685
39612
40783
41860
42679
43156
43487
43596
43425
42668
41893
41003
39846
38407
36751
35039
33548
32468
32018
32045
32332
32775
33231
33559
33821
33949
33887
33891
33956
34010
34116
34204
34267
34297
34311
34195
34020
33799
33511
33279
33095
32871
32727
32618
32481
32388
32305
32252
32205
32135
32039
31940
31879
31805
31743
31670
31599
31553
31498
31463
31443
31418
31409
31392
31413
31450
31459
31495
31538
31603
31655
31735
31813
31788
31749
31733
31730
31701
31671
31631
31617
31593
31607
31615
31633
31642
31684
31730
31727
31743
31783
31808
31829
31863
31871
31927
31929
31911
31869
31823
31807
31783
31743
31708
31719
31740
31786
31787
31808
31862
31918
31927
31919
31935
31939
31935
31962
31948
31933
31970
31947
31942
31903
31886
31922
31970
31998
32001
31972
31986
32005
32014
32029
32069
32098
32123
32107
32077
32036
31994
31919
31861
31823
31801
31818
31870
31955
31998
32039
32102
32125
32111
32123
32131
32138
32102
32055
32022
31965
31895
31887
31852
31818
31819
31818
31788
31790
31781
31771
31796
31822
31823
31799
31783
31728
31740
31721
31718
31714
31669
31636
31578
31487
31419
31411
31405
31380
31388
31421
31415
31423
31438
31429
31407
31367
31347
31339
31334
31279
31233
31212
31183
31185
31164
31135
31110
31108
31127
31158
31180
31204
31202
31188
31183
31173
31129
31101
31111
31091
31050
31030
31011
31014
31004
31012
31047
31137
31235
31296
31362
31374
31367
31351
31350
31348
31311
31300
31292
31247
31247
31236
31223
31293
31359
31412
31454
31471
31521
31596
31650
31775
31859
31893
31897
31933
31977
31959
31959
31983
32049
32080
32148
32203
32263
32292
32321
32392
32471
32524
32554
32545
32575
32615
32658
32753
32847
32852
32827
32768
32719
32735
32756
32865
32914
32935
32985
33045
33094
33133
33161
33159
33167
33159
33148
33209
33319
33283
33243
33182
33094
33069
33047
33013
33036
33087
33183
33222
33287
33332
33359
33350
33370
33367
33359
33300
33261
33204
33186
33167
33155
33234
33287
33260
33213
33113
33079
33087
33142
33281
33356
33388
33367
33332
33327
33252
33246
33231
33184
33127
33167
33231
33220
33207
33157
33141
33111
33111
33119
33150
33237
33396
33436
33466
33470
33445
33335
33315
33295
33237
33186
33181
33203
33254
33284
33266
33287
33287
33323
33361
33380
33388
33333
33336
33316
33318
33323
33297
33272
33241
33234
33213
33243
33243
33247
33220
33255
33307
33380
33359
33393
33456
33483
33507
33526
33515
33470
33402
33364
33287
33239
33221
33241
33284
33263
33340
33343
33401
33415
33448
33467
33455
33430
33428
33415
33401
33397
33335
33271
33255
33255
33266
33233
33223
33263
33332
33311
33281
33287
33246
33251
33263
33284
33343
33370
33329
33271
33228
33210
33159
33108
33101
33206
33239
33214
33188
33159
33135
33157
33146
33148
33199
33332
33447
33435
33319
33257
33197
33162
33196
33263
33248
33210
33195
33191
33181
33152
33133
33076
33081
33122
33151
33183
33177
33184
33214
33205
33218
33263
33227
33207
33175
33096
33071
33012
33023
33003
33009
33048
33060
33100
33159
33239
33313
33316
33265
33231
33149
33086
33044
33023
33030
33080
33102
33143
33153
33173
33156
33117
33079
33071
33053
33121
33141
33139
33175
33150
33238
33236
33191
33157
33110
33039
32941
32935
32975
32997
32949
32948
32975
32991
33030
33102
33132
33109
33129
33206
33220
33179
33150
33116
33101
33031
33028
33031
33044
33015
32985
32989
32989
33018
33133
33179
33143
33031
33015
33083
33046
33013
32963
32959
32959
32916
32919
32932
32908
32863
32903
32955
32991
33004
33015
33031
33041
32991
32982
32986
32993
32967
32942
32957
32994
32996
32979
32951
32956
32950
32970
33005
33028
33031
33051
33055
33031
33015
33009
33047
33030
33015
33045
32994
32954
32894
32837
32821
32793
32829
32836
32852
32882
32927
32971
32962
32989
32999
32967
32942
32919
32878
32836
32810
32786
32772
32735
32751
32775
32802
32819
32844
32874
32868
32913
32879
32958
32975
32943
32941
32931
32909
32903
32874
32884
32919
32909
32863
32849
32867
32898
32932
32988
33025
33121
33150
33209
33227
33199
33191
33187
33143
33122
33073
33060
33007
32977
32998
32983
32982
33027
33059
33065
33118
33212
33248
33233
33180
33170
33151
33135
33112
33069
33023
33015
32997
32987
32975
32945
32937
32964
32985
32973
32979
33018
33012
33072
33097
33124
33065
33068
33041
32967
32946
32919
32913
32826
32843
32823
32791
32814
32868
32879
32905
32957
32974
32999
33031
32999
32970
32944
32935
32892
32867
32895
32879
32837
32844
32871
32884
32970
32977
33002
33031
33030
33018
33023
32958
32940
32911
32898
32868
32799
32788
32756
32836
32897
32889
32885
32868
32881
32870
32871
32821
32756
32581
32436
32242
31978
31684
31436
31223
31064
30995
30933
30881
30790
30747
30802
30990
31301
31703
32079
32408
32846
33373
33915
34484
35074
35749
36527
37263
37974
38785
39703
40726
41655
42106
42503
42775
42718
42308
41683
40891
39876
38516
36951
35302
33815
32628
31975
31860
32062
32551
33063
33500
33839
34010
34030
33975
33865
33821
33845
33908
34008
34124
34235
34257
34199
34052
33820
33583
33375
33209
32948
32756
32571
32404
32354
32322
32192
32133
32106
32023
31921
31828
31724
31603
31496
31482
31468
31517
31535
31503
31440
31389
31407
31385
31324
31280
31348
31390
31425
31535
31596
31665
31718
31711
31711
31655
31623
31577
31580
31558
31543
31519
31556
31577
31555
31544
31521
31570
31775
31815
31862
31873
31887
31892
31837
31814
31767
31719
31709
31791
31810
31772
31799
31790
31788
31734
31703
31732
31804
31905
31948
32000
32027
32007
31987
31943
31905
31910
31947
31971
31966
31957
31927
31914
31936
31969
31976
32037
32027
32070
32060
32018
32029
32046
32047
32013
32007
31994
31975
31925
31950
32012
32007
32011
32052
32050
32052
32073
32060
32040
32055
32087
32092
32099
32118
32124
32140
32130
32099
32055
32012
31955
31864
31828
31775
31782
31845
31956
31972
32012
32032
32047
32005
31974
31943
31893
31870
31870
31844
31751
31708
31668
31637
31604
31615
31714
31745
31762
31707
31665
31691
31696
31684
31654
31661
31624
31580
31577
31553
31563
31559
31527
31487
31395
31345
31348
31359
31392
31469
31559
31609
31639
31646
31578
31530
31479
31455
31423
31464
31497
31476
31460
31414
31386
31429
31471
31525
31540
31556
31523
31510
31559
31569
31599
31595
31665
31751
31740
31732
31703
31634
31588
31580
31614
31742
31839
31846
31892
31911
31893
31908
31951
32047
32103
32151
32198
32244
32263
32316
32341
32317
32282
32295
32299
32297
32336
32421
32486
32655
32710
32759
32766
32743
32722
32755
32869
32919
32919
32888
32799
32786
32751
32841
32924
32939
32941
32984
33013
32956
33004
33103
33240
33279
33247
33138
33127
33168
33223
33236
33146
33052
32990
32939
32943
33018
33079
33097
33180
33227
33241
33252
33175
33157
33143
33114
33181
33198
33191
33156
33111
33007
32971
32941
32967
33007
33069
33126
33123
33129
33085
33111
33127
33183
33279
33277
33244
33159
33075
33056
33125
33130
33119
33039
32953
32911
32938
32940
33003
33133
33183
33175
33076
33095
33108
33108
33207
33268
33229
33149
33022
32997
32922
32903
33020
33073
33091
33119
33140
33159
33094
33092
33118
33268
33299
33339
33309
33223
33196
33154
33102
33062
33031
33031
33031
33049
33090
33192
33222
33231
33252
33311
33337
33365
33329
33351
33347
33348
33315
33298
33237
33201
33165
33111
33087
33092
33079
33076
33164
33213
33187
33199
33188
33221
33269
33314
33287
33231
33191
33180
33173
33150
33096
33052
33064
33117
33191
33220
33263
33277
33278
33283
33211
33199
33180
33191
33222
33297
33310
33287
33225
33164
33079
32966
32968
32985
32981
32997
33057
33093
33217
33244
33284
33287
33285
33287
33251
33239
33183
33128
33130
33038
33006
33026
32950
32927
32925
32957
33012
33053
33068
33105
33119
33106
33113
33079
33056
33079
33120
33159
33151
33121
33076
32991
32943
32932
32932
32958
32965
32970
33023
33051
33063
33063
33036
33015
33031
33020
33029
33090
33087
32943
32983
32987
32975
32983
33007
33018
33026
33028
33044
33064
33067
33076
33079
33042
33055
33012
32988
32941
32906
32852
32811
32788
32903
32907
32798
32813
32852
32945
33025
33094
33103
33079
32997
32954
32967
33059
33031
32945
32858
32830
32801
32759
32753
32839
32901
32911
32891
32861
32903
33055
33079
33015
32918
32933
32983
33034
33074
33010
32935
32814
32759
32775
32821
32876
32879
32890
32925
32933
32989
33044
33052
33047
32978
32962
32927
32914
32932
32855
32804
32763
32809
32871
32892
32895
32927
32935
32929
32897
32879
32915
32902
32930
32991
33015
33015
33055
33044
33022
33004
32982
32917
32887
32809
32794
32775
32765
32801
32796
32877
32981
33084
33131
33085
33004
32967
32968
32955
32972
32996
32991
32940
32857
32775
32754
32768
32780
32789
32847
32903
32924
32938
32964
32990
32999
33044
33098
33095
33076
33018
32895
32791
32731
32822
32913
32901
32870
32815
32863
32934
32998
33028
32996
33052
33054
33006
33031
33012
32972
32908
32862
32845
32841
32838
32879
32921
32988
33098
33184
33208
33191
33153
33156
33155
33150
33156
33122
33139
33152
33148
33100
33087
33003
32967
32971
32942
32937
33027
33108
33050
32999
32961
32933
32943
33061
33111
33079
32999
32900
32831
32886
32956
32855
32748
32724
32719
32756
32826
32941
33017
33029
33048
33030
32994
32939
32911
32938
32987
32919
32911
32885
32853
32810
32731
32695
32676
32739
32801
32912
32969
32986
32991
32919
32863
32852
32809
32738
32767
32839
32806
32725
32647
32599
32581
32591
32639
32707
32740
32839
32884
32908
32900
32903
32796
32788
32774
32736
32791
32852
32775
32636
32583
32519
32491
32465
32405
32263
32103
31892
31665
31437
31298
31320
31318
31423
31466
31426
31396
31481
31679
31943
32231
32502
32839
33287
33844
34479
35047
35453
35908
36527
37056
37614
38357
39404
40199
40804
41045
40967
40905
40506
39864
39034
37954
36646
35164
33572
32167
31142
30574
30335
30502
30927
31455
32062
32586
33004
33359
33550
33635
33574
33498
33485
33452
33519
33635
33799
33925
34090
34092
34022
33861
33657
33485
33332
33257
33260
33088
32870
32705
32558
32451
32405
32390
32396
32311
32123
32023
32028
32079
32066
32061
31983
31972
31958
31962
31943
32042
32016
31974
31927
31846
31788
31744
31764
31871
31996
32049
32051
32068
32072
32052
32060
32068
32101
32127
32184
32194
32144
32092
32018
31961
31924
31902
31940
32002
32053
32156
32202
32243
32203
32199
32215
32263
32332
32295
32311
32316
32249
32159
32087
32148
32185
32231
32214
32186
32180
32220
32247
32303
32360
32455
32529
32485
32450
32409
32375
32345
32299
32263
32234
32279
32352
32343
32330
32357
32289
32292
32327
32471
32515
32463
32447
32469
32585
32620
32495
32469
32454
32508
32469
32387
32263
32236
32263
32314
32436
32460
32402
32340
32391
32575
32580
32468
32412
32454
32504
32505
32471
32391
32273
32206
32218
32314
32297
32292
32260
32246
32230
32212
32236
32289
32407
32434
32439
32326
32228
32143
32133
32136
32146
32051
31964
31934
31924
31991
32057
32034
31991
31971
31975
32069
32173
32133
32074
32007
31997
31943
31887
31820
31825
31884
31931
31935
31911
31886
31847
31861
31885
31999
32078
32127
32071
32028
31974
31943
32021
32062
32015
31955
31879
31817
31775
31751
31783
31791
31826
31916
31980
32022
32047
32056
32063
32030
32022
32094
32183
32124
32002
31935
31954
32000
31999
31951
31929
31943
32017
32127
32244
32314
32327
32318
32286
32284
32374
32428
32433
32388
32347
32285
32252
32220
32179
32171
32190
32215
32263
32327
32372
32455
32534
32615
32661
32716
32726
32704
32687
32641
32602
32603
32567
32560
32556
32552
32561
32640
32697
32773
32828
32855
32871
32884
32841
32883
32842
32853
32914
32897
32839
32804
32714
32675
32663
32683
32695
32695
32715
32775
32842
32864
32953
32953
32935
32956
32928
32871
32804
32772
32727
32696
32690
32663
32683
32772
32791
32862
32889
32899
32913
32958
33020
33061
33063
33078
33054
32952
32917
32878
32820
32756
32719
32731
32739
32804
32833
32881
32948
32997
33042
33095
33095
33122
33136
33129
33122
33119
33061
32978
32887
32887
32823
32771
32734
32789
32860
32903
32806
32855
32910
32983
33031
33047
33102
33050
32991
32962
32908
32849
32815
32802
32743
32772
32824
32869
32888
32945
33007
33061
33087
33100
33127
33099
33127
33106
33135
33123
33127
33143
33084
33058
33023
32984
32903
32881
32991
33027
33057
33073
33101
33109
33119
33140
33105
33132
33078
33039
32973
32915
32870
32836
32887
32919
32865
32913
32934
32972
33029
33029
33028
33067
33127
33183
33188
33179
33166
33105
33063
32944
32867
32789
32729
32733
32719
32727
32775
32818
32880
33003
33106
33145
33126
33046
33031
33049
33062
33078
33056
33087
33047
32962
32861
32775
32740
32775
32740
32762
32825
32850
32844
32878
32906
32996
33071
33103
33083
33074
33057
33041
32983
32953
32908
32887
32871
32858
32871
32898
32951
32964
32981
32941
32955
32972
33009
32977
33005
32982
32939
32991
32985
32919
32871
32791
32757
32785
32793
32775
32757
32844
33050
33039
32996
32965
32975
32939
32957
32996
33006
32983
32830
32730
32683
32683
32790
32781
32728
32671
32711
32746
32794
32899
33025
33032
33027
33019
32983
32924
32866
32829
32844
32807
32768
32780
32759
32741
32760
32785
32770
32815
32884
32960
33007
33031
33068
33092
33071
33030
33012
32950
32796
32717
32655
32676
32685
32731
32805
32775
32743
32799
32910
32964
33002
33043
33090
33102
33087
33032
32994
32929
32837
32751
32629
32583
32580
32603
32594
32707
32813
32866
32855
32839
32899
32916
32924
32975
33036
33079
33048
33007
32939
32879
32802
32766
32775
32748
32738
32769
32791
32820
32908
32902
32913
32923
32969
33087
33134
33130
33031
32917
32845
32796
32783
32775
32813
32906
32953
32962
32923
32932
32986
33127
33249
33312
33337
33298
33223
33178
33125
33071
32974
32911
32870
32873
32954
32969
32884
32876
32922
33021
33151
33215
33257
33279
33204
33111
33075
33014
32956
32960
32990
33012
32941
32854
32794
32743
32751
32769
32813
32896
33045
33095
33095
33092
33005
32948
32972
33041
33052
32983
32935
32823
32732
32670
32647
32759
32829
32903
32962
33068
33079
33066
33063
32997
32981
33007
33061
33092
33031
32893
32799
32743
32799
32796
32775
32757
32741
32767
32784
32790
32825
32879
32950
33076
33112
33113
33082
33045
32996
32919
32839
32774
32715
32724
32717
32743
32764
32756
32743
32679
32682
32548
32367
32175
31981
31769
31588
31473
31463
31474
31446
31349
31349
31436
31673
31996
32319
32648
33038
33540
34079
34652
35132
35552
36010
36662
37273
37784
38447
39260
39914
40359
40585
40559
40270
39660
38831
37983
37124
35866
34460
33002
31760
30795
30260
30110
30278
30694
31278
31883
32436
32983
33329
33460
33595
33585
33558
33599
33644
33753
33907
34039
34195
34252
34246
34167
34031
33874
33669
33512
33362
33212
33082
32933
32775
32711
32687
32673
32708
32705
32619
32645
32603
32559
32492
32429
32375
32303
32292
32218
32155
32085
32034
32019
31988
31953
31985
32029
32095
32169
32212
32268
32263
32263
32276
32308
32297
32247
32172
32099
32128
32050
32054
31995
32026
32102
32111
32135
32202
32291
32383
32403
32378
32342
32322
32321
32355
32391
32410
32421
32374
32320
32228
32167
32093
32054
32099
32209
32279
32351
32347
32370
32391
32418
32423
32423
32458
32519
32463
32367
32260
32180
32131
32093
32139
32241
32219
32220
32215
32285
32316
32374
32543
32631
32651
32613
32531
32485
32447
32367
32321
32372
32364
32311
32295
32245
32236
32307
32343
32358
32447
32476
32538
32601
32676
32653
32622
32594
32543
32495
32476
32454
32351
32301
32242
32221
32231
32223
32253
32295
32353
32423
32490
32566
32569
32504
32422
32372
32376
32373
32387
32319
32225
32148
32120
32027
32019
32063
32172
32244
32260
32261
32230
32244
32357
32415
32337
32245
32199
32103
32156
32143
32082
31999
31943
31927
31935
31965
32023
32054
32131
32191
32243
32292
32327
32250
32185
32134
32092
32031
31962
31943
31983
31980
31964
31950
31969
32001
32038
32031
32050
32079
32095
32127
32171
32201
32260
32260
32221
32181
32135
32087
31987
31929
31895
31878
31911
31952
31995
32055
32167
32327
32357
32359
32292
32291
32343
32451
32437
32382
32237
32156
32103
32052
32046
32081
32166
32237
32323
32391
32478
32446
32428
32423
32406
32446
32503
32508
32571
32534
32487
32395
32335
32247
32263
32336
32372
32447
32530
32615
32683
32724
32728
32683
32703
32711
32682
32669
32621
32561
32535
32492
32461
32423
32434
32549
32586
32614
32672
32727
32745
32748
32740
32759
32775
32775
32788
32820
32839
32821
32755
32657
32577
32503
32458
32437
32460
32519
32575
32732
32831
32891
32861
32829
32839
32825
32794
32775
32748
32753
32665
32629
32580
32611
32605
32629
32661
32721
32784
32826
32775
32789
32845
32835
32831
32838
32827
32839
32869
32892
32839
32791
32664
32623
32601
32605
32608
32662
32748
32852
32939
33007
33031
33062
33076
33053
32991
32946
32903
32871
32788
32767
32752
32835
32813
32831
32857
32896
32958
32994
33060
33090
33158
33213
33263
33272
33252
33167
33159
33103
32999
32895
32775
32718
32690
32775
32854
32958
32999
32926
32907
32938
32969
33012
33089
33205
33189
33108
33015
32903
32820
32807
32775
32751
32807
32838
32879
32889
32946
32999
33016
32974
33021
33025
33011
33046
33022
32989
32933
32909
32908
32971
32916
32789
32711
32702
32712
32757
32799
32956
33021
33058
33097
33095
33077
33057
33054
33066
33063
33041
32996
32903
32853
32815
32768
32713
32719
32766
32823
32883
32966
33092
33164
33207
33233
33237
33229
33177
33128
33028
32924
32839
32807
32756
32731
32727
32705
32717
32766
32775
32820
32895
32924
32958
32987
32980
32984
32966
32966
32974
32927
32884
32807
32703
32649
32628
32684
32696
32729
32789
32836
32907
33017
33099
33095
33065
33023
32957
32840
32772
32690
32716
32759
32699
32639
32565
32571
32595
32612
32701
32797
32951
32999
32999
32951
32925
32870
32836
32806
32764
32733
32729
32715
32676
32653
32656
32642
32656
32663
32708
32742
32812
32903
32957
32967
32943
32885
32844
32799
32732
32663
32580
32530
32503
32489
32533
32561
32655
32701
32748
32738
32756
32775
32789
32886
33005
32991
32951
32943
32884
32801
32637
32551
32462
32455
32508
32554
32641
32685
32741
32799
32855
32919
32944
32975
32923
32903
32843
32791
32772
32718
32639
32607
32590
32579
32508
32536
32636
32748
32775
32764
32738
32766
32780
32823
32815
32823
32818
32804
32751
32707
32639
32593
32565
32574
32643
32751
32852
32974
32996
32943
32932
32962
32997
33097
33216
33206
33135
33077
32948
32881
32821
32766
32738
32773
32775
32889
32958
32948
32879
32871
32878
32940
33045
33125
33063
32944
32894
32857
32852
32855
32823
32775
32717
32666
32626
32588
32620
32692
32742
32871
32952
33044
33079
33078
33030
32997
32940
32945
32989
32946
32878
32746
32666
32610
32575
32724
32806
32843
32873
32829
32835
32911
33102
33101
33013
32927
32898
32878
32941
32919
32831
32697
32622
32609
32706
32743
32798
32843
32866
32853
32884
33007
33113
33087
33013
32989
32991
32942
32984
32921
32847
32711
32567
32404
32279
32167
32119
32020
31780
31522
31335
31234
31239
31323
31382
31313
31220
31269
31389
31658
31967
32172
32376
32692
33175
33807
34516
35021
35522
36180
36972
37766
38663
39674
40596
41371
41856
41871
41959
41661
41059
40231
39268
38169
36847
35294
33743
32349
31335
30811
30799
31146
31702
32345
32931
33303
33547
33668
33802
33774
33681
33562
33551
33621
33796
34007
34062
34073
33999
33942
33863
33774
33757
33609
33397
33201
33055
32931
32844
32751
32576
32404
32228
32131
31980
31882
31898
31915
31848
31852
31832
31855
31912
31987
32082
32084
32054
32012
31975
31924
31872
31812
31737
31690
31679
31677
31693
31751
31822
31963
32109
32132
32161
32140
32087
32047
32016
32007
31967
31912
31913
31879
31791
31729
31701
31714
31749
31799
31873
31927
31983
32020
32099
32237
32303
32225
32127
32082
32092
32104
32016
31924
31865
31844
31961
32005
32029
32021
32071
32099
32186
32375
32395
32359
32261
32253
32325
32324
32314
32183
32068
32020
31967
32029
32086
32100
32085
32103
32111
32156
32263
32420
32455
32449
32437
32364
32300
32292
32223
32145
32117
32127
32147
32129
32095
32076
32099
32087
32101
32128
32253
32375
32385
32305
32287
32255
32277
32257
32235
32169
32068
31959
31871
31844
31934
31961
31924
31885
31901
32042
32135
32141
32116
32068
32063
32020
32071
32092
32007
31815
31702
31643
31642
31688
31599
31533
31536
31580
31726
31796
31815
31785
31781
31778
31868
31874
31799
31726
31671
31607
31612
31591
31546
31501
31487
31495
31495
31481
31545
31628
31765
31855
31867
31847
31828
31789
31891
31883
31797
31652
31568
31636
31621
31516
31452
31487
31604
31685
31775
31791
31795
31852
31974
32050
32074
32049
31991
31941
31969
32022
32015
31975
31895
31804
31830
31991
32063
32124
32135
32189
32278
32340
32419
32519
32616
32647
32604
32580
32486
32404
32358
32317
32340
32340
32398
32482
32466
32494
32492
32551
32739
32809
32804
32758
32775
32812
32932
32892
32746
32722
32796
32709
32587
32535
32565
32721
32698
32687
32683
32775
32902
32897
32832
32879
33070
33044
32900
32815
32896
32942
32809
32647
32612
32732
32646
32583
32736
32844
32891
32907
32868
32870
32846
32935
33071
33025
32879
32792
32754
32790
32823
32751
32693
32692
32660
32681
32684
32682
32721
32814
32957
32991
32978
32951
32970
32948
32914
32935
32972
32935
32835
32706
32643
32639
32727
32759
32743
32707
32746
32904
33026
33061
33046
33006
33015
33133
33163
33060
32906
32827
32877
32932
32835
32703
32689
32820
32918
32902
32842
32908
33070
33149
33125
33084
33092
33073
33090
33125
33148
33113
32987
32855
32825
32845
32969
32972
32893
32917
32962
33075
33239
33260
33205
33204
33180
33259
33294
33236
33098
33021
32981
32970
33020
33001
32975
32879
32911
32965
33023
33076
33108
33141
33229
33356
33355
33309
33192
33142
33090
33081
33115
33015
32925
32865
32844
32842
32908
33081
33132
33084
33127
33155
33181
33335
33383
33322
33196
33182
33246
33223
33143
32941
32902
32875
32918
32967
33031
33092
33081
33090
33135
33167
33220
33399
33423
33366
33222
33173
33128
33183
33167
33040
32882
32818
32879
33019
33009
33014
33007
33014
33044
33068
33141
33271
33287
33300
33251
33063
32983
33027
33067
32907
32773
32715
32796
32853
32834
32775
32820
32863
32934
33031
33143
33135
33103
33037
32983
33111
33031
32848
32775
32727
32775
32797
32711
32676
32702
32719
32836
32963
32995
33010
32975
32951
32951
33063
33072
32949
32851
32805
32725
32715
32804
32788
32703
32643
32637
32674
32839
32943
32951
32895
32932
32999
33095
33067
32966
32860
32855
32855
32884
32809
32697
32583
32567
32647
32799
32820
32796
32805
32841
32893
32956
32995
33082
33127
33004
32918
32871
32802
32808
32823
32735
32654
32596
32583
32640
32732
32869
32945
32967
32983
32913
32910
32980
33071
33089
33076
32986
32855
32785
32702
32706
32752
32747
32647
32631
32663
32859
32932
32927
32887
32892
32944
33087
33053
32971
32857
32821
32789
32853
32794
32628
32575
32588
32708
32683
32679
32668
32715
32767
32919
33027
33023
32902
32870
32979
33018
32943
32812
32750
32746
32830
32751
32649
32637
32641
32767
32940
32999
33005
33012
33031
33121
33223
33154
33106
32940
32903
32891
32917
32863
32775
32732
32690
32687
32652
32687
32724
32874
33031
33063
33093
33070
32955
32885
33007
32966
32908
32819
32713
32591
32540
32485
32471
32511
32564
32676
32761
32815
32829
32829
32820
32844
32806
32813
32876
32886
32726
32630
32577
32652
32622
32571
32508
32447
32454
32510
32639
32821
32871
32884
32858
32839
32791
32785
32751
32707
32732
32821
32740
32676
32597
32581
32561
32549
32487
32516
32582
32634
32735
32879
32927
32932
32939
32868
32908
32847
32767
32714
32696
32635
32511
32498
32540
32541
32564
32540
32453
32366
32271
32151
31932
31679
31397
31123
30940
30805
30751
30665
30586
30567
30607
30660
30775
31015
31269
31681
32296
32919
33476
34104
34791
35773
36692
37492
38278
39403
40679
41867
42741
43342
43543
43732
43783
43558
42900
42047
41172
40063
38588
37072
35297
33638
32586
32117
32111
32316
32663
33045
33452
33581
33525
33502
33477
33583
33820
33872
33916
33997
34048
34074
34156
34017
33765
33459
33271
32993
32756
32620
32532
32304
32063
31903
31788
31693
31665
31671
31565
31444
31414
31543
31517
31420
31418
31582
31591
31535
31412
31342
31406
31361
31312
31194
31179
31172
31234
31398
31405
31413
31454
31529
31645
31721
31783
31797
31719
31651
31589
31532
31470
31407
31398
31490
31517
31486
31459
31447
31513
31718
31788
31804
31786
31787
31815
31894
31958
31924
31847
31725
31651
31594
31556
31625
31671
31639
31614
31598
31655
31831
31953
31916
31884
31897
31944
32043
32053
31980
31865
31783
31751
31810
31775
31724
31659
31591
31604
31654
31824
31925
31968
31966
31933
31951
31951
31999
32074
31997
31902
31788
31751
31724
31751
31702
31664
31681
31645
31625
31719
31844
31846
31807
31814
31874
31991
31963
31879
31808
31740
31779
31751
31590
31503
31427
31400
31522
31484
31409
31463
31564
31649
31745
31780
31744
31726
31620
31576
31558
31489
31417
31356
31352
31310
31316
31250
31189
31139
31151
31161
31191
31215
31247
31281
31295
31308
31380
31371
31347
31276
31226
31111
31021
30948
30922
30977
30993
30963
31007
31042
31071
31111
31157
31198
31261
31295
31333
31359
31363
31324
31265
31143
31041
31003
30965
31037
31123
31095
31103
31135
31233
31420
31463
31422
31407
31549
31617
31570
31567
31543
31492
31463
31446
31491
31558
31624
31663
31663
31711
31782
31922
32080
32234
32374
32463
32509
32530
32501
32517
32519
32529
32554
32637
32655
32629
32636
32621
32611
32684
32775
32907
32984
33007
33068
33116
33159
33191
33241
33335
33318
33242
33166
33048
32998
32969
33048
33162
33183
33220
33204
33286
33287
33321
33382
33415
33441
33445
33483
33557
33493
33340
33220
33187
33137
33133
33153
33180
33133
33083
33136
33338
33305
33253
33318
33502
33459
33335
33321
33327
33423
33310
33141
33065
33023
33095
33020
32919
32927
32970
33043
33207
33261
33255
33238
33239
33268
33287
33368
33327
33143
33084
33020
32983
32983
32959
32933
32896
32923
32868
32903
33063
33191
33114
33118
33129
33287
33300
33216
33113
33084
33031
33108
33095
32933
32826
32814
32795
32866
33002
33031
33030
33023
33068
33098
33143
33295
33314
33237
33167
33063
33029
32967
33049
33031
32983
32950
32964
32932
32869
32919
32958
33076
33226
33287
33300
33209
33204
33175
33146
33107
33125
33182
33115
33069
32941
32887
32863
32958
33096
33164
33173
33121
33156
33218
33415
33410
33324
33287
33202
33139
33088
33031
33068
33081
32962
32854
32863
32894
33013
33130
33118
33124
33114
33163
33177
33220
33282
33343
33343
33270
33237
33165
33020
32887
32859
32861
32856
32854
32871
32914
32939
33007
33177
33268
33236
33224
33156
33143
33116
33111
33095
33057
33059
32999
32948
32822
32799
32819
32879
32993
33132
33171
33147
33118
33145
33150
33263
33261
33148
33031
32983
32980
33039
32980
32916
32863
32823
32836
32801
32849
32887
32959
33074
33210
33263
33242
33210
33163
33036
32965
32955
32961
32930
32806
32679
32607
32629
32717
32821
32981
32973
32948
32988
32991
33173
33181
33054
33031
32999
33021
33087
33022
32893
32791
32688
32657
32668
32661
32748
32890
32975
33031
33073
33116
33141
33128
33111
33077
32988
32919
32842
32886
32895
32821
32746
32647
32640
32676
32713
32750
32798
32916
33062
33111
33071
32999
33003
33030
33087
32990
32867
32756
32691
32741
32752
32580
32585
32669
32807
32854
32838
32796
32813
32902
32974
33071
33116
33055
32967
32848
32781
32836
32863
32807
32701
32643
32666
32599
32615
32743
32900
32884
32818
32861
32954
33051
33087
32991
32892
32839
32791
32729
32687
32713
32750
32673
32653
32612
32642
32694
32757
32842
33013
33055
33031
33025
33013
32948
32910
32845
32863
32903
32845
32714
32621
32597
32660
32687
32825
32876
32927
32991
33006
33026
33057
33012
32927
32929
32917
32871
32898
32800
32844
32712
32629
32605
32629
32720
32862
32929
32962
32945
32933
33022
33065
33159
33319
33319
33199
33075
33020
32947
32992
33002
32927
32772
32727
32791
32937
32975
32911
32954
33005
33097
33233
33319
33239
33111
33075
33023
33007
33061
32986
32824
32693
32652
32719
32813
32807
32762
32815
32871
33094
33076
32974
32999
33023
33190
33143
33040
32916
32838
32823
32873
32834
32807
32759
32767
32730
32789
32932
33059
33109
33103
33015
33054
33026
33027
33058
33007
32991
32966
32957
32870
32758
32645
32639
32654
32703
32843
32997
33039
33063
33007
33013
33031
33006
33055
33102
33079
33021
32895
32761
32724
32767
32826
32831
32812
32801
32804
32774
32810
32892
32968
33066
33004
32847
32711
32507
32220
31948
31604
31267
30989
30822
30739
30645
30565
30542
30532
30668
30876
31129
31356
31665
31999
32423
33004
33607
34133
34752
35537
36495
37432
38395
39385
40584
41779
43007
43934
44533
44770
44983
44930
44431
43812
43110
42126
40684
38972
36936
34896
33365
32564
32364
32566
33004
33395
33663
33777
33922
34000
34045
34100
34246
34460
34575
34577
34538
34399
34274
34044
33823
33520
33228
32900
32709
32554
32487
32500
32435
32284
32167
32074
31988
31871
31781
31697
31642
31612
31503
31383
31285
31239
31204
31166
31229
31256
31346
31367
31402
31407
31450
31514
31608
31716
31735
31716
31660
31630
31535
31532
31486
31433
31380
31347
31338
31367
31528
31573
31575
31545
31623
31685
31741
31847
31904
31869
31784
31692
31621
31602
31621
31652
31604
31575
31528
31526
31514
31580
31627
31680
31759
31884
31983
31961
31880
31889
31878
31906
31939
31878
31751
31633
31593
31575
31571
31623
31764
31814
31855
31860
31837
31868
31975
32103
32047
31937
31895
31995
31951
31847
31713
31655
31594
31588
31676
31751
31751
31711
31717
31726
31893
31983
32049
32038
31933
31901
31867
31831
31786
31740
31807
31719
31599
31554
31540
31666
31673
31687
31788
31837
31838
31871
31904
31835
31824
31798
31796
31834
31802
31687
31527
31445
31356
31318
31295
31270
31343
31462
31477
31463
31489
31495
31500
31589
31647
31604
31540
31479
31398
31300
31183
31101
31017
30992
31036
31095
31056
31072
31082
31127
31172
31213
31297
31365
31303
31283
31325
31324
31319
31266
31182
31076
30996
30968
30940
30964
30983
31057
31108
31166
31260
31416
31547
31587
31605
31631
31604
31503
31406
31344
31357
31339
31359
31364
31365
31420
31492
31560
31633
31725
31790
31833
31884
31955
32015
32143
32239
32214
32158
32155
32147
32111
32097
32129
32312
32414
32439
32500
32547
32602
32715
32801
32887
32943
32967
33015
33046
33058
33146
33157
33127
33016
33031
32924
32903
32934
33068
33223
33292
33284
33316
33319
33380
33403
33561
33593
33534
33471
33351
33325
33279
33276
33382
33311
33223
33157
33184
33287
33447
33538
33591
33614
33564
33543
33543
33510
33477
33435
33382
33315
33271
33268
33268
33262
33229
33227
33254
33277
33252
33235
33255
33340
33383
33367
33415
33496
33495
33426
33287
33221
33147
33103
33175
33140
33031
32985
33052
33143
33301
33301
33279
33247
33284
33399
33457
33466
33453
33326
33190
33124
33087
33104
33115
33057
32991
32951
32952
33000
33067
33188
33338
33317
33309
33252
33259
33260
33308
33373
33327
33225
33134
33015
32959
32965
33003
33074
33087
33151
33213
33228
33213
33180
33229
33284
33427
33374
33236
33204
33138
33101
33047
33058
33117
33092
33007
32924
32948
33102
33255
33287
33309
33287
33275
33285
33343
33423
33391
33323
33164
33147
33074
33095
33092
33098
33040
32967
33002
33082
33257
33239
33156
33197
33222
33423
33458
33397
33254
33220
33235
33311
33199
33015
32983
32966
33050
33127
33113
33030
33102
33250
33386
33446
33452
33379
33287
33303
33280
33280
33342
33298
33187
33047
32996
32972
33044
33156
33110
33020
33089
33172
33346
33409
33343
33252
33276
33374
33404
33278
33133
33080
33127
33124
32971
32837
32791
32937
32989
32887
32942
32981
33135
33249
33191
33167
33277
33314
33147
33127
33164
33191
33068
32909
32903
32999
32983
32910
32854
32879
33083
33148
33148
33084
33154
33375
33381
33326
33219
33145
33127
33178
33100
33049
32951
32854
32839
32855
32967
33092
33105
33102
33085
33130
33327
33325
33280
33193
33167
33148
33076
33050
33020
33073
33028
32954
32921
32877
32907
32904
32946
33005
33063
33159
33316
33287
33295
33300
33287
33245
33114
33078
33047
33127
33035
32869
32842
32898
33034
33092
33087
33049
33079
33278
33359
33287
33213
33196
33332
33301
33180
33026
32975
32960
33063
33031
32952
32879
32898
32999
33173
33138
33097
33133
33170
33339
33397
33335
33177
33135
33118
33203
33079
32967
32852
32826
32938
32988
32985
32975
32940
32975
33025
33074
33117
33191
33283
33284
33207
33069
33023
33041
33127
33013
32863
32828
32838
32884
33007
33041
33079
33110
33111
33118
33146
33220
33278
33330
33299
33213
33067
33004
32951
32984
32981
32910
