RESPIRATION
32746
32736
32732
32730
32736
32722
32716
32708
32704
32704
32702
32696
32686
32684
32674
32669
32661
32652
32657
32652
32643
32644
32641
32626
32629
32624
32616
32612
32614
32600
32596
32584
32590
32582
32581
32581
32565
32564
32562
32549
32548
32546
32540
32526
32524
32524
32512
32513
32516
32504
32496
32485
32488
32477
32484
32472
32468
32468
32462
32460
32440
32444
32444
32434
32430
32424
32424
32416
32412
32413
32397
32397
32396
32384
32382
32384
32370
32366
32367
32369
32365
32359
32340
32350
32342
32340
32340
32320
32328
32308
32316
32314
32300
32300
32296
32292
32280
32284
32280
32268
32264
32260
32250
32242
32244
32237
32221
32228
32226
32206
32212
32204
32202
32188
32182
32184
32180
32176
32164
32159
32154
32150
32140
32136
32125
32128
32119
32116
32110
32111
32100
32100
32084
32086
32074
32067
32064
32058
32060
32042
32049
32042
32032
32030
32018
32016
32012
32007
32004
31990
31989
31988
31988
31972
31972
31967
31962
31952
31948
31940
31940
31936
31932
31918
31920
31919
31908
31905
31896
31892
31887
31884
31884
31876
31868
31868
31864
31852
31856
31844
31844
31837
31845
31820
31832
31821
31816
31809
31812
31804
31796
31800
31790
31783
31788
31780
31775
31777
31772
31764
31770
31748
31744
31742
31738
31732
31720
31724
31716
31716
31705
31692
31688
31684
31680
31672
31672
31661
31654
31640
31644
31630
31626
31620
31608
31604
31596
31594
31588
31580
31572
31560
31554
31550
31542
31544
31528
31533
31520
31520
31520
31516
31510
31509
31506
31495
31495
31496
31496
31497
31484
31488
31484
31484
31484
31480
31479
31489
31480
31480
31492
31484
31478
31484
31479
31479
31472
31478
31474
31468
31476
31476
31470
31464
31460
31464
31456
31452
31456
31453
31444
31436
31438
31440
31428
31424
31418
31416
31412
31408
31401
31397
31396
31399
31392
31398
31382
31383
31380
31374
31368
31364
31368
31361
31362
31356
31350
31352
31348
31344
31342
31338
31339
31335
31334
31328
31325
31329
31322
31316
31308
31312
31321
31302
31301
31295
31288
31294
31292
31280
31280
31269
31276
31272
31267
31253
31253
31249
31236
31237
31236
31228
31222
31222
31212
31204
31198
31202
31193
31188
31188
31183
31176
31164
31161
31159
31148
31144
31140
31135
31128
31125
31127
31108
31108
31108
31105
31101
31092
31088
31076
31080
31076
31066
31064
31064
31053
31044
31047
31040
31040
31034
31028
31032
31028
31020
31012
31012
31008
31008
30997
30993
30990
30993
30990
30984
30986
30976
30960
30966
30966
30964
30956
30950
30945
30944
30940
30931
30932
30936
30928
30924
30916
30915
30908
30911
30910
30898
30900
30902
30896
30886
30884
30879
30885
30876
30873
30870
30861
30857
30852
30852
30852
30852
30844
30848
30848
30840
30836
30838
30827
30826
30821
30814
30821
30813
30812
30811
30805
30794
30792
30796
30793
30790
30788
30784
30772
30784
30772
30775
30762
30760
30752
30756
30764
30748
30748
30748
30742
30744
30721
30734
30732
30717
30728
30709
30709
30702
30704
30701
30700
30696
30692
30687
30688
30684
30670
30672
30674
30664
30658
30652
30652
30653
30652
30640
30637
30636
30628
30628
30629
30618
30620
30616
30607
30594
30608
30603
30600
30594
30588
30583
30580
30576
30572
30580
30568
30564
30564
30565
30556
30554
30556
30549
30540
30537
30546
30530
30532
30532
30520
30516
30516
30502
30500
30504
30496
30492
30486
30480
30474
30478
30462
30468
30458
30460
30446
30444
30442
30437
30434
30432
30433
30428
30418
30421
30413
30419
30408
30406
30401
30400
30398
30393
30390
30384
30390
30389
30384
30372
30376
30372
30368
30360
30364
30358
30353
30365
30356
30352
30354
30348
30341
30336
30338
30334
30330
30330
30318
30317
30314
30311
30316
30312
30308
30301
30294
30292
30292
30284
30280
30288
30276
30278
30284
30269
30270
30266
30264
30258
30248
30260
30249
30256
30252
30244
30244
30236
30224
30229
30232
30220
30221
30220
30220
30214
30208
30207
30206
30201
30204
30185
30198
30194
30189
30189
30180
30182
30180
30175
30176
30172
30169
30169
30160
30156
30156
30150
30154
30152
30145
30152
30146
30146
30134
30144
30136
30141
30134
30128
30128
30132
30129
30127
30130
30112
30126
30128
30114
30121
30110
30116
30112
30110
30105
30100
30102
30100
30100
30104
30094
30094
30088
30088
30089
30088
30081
30088
30084
30080
30077
30078
30076
30078
30076
30081
30068
30072
30072
30070
30070
30072
30068
30069
30068
30057
30064
30056
30060
30062
30064
30053
30060
30057
30046
30052
30048
30042
30045
30048
30045
30037
30038
30036
30034
30037
30044
30040
30032
30038
30029
30034
30033
30024
30034
30028
30025
30024
30020
30024
30018
30016
30012
30012
30014
30016
30010
30012
30012
30012
30009
30018
30012
30008
29998
30004
30002
30008
30002
30004
29994
30004
30000
30000
30000
29998
30006
29992
30001
30001
29996
29993
29997
30004
30000
30008
30012
29996
30004
30004
30000
30004
30000
29998
30004
30004
30004
29998
30000
30001
29996
30000
29996
30004
30008
30002
29998
30002
30010
29998
30004
29998
30006
29998
30004
30004
29995
30002
30004
29992
30002
30004
30002
30005
30004
30004
30004
30000
30012
30002
30002
30008
30012
30004
30010
30001
30004
30016
30012
30004
30008
30007
30008
30008
30012
30006
30020
30017
30008
30020
30012
30017
30014
30021
30028
30020
30016
30016
30017
30020
30024
30020
30025
30022
30026
30031
30030
30026
30034
30036
30030
30032
30028
30039
30036
30038
30040
30038
30038
30048
30048
30045
30058
30049
30053
30054
30062
30052
30064
30065
30062
30064
30071
30068
30064
30070
30070
30076
30076
30076
30081
30088
30080
30080
30096
30097
30092
30104
30100
30100
30109
30106
30112
30117
30108
30117
30121
30117
30128
30125
30132
30136
30138
30137
30140
30146
30148
30148
30149
30160
30160
30160
30161
30169
30166
30172
30172
30177
30182
30180
30183
30189
30189
30188
30192
30193
30208
30206
30197
30216
30212
30208
30216
30220
30228
30220
30222
30226
30229
30233
30228
30229
30230
30241
30241
30250
30248
30248
30252
30252
30252
30260
30260
30256
30268
30264
30276
30276
30268
30277
30280
30273
30285
30282
30288
30292
30298
30294
30300
30304
30300
30308
30308
30312
30316
30312
30308
30326
30321
30332
30328
30337
30333
30340
30346
30348
30345
30348
30352
30352
30350
30364
30361
30372
30373
30370
30370
30372
30378
30377
30392
30380
30394
30388
30388
30390
30395
30400
30402
30406
30412
30409
30412
30417
30424
30422
30425
30432
30429
30426
30438
30439
30441
30444
30440
30450
30444
30452
30442
30452
30452
30460
30460
30464
30458
30464
30470
30472
30465
30473
30481
30469
30486
30480
30489
30493
30486
30496
30488
30496
30493
30500
30495
30500
30500
30508
30504
30512
30508
30508
30508
30512
30516
30511
30520
30522
30520
30517
30528
30528
30532
30528
30530
30536
30537
30536
30544
30540
30540
30544
30545
30552
30552
30560
30553
30564
30564
30565
30570
30568
30576
30572
30577
30577
30580
30582
30585
30588
30588
30594
30588
30596
30594
30597
30596
30608
30598
30596
30601
30598
30596
30604
30605
30598
30600
30605
30608
30604
30608
30600
30604
30602
30597
30600
30600
30605
30597
30596
30595
30596
30589
30583
30598
30586
30589
30592
30596
30591
30592
30596
30596
30592
30596
30599
30600
30601
30610
30612
30614
30620
30618
30624
30624
30636
30636
30644
30640
30652
30664
30664
30673
30670
30680
30685
30689
30702
30704
30709
30716
30720
30732
30731
30741
30744
30748
30753
30758
30772
30764
30772
30782
30786
30786
30789
30800
30800
30805
30800
30806
30812
30818
30820
30816
30826
30829
30840
30845
30841
30845
30845
30846
30844
30861
30868
30860
30869
30876
30879
30882
30892
30884
30886
30895
30903
30904
30896
30916
30916
30922
30918
30925
30926
30937
30934
30940
30936
30934
30944
30940
30964
30948
30952
30950
30958
30954
30964
30956
30968
30964
30958
30966
30961
30960
30956
30972
30964
30964
30961
30965
30968
30961
30960
30962
30960
30968
30960
30957
30954
30958
30956
30948
30956
30948
30954
30956
30952
30952
30956
30964
30957
30954
30948
30949
30952
30956
30958
30961
30956
30956
30964
30959
30958
30960
30966
30959
30966
30956
30969
30965
30959
30975
30974
30972
30976
30977
30976
30976
30980
30989
30974
30990
30999
30988
31000
30997
31008
31005
31012
31012
31012
31015
31017
31023
31028
31034
31036
31040
31044
31042
31048
31058
31056
31065
31060
31065
31073
31079
31080
31084
31086
31100
31094
31104
31106
31114
31113
31124
31136
31137
31140
31145
31140
31145
31156
31161
31167
31161
31172
31179
31182
31188
31197
31198
31200
31204
31204
31221
31220
31232
31234
31236
31245
31248
31252
31262
31268
31278
31278
31276
31284
31292
31300
31300
31301
31308
31309
31322
31324
31338
31340
31346
31356
31357
31357
31376
31368
31380
31384
31396
31384
31396
31412
31417
31420
31421
31438
31449
31444
31460
31464
31477
31472
31484
31492
31498
31514
31512
31535
31535
31546
31560
31566
31569
31588
31591
31604
31608
31624
31628
31648
31650
31666
31680
31680
31695
31704
31709
31724
31732
31744
31757
31768
31776
31794
31788
31814
31817
31828
31836
31846
31860
31878
31882
31897
31912
31912
31934
31940
31956
31966
31976
31988
31994
32002
32018
32030
32042
32052
32067
32082
32090
32100
32112
32129
32136
32145
32164
32176
32180
32197
32217
32226
32238
32250
32261
32281
32293
32300
32318
32333
32342
32358
32372
32380
32401
32407
32416
32433
32444
32458
32469
32482
32492
32510
32516
32528
32541
32558
32568
32576
32600
32604
32612
32628
32652
32657
32668
32688
32702
32700
32720
32733
32744
32756
32764
32780
32800
32804
32821
32832
32836
32856
32872
32880
32900
32904
32921
32930
32945
32952
32969
32985
32988
32996
33017
33030
33033
33048
33060
33064
33088
33088
33106
33124
33124
33152
33164
33166
33184
33188
33204
33210
33214
33236
33248
33254
33268
33281
33298
33311
33316
33335
33348
33352
33364
33374
33386
33392
33412
33428
33436
33445
33445
33473
33480
33493
33510
33520
33528
33536
33554
33565
33570
33585
33598
33601
33618
33626
33636
33644
33660
33672
33678
33686
33701
33712
33724
33730
33744
33756
33757
33774
33788
33804
33810
33825
33828
33846
33849
33860
33868
33882
33892
33900
33909
33917
33935
33945
33956
33969
33976
33984
33994
34005
34022
34023
34032
34046
34056
34072
34076
34088
34096
34116
34116
34124
34144
34148
34152
34160
34176
34184
34191
34208
34216
34220
34236
34244
34248
34263
34268
34288
34288
34302
34318
34322
34334
34346
34354
34368
34372
34372
34388
34394
34406
34410
34428
34438
34444
34456
34469
34476
34489
34500
34510
34516
34528
34524
34546
34552
34560
34572
34580
34592
34599
34606
34606
34628
34644
34640
34664
34660
34668
34684
34695
34692
34710
34717
34720
34736
34740
34757
34768
34764
34780
34788
34804
34808
34814
34816
34823
34837
34846
34848
34868
34866
34886
34888
34908
34904
34922
34926
34932
34950
34952
34959
34972
34986
34992
34997
35004
35014
35029
35025
35040
35044
35056
35076
35078
35081
35094
35108
35104
35118
35126
35134
35144
35152
35157
35168
35172
35173
35188
35192
35213
35223
35220
35234
35236
35246
35257
35264
35269
35276
35291
35296
35303
35306
35318
35328
35336
35346
35352
35364
35368
35376
35376
35393
35391
35408
35417
35416
35428
35432
35444
35454
35457
35464
35466
35476
35484
35494
35496
35508
35512
35519
35524
35524
35534
35544
35550
35556
35564
35572
35580
35580
35588
35588
35610
35608
35617
35620
35632
35640
35636
35652
35648
35654
35658
35668
35676
35685
35684
35692
35693
35708
35717
35714
35717
35724
35721
35738
35752
35745
35752
35760
35764
35768
35768
35774
35780
35790
35788
35791
35808
35812
35817
35824
35825
35824
35838
35844
35847
35846
35850
35861
35860
35875
35872
35884
35888
35894
35897
35902
35908
35917
35916
35920
35932
35930
35943
35948
35948
35949
35964
35965
35964
35976
35984
35976
35984
35998
36000
36007
36016
36012
36022
36032
36034
36033
36057
36040
36060
36056
36060
36068
36072
36072
36084
36092
36094
36096
36105
36114
36108
36117
36124
36128
36129
36138
36148
36148
36158
36158
36166
36162
36176
36173
36174
36190
36188
36192
36192
36200
36208
36200
36209
36207
36215
36224
36220
36236
36236
36232
36248
36244
36243
36245
36257
36257
36257
36264
36273
36273
36273
36282
36284
36292
36292
36297
36292
36303
36316
36312
36324
36324
36316
36329
36334
36332
36332
36336
36344
36344
36352
36350
36356
36353
36366
36375
36376
36368
36378
36381
36380
36396
36388
36389
36396
36396
36396
36406
36408
36408
36414
36417
36422
36421
36430
36437
36430
36436
36448
36445
36457
36448
36468
36460
36456
36465
36472
36476
36484
36478
36479
36484
36494
36495
36498
36500
36497
36508
36511
36503
36516
36516
36518
36516
36525
36524
36520
36526
36528
36541
36535
36532
36536
36532
36540
36540
36546
36538
36535
36538
36538
36544
36545
36549
36544
36544
36544
36548
36542
36544
36536
36540
36548
36548
36542
36538
36556
36552
36548
36548
36552
36561
36556
36556
36560
36568
36574
36572
36580
36580
36583
36584
36586
36590
36592
36593
36600
36598
36612
36612
36612
36616
36622
36628
36628
36636
36630
36630
36644
36644
36640
36649
36644
36652
36644
36648
36652
36660
36660
36650
36664
36668
36660
36652
36666
36664
36662
36670
36670
36668
36668
36668
36669
36666
36660
36670
36659
36672
36668
36670
36676
36668
36673
36672
36661
36670
36672
36672
36673
36674
36676
36670
36672
36672
36680
36673
36673
36672
36676
36676
36670
36680
36674
36679
36660
36684
36676
36676
36672
36666
36672
36672
36676
36672
36664
36664
36662
36664
36672
36666
36664
36668
36668
36656
36656
36660
36652
36650
36646
36649
36653
36648
36652
36648
36640
36640
36648
36646
36641
36640
36640
36644
36632
36640
36634
36636
36643
36636
36629
36632
36628
36630
36630
36628
36633
36634
36626
36628
36628
36628
36628
36629
36624
36636
36633
36624
36636
36634
36636
36634
36628
36631
36637
36639
36636
36648
36631
36640
36640
36645
36644
36654
36644
36652
36656
36648
36654
36652
36656
36660
36660
36656
36652
36668
36662
36676
36668
36660
36676
36664
36676
36673
36676
36674
36675
36684
36677
36682
36678
36685
36686
36681
36691
36686
36702
36689
36692
36686
36692
36702
36700
36702
36700
36704
36704
36701
36706
36704
36704
36708
36716
36706
36716
36716
36720
36717
36716
36709
36724
36724
36724
36724
36726
36726
36732
36720
36724
36724
36736
36729
36726
36728
36729
36732
36732
36732
36732
36744
36725
36735
36722
36732
36741
36734
36737
36726
36729
36744
36734
36733
36740
36740
36736
36744
36740
36732
36740
36745
36742
36741
36752
36748
36748
36752
36750
36757
36756
36745
36759
36760
36760
36760
36760
36772
36772
36766
36768
36768
36768
36767
36768
36770
36773
36766
36765
36772
36774
36772
36776
36772
36780
36776
36782
36774
36776
36764
36776
36776
36780
36781
36774
36766
36776
36772
36784
36772
36778
36776
36783
36780
36780
36780
36783
36777
36776
36785
36784
36786
36788
36785
36788
36790
36788
36788
36800
36788
36790
36804
36796
36801
36812
36792
36804
36801
36805
36802
36804
36800
36806
36801
36812
36812
36808
36817
36812
36812
36816
36815
36815
36796
36808
36812
36806
36808
36821
36812
36812
36812
36814
36812
36816
36814
36817
36809
36813
36820
36820
36812
36816
36805
36809
36816
36807
36814
36808
36812
36816
36812
36808
36807
36814
36809
36812
36801
36813
36812
36801
36817
36800
36798
36810
36800
36800
36804
36798
36798
36804
36796
36792
36790
36788
36799
36784
36788
36785
36792
36788
36786
36790
36783
36777
36788
36780
36776
36780
36772
36778
36780
36773
36772
36764
36767
36764
36764
36764
36760
36750
36757
36756
36752
36744
36749
36753
36741
36740
36741
36740
36732
36738
36725
36728
36732
36732
36729
36726
36724
36713
36710
36712
36703
36704
36716
36696
36700
36697
36696
36700
36692
36689
36684
36680
36679
36676
36674
36668
36666
36657
36656
36668
36656
36653
36648
36654
36642
36636
36633
36639
36636
36626
36636
36620
36619
36620
36620
36604
36612
36606
36602
36600
36598
36600
36594
36596
36588
36582
36586
36574
36576
36564
36568
36560
36564
36558
36556
36552
36548
36548
36544
36532
36536
36536
36520
36525
36518
36524
36508
36516
36509
36512
36500
36500
36497
36496
36484
36488
36490
36476
36478
36473
36465
36468
36464
36468
36448
36443
36450
36455
36441
36444
36432
36426
36436
36424
36420
36420
36428
36408
36412
36408
36398
36397
36394
36396
36388
36388
36381
36380
36372
36367
36364
36366
36358
36360
36350
36358
36340
36340
36335
36336
36332
36324
36328
36327
36316
36308
36312
36312
36309
36302
36300
36296
36280
36288
36284
36284
36284
36272
36262
36264
36269
36260
36252
36248
36240
36248
36244
36232
36232
36228
36228
36220
36210
36204
36209
36208
36199
36200
36188
36188
36180
36185
36172
36178
36172
36166
36162
36164
36162
36156
36148
36145
36136
36129
36136
36133
36129
36120
36117
36109
36110
36106
36109
36102
36094
36104
36092
36088
36076
36081
36076
36077
36068
36068
36068
36064
36058
36060
36052
36056
36045
36044
36037
36036
36032
36032
36029
36028
36017
36017
36004
36009
36008
35998
36002
35990
35988
35983
35980
35988
35980
35969
35968
35966
35966
35949
35953
35944
35945
35936
35932
35933
35930
35918
35920
35908
35908
35902
35900
35896
35896
35890
35881
35882
35876
35872
35870
35860
35852
35853
35854
35844
35840
35828
35832
35822
35820
35814
35796
35800
35792
35790
35788
35780
35772
35760
35761
35760
35750
35748
35736
35728
35720
35712
35708
35700
35700
35692
35684
35676
35668
35660
35655
35648
35644
35629
35628
35624
35620
35604
35604
35588
35585
35580
35572
35566
35556
35544
35541
35534
35528
35522
35512
35508
35503
35496
35492
35486
35474
35468
35454
35452
35446
35439
35438
35424
35409
35405
35404
35406
35393
35386
35373
35374
35365
35360
35348
35345
35336
35332
35324
35316
35306
35308
35297
35292
35280
35280
35260
35263
35260
35242
35244
35235
35246
35224
35218
35212
35206
35199
35196
35188
35180
35168
35167
35154
35150
35146
35136
35135
35120
35121
35109
35105
35096
35096
35088
35077
35078
35068
35060
35060
35052
35049
35041
35028
35020
35030
35022
35009
35008
34998
34996
34991
34988
34975
34976
34972
34956
34956
34953
34949
34940
34932
34932
34924
34916
34908
34900
34900
34880
34884
34876
34876
34864
34864
34850
34844
34836
34842
34825
34823
34812
34804
34793
34791
34784
34788
34780
34776
34758
34760
34752
34752
34749
34741
34726
34725
34724
34717
34711
34705
34705
34689
34696
34692
34688
34681
34682
34670
34663
34657
34657
34662
34646
34651
34644
34652
34636
34628
34625
34628
34622
34612
34617
34604
34616
34620
34601
34600
34600
34598
34596
34596
34594
34588
34584
34588
34588
34582
34580
34580
34581
34574
34569
34572
34568
34572
34565
34572
34564
34564
34557
34564
34548
34542
34548
34542
34549
34535
34540
34536
34524
34532
34533
34518
34532
34525
34517
34516
34520
34516
34519
34504
34506
34501
34506
34496
34490
34488
34486
34480
34482
34478
34484
34476
34470
34464
34468
34468
34460
34460
34452
34453
34439
34442
34438
34434
34439
34422
34424
34420
34415
34408
34404
34394
34396
34382
34392
34376
34376
34373
34361
34358
34344
34348
34328
34332
34326
34314
34315
34304
34298
34289
34284
34280
34281
34272
34272
34256
34256
34244
34245
34229
34233
34220
34213
34216
34200
34206
34192
34190
34177
34187
34173
34172
34170
34172
34158
34160
34142
34142
34148
34132
34130
34122
34124
34120
34117
34116
34112
34101
34100
34096
34088
34088
34080
34082
34081
34072
34068
34068
34064
34053
34060
34056
34053
34052
34042
34048
34036
34036
34037
34036
34028
34023
34016
34020
34013
34012
34008
34008
34000
34004
33996
34000
33994
33984
33992
33984
33989
33988
33984
33988
33982
33967
33964
33968
33976
33964
33968
33967
33968
33956
33957
33952
33952
33952
33960
33948
33948
33948
33943
33948
33949
33948
33943
33936
33935
33936
33935
33929
33928
33928
33924
33920
33926
33924
33924
33919
33908
33916
33916
33912
33908
33898
33901
33900
33896
33900
33892
33896
33889
33889
33889
33885
33872
33882
33880
33877
33864
33877
33872
33868
33872
33870
33865
33860
33856
33857
33860
33860
33860
33856
33861
33857
33854
33858
33858
33860
33860
33858
33857
33856
33858
33848
33852
33854
33852
33852
33852
33848
33844
33846
33844
33839
33840
33832
33840
33830
33831
33824
33828
33820
33816
33814
33820
33813
33812
33817
33812
33803
33804
33804
33804
33807
33801
33796
33799
33796
33798
33792
33792
33792
33794
33792
33788
33792
33790
33796
33783
33776
33781
33782
33774
33776
33772
33766
33776
33780
33782
33764
33781
33773
33767
33780
33774
33772
33770
33764
33772
33752
33764
33764
33757
33768
33756
33758
33757
33754
33749
33756
33756
33756
33752
33748
33751
33754
33748
33740
33745
33740
33740
33740
33740
33741
33736
33740
33740
33734
33734
33732
33740
33732
33736
33734
33738
33732
33734
33728
33732
33732
33728
33724
33732
33718
33734
33721
33722
33720
33724
33724
33725
33721
33724
33711
33720
33732
33726
33726
33711
33724
33724
33710
33728
33720
33720
33724
33724
33724
33727
33720
33722
33716
33723
33716
33728
33724
33720
33727
33712
33721
33720
33724
33730
33717
33722
33726
33724
33732
33726
33727
33728
33720
33730
33720
33728
33728
33724
33720
33721
33729
33726
33724
33722
33729
33734
33728
33724
33722
33720
33724
33724
33724
33730
33724
33725
33722
33719
33719
33728
33728
33724
33719
33716
33724
33726
33719
33726
33716
33716
33716
33720
33713
33713
33716
33708
33716
33711
33702
33704
33706
33703
33697
33698
33696
33700
33696
33692
33694
33684
33688
33685
33681
33689
33684
33684
33669
33680
33678
33673
33666
33664
33668
33664
33664
33660
33664
33652
33660
33656
33652
33650
33644
33649
33644
33635
33636
33636
33633
33636
33631
33636
33628
33626
33628
33614
33620
33605
33618
33612
33616
33615
33601
33604
33600
33600
33604
33600
33588
33586
33588
33582
33576
33576
33572
33568
33572
33573
33565
33568
33556
33556
33548
33552
33543
33548
33545
33534
33540
33544
33535
33532
33520
33530
33530
33520
33520
33516
33509
33508
33512
33511
33508
33508
33500
33492
33496
33488
33500
33485
33485
33484
33478
33476
33478
33473
33478
33473
33472
33462
33461
33464
33460
33460
33456
33455
33452
33444
33444
33440
33441
33444
33434
33444
33434
33431
33431
33436
33429
33423
33412
33412
33410
33412
33412
33404
33402
33396
33396
33402
33396
33398
33397
33388
33382
33385
33380
33380
33377
33377
33370
33380
33364
33364
33356
33368
33356
33349
33352
33348
33348
33352
33342
33336
33329
33329
33330
33324
33324
33322
33324
33318
33312
33313
33312
33305
33311
33301
33298
33297
33286
33292
33292
33276
33284
33276
33276
33272
33269
33256
33264
33260
33257
33252
33253
33244
33240
33240
33246
33236
33233
33225
33222
33230
33221
33229
33216
33220
33205
33208
33200
33204
33196
33201
33192
33196
33196
33186
33188
33180
33177
33184
33178
33172
33170
33173
33168
33156
33160
33164
33160
33160
33152
33144
33149
33146
33140
33138
33136
33132
33138
33124
33123
33120
33128
33110
33108
33112
33100
33104
33100
33097
33100
33087
33086
33081
33088
33072
33076
33076
33069
33069
33066
33060
33058
33051
33044
33049
33042
33045
33040
33032
33025
33028
33028
33024
33012
33015
33012
33012
32996
32997
32996
32996
32985
32992
32983
32974
32976
32975
32964
32964
32964
32960
32963
32948
32936
32941
32934
32942
32934
32926
32935
32934
32924
32922
32916
32910
32908
32903
32900
32902
32900
32894
32892
32900
32888
32884
32884
32885
32876
32876
32876
32876
32868
32870
32869
32865
32860
32860
32856
32852
32856
32856
32857
32850
32859
32848
32849
32842
32848
32844
32844
32840
32834
32832
32828
32828
32820
32825
32828
32818
32812
32816
32807
32808
32808
32797
32796
32788
32790
32776
32780
32772
32772
32769
32772
32764
32758
32751
32745
32746
32740
32732
32727
32724
32716
32717
32712
32706
32708
32702
32699
32692
32692
32688
32687
32688
32678
32678
32678
32673
32676
32676
32672
32672
32676
32668
32664
32660
32673
32676
32670
32668
32674
32676
32676
32677
32674
32684
32677
32676
32684
32676
32684
32686
32684
32686
32692
32677
32685
32685
32684
32692
32688
32686
32688
32692
32687
32685
32680
32682
32688
32676
32677
32676
32672
32676
32676
32674
32674
32670
32666
32666
32666
32669
32661
32660
32648
32661
32656
32658
32661
32655
32650
32652
32646
32653
32653
32653
32660
32648
32648
32652
32653
32642
32647
32648
32648
32657
32644
32644
32642
32644
32646
32636
32638
32636
32640
32636
32631
32636
32640
32628
32631
32626
32624
32628
32625
32620
32616
32612
32612
32610
32604
32609
32600
32600
32596
32592
32590
32597
32594
32580
32576
32572
32578
32568
32566
32562
32564
32566
32562
32557
32557
32550
32546
32553
32544
32545
32544
32542
32551
32532
32540
32534
32527
32532
32521
32517
32521
32532
32516
32524
32521
32516
32516
32512
32516
32510
32514
32500
32502
32504
32502
32498
32488
32492
32496
32500
32492
32502
32496
32492
32494
32496
32492
32496
32492
32486
32488
32488
32489
32486
32485
32494
32488
32484
32484
32493
32488
32478
32484
32488
32481
32484
32480
32484
32476
32478
32484
32478
32480
32473
32479
32480
32472
32478
32482
32472
32484
32472
32477
32477
32474
32479
32472
32471
32468
32471
32473
32475
32468
32468
32465
32468
32470
32470
32470
32468
32458
32461
32464
32469
32458
32455
32464
32462
32454
32462
32469
32453
32458
32456
32456
32453
32452
32460
32460
32456
32460
32454
32457
32448
32456
32462
32456
32448
32454
32448
32456
32452
32454
32452
32454
32456
32452
32452
32460
32449
32453
32454
32456
32446
32460
32453
32452
32456
32452
32453
32454
32456
32460
32460
32456
32472
32469
32464
32468
32468
32468
32476
32484
32482
32484
32480
32482
32473
32485
32481
32484
32484
32484
32484
32484
32492
32486
32486
32488
32486
32486
32492
32488
32487
32497
32494
32489
32488
32493
32490
32488
32482
32492
32494
32496
32489
32487
32502
32494
32492
32497
32500
32504
32502
32500
32508
32503
32512
32520
32514
32517
32516
32530
32524
32520
32532
32533
32532
32536
32527
32533
32540
32543
32546
32540
32548
32548
32547
32553
32549
32552
32548
32551
32549
32556
32554
32558
32554
32550
32558
32561
32554
32564
32564
32556
32558
32559
32568
32559
32564
32562
32562
32564
32566
32574
32572
32564
32574
32566
32576
32566
32576
32568
32572
32572
32576
32576
32575
32580
32574
32580
32574
32578
32580
32581
32580
32580
32582
32580
32576
32574
32574
32580
32584
32580
32584
32580
32584
32576
32581
32592
32580
32582
32586
32580
32584
32585
32586
32590
32582
32584
32592
32588
32584
32588
32592
32578
32588
32585
32588
32594
32589
32600
32593
32597
32593
32594
32593
32592
32600
32590
32588
32592
32589
32596
32592
32592
32584
32598
32588
32598
32586
32590
32596
32596
32589
32584
32588
32593
32584
32582
32588
32590
32584
32584
32584
32584
32580
32580
32576
32574
32576
32576
32570
32568
32572
32572
32564
32562
32557
32562
32558
32564
32560
32556
32547
32550
32540
32544
32540
32545
32533
32542
32532
32538
32528
32525
32516
32516
32512
32520
32516
32511
32508
32504
32508
32492
32494
32494
32488
32492
32484
32480
32476
32468
32472
32473
32460
32466
32459
32454
32460
32448
32452
32448
32440
32446
32444
32445
32436
32430
32430
32428
32431
32424
32426
32429
32414
32421
32418
32420
32414
32408
32412
32415
32412
32412
32404
32406
32396
32404
32400
32407
32398
32405
32397
32404
32401
32399
32388
32392
32396
32400
32400
32401
32391
32392
32388
32384
32392
32393
32385
32390
32392
32389
32386
32392
32396
32389
32388
32384
32384
32388
32382
32386
32388
32388
32380
32382
32388
32383
32388
32380
32384
32380
32382
32384
32376
32382
32384
32375
32373
32376
32376
32372
32377
32370
32376
32380
32370
32380
32366
32378
32369
32369
32380
32377
32374
32376
32372
32368
32376
32372
32372
32361
32372
32366
32368
32372
32377
32365
32364
32364
32368
32364
32364
32367
32365
32368
32376
32362
32359
32360
32364
32365
32358
32366
32367
32357
32362
32356
32356
32361
32364
32364
32360
32360
32364
32364
32364
32354
32362
32358
32349
32353
32352
32356
32345
32352
32352
32347
32356
32356
32352
32359
32350
32352
32348
32348
32352
32344
32347
32349
32344
32348
32346
32348
32343
32348
32345
32346
32342
32340
32338
32351
32343
32340
32340
32340
32340
32344
32337
32336
32332
32338
32341
32340
32338
32340
32329
32332
32332
32343
32335
32332
32337
32328
32333
32333
32330
32332
32328
32340
32334
32328
32324
32332
32338
32335
32330
32332
32332
32328
32328
32329
32332
32332
32333
32329
32328
32324
32332
32328
32320
32326
32327
32328
32324
32329
32332
32330
32328
32324
32333
32328
32332
32328
32330
32333
32328
32332
32331
32332
32328
32332
32327
32330
32338
32342
32342
32336
32338
32334
32333
32341
32333
32336
32343
32345
32342
32337
32336
32342
32338
32340
32341
32328
32342
32332
32332
32336
32328
32340
32340
32336
32337
32335
32332
32336
32328
32336
32341
32332
32334
32328
32326
32330
32324
32336
32334
32332
32332
32328
32324
32320
32330
32324
32326
32328
32321
32320
32328
32324
32324
32322
32316
32324
32326
32320
32326
32324
32324
32327
32324
32320
32317
32324
32321
32326
32324
32332
32334
32328
32332
32324
32324
32324
32325
32326
32328
32324
32322
32318
32325
32314
32318
32313
32320
32308
32316
32302
32305
32308
32308
32308
32293
32294
32294
32292
32286
32290
32284
32288
32276
32274
32276
32274
32262
32260
32252
32258
32252
32250
32244
32244
32236
32232
32236
32238
32230
32236
32228
32228
32231
32228
32224
32228
32230
32232
32222
32231
32232
32228
32240
32237
32240
32248
32244
32248
32252
32252
32271
32262
32263
32266
32284
32280
32276
32281
32288
32288
32288
32292
32288
32294
32288
32290
32292
32305
32301
32300
32300
32292
32300
32298
32304
32292
32298
32300
32303
32296
32292
32297
32289
32284
32281
32288
32290
32292
32276
32284
32284
32281
32280
32272
32284
32278
32276
32280
32276
32268
32272
32270
32281
32274
32276
32262
32272
32268
32262
32268
32266
32264
32269
32264
32263
32268
32254
32254
32262
32263
32260
32260
32256
32246
32246
32241
32244
32241
32233
32236
32232
32228
32231
32230
32222
32222
32220
32212
32209
32205
32208
32204
32201
32196
32198
32188
32185
32180
32174
32175
32173
32173
32160
32162
32160
32158
32156
32150
32146
32150
32145
32144
32132
32134
32134
32136
32134
32130
32128
32122
32128
32120
32116
32124
32116
32124
32118
32116
32108
32109
32113
32098
32108
32116
32111
32104
32105
32100
32100
32100
32094
32094
32093
32093
32092
32090
32088
32088
32088
32080
32089
32084
32088
32078
32078
32084
32080
32086
32088
32072
32068
32084
32078
32064
32072
32068
32072
32072
32068
32068
32071
32076
32068
32072
32064
32068
32070
32065
32066
32064
32065
32066
32064
32060
32063
32064
32062
32062
32068
32066
32062
32066
32062
32071
32064
32066
32063
32068
32072
32064
32064
32066
32069
32074
32072
32076
32073
32084
32073
32072
32080
32080
32082
32080
32082
32077
32082
32088
32090
32081
32080
32080
32088
32084
32088
32084
32086
32092
32095
32087
32093
32100
32096
32101
32106
32100
32100
32104
32104
32108
32104
32104
32117
32117
32112
32110
32112
32122
32124
32124
32117
32122
32128
32133
32133
32136
32140
32140
32149
32149
32152
32156
32156
32172
32172
32172
32172
32164
32177
32172
32185
32184
32184
32184
32192
32192
32193
32192
32200
32198
32198
32200
32202
32197
32202
32208
32214
32216
32206
32218
32220
32220
32218
32220
32224
32220
32228
32231
32236
32228
32240
32244
32245
32244
32248
32248
32260
32260
32263
32270
32276
32280
32278
32288
32300
32294
32302
32304
32308
32314
32313
32325
32324
32328
32328
32348
32348
32350
32356
32354
32358
32362
32367
32376
32376
32388
32389
32392
32388
32399
32401
32408
32416
32423
32428
32424
32428
32434
32436
32437
32436
32448
32448
32452
32452
32464
32464
32456
32478
32468
32484
32489
32494
32486
32492
32485
32496
32498
32504
32507
32504
32520
32514
32518
32522
32521
32529
32536
32524
32536
32540
32540
32544
32552
32552
32551
32554
32560
32556
32558
32560
32568
32573
32580
32572
32580
32577
32584
32585
32592
32588
32598
32605
32613
32596
32604
32612
32612
32612
32614
32613
32622
32628
32629
32621
32630
32628
32644
32644
32630
32638
32638
32652
32650
32654
32654
32656
32658
32665
32661
32660
32671
32670
32671
32682
32676
32676
32684
32677
32692
32680
32696
32690
32694
32690
32697
32694
32706
32703
32705
32701
32710
32714
32711
32712
32710
32718
32720
32712
32724
32720
32731
32724
32732
32728
32728
32732
32740
32736
32733
32734
32735
32740
32738
32750
32756
32744
32743
32764
32756
32757
32753
32756
32760
32760
32762
32758
32765
32768
32764
32768
32772
32770
32774
32765
32772
32782
32772
32772
32778
32776
32775
32784
32785
32783
32784
32784
32789
32789
32796
32790
32792
32792
32798
32791
32804
32802
32804
32800
32797
32806
32804
32806
32808
32816
32810
32812
32812
32812
32805
32828
32820
32826
32834
32817
32832
32831
32833
32828
32834
32836
32830
32831
32832
32836
32837
32836
32839
32836
32838
32836
32840
32844
32844
32845
32842
32841
32846
32850
32846
32849
32848
32860
32852
32856
32852
32853
32857
32862
32856
32860
32852
32858
32858
32852
32854
32860
32856
32861
32869
32860
32862
32868
32860
32868
32869
32864
32868
32864
32870
32864
32871
32872
32864
32877
32871
32870
32871
32872
32872
32872
32872
32878
32878
32876
32876
32880
32880
32876
32878
32872
32877
32878
32877
32876
32883
32888
32882
32882
32884
32881
32892
32881
32892
32895
32887
32884
32889
32886
32895
32886
32894
32892
32896
32892
32898
32892
32894
32890
32896
32896
32900
32900
32900
32894
32897
32892
32897
32900
32901
32904
32900
32900
32906
32900
32900
32900
32908
32902
32900
32908
32904
32908
32908
32902
32908
32900
32906
32908
32900
32908
32897
32900
32911
32900
32902
32904
32912
32892
32905
32904
32900
32900
32909
32906
32908
32908
32898
32911
32902
32907
32900
32905
32900
32901
32900
32909
32904
32904
32908
32908
32901
32904
32900
32905
32908
32909
32902
32900
32908
32900
32908
32902
32908
32900
32908
32908
32904
32908
32904
32908
32908
32904
32905
32910
32912
32911
32922
32918
32916
32914
32916
32916
32920
32916
32916
32922
32924
32920
32911
32926
32926
32920
32924
32918
32925
32920
32928
32922
32924
32929
32929
32932
32922
32932
32924
32928
32940
32930
32932
32933
32932
32935
32928
32927
32936
32924
32928
32928
32928
32935
32925
32940
32936
32936
32935
32935
32936
32933
32934
32938
32934
32936
32932
32937
32936
32932
32936
32934
32936
32935
32936
32929
32936
32940
32938
32938
32936
32933
32943
32934
32930
32935
32940
32933
32928
32933
32932
32932
32920
32936
32930
32928
32935
32930
32932
32928
32928
32934
32928
32932
32926
32940
32940
32934
32932
32927
32929
32936
32933
32938
32936
32948
32948
32948
32948
32942
32956
32936
32948
32944
32952
32952
32950
32964
32952
32954
32958
32956
32954
32950
32960
32964
32958
32956
32962
32959
32960
32957
32954
32968
32968
32956
32950
32957
32957
32956
32950
32953
32952
32950
32952
32946
32953
32948
32943
32948
32942
32940
32936
32937
32936
32932
32936
32928
32924
32928
32926
32925
32929
32932
32926
32921
32927
32930
32924
32933
32930
32945
32936
32946
32937
32948
32945
32952
32952
32952
32964
32964
32964
32975
32978
32972
32988
32982
32998
32996
32996
33006
33018
33014
33012
33024
33025
33029
33041
33033
33044
33040
33047
33048
33053
33057
33054
33063
33061
33061
33065
33056
33062
33070
33072
33073
33077
33072
33072
33072
33071
33064
33070
33068
33069
33073
33081
33078
33072
33078
33080
33080
33076
33082
33080
33082
33084
33088
33087
33085
33092
33092
33094
33096
33095
33092
33092
33103
33100
33095
33098
33098
33108
33104
33112
33108
33104
33116
33116
33108
33119
33116
33125
33116
33118
33118
33116
33122
33126
33124
33126
33128
33126
33128
33124
33129
33136
33132
33136
33132
33138
33132
33140
33137
33142
33142
33138
33140
33142
33144
33152
33146
33148
33148
33153
33158
33162
33164
33168
33164
33170
33176
33180
33178
33185
33182
33192
33187
33188
33196
33200
33212
33205
33212
33216
33220
33223
33224
33236
33234
33238
33249
33246
33254
33265
33263
33269
33270
33278
33284
33284
33298
33295
33305
33312
33313
33315
33324
33334
33340
33340
33342
33354
33350
33368
33364
33368
33372
33380
33390
33400
33406
33408
33422
33418
33426
33429
33425
33452
33448
33462
33461
33466
33468
33479
33488
33487
33506
33504
33515
33526
33533
33534
33541
33554
33549
33568
33568
33576
33575
33597
33600
33617
33601
33616
33628
33634
33640
33654
33652
33660
33668
33670
33685
33689
33702
33708
33720
33724
33729
33734
33748
33748
33767
33773
33782
33784
33786
33799
33806
33822
33828
33836
33842
33852
33852
33868
33871
33880
33896
33904
33908
33910
33916
33932
33940
33948
33961
33972
33970
33980
33987
34000
33998
34017
34016
34029
34040
34048
34056
34068
34088
34088
34095
34102
34124
34127
34132
34148
34150
34168
34173
34184
34192
34204
34208
34214
34231
34228
34248
34253
34260
34262
34280
34295
34292
34310
34316
34313
34332
34350
34356
34366
34368
34372
34380
34400
34404
34414
34432
34432
34440
34448
34451
34464
34472
34494
34497
34500
34516
34532
34532
34540
34552
34564
34573
34586
34588
34608
34616
34628
34632
34646
34652
34662
34672
34684
34692
34700
34717
34724
34740
34746
34756
34764
34772
34784
34796
34804
34820
34824
34828
34844
34857
34860
34872
34888
34894
34906
34908
34927
34933
34948
34957
34960
34972
34984
34996
35008
35016
35020
35040
35040
35050
35061
35064
35084
35100
35097
35113
35120
35134
35137
35148
35156
35162
35172
35178
35193
35198
35212
35224
35220
35232
35240
35246
35252
35262
35276
35278
35287
35300
35309
35316
35318
35334
35341
35352
35350
35361
35372
35389
35396
35396
35413
35412
35424
35428
35439
35446
35448
35462
35479
35474
35488
35497
35502
35513
35520
35524
35532
35540
35542
35556
35556
35573
35589
35592
35604
35612
35620
35616
35617
35634
35640
35642
35656
35648
35668
35676
35681
35688
35700
35708
35713
35718
35740
35732
35744
35744
35756
35765
35776
35776
35792
35794
35812
35820
35813
35828
35836
35840
35847
35848
35870
35876
35892
35888
35900
35916
35911
35926
35920
35932
35940
35948
35962
35964
35974
35974
35981
35988
36004
36004
36012
36024
36023
36037
36044
36052
36056
36070
36072
36068
36086
36094
36100
36117
36116
36125
36132
36139
36142
36144
36156
36156
36172
36174
36184
36181
36200
36200
36199
36209
36218
36224
36232
36242
36244
36251
36254
36268
36272
36280
36280
36284
36294
36304
36314
36320
36318
36336
36327
36340
36348
36356
36357
36361
36372
36382
36380
36390
36392
36405
36409
36412
36416
36436
36434
36446
36446
36452
36456
36464
36471
36488
36487
36485
36504
36516
36512
36513
36532
36528
36542
36544
36553
36550
36566
36572
36581
36594
36590
36608
36604
36608
36624
36616
36632
36634
36648
36664
36656
36664
36676
36674
36684
36692
36701
36708
36714
36720
36724
36732
36736
36748
36760
36753
36762
36773
36776
36782
36792
36786
36816
36808
36816
36820
36824
36834
36842
36846
36861
36868
36864
36870
36880
36886
36894
36898
36904
36916
36924
36930
36941
36930
36933
36952
36960
36966
36957
36964
36978
36982
36990
36994
37010
37012
37016
37016
37012
37032
37024
37036
37044
37056
37048
37058
37060
37067
37080
37072
37090
37092
37104
37100
37110
37113
37124
37124
37136
37143
37148
37156
37156
37150
37159
37168
37177
37176
37188
37182
37193
37204
37207
37213
37214
37220
37220
37225
37241
37232
37244
37248
37257
37263
37258
37269
37272
37272
37284
37289
37284
37296
37306
37312
37312
37316
37326
37329
37332
37328
37343
37344
37356
37356
37358
37370
37368
37380
37376
37390
37391
37390
37396
37412
37409
37410
37424
37425
37424
37430
37431
37436
37455
37456
37452
37456
37460
37464
37473
37480
37476
37476
37493
37493
37508
37500
37509
37512
37516
37512
37524
37524
37532
37529
37536
37540
37545
37556
37544
37552
37552
37567
37550
37561
37562
37572
37564
37576
37580
37580
37572
37591
37592
37588
37576
37588
37584
37580
37597
37596
37598
37598
37598
37604
37604
37596
37606
37605
37606
37600
37608
37604
37612
37612
37614
37614
37620
37608
37624
37622
37626
37623
37624
37624
37639
37636
37628
37636
37636
37636
37636
37648
37644
37648
37642
37646
37652
37649
37652
37652
37652
37645
37652
37660
37656
37658
37658
37652
37668
37666
37658
37662
37664
37669
37673
37660
37676
37669
37680
37676
37673
37680
37684
37676
37682
37676
37682
37687
37688
37680
37684
37688
37684
37696
37688
37700
37696
37695
37704
37701
37700
37704
37704
37705
37708
37704
37698
37716
37704
37707
37716
37716
37712
37708
37711
37713
37708
37704
37714
37718
37716
37704
37716
37712
37708
37704
37704
37704
37700
37692
37704
37700
37700
37696
37693
37692
37685
37692
37688
37692
37684
37687
37688
37684
37686
37672
37680
37672
37673
37678
37674
37665
37668
37680
37680
37672
37676
37676
37679
37680
37680
37672
37672
37680
37672
37676
37676
37676
37673
37684
37674
37668
37692
37680
37684
37684
37693
37684
37684
37694
37693
37683
37692
37684
37688
37692
37694
37689
37696
37698
37696
37688
37692
37692
37692
37694
37688
37688
37692
37688
37684
37680
37692
37688
37684
37689
37688
37672
37668
37672
37672
37669
37668
37664
37666
37658
37656
37663
37660
37657
37652
37652
37652
37656
37644
37653
37646
37644
37649
37645
37644
37645
37645
37648
37652
37645
37644
37636
37650
37655
37640
37638
37629
37634
37632
37630
37630
37636
37629
37623
37628
37616
37620
37614
37616
37608
37604
37610
37608
37601
37607
37596
37591
37588
37586
37588
37596
37588
37578
37580
37583
37580
37576
37567
37564
37570
37562
37569
37558
37559
37559
37556
37560
37548
37554
37550
37557
37548
37544
37548
37542
37540
37540
37542
37544
37544
37534
37543
37543
37536
37537
37540
37534
37534
37536
37537
37540
37536
37536
37532
37532
37541
37533
37521
37527
37528
37528
37529
37524
37529
37526
37516
37520
37516
37528
37524
37524
37520
37516
37516
37516
37513
37520
37524
37524
37510
37521
37518
37516
37516
37516
37520
37524
37516
37506
37518
37509
37515
37512
37519
37514
37516
37508
37516
37511
37508
37508
37500
37518
37508
37509
37495
37506
37500
37502
37501
37508
37502
37493
37494
37486
37487
37485
37490
37492
37486
37484
37481
37477
37476
37476
37468
37468
37468
37468
37456
37460
37446
37448
37444
37436
37442
37437
37432
37432
37428
37420
37418
37418
37416
37404
37396
37400
37389
37388
37386
37381
37376
37374
37384
37376
37361
37360
37356
37350
37344
37349
37340
37348
37336
37329
37326
37337
37320
37332
37316
37316
37316
37316
37320
37313
37305
37305
37308
37309
37306
37297
37296
37286
37293
37284
37284
37292
37268
37272
37276
37272
37270
37265
37262
37256
37249
37252
37244
37241
37235
37236
37236
37224
37231
37217
37223
37220
37208
37208
37212
37207
37198
37196
37188
37180
37184
37175
37180
37182
37172
37176
37165
37164
37164
37156
37156
37145
37144
37142
37138
37132
37132
37121
37126
37120
37116
37120
37112
37110
37102
37101
37092
37094
37090
37092
37088
37085
37080
37082
37078
37076
37072
37069
37056
37055
37052
37052
37057
37046
37046
37036
37032
37032
37020
37020
37021
37016
37004
37001
36998
37000
37000
36988
36985
36980
36986
36976
36972
36976
36968
36964
36953
36956
36946
36948
36937
36940
36929
36932
36918
36924
36916
36912
36911
36900
36903
36896
36892
36884
36884
36877
36873
36872
36870
36862
36864
36862
36848
36845
36836
36841
36840
36834
36828
36832
36818
36816
36821
36808
36809
36804
36796
36800
36794
36789
36784
36780
36775
36772
36775
36765
36764
36766
36748
36757
36752
36747
36745
36732
36740
36734
36724
36720
36722
36711
36712
36716
36708
36688
36692
36700
36689
36684
36687
36676
36668
36669
36664
36666
36656
36660
36644
36658
36640
36632
36636
36633
36624
36617
36616
36606
36604
36596
36604
36593
36592
36592
36582
36580
36580
36572
36556
36557
36556
36548
36544
36536
36533
36528
36530
36525
36520
36514
36512
36512
36494
36496
36488
36484
36480
36472
36469
36476
36460
36452
36444
36446
36437
36440
36432
36428
36430
36414
36420
36404
36416
36400
36394
36392
36394
36388
36375
36376
36368
36370
36358
36351
36348
36344
36344
36332
36332
36328
36328
36312
36316
36312
36311
36291
36292
36292
36280
36274
36272
36275
36274
36268
36260
36260
36236
36252
36232
36232
36231
36223
36228
36216
36220
36209
36199
36192
36194
36190
36184
36183
36172
36167
36164
36162
36159
36156
36146
36145
36136
36128
36129
36126
36120
36112
36106
36106
36102
36100
36092
36088
36080
36072
36070
36065
36064
36056
36046
36046
36040
36036
36028
36028
36016
36014
36013
36002
36001
35997
35984
35988
35984
35969
35968
35960
35960
35950
35948
35934
35940
35936
35920
35921
35912
35908
35900
35912
35892
35884
35884
35872
35866
35863
35860
35856
35845
35836
35839
35820
35820
35820
35808
35804
35796
35800
35793
35776
35780
35760
35764
35762
35752
35748
35743
35744
35732
35727
35716
35712
35712
35700
35693
35692
35697
35685
35676
35664
35678
35656
35664
35651
35644
35640
35632
35628
35617
35618
35618
35614
35604
35604
35596
35594
35584
35576
35575
35577
35568
35564
35564
35566
35550
35548
35548
35536
35537
35534
35526
35524
35516
35509
35510
35506
35504
35493
35492
35484
35484
35478
35465
35469
35462
35458
35441
35447
35444
35438
35431
35430
35420
35421
35412
35406
35396
35389
35388
35382
35376
35372
35369
35357
35348
35358
35342
35340
35325
35332
35314
35324
35316
35296
35298
35294
35284
35287
35272
35272
35268
35271
35256
35252
35252
35240
35252
35236
35230
35222
35216
35226
35213
35204
35197
35196
35190
35184
35188
35188
35176
35177
35175
35170
35161
35156
35152
35151
35148
35136
35140
35128
35132
35121
35128
35116
35116
35110
35104
35096
35102
35092
35088
35092
35076
35076
35073
35078
35068
35056
35056
35047
35044
35045
35042
35041
35036
35031
35028
35020
35023
35017
35016
35008
35009
35008
35006
35007
35004
34996
34997
34992
34992
35000
34988
34996
34986
34989
34989
34985
34980
34978
34980
34976
34974
34970
34972
34972
34968
34969
34966
34970
34965
34962
34964
34962
34961
34951
34952
34952
34951
34949
34948
34948
34936
34946
34932
34932
34934
34938
34932
34932
34928
34924
34924
34924
34924
34912
34919
34912
34920
34912
34911
34912
34908
34910
34902
34902
34904
34904
34892
34896
34900
34892
34894
34894
34888
34892
34888
34884
34888
34886
34884
34880
34886
34880
34884
34888
34880
34880
34876
34881
34878
34884
34880
34876
34872
34874
34873
34876
34876
34872
34876
34868
34874
34874
34880
34872
34878
34879
34868
34878
34880
34877
34884
34884
34882
34876
34876
34868
34882
34873
34872
34868
34873
34876
34868
34876
34875
34872
34869
34872
34868
34873
34862
34872
34863
34856
34861
34860
34854
34856
34860
34860
34852
34854
34856
34852
34852
34853
34849
34852
34848
34844
34840
34832
34832
34831
34829
34830
34824
34823
34817
34812
34815
34815
34816
34800
34799
34792
34794
34793
34776
34776
34776
34768
34772
34766
34758
34756
34749
34748
34740
34732
34732
34726
34728
34718
34718
34708
34698
34698
34696
34685
34689
34676
34676
34665
34664
34654
34636
34645
34640
34648
34630
34622
34621
34628
34618
34614
34604
34599
34592
34592
34588
34584
34576
34577
34574
34564
34568
34566
34560
34554
34553
34552
34548
34548
34540
34540
34532
34524
34520
34528
34524
34522
34520
34516
34508
34500
34508
34500
34498
34500
34500
34496
34488
34480
34480
34476
34476
34489
34468
34476
34481
34477
34484
34466
34468
34466
34468
34462
34460
34452
34458
34460
34457
34456
34454
34448
34453
34452
34446
34452
34444
34444
34442
34438
34448
34438
34436
34436
34437
34440
34436
34433
34430
34440
34432
34436
34436
34436
34431
34428
34428
34422
34432
34426
34432
34424
34420
34416
34424
34414
34416
34414
34412
34407
34412
34410
34413
34407
34404
34405
34400
34404
34396
34402
34404
34392
34400
34392
34392
34392
34392
34385
34384
34376
34376
34388
34370
34376
34380
34376
34376
34372
34374
34368
34368
34361
34372
34366
34368
34369
34352
34373
34370
34368
34366
34368
34372
34372
34372
34372
34377
34361
34372
34376
34372
34380
34377
34372
34378
34373
34380
34382
34380
34381
34382
34372
34372
34380
34380
34369
34372
34372
34374
34374
34380
34372
34374
34378
34373
34375
34374
34371
34368
34373
34373
34384
34372
34378
34384
34369
34372
34380
34384
34380
34380
34385
34376
34388
34388
34392
34404
34400
34398
34404
34401
34410
34404
34402
34417
34421
34420
34430
34420
34429
34433
34436
34439
34448
34453
34448
34453
34452
34464
34460
34468
34468
34476
34472
34485
34485
34487
34498
34500
34500
34510
34509
34510
34520
34524
34528
34532
34532
34544
34542
34548
34548
34556
34560
34564
34566
34573
34574
34575
34584
34590
34596
34597
34598
34602
34608
34617
34629
34628
34624
34632
34628
34637
34643
34640
34648
34648
34660
34655
34668
34668
34668
34676
34673
34684
34684
34689
34688
34692
34700
34700
34701
34716
34709
34722
34718
34724
34728
34735
34721
34738
34733
34740
34746
34757
34751
34756
34756
34765
34757
34764
34768
34772
34768
34785
34780
34788
34784
34788
34798
34796
34793
34804
34808
34804
34812
34812
34828
34816
34828
34826
34830
34840
34832
34847
34848
34852
34857
34855
34852
34865
34866
34864
34868
34876
34876
34880
34876
34884
34886
34892
34889
34897
34896
34904
34905
34908
34905
34914
34916
34917
34922
34926
34932
34921
34935
34927
34926
34933
34941
34940
34938
34950
34941
34953
34944
34951
34953
34963
34962
34954
34972
34966
34969
34972
34969
34976
34981
34980
34983
34990
34983
34988
34988
34992
35004
35000
35000
35006
35008
35010
35012
35007
35008
35023
35016
35028
35021
35024
35027
35028
35032
35036
35038
35036
35044
35052
35044
35056
35048
35052
35048
35055
35065
35058
35063
35066
35068
35068
35076
35068
35076
35080
35077
35080
35088
35089
35086
35094
35094
35100
35092
35098
35100
35100
35112
35112
35116
35104
35113
35118
35120
35124
35125
35124
35134
35137
35134
35140
35140
35142
35144
35145
35140
35152
35152
35154
35164
35158
35167
35160
35164
35168
35172
35172
35189
35180
35188
35188
35185
35192
35201
35200
35196
35196
35201
35204
35209
35212
35208
35212
35204
35218
35216
35216
35223
35216
35222
35231
35233
35237
35224
35239
35232
35238
35236
35241
35241
35247
35240
35249
35249
35236
35252
35252
35260
35256
35252
35257
35256
35260
35249
35268
35260
35264
35268
35258
35264
35264
35269
35264
35270
35268
35262
35268
35268
35264
35276
35270
35276
35265
35276
35276
35269
35272
35272
35274
35272
35272
35278
35272
35276
35272
35272
35280
35280
35276
35284
35276
35271
35274
35272
35284
35272
35272
35274
35272
35272
35278
35272
35274
35272
35276
35269
35279
35269
35268
35270
35270
35276
35264
35277
35268
35268
35268
35281
35269
35264
35264
35270
35263
35266
35274
35268
35268
35272
35268
35268
35268
35261
35264
35262
35266
35260
35268
35265
35260
35256
35257
35260
35260
35265
35260
35252
35252
35252
35260
35252
35244
35245
35253
35246
35244
35234
35244
35232
35230
35233
35228
35224
35224
35225
35224
35220
35220
35215
35212
35210
35206
35210
35196
35205
35192
35200
35190
35184
35184
35176
35172
35178
35166
35172
35164
35156
35164
35161
35152
35148
35160
35156
35136
35129
35135
35132
35122
35118
35116
35112
35118
35112
35103
35108
35094
35092
35088
35092
35088
35086
35080
35072
35064
35070
35060
35056
35060
35050
35049
35044
35044
35040
35040
35034
35033
35028
35024
35028
35028
35013
35016
35012
35010
35006
35012
35005
34996
35000
34984
34991
34990
34982
34976
34981
34972
34968
34969
34966
34952
34950
34956
34948
34944
34937
34926
34930
34924
34916
34910
34902
34900
34895
34892
34885
34876
34868
34857
34852
34856
34846
34836
34836
34816
34817
34804
34792
34796
34788
34784
34769
34764
34756
34753
34740
34740
34736
34724
34729
34716
34713
34698
34703
34687
34692
34684
34692
34690
34673
34668
34670
34662
34652
34656
34644
34654
34647
34652
34644
34645
34639
34636
34638
34634
34630
34631
34628
34617
34620
34613
34613
34608
34612
34604
34599
34584
34585
34593
34588
34572
34580
34562
34558
34552
34543
34543
34534
34542
34524
34526
34516
34516
34504
34500
34492
34485
34484
34480
34478
34464
34468
34448
34450
34444
34437
34433
34436
34424
34429
34420
34413
34408
34408
34404
34400
34399
34389
34388
34388
34374
34372
34368
34356
34354
34356
34354
34350
34342
34332
34328
34337
34324
34320
34318
34316
34316
34316
34300
34298
34280
34288
34281
34273
34276
34270
34266
34253
34248
34244
34241
34248
34229
34230
34225
34221
34216
34204
34202
34191
34190
34184
34185
34176
34183
34166
34156
34150
34156
34161
34148
34142
34136
34132
34132
34124
34128
34116
34110
34110
34106
34108
34100
34104
34094
34097
34085
34084
34076
34080
34088
34066
34072
34065
34058
34064
34060
34054
34052
34054
34044
34044
34038
34036
34044
34036
34036
34028
34028
34025
34020
34012
34017
34014
34008
34004
33996
34001
33998
34005
33986
33992
33982
33988
33980
33976
33976
33976
33968
33968
33966
33953
33958
33956
33954
33952
33956
33948
33944
33942
33940
33940
33929
33938
33924
33922
33922
33924
33921
33916
33919
33896
33895
33898
33900
33888
33888
33876
33887
33878
33876
33888
33871
33864
33863
33858
33852
33853
33854
33844
33844
33848
33836
33828
33830
33830
33824
33824
33817
33822
33808
33806
33808
33801
33791
33801
33785
33786
33784
33776
33776
33778
33776
33764
33768
33764
33764
33756
33756
33750
33748
33736
33740
33734
33729
33720
33730
33728
33722
33724
33718
33716
33709
33713
33708
33704
33703
33694
33698
33701
33696
33692
33701
33689
33688
33689
33688
33685
33687
33680
33680
33669
33679
33672
33670
33672
33664
33668
33658
33658
33660
33652
33651
33646
33649
33636
33634
33632
33632
33624
33624
33621
33615
33606
33608
33604
33598
33601
33596
33588
33592
33585
33596
33588
33580
33573
33584
33572
33577
33572
33572
33560
33572
33572
33556
33556
33552
33556
33554
33548
33552
33548
33552
33548
33550
33543
33544
33545
33542
33529
33530
33536
33522
33528
33526
33524
33523
33526
33516
33524
33521
33517
33516
33512
33506
33501
33500
33507
33505
33496
33496
33496
33494
33496
33492
33484
33484
33476
33486
33484
33483
33476
33476
33472
33472
33472
33464
33465
33465
33456
33466
33471
33461
33466
33456
33449
33444
33452
33456
33444
33456
33451
33448
33444
33452
33439
33440
33441
33445
33440
33444
33440
33437
33434
33434
33438
33444
33428
33432
33428
33438
33434
33430
33420
33421
33428
33424
33424
33416
33416
33415
33412
33409
33409
33414
33408
33420
33400
33402
33400
33398
33404
33404
33396
33396
33402
33394
33385
33388
33394
33385
33384
33385
33380
33377
33372
33365
33368
33372
33368
33368
33378
33361
33364
33360
33356
33357
33348
33357
33351
33348
33335
33359
33341
33344
33342
33334
33329
33332
33336
33317
33324
33320
33316
33316
33308
33305
33306
33310
33311
33300
33295
33294
33290
33292
33293
33286
33285
33280
33276
33276
33272
33274
33268
33268
33264
33264
33256
33262
33260
33253
33246
33244
33237
33252
33240
33244
33237
33228
33220
33222
33214
33220
33224
33220
33212
33212
33212
33208
33197
33194
33198
33204
33190
33180
33190
33189
33182
33186
33184
33172
33180
33168
33172
33170
33168
33164
33159
33164
33164
33163
33149
33156
33154
33153
33158
33144
33146
33142
33148
33149
33140
33140
33133
33135
33134
33128
33128
33125
33126
33124
33120
33119
33120
33116
33106
33116
33105
33114
33111
33104
33112
33108
33100
33094
33104
33102
33098
33098
33090
33092
33095
33088
33087
33095
33084
33086
33086
33089
33078
33086
33082
33068
33082
33068
33076
33076
33062
33062
33061
33056
33064
33055
33056
33060
33054
33054
33056
33044
33050
33052
33052
33044
33040
33036
33044
33036
33044
33038
33042
33030
33036
33026
33036
33029
33022
33028
33028
33022
33014
33012
33020
33012
33012
33012
33021
33008
33006
33008
33014
33010
33007
33000
32999
33004
32994
32992
32996
33000
32997
33004
32993
32996
32996
32997
32992
32996
32992
32984
32990
32994
32985
32992
32988
32984
32986
32988
32990
32984
32984
32988
32976
32980
32984
32982
32984
32973
32970
32966
32968
32972
32968
32968
32966
32962
32968
32966
32967
32967
32960
32960
32962
32964
32956
32960
32957
32946
32949
32942
32952
32948
32948
32950
32944
32946
32943
32937
32940
32936
32932
32938
32930
32938
32932
32929
32932
32929
32929
32932
32928
32929
32920
32929
32922
32928
32927
32926
32924
32916
32918
32924
32916
32922
32917
32910
32908
32908
32917
32904
32908
32908
32896
32910
32900
32894
32889
32893
32896
32892
32884
32892
32884
32884
32884
32881
32877
32876
32868
32868
32870
32864
32863
32861
32862
32846
32861
32851
32853
32846
32844
32846
32844
32840
32834
32834
32830
32831
32828
32830
32825
32833
32822
32820
32822
32812
32814
32813
32817
32804
32804
32800
32804
32798
32796
32800
32800
32800
32798
32794
32788
32792
32780
32774
32777
32785
32773
32782
32780
32776
32776
32775
32774
32772
32772
32768
32764
32760
32764
32764
32762
32764
32770
32756
32769
32756
32752
32756
32756
32754
32758
32744
32754
32753
32751
32741
32750
32740
32742
32736
32732
32740
32738
32737
32732
32733
32724
32722
32721
32709
32714
32709
32704
32700
32693
32696
32686
32688
32672
32672
32672
32668
32656
32648
32644
32644
32632
32631
32622
32624
32609
32614
32596
32598
32586
32580
32576
32577
32561
32556
32552
32544
32544
32542
32537
32530
32526
32526
32521
32514
32520
32516
32516
32508
32512
32516
32511
32508
32502
32508
32502
32496
32500
32504
32512
32502
32504
32510
32509
32510
32512
32514
32501
32509
32500
32507
32502
32508
32512
32508
32502
32504
32497
32495
32496
32496
32497
32495
32485
32480
32480
32474
32482
32472
32472
32472
32456
32462
32452
32452
32452
32450
32448
32452
32436
32438
32450
32434
32438
32431
32430
32439
32432
32426
32428
32428
32422
32420
32408
32413
32418
32413
32414
32407
32408
32406
32408
32405
32400
32404
32396
32393
32396
32385
32392
32385
32381
32384
32378
32376
32373
32380
32364
32374
32364
32364
32352
32350
32344
32348
32343
32337
32340
32338
32340
32329
32328
32324
32324
32323
32320
32312
32313
32310
32308
32308
32300
32292
32292
32296
32298
32292
32282
32284
32276
32277
32277
32276
32282
32284
32272
32270
32264
32266
32256
32263
32250
32260
32262
32248
32250
32253
32248
32244
32248
32248
32244
32240
32238
32244
32238
32232
32239
32236
32236
32232
32228
32237
32238
32232
32230
32231
32232
32228
32225
32231
32236
32228
32223
32226
32234
32224
32226
32224
32228
32228
32228
32222
32221
32225
32216
32232
32223
32224
32217
32220
32228
32221
32212
32216
32212
32212
32212
32216
32212
32218
32212
32216
32206
32208
32212
32215
32212
32212
32220
32204
32208
32213
32206
32212
32212
32208
32209
32204
32220
32212
32212
32214
32202
32212
32215
32204
32212
32218
32214
32208
32215
32218
32216
32212
32212
32216
32214
32220
32220
32218
32220
32222
32228
32228
32227
32228
32228
32228
32229
32236
32230
32234
32234
32228
32237
32232
32244
32240
32243
32240
32241
32252
32255
32252
32246
32258
32257
32261
32257
32274
32264
32269
32274
32280
32284
32284
32278
32283
32284
32300
32296
32292
32308
32305
32316
32304
32310
32322
32328
32324
32324
32322
32332
32334
32332
32337
32340
32342
32348
32350
32348
32348
32356
32348
32354
32360
32366
32372
32375
32368
32377
32376
32374
32380
32388
32388
32394
32397
32392
32398
32406
32412
32424
32420
32423
32423
32428
32436
32436
32450
32448
32457
32460
32468
32484
32473
32476
32484
32484
32496
32498
32500
32512
32514
32520
32528
32530
32540
32540
32548
32554
32556
32552
32566
32572
32568
32578
32580
32587
32592
32596
32604
32600
32601
32598
32612
32615
32620
32617
32634
32629
32641
32638
32648
32647
32646
32652
32663
32673
32670
32668
32677
32673
32678
32684
32677
32700
32689
32700
32697
32704
32708
32712
32712
32718
32732
32724
32736
32734
32736
32744
32742
32742
32752
32750
32752
32756
32764
32764
32757
32770
32764
32765
32768
32772
32780
32790
32788
32794
32796
32785
32797
32805
32800
32804
32808
32804
32816
32812
32808
32816
32820
32824
32829
32831
32829
32833
32838
32829
32832
32838
32836
32856
32840
32857
32852
32852
32850
32852
32864
32864
32863
32860
32862
32868
32870
32868
32876
32876
32880
32879
32881
32880
32876
32885
32884
32889
32884
32900
32885
32893
32900
32900
32900
32892
32894
32900
32905
32911
32905
32908
32905
32912
32919
32916
32918
32912
32920
32920
32917
32924
32926
32924
32932
32932
32938
32930
32930
32937
32930
32940
32938
32932
32942
32944
32945
32940
32950
32952
32950
32941
32952
32960
32957
32958
32949
32956
32964
32956
32957
32956
32960
32965
32956
32965
32967
32968
32977
32972
32977
32981
32984
32988
32981
32982
32983
32994
32992
32990
32989
32992
32996
33001
32999
32997
33004
33005
33016
33010
33020
33024
33017
33020
33024
33036
33038
33037
33041
33039
33046
33052
33050
33055
33056
33056
33064
33067
33068
33076
33074
33073
33088
33084
33092
33094
33096
33100
33104
33112
33110
33113
33112
33118
33120
33127
33136
33132
33140
33142
33144
33150
33148
33156
33158
33158
33164
33168
33168
33176
33174
33176
33180
33184
33180
33184
33191
33196
33197
33204
33201
33204
33209
33213
33216
33214
33224
33224
33224
33230
33239
33236
33240
33244
33250
33252
33250
33255
33256
33260
33252
33274
33266
33280
33277
33280
33286
33276
33289
33292
33304
33292
33300
33310
33314
33316
33312
33316
33324
33327
33328
33332
33332
33341
33334
33342
33344
33352
33352
33349
33348
33360
33364
33358
33367
33372
33374
33375
33388
33380
33384
33380
33396
33400
33396
33390
33400
33404
33404
33404
33420
33406
33416
33415
33420
33421
33423
33428
33433
33436
33428
33438
33439
33436
33449
33456
33454
33450
33464
33455
33452
33464
33464
33476
33470
33477
33478
33483
33478
33484
33480
33488
33498
33480
33492
33504
33500
33496
33496
33505
33508
33509
33509
33510
33521
33516
33514
33525
33529
33526
33526
33526
33536
33532
33534
33536
33537
33546
33545
33545
33548
33548
33552
33556
33557
33551
33562
33572
33556
33565
33564
33570
33560
33568
33574
33581
33575
33576
33580
33573
33580
33585
33577
33581
33588
33582
33588
33594
33604
33592
33592
33598
33592
33609
33602
33602
33600
33604
33605
33607
33604
33604
33604
33606
33612
33610
33612
33614
33612
33616
33612
33614
33624
33616
33620
33622
33620
33621
33620
33628
33632
33628
33628
33630
33634
33636
33638
33632
33642
33630
33644
33636
33638
33644
33644
33640
33646
33646
33652
33644
33654
33656
33652
33649
33652
33664
33656
33664
33660
33665
33661
33660
33668
33668
33669
33672
33678
33687
33676
33684
33674
33684
33684
33684
33684
33689
33692
33689
33693
33700
33692
33700
33696
33701
33703
33709
33709
33710
33706
33712
33713
33712
33716
33716
33712
33720
33716
33724
33716
33713
33722
33720
33717
33727
33719
33722
33724
33719
33716
33719
33728
33725
33718
33720
33716
33720
33714
33708
33716
33709
33712
33706
33704
33700
33700
33701
33700
33700
33692
33692
33682
33684
33680
33684
33686
33672
33670
33680
33670
33672
33671
33676
33671
33673
33680
33672
33680
33674
33681
33680
33688
33682
33685
33700
33692
33700
33707
33705
33708
33713
33710
33721
33720
33732
33728
33733
33743
33746
33752
33756
33756
33762
33760
33766
33768
33765
33784
33786
33782
33788
33774
33792
33784
33792
33798
33796
33800
33807
33788
33800
33805
33814
33798
33804
33810
33810
33820
33809
33812
33815
33813
33812
33816
33818
33822
33823
33817
33820
33826
33828
33824
33830
33831
33828
33828
33830
33836
33832
33836
33839
33842
33836
33844
33841
33832
33838
33840
33844
33838
33840
33846
33836
33844
33844
33840
33840
33839
33844
33836
33840
33840
33832
33841
33832
33828
33825
33824
33824
33836
33825
33821
33822
33820
33820
33820
33820
33810
33812
33812
33815
33813
33804
33798
33799
33802
33796
33797
33793
33800
33798
33796
33785
33788
33786
33788
33780
33788
33782
33773
33780
33782
33780
33774
33780
33775
33775
33772
33774
33780
33775
33764
33772
33774
33769
33768
33777
33768
33773
33776
33772
33776
33777
33776
33773
33775
33774
33772
33769
33772
33778
33772
33777
33780
33780
33772
33780
33776
33780
33780
33786
33792
33787
33790
33788
33788
33797
33792
33784
33796
33799
33793
33800
33812
33804
33800
33808
33812
33813
33812
33820
33816
33820
33826
33833
33822
33832
33836
33836
33840
33844
33848
33861
33852
33864
33860
33869
33866
33876
33878
33873
33884
33888
33896
33900
33900
33898
33912
33912
33920
33924
33927
33929
33940
33944
33953
33956
33962
33969
33974
33980
33980
33989
33992
34000
34016
34010
34026
34032
34029
34044
34046
34060
34052
34071
34081
34082
34092
34090
34104
34108
34117
34113
34124
34132
34140
34145
34156
34170
34174
34180
34184
34200
34204
34216
34220
34228
34236
34238
34260
34266
34268
34286
34294
34295
34304
34324
34332
34344
34344
34356
34372
34373
34386
34389
34408
34407
34414
34428
34438
34448
34444
34453
34470
34476
34486
34497
34510
34505
34520
34532
34544
34548
34556
34564
34573
34592
34596
34600
34616
34623
34628
34638
34652
34671
34684
34690
34700
34710
34709
34718
34736
34744
34754
34764
34776
34784
34799
34805
34816
34836
34846
34856
34860
34876
34884
34901
34900
34924
34930
34942
34950
34964
34976
34978
34989
35004
35004
35020
35022
35041
35044
35062
35061
35082
35084
35095
35114
35118
35125
35136
35146
35158
35172
35184
35188
35196
35204
35222
35220
35233
35248
35254
35266
35272
35277
35295
35298
35312
35317
35328
35348
35354
35357
35369
35380
35390
35389
35400
35412
35420
35417
35437
35444
35455
35461
35476
35478
35485
35494
35501
35509
35518
35528
35528
35544
35556
35553
35567
35576
35583
35590
35604
35612
35612
35620
35640
35638
35656
35654
35668
35666
35679
35684
35690
35708
35711
35718
35717
35744
35738
35750
35753
35766
35772
35777
35796
35792
35796
35806
35814
35832
35829
35844
35844
35864
35861
35872
35868
35886
35892
35902
35906
35912
35918
35924
35928
35940
35948
35948
35952
35964
35968
35976
35986
35991
35998
36004
36014
36014
36021
36030
36038
36042
36048
36052
36054
36063
36069
36074
36085
36089
36093
36088
36104
36110
36108
36124
36124
36125
36129
36140
36148
36150
36156
36152
36156
36164
36169
36175
36176
36191
36190
36194
36198
36206
36204
36214
36213
36218
36228
36226
36226
36240
36254
36250
36252
36271
36261
36273
36272
36288
36277
36288
36296
36302
36302
36308
36318
36324
36328
36334
36332
36336
36350
36348
36356
36361
36366
36370
36380
36383
36388
36400
36408
36408
36420
36424
36426
36430
36428
36444
36452
36444
36452
36468
36469
36469
36484
36479
36485
36496
36493
36509
36516
36519
36528
36532
36540
36545
36552
36556
36558
36564
36564
36572
36578
36588
36592
36596
36606
36607
36606
36612
36626
36621
36628
36644
36648
36640
36656
36656
36660
36672
36680
36680
36686
36700
36694
36698
36712
36713
36712
36724
36730
36732
36732
36741
36748
36745
36756
36776
36772
36772
36777
36784
36788
36798
36798
36804
36798
36812
36820
36814
36826
36829
36840
36839
36856
36842
36852
36864
36871
36860
36876
36882
36884
36889
36884
36892
36904
36904
36916
36920
36920
36925
36926
36926
36930
36948
36952
36941
36944
36956
36956
36965
36966
36969
36978
36977
36984
36988
36988
36992
37002
37008
36997
37000
37016
37015
37014
37020
37026
37028
37032
37025
37030
37032
37036
37044
37042
37045
37050
37052
37053
37060
37056
37060
37060
37064
37068
37074
37070
37072
37074
37073
37084
37076
37092
37084
37089
37084
37088
37093
37095
37092
37100
37097
37100
37102
37094
37108
37104
37104
37108
37098
37113
37104
37113
37116
37120
37120
37120
37120
37120
37132
37129
37125
37129
37136
37130
37133
37135
37140
37132
37142
37148
37156
37148
37140
37156
37148
37146
37151
37160
37152
37165
37164
37167
37160
37176
37160
37174
37172
37185
37176
37178
37184
37184
37185
37184
37184
37176
37184
37188
37200
37196
37185
37200
37200
37204
37204
37204
37209
37199
37204
37210
37201
37208
37212
37212
37214
37204
37214
37220
37212
37205
37220
37216
37212
37208
37216
37220
37218
37222
37216
37214
37218
37204
37210
37212
37209
37212
37212
37216
37220
37212
37208
37220
37223
37212
37208
37207
37212
37204
37215
37214
37212
37206
37208
37205
37204
37208
37205
37212
37206
37206
37208
37208
37200
37206
37196
37209
37200
37206
37200
37214
37204
37206
37200
37200
37201
37199
37208
37206
37200
37197
37212
37212
37200
37198
37212
37204
37205
37194
37199
37204
37198
37198
37200
37208
37207
37205
37206
37197
37209
37208
37206
37206
37212
37206
37208
37204
37204
37208
37210
37204
37200
37207
37208
37205
37206
37204
37214
37206
37204
37206
37208
37198
37212
37208
37196
37192
37204
37200
37192
37190
37192
37188
37192
37180
37188
37184
37183
37174
37176
37176
37180
37180
37168
37166
37175
37164
37156
37160
37162
37162
37156
37154
37160
37156
37160
37152
37153
37152
37158
37148
37148
37137
37140
37148
37141
37148
37137
37152
37148
37138
37146
37150
37142
37141
37140
37140
37137
37140
37138
37142
37130
37136
37136
37132
37132
37128
37142
37132
37133
37133
37120
37125
37124
37127
37112
37116
37120
37114
37122
37112
37108
37108
37108
37105
37100
37088
37086
37084
37094
37090
37081
37094
37074
37084
37068
37068
37066
37061
37056
37056
37056
37056
37046
37052
37044
37036
37034
37032
37030
37028
37028
37025
37016
37025
37013
37013
37008
37017
37012
37009
37000
37000
37002
36992
36986
36989
36988
36985
36975
36972
36974
36980
36968
36964
36965
36956
36950
36948
36948
36941
36948
36928
36932
36924
36928
36924
36912
36908
36902
36900
36889
36900
36890
36884
36888
36876
36878
36868
36862
36860
36866
36856
36852
36856
36852
36846
36847
36839
36838
36836
36822
36816
36822
36812
36812
36805
36808
36798
36808
36794
36785
36791
36784
36785
36786
36776
36780
36769
36768
36768
36766
36760
36752
36752
36750
36752
36749
36748
36741
36743
36746
36744
36740
36732
36736
36728
36736
36732
36712
36724
36721
36713
36713
36708
36702
36705
36704
36703
36692
36700
36692
36692
36686
36690
36685
36676
36676
36676
36678
36680
36674
36666
36668
36662
36662
36664
36664
36654
36649
36654
36656
36652
36652
36648
36646
36644
36640
36638
36639
36628
36628
36628
36626
36625
36625
36628
36609
36622
36612
36622
36612
36613
36604
36605
36601
36596
36594
36592
36607
36588
36592
36580
36580
36569
36568
36568
36569
36560
36558
36558
36556
36544
36548
36548
36545
36542
36525
36528
36528
36516
36526
36508
36504
36504
36492
36492
36496
36493
36484
36484
36476
36480
36476
36480
36471
36461
36464
36460
36453
36453
36455
36452
36452
36446
36444
36444
36436
36436
36438
36426
36420
36422
36417
36430
36412
36404
36416
36400
36404
36408
36400
36393
36393
36376
36382
36382
36378
36376
36364
36365
36364
36352
36359
36348
36343
36338
36324
36324
36336
36316
36326
36319
36302
36308
36304
36298
36292
36286
36292
36287
36282
36284
36284
36276
36272
36264
36262
36266
36260
36256
36252
36257
36252
36248
36238
36240
36236
36238
36222
36218
36220
36215
36214
36214
36204
36198
36198
36188
36188
36188
36176
36180
36180
36166
36166
36156
36156
36144
36148
36142
36136
36134
36132
36116
36124
36108
36112
36101
36097
36093
36086
36084
36071
36074
36060
36069
36056
36052
36050
36036
36032
36036
36024
36012
36008
36006
35998
36000
35988
35986
35972
35968
35964
35966
35956
35946
35940
35924
35934
35932
35913
35911
35908
35897
35897
35886
35874
35876
35868
35860
35857
35849
35847
35842
35836
35824
35816
35810
35816
35804
35800
35786
35780
35784
35772
35759
35748
35749
35744
35728
35740
35714
35716
35710
35704
35684
35684
35678
35680
35668
35660
35646
35639
35628
35624
35620
35621
35607
35606
35601
35582
35572
35564
35572
35553
35552
35538
35532
35527
35520
35516
35508
35492
35492
35480
35472
35462
35460
35452
35450
35433
35428
35424
35424
35414
35395
35392
35378
35376
35364
35359
35352
35346
35338
35328
35316
35308
35308
35295
35300
35284
35276
35274
35258
35255
35236
35236
35223
35220
35208
35191
35186
35188
35180
35168
35162
35150
35145
35136
35126
35120
35104
35113
35100
35088
35076
35072
35074
35056
35046
35036
35034
35029
35019
35014
35004
34996
34990
34980
34980
34964
34956
34945
34940
34935
34926
34924
34910
34906
34887
34884
34880
34873
34856
34856
34852
34842
34828
34824
34812
34808
34800
34788
34784
34778
34764
34764
34762
34744
34736
34728
34721
34720
34716
34704
34695
34686
34676
34678
34665
34657
34653
34644
34632
34626
34616
34608
34602
34596
34584
34584
34572
34572
34562
34558
34544
34540
34536
34531
34520
34514
34503
34504
34496
34482
34472
34478
34462
34466
34450
34452
34448
34436
34424
34428
34416
34412
34408
34400
34392
34392
34384
34376
34372
34368
34360
34352
34348
34340
34328
34324
34321
34312
34300
34302
34292
34288
34276
34278
34265
34262
34252
34258
34246
34237
34232
34222
34222
34210
34212
34207
34199
34182
34182
34184
34164
34167
34160
34146
34144
34132
34126
34128
34116
34116
34108
34097
34093
34082
34084
34072
34072
34060
34058
34050
34036
34032
34020
34024
34012
34008
34008
33991
33988
33977
33975
33964
33953
33959
33946
33942
33924
33932
33921
33916
33900
33904
33896
33886
33880
33873
33868
33862
33852
33846
33833
33830
33826
33820
33812
33807
33800
33788
33788
33782
33770
33764
33759
33757
33748
33740
33730
33728
33725
33724
33710
33702
33703
33688
33686
33676
33673
33671
33652
33652
33640
33637
33630
33622
33620
33605
33604
33592
33588
33584
33580
33564
33556
33553
33551
33540
33532
33524
33522
33518
33512
33502
33500
33484
33488
33480
33472
33470
33468
33454
33444
33447
33436
33439
33428
33420
33415
33406
33411
33399
33392
33391
33385
33377
33368
33366
33361
33356
33354
33350
33344
33340
33340
33333
33324
33316
33313
33308
33317
33308
33300
33288
33284
33288
33278
33278
33276
33268
33252
33261
33248
33252
33242
33232
33238
33234
33223
33220
33208
33214
33204
33212
33196
33193
33190
33178
33184
33176
33174
33168
33168
33161
33156
33164
33140
33152
33142
33129
33128
33116
33132
33116
33120
33114
33113
33106
33118
33102
33102
33098
33096
33092
33078
33087
33074
33072
33066
33068
33056
33056
33045
33052
33048
33046
33040
33036
33032
33032
33024
33015
33008
33005
33008
33000
32996
33004
32984
32988
32976
32973
32966
32969
32964
32964
32950
32951
32948
32952
32944
32943
32932
32932
32932
32932
32926
32916
32917
32918
32920
32908
32908
32904
32908
32912
32910
32902
32900
32908
32902
32904
32900
32896
32901
32897
32902
32902
32902
32904
32902
32896
32904
32900
32892
32900
32896
32900
32897
32893
32898
32896
32906
32898
32901
32910
32910
32906
32910
32908
32910
32908
32916
32916
32917
32920
32930
32926
32918
32924
32928
32933
32936
32936
32940
32934
32940
32932
32932
32933
32936
32940
32956
32940
32943
32945
32948
32948
32950
32940
32950
32949
32943
32949
32948
32944
32948
32945
32944
32948
32951
32938
32940
32948
32937
32946
32944
32946
32941
32935
32954
32948
32940
32932
32938
32948
32941
32930
32940
32932
32932
32936
32924
32920
32922
32926
32916
32920
32904
32908
32906
32902
32896
32893
32892
32885
32879
32877
32876
32866
32864
32866
32852
32848
32848
32845
32834
32830
32820
32824
32814
32809
32804
32800
32796
32792
32800
32778
32769
32764
32758
32756
32750
32744
32743
32749
32734
32741
32730
32724
32714
32716
32706
32704
32696
32696
32689
32690
32682
32672
32684
32676
32668
32664
32660
32667
32660
32648
32655
32644
32644
32648
32636
32630
32634
32630
32634
32634
32629
32624
32629
32620
32617
32617
32618
32616
32612
32610
32613
32606
32606
32606
32601
32604
32596
32600
32602
32596
32596
32598
32600
32596
32591
32601
32598
32592
32592
32592
32590
32589
32598
32592
32591
32596
32596
32592
32588
32588
32589
32584
32578
32588
32589
32584
32582
32580
32590
32588
32588
32584
32586
32588
32596
32584
32592
32584
32592
32589
32591
32580
32582
32580
32580
32582
32582
32585
32578
32578
32574
32572
32572
32566
32559
32566
32556
32567
32554
32556
32553
32548
32552
32546
32542
32540
32538
32547
32538
32534
32536
32528
32536
32532
32532
32528
32524
32529
32528
32536
32536
32526
32532
32536
32536
32537
32532
32532
32539
32534
32537
32526
32529
32534
32540
32534
32535
32533
32529
32540
32534
32528
32528
32531
32540
32526
32526
32530
32521
32524
32524
32521
32520
32516
32518
32524
32510
32510
32511
32516
32508
32512
32506
32498
32494
32497
32504
32504
32500
32494
32500
32496
32487
32485
32492
32488
32484
32484
32484
32484
32489
32484
32482
32482
32478
32482
32484
32476
32468
32472
32467
32466
32472
32474
32474
32475
32468
32473
32472
32466
32468
32476
32458
32474
32468
32466
32464
32471
32468
32464
32472
32464
32464
32470
32465
32468
32462
32462
32468
32462
32464
32462
32456
32472
32468
32474
32461
32464
32464
32464
32466
32460
32472
32464
32468
32469
32476
32470
32471
32466
32466
32472
32472
32472
32476
32472
32478
32477
32469
32469
32479
32478
32484
32468
32484
32484
32485
32484
32486
32492
32486
32486
32496
32494
32498
32487
32496
32497
32492
32497
32492
32506
32504
32505
32500
32498
32512
32522
32506
32517
32505
32512
32516
32519
32514
32514
32511
32528
32524
32516
32520
32518
32524
32520
32520
32520
32530
32528
32528
32520
32532
32520
32532
32528
32528
32525
32532
32534
32529
32532
32534
32526
32532
32527
32533
32537
32538
32536
32526
32528
32528
32541
32528
32524
32528
32526
32532
32519
32524
32527
32522
32524
32520
32512
32510
32518
32518
32508
32509
32508
32502
32508
32506
32504
32496
32497
32492
32484
32492
32484
32478
32474
32484
32482
32474
32469
32473
32464
32464
32455
32456
32454
32462
32455
32442
32452
32438
32442
32441
32430
32428
32437
32433
32420
32427
32425
32417
32421
32416
32420
32413
32416
32405
32412
32404
32408
32398
32406
32397
32404
32400
32394
32389
32392
32396
32386
32384
32390
32388
32384
32381
32377
32378
32366
32372
32373
32373
32370
32368
32364
32361
32358
32365
32356
32358
32356
32352
32344
32356
32348
32352
32340
32348
32348
32344
32341
32340
32344
32340
32334
32336
32334
32335
32336
32340
32332
32332
32332
32333
32328
32324
32324
32322
32323
32322
32328
32328
32321
32317
32320
32320
32320
32325
32314
32320
32317
32308
32319
32308
32314
32312
32312
32300
32312
32308
32308
32308
32305
32296
32295
32298
32298
32300
32297
32294
32296
32302
32292
32286
32282
32294
32286
32288
32300
32280
32284
32278
32289
32274
32280
32272
32276
32278
32268
32272
32270
32264
32260
32257
32266
32256
32254
32254
32254
32255
32252
32242
32246
32244
32242
32241
32237
32235
32232
32224
32228
32221
32222
32226
32222
32224
32224
32212
32209
32216
32212
32209
32204
32196
32192
32196
32198
32186
32196
32196
32191
32181
32181
32175
32176
32172
32177
32166
32166
32166
32164
32156
32162
32160
32156
32143
32148
32141
32141
32143
32130
32132
32134
32130
32132
32124
32132
32118
32113
32114
32120
32112
32108
32102
32100
32108
32100
32100
32104
32091
32092
32081
32086
32083
32086
32084
32077
32072
32068
32072
32066
32074
32068
32068
32068
32052
32049
32052
32047
32036
32044
32037
32036
32036
32026
32029
32024
32017
32016
32016
32007
32007
31998
31996
31988
31994
31984
31980
31980
31976
31964
31968
31969
31962
31944
31948
31948
31944
31942
31940
31923
31932
31932
31924
31928
31914
31913
31908
31909
31908
31905
31898
31900
31892
31896
31893
31878
31878
31872
31876
31868
31872
31862
31865
31861
31856
31855
31849
31850
31842
31842
31840
31836
31834
31836
31836
31828
31828
31826
31817
31828
31823
31824
31816
31816
31816
31812
31812
31808
31810
31814
31812
31808
31808
31798
31806
31802
31794
31799
31793
31790
31791
31788
31788
31781
31778
31776
31776
31780
31762
31776
31764
31750
31756
31754
31754
31744
31736
31736
31736
31726
31716
31719
31708
31712
31706
31694
31689
31688
31685
31684
31676
31668
31666
31656
31662
31656
31646
31634
31628
31634
31624
31620
31616
31612
31614
31600
31600
31600
31600
31598
31591
31589
31588
31586
31584
31585
31580
31583
31588
31578
31582
31580
31574
31576
31572
31574
31574
31578
31573
31575
31574
31575
31580
31568
31580
31576
31572
31572
31566
31568
31562
31560
31556
31560
31559
31548
31557
31550
31562
31536
31545
31541
31536
31526
31524
31520
31518
31520
31512
31511
31498
31492
31489
31484
31492
31485
31476
31472
31464
31460
31460
31456
31450
31438
31441
31429
31440
31432
31432
31422
31420
31421
31408
31409
31404
31393
31397
31388
31392
31376
31378
31366
31362
31364
31356
31356
31356
31346
31336
31340
31329
31328
31319
31318
31305
31308
31300
31290
31295
31280
31272
31276
31270
31268
31256
31256
31245
31238
31232
31236
31236
31217
31214
31214
31209
31206
31202
31204
31191
31177
31176
31176
31168
31168
31160
31160
31159
31145
31141
31140
31140
31129
31132
31124
31121
31116
31116
31104
31106
31112
31105
31106
31102
31092
31097
31086
31094
31084
31080
31078
31077
31080
31080
31068
31072
31062
31070
31072
31068
31066
31058
31057
31056
31056
31052
31052
31044
31045
31040
31044
31037
31043
31041
31032
31030
31033
31028
31030
31028
31028
31020
31025
31016
31012
31016
31018
31008
31012
31002
30998
31000
30998
31000
30992
30991
30992
30990
30988
30985
30985
30985
30980
30975
30974
30978
30976
30964
30958
30958
30960
30948
30960
30952
30956
30948
30944
30953
30948
30944
30938
30940
30948
30936
30938
30924
30938
30928
30930
30926
30926
30916
30925
30916
30914
30912
30909
30914
30904
30913
30916
30904
30904
30908
30914
30908
30896
30901
30900
30904
30900
30903
30893
30902
30892
30894
30884
30892
30893
30888
30889
30888
30884
30889
30890
30886
30885
30884
30887
30886
30886
30881
30892
30879
30888
30896
30889
30884
30888
30896
30897
30895
30896
30896
30908
30904
30903
30908
30908
30903
30908
30912
30918
30910
30904
30910
30908
30908
30916
30910
30918
30916
30916
30917
30916
30914
30920
30921
30914
30924
30912
30918
30916
30922
30916
30916
30920
30924
30922
30924
30924
30920
30932
30928
30930
30932
30932
30938
30940
30944
30944
30942
30954
30948
30958
30959
30952
30958
30960
30961
30964
30964
30977
30974
30976
30986
30980
30986
30988
30988
31000
31000
30992
31000
30996
31008
31004
31000
31008
31016
31016
31010
31020
31016
31024
31020
31026
31024
31034
31024
31028
31032
31032
31036
31032
31040
31036
31036
31044
31040
31047
31044
31049
31046
31050
31052
31052
31061
31057
31057
31056
31069
31060
31064
31066
31064
31062
31068
31068
31064
31069
31068
31076
31066
31076
31072
31068
31072
31074
31076
31076
31076
31076
31069
31088
31082
31092
31076
31086
31080
31087
31092
31086
31080
31086
31084
31090
31080
31087
31089
31092
31093
31090
31095
31088
31095
31094
31095
31092
31100
31095
31092
31100
31096
31105
31098
31092
31095
31093
31094
31101
31101
31102
31104
31103
31098
31096
31096
31104
31096
31100
31102
31100
31105
31096
31105
31096
31100
31096
31108
31102
31100
31093
31103
31105
31108
31112
31110
31112
31120
31104
31102
31112
31112
31106
31116
31109
31110
31108
31112
31109
31108
31108
31111
31108
31108
31108
31114
31116
31105
31114
31112
31114
31112
31111
31108
31109
31110
31105
31108
31110
31098
31104
31108
31101
31107
31105
31098
31102
31101
31094
31103
31102
31093
31100
31100
31094
31091
31095
31088
31097
31092
31096
31086
31092
31093
31098
31092
31089
31097
31092
31095
31096
31092
31090
31092
31088
31086
31076
31086
31084
31094
31092
31088
31082
31083
31084
31084
31092
31084
31092
31084
31084
31072
31080
31084
31089
31080
31077
31076
31082
31079
31078
31078
31078
31080
31076
31080
31076
31077
31078
31069
31072
31077
31076
31068
31076
31064
31070
31070
31076
31074
31068
31068
31068
31062
31068
31070
31068
31069
31060
31066
31060
31066
31076
31058
31068
31062
31064
31060
31064
31064
31060
31061
31066
31062
31062
31072
31068
31072
31072
31068
31064
31068
31060
31064
31068
31060
31060
31064
31065
31068
31068
31068
31066
31073
31068
31072
31068
31072
31066
31068
31072
31064
31074
31076
31076
31076
31072
31072
31076
31079
31077
31072
31076
31080
31076
31076
31077
31076
31072
31081
31078
31068
31076
31081
31078
31076
31074
31072
31076
31071
31068
31068
31068
31072
31072
31072
31064
31073
31074
31066
31065
31064
31077
31064
31069
31062
31066
31060
31052
31056
31065
31056
31060
31052
31046
31054
31046
31054
31060
31048
31052
31044
31048
31041
31040
31044
31042
31044
31042
31044
31044
31044
31044
31044
31042
31042
31036
31038
31040
31037
31035
31036
31028
31030
31036
31032
31029
31040
31032
31028
31028
31036
31023
31030
31024
31021
31036
31032
31029
31028
31024
31028
31032
31018
31026
31024
31023
31026
31020
31018
31028
31016
31024
31024
31024
31024
31020
31028
31020
31024
31020
31016
31020
31024
31028
31016
31013
31021
31020
31020
31018
31022
31016
31025
31020
31020
31020
31018
31020
31016
31015
31020
31021
31016
31025
31017
31016
31017
31020
31016
31020
31016
31016
31018
31016
31024
31023
31020
31022
31022
31032
31029
31020
31024
31024
31032
31022
31041
31026
31032
31041
31036
31034
31040
31036
31039
31038
31040
31038
31042
31048
31046
31048
31048
31048
31048
31052
31054
31057
31060
31056
31064
31076
31068
31068
31066
31072
31076
31078
31076
31092
31092
31096
31093
31092
31097
31092
31101
31095
31096
31101
31096
31104
31094
31106
31102
31105
31111
31096
31100
31105
31100
31105
31100
31100
31096
31108
31101
31100
31106
31092
31096
31096
31100
31090
31090
31080
31080
31080
31076
31076
31079
31079
31070
31072
31070
31064
31064
31064
31058
31056
31060
31056
31061
31056
31052
31060
31066
31061
31056
31065
31060
31064
31069
31072
31078
31084
31085
31092
31092
31090
31092
31108
31108
31110
31124
31119
31119
31124
31130
31144
31142
31137
31157
31158
31164
31162
31168
31167
31169
31166
31180
31176
31183
31192
31183
31188
31190
31188
31196
31192
31197
31201
31196
31198
31196
31196
31192
31192
31200
31196
31204
31201
31197
31195
31208
31200
31204
31194
31204
31204
31204
31201
31210
31200
31205
31201
31212
31212
31208
31211
31212
31212
31212
31212
31214
31218
31216
31212
31216
31217
31220
31220
31214
31220
31220
31214
31222
31216
31204
31215
31220
31215
31214
31212
31210
31216
31208
31214
31208
31199
31201
31200
31196
31198
31196
31188
31192
31190
31181
31189
31182
31178
31168
31176
31172
31174
31167
31168
31168
31160
31170
31158
31159
31156
31152
31164
31150
31149
31148
31156
31151
31149
31144
31148
31143
31142
31142
31150
31148
31148
31149
31137
31149
31153
31140
31146
31148
31146
31149
31152
31141
31145
31152
31141
31157
31148
31152
31150
31156
31156
31159
31156
31156
31156
31164
31161
31165
31159
31157
31164
31172
31164
31168
31164
31173
31170
31168
31172
31177
31176
31180
31184
31178
31180
31188
31185
31190
31188
31184
31189
31194
31199
31202
31200
31201
31200
31204
31205
31208
31212
31212
31212
31206
31218
31220
31221
31220
31220
31224
31236
31230
31224
31222
31237
31228
31240
31244
31238
31240
31248
31246
31251
31260
31250
31254
31260
31256
31260
31256
31268
31264
31268
31268
31270
31270
31268
31268
31280
31276
31280
31276
31281
31288
31284
31288
31294
31294
31288
31302
31299
31305
31304
31296
31304
31308
31312
31313
31316
31312
31325
31312
31316
31318
31322
31332
31332
31337
31333
31332
31337
31344
31344
31344
31348
31357
31360
31367
31368
31365
31368
31376
31380
31384
31381
31390
31393
31396
31393
31399
31394
31404
31398
31404
31412
31405
31419
31412
31412
31417
31420
31422
31428
31432
31428
31432
31432
31431
31440
31436
31440
31446
31441
31445
31446
31460
31454
31459
31462
31468
31464
31474
31473
31481
31476
31492
31492
31484
31496
31497
31504
31505
31510
31508
31516
31516
31515
31524
31525
31524
31532
31528
31532
31540
31535
31548
31545
31548
31556
31556
31556
31556
31568
31566
31566
31572
31576
31575
31580
31584
31584
31590
31585
31588
31596
31598
31596
31600
31600
31607
31600
31620
31620
31616
31620
31620
31621
31623
31631
31633
31636
31640
31648
31648
31644
31648
31644
31646
31661
31664
31653
31662
31660
31657
31661
31672
31671
31664
31672
31676
31676
31670
31676
31668
31673
31681
31684
31684
31681
31684
31687
31687
31688
31687
31685
31694
31688
31685
31700
31696
31692
31703
31696
31697
31704
31700
31696
31700
31704
31702
31710
31704
31704
31709
31712
31705
31708
31710
31706
31716
31710
31708
31700
31709
31701
31700
31702
31712
31700
31703
31701
31702
31700
31715
31700
31700
31700
31700
31704
31707
31712
31700
31712
31708
31704
31700
31700
31708
31704
31710
31710
31708
31702
31705
31708
31708
31702
31720
31714
31710
31709
31717
31716
31712
31719
31717
31712
31712
31718
31716
31720
31716
31719
31719
31720
31720
31714
31719
31724
31718
31726
31722
31722
31727
31720
31721
31724
31722
31725
31725
31720
31729
31728
31724
31726
31732
31726
31734
31726
31728
31736
31732
31737
31732
31732
31732
31745
31730
31748
31732
31743
31732
31740
31744
31738
31741
31748
31744
31745
31746
31740
31754
31742
31748
31748
31744
31748
31757
31751
31748
31754
31749
31746
31756
31759
31760
31759
31756
31758
31758
31760
31766
31762
31759
31760
31764
31766
31764
31769
31772
31761
31768
31765
31765
31769
31776
31772
31774
31780
31772
31774
31766
31774
31774
31776
31780
31780
31780
31780
31772
31782
31781
31778
31788
31783
31783
31785
31788
31784
31787
31784
31788
31789
31796
31792
31788
31790
31796
31792
31804
31793
31804
31804
31804
31810
31808
31808
31801
31808
31808
31807
31811
31820
31812
31816
31810
31808
31812
31812
31812
31808
31824
31826
31820
31829
31825
31820
31828
31830
31832
31822
31832
31830
31832
31832
31834
31828
31825
31832
31836
31836
31836
31842
31842
31844
31848
31846
31845
31849
31847
31847
31852
31844
31852
31848
31848
31856
31852
31848
31852
31861
31849
31860
31864
31856
31860
31855
31868
31856
31868
31863
31856
31853
31862
31868
31866
31862
31857
31865
31860
31864
31862
31861
31863
31863
31869
31868
31864
31869
31868
31866
31864
31869
31864
31871
31876
31867
31868
31870
31872
31862
31870
31872
31870
31876
31861
31870
31880
31877
31872
31872
31880
31871
31877
31884
31879
31884
31884
31884
31884
31876
31878
31884
31884
31884
31887
31887
31884
31884
31892
31886
31892
31892
31900
31896
31893
31892
31892
31884
31895
31896
31900
31892
31904
31897
31893
31901
31904
31896
31908
31900
31904
31904
31898
31905
31902
31908
31912
31908
31909
31908
31906
31908
31908
31909
31904
31912
31911
31913
31916
31916
31918
31916
31924
31921
31920
31924
31916
31914
31916
31929
31924
31928
31919
31920
31921
31927
31924
31926
31926
31922
31920
31918
31920
31924
31924
31920
31913
31914
31916
31919
31920
31916
31920
31916
31920
31919
31912
31908
31904
31912
31914
31920
31912
31908
31908
31912
31908
31908
31906
31908
31908
31912
31904
31908
31909
31908
31912
31911
31916
31916
31910
31911
31909
31912
31916
31908
31908
31920
31912
31920
31920
31916
31914
31917
31924
31918
31924
31916
31930
31924
31926
31920
31924
31921
31926
31924
31916
31924
31925
31934
31925
31933
31926
31927
31921
31924
31916
31925
31919
31913
31924
31912
31911
31908
31914
31905
31908
31903
31908
31901
31904
31892
31908
31886
31892
31885
31884
31876
31880
31879
31866
31876
31870
31871
31865
31860
31860
31856
31858
31860
31860
31860
31852
31860
31857
31858
31857
31858
31860
31856
31876
31873
31870
31873
31876
31879
31876
31884
31894
31892
31900
31900
31912
31908
31914
31920
31920
31932
31930
31936
31936
31938
31941
31956
31948
31948
31950
31954
31956
31956
31960
31968
31966
31968
31968
31968
31964
31960
31964
31974
31966
31964
31968
31972
31970
31972
31960
31961
31964
31962
31966
31959
31968
31968
31964
31960
31958
31956
31967
31952
31950
31952
31954
31953
31945
31952
31949
31950
31944
31948
31949
31944
31945
31941
31946
31950
31936
31938
31938
31936
31930
31940
31924
31930
31920
31925
31924
31926
31920
31912
31918
31902
31904
31904
31895
31900
31892
31892
31887
31884
31880
31880
31871
31868
31868
31864
31864
31856
31853
31852
31850
31836
31836
31832
31824
31828
31827
31826
31822
31816
31812
31812
31812
31808
31804
31791
31796
31796
31792
31794
31788
31788
31784
31781
31778
31788
31778
31780
31766
31780
31784
31768
31778
31764
31768
31772
31768
31772
31760
31766
31764
31772
31772
31761
31768
31766
31764
31756
31760
31756
31760
31756
31757
31764
31754
31760
31764
31749
31761
31757
31756
31748
31748
31757
31750
31748
31749
31756
31746
31754
31748
31756
31748
31756
31748
31749
31748
31756
31750
31746
31752
31764
31757
31764
31742
31752
31752
31759
31756
31756
31767
31756
31750
31761
31768
31764
31760
31766
31761
31754
31760
31762
31760
31758
31764
31760
31769
31768
31764
31774
31775
31768
31770
31772
31764
31779
31772
31768
31776
31772
31776
31776
31772
31780
31778
31778
31776
31780
31782
31782
31786
31780
31782
31780
31783
31780
31788
31780
31786
31791
31790
31780
31782
31788
31786
31784
31784
31796
31788
31797
31796
31796
31804
31800
31808
31809
31812
31813
31816
31817
31832
31824
31832
31840
31841
31832
31852
31841
31852
31848
31863
31852
31862
31857
31863
31861
31868
31872
31873
31879
31880
31892
31892
31887
31895
31894
31896
31892
31894
31900
31894
31905
31916
31909
31927
31914
31919
31920
31926
31936
31932
31940
31936
31940
31938
31952
31957
31958
31954
31972
31970
31980
31976
31985
31986
31991
31992
31993
32003
32004
32008
32006
32020
32012
32024
32025
32034
32036
32031
32037
32044
32038
32044
32057
32053
32056
32068
32061
32068
32068
32078
32072
32080
32076
32079
32092
32088
32088
32100
32088
32096
32108
32104
32111
32112
32111
32109
32112
32124
32126
32126
32134
32140
32132
32141
32151
32148
32160
32156
32152
32158
32164
32168
32172
32176
32176
32184
32186
32188
32193
32202
32200
32209
32216
32224
32215
32228
32231
32233
32236
32244
32247
32257
32262
32262
32280
32277
32289
32295
32287
32308
32312
32316
32322
32324
32334
32338
32342
32344
32356
32362
32354
32368
32374
32381
32394
32396
32393
32410
32409
32422
32424
32432
32437
32440
32448
32444
32460
32460
32468
32478
32485
32486
32485
32496
32500
32510
32520
32527
32522
32538
32536
32542
32550
32559
32560
32572
32576
32580
32588
32600
32596
32612
32611
32612
32628
32633
32646
32652
32648
32664
32672
32669
32676
32690
32692
32706
32706
32716
32724
32729
32732
32740
32753
32756
32764
32772
32772
32784
32787
32801
32806
32812
32827
32830
32836
32840
32848
32857
32864
32872
32880
32885
32890
32901
32906
32922
32925
32933
32940
32946
32962
32964
32972
32976
32992
32996
33004
33007
33020
33028
33034
33034
33053
33056
33058
33079
33081
33080
33092
33104
33108
33121
33130
33136
33141
33157
33152
33170
33168
33188
33202
33204
33205
33216
33233
33233
33241
33253
33256
33262
33272
33290
33288
33304
33302
33324
33324
33340
33344
33356
33364
33368
33380
33388
33401
33408
33413
33424
33438
33437
33444
33456
33466
33472
33484
33488
33496
33508
33516
33529
33536
33542
33556
33561
33572
33584
33577
33592
33604
33608
33616
33632
33636
33644
33648
33668
33669
33676
33684
33694
33704
33706
33725
33732
33738
33744
33758
33756
33772
33780
33783
33799
33806
33810
33816
33824
33840
33844
33844
33860
33871
33868
33879
33887
33895
33906
33908
33921
33929
33933
33948
33952
33966
33969
33972
33976
33990
33996
34004
34008
34020
34020
34033
34040
34040
34048
34056
34068
34072
34078
34085
34096
34098
34098
34108
34128
34117
34137
34136
34156
34157
34156
34169
34172
34176
34182
34188
34185
34197
34212
34212
34220
34220
34228
34238
34244
34242
34260
34262
34265
34264
34278
34280
34276
34292
34293
34300
34308
34312
34320
34324
34326
34334
34336
34346
34348
34364
34364
34366
34369
34376
34384
34384
34399
34399
34400
34408
34408
34410
34428
34424
34420
34441
34440
34436
34445
34452
34455
34458
34464
34468
34476
34480
34484
34485
34484
34496
34500
34508
34508
34520
34524
34520
34528
34536
34537
34545
34552
34554
34565
34565
34574
34569
34572
34578
34592
34590
34600
34596
34606
34604
34612
34628
34628
34629
34636
34632
34638
34645
34648
34656
34660
34665
34670
34673
34676
34684
34694
34694
34696
34696
34696
34708
34712
34708
34714
34719
34726
34728
34735
34740
34737
34748
34744
34752
34758
34759
34764
34768
34776
34768
34782
34782
34792
34790
34794
34800
34799
34806
34813
34812
34817
34816
34823
34828
34836
34841
34840
34853
34846
34850
34844
34864
34864
34863
34876
34868
34884
34890
34887
34892
34890
34901
34905
34908
34913
34906
34920
34924
34928
34938
34928
34934
34958
34944
34954
34958
34957
34970
34972
34972
34966
34981
34980
34980
34988
34993
34997
35006
35004
35013
35012
35017
35028
35023
35031
35033
35044
35053
35038
35053
35056
35056
35060
35057
35061
35070
35070
35077
35078
35076
35088
35080
35094
35093
35108
35095
35096
35098
35104
35116
35111
35109
35112
35116
35117
35118
35110
35108
35122
35120
35122
35116
35122
35125
35120
35119
35124
35121
35124
35119
35124
35124
35129
35120
35126
35124
35129
35130
35125
35132
35133
35124
35138
35133
35136
35136
35136
35142
35144
35145
35148
35154
35152
35164
35160
35172
35172
35175
35180
35196
35196
35196
35200
35204
35207
35215
35212
35222
35236
35216
35242
35228
35242
35252
35249
35252
35256
35260
35258
35260
35273
35272
35280
35271
35284
35280
35284
35284
35284
35284
35290
35296
35296
35297
35300
35308
35308
35302
35306
35302
35308
35308
35308
35312
35312
35313
35312
35317
35318
35326
35325
35329
35324
35332
35321
35332
35332
35338
35344
35340
35334
35337
35341
35348
35350
35348
35352
35356
35340
35350
35348
35354
35354
35348
35349
35356
35352
35354
35360
35356
35356
35356
35348
35360
35352
35344
35356
35352
35348
35352
35352
35356
35352
35349
35348
35341
35344
35342
35342
35337
35344
35345
35335
35340
35342
35332
35332
35332
35334
35321
35324
35332
35324
35332
35327
35320
35324
35321
35326
35328
35324
35322
35328
35325
35329
35326
35325
35328
35332
35324
35328
35324
35328
35328
35332
35332
35338
35334
35329
35333
35330
35336
35327
35332
35334
35336
35332
35344
35336
35344
35341
35341
35336
35340
35336
35350
35344
35352
35340
35339
35343
35342
35340
35348
35345
35344
35344
35346
35352
35352
35352
35356
35356
35356
35361
35356
35350
35358
35357
35356
35360
35350
35361
35352
35356
35366
35360
35362
35362
35357
35352
35367
35368
35377
35366
35374
35380
35372
35384
35372
35371
35373
35380
35372
35380
35372
35380
35369
35372
35376
35380
35364
35380
35373
35382
35376
35376
35380
35374
35373
35380
35388
35376
35382
35382
35378
35369
35380
35380
35372
35380
35374
35376
35368
35372
35368
35369
35378
35383
35372
35372
35380
35368
35377
35368
35376
35364
35378
35375
35380
35378
35376
35380
35381
35384
35382
35374
35393
35388
35388
35388
35388
35392
35388
35392
35390
35393
35404
35400
35396
35406
35396
35396
35392
35392
35391
35400
35392
35400
35397
35392
35396
35400
35392
35392
35382
35388
35384
35380
35380
35376
35369
35378
35379
35381
35374
35370
35369
35368
35373
35364
35372
35380
35370
35367
35369
35364
35365
35370
35365
35364
35360
35365
35365
35361
35372
35372
35370
35366
35364
35364
35361
35372
35372
35374
35368
35364
35364
35364
35360
35352
35364
35358
35358
35352
35360
35348
35354
35352
35348
35344
35352
35336
35344
35335
35327
35333
35328
35330
35332
35328
35318
35328
35320
35320
35312
35308
35303
35308
35316
35306
35300
35308
35297
35296
35298
35288
35288
35296
35296
35284
35282
35278
35286
35273
35279
35277
35276
35268
35265
35268
35256
35258
35260
35255
35258
35256
35252
35245
35252
35236
35238
35238
35234
35244
35237
35234
35237
35224
35217
35217
35213
35223
35220
35216
35212
35200
35208
35204
35196
35200
35202
35196
35196
35192
35188
35189
35183
35184
35178
35175
35174
35164
35168
35162
35166
35167
35156
35151
35160
35150
35152
35156
35156
35145
35148
35144
35146
35149
35136
35137
35134
35142
35136
35142
35132
35132
35128
35134
35121
35122
35116
35124
35112
35113
35112
35103
35108
35108
35108
35096
35098
35092
35093
35081
35076
35086
35076
35074
35062
35058
35057
35056
35045
35057
35048
35047
35036
35036
35036
35024
35024
35008
35002
35010
35000
34992
34996
34993
34980
34968
34968
34964
34960
34952
34948
34944
34940
34930
34928
34920
34916
34904
34906
34900
34888
34890
34874
34872
34861
34852
34856
34848
34841
34840
34830
34831
34820
34810
34804
34800
34790
34788
34780
34782
34777
34768
34764
34756
34752
34746
34748
34740
34732
34724
34722
34719
34710
34700
34700
34692
34692
34688
34680
34677
34664
34666
34660
34656
34660
34644
34640
34634
34631
34632
34623
34618
34610
34614
34605
34602
34590
34588
34581
34592
34584
34577
34577
34570
34569
34576
34564
34565
34556
34553
34552
34549
34546
34545
34540
34542
34533
34529
34536
34536
34526
34526
34519
34528
34524
34520
34510
34520
34513
34516
34512
34515
34512
34512
34512
34509
34510
34512
34517
34516
34508
34513
34504
34508
34513
34508
34508
34518
34508
34516
34512
34516
34516
34527
34517
34512
34518
34521
34524
34524
34518
34525
34528
34532
34526
34528
34540
34540
34540
34544
34548
34548
34552
34548
34558
34552
34552
34556
34572
34564
34565
34582
34577
34581
34584
34588
34592
34597
34600
34604
34600
34605
34608
34616
34612
34628
34614
34628
34629
34629
34636
34644
34639
34654
34648
34660
34652
34660
34668
34672
34673
34684
34684
34684
34692
34700
34692
34708
34702
34706
34716
34716
34712
34724
34724
34732
34729
34736
34732
34729
34732
34737
34748
34744
34746
34745
34745
34750
34748
34756
34744
34756
34761
34748
34754
34756
34759
34752
34752
34756
34760
34757
34756
34756
34761
34749
34756
34748
34754
34751
34742
34744
34740
34738
34748
34740
34733
34726
34724
34736
34725
34720
34724
34727
34724
34720
34716
34716
34708
34712
34704
34708
34703
34694
34700
34688
34696
34686
34685
34685
34673
34676
34660
34665
34658
34662
34652
34656
34660
34644
34636
34641
34638
34634
34629
34636
34623
34622
34608
34608
34604
34593
34593
34589
34580
34580
34573
34566
34566
34560
34548
34541
34542
34540
34532
34526
34516
34509
34512
34501
34488
34485
34480
34473
34476
34465
34448
34463
34438
34441
34429
34425
34414
34408
34408
34404
34400
34392
34388
34382
34380
34383
34368
34360
34364
34356
34356
34350
34338
34338
34328
34336
34322
34316
34320
34308
34308
34304
34302
34306
34288
34288
34288
34292
34279
34269
34270
34268
34270
34255
34250
34256
34245
34240
34250
34232
34232
34223
34228
34216
34216
34214
34205
34204
34189
34188
34192
34184
34176
34164
34172
34167
34160
34148
34156
34152
34140
34137
34126
34132
34120
34128
34112
34116
34113
34113
34108
34096
34098
34100
34094
34096
34082
34084
34081
34080
34082
34074
34072
34072
34066
34068
34059
34060
34056
34056
34055
34049
34056
34042
34046
34040
34038
34040
34040
34040
34032
34028
34031
34030
34036
34028
34030
34024
34027
34032
34030
34032
34028
34031
34034
34028
34032
34028
34028
34029
34031
34033
34028
34024
34024
34030
34024
34020
34024
34020
34012
34017
34014
34021
34020
34016
34012
34004
34016
34006
34009
34004
34010
34008
34000
34008
34000
34002
34001
34000
33997
33998
33996
34004
33994
33986
33996
33997
33988
33988
33988
33988
33996
33984
33974
33988
33983
33980
33984
33971
33978
33976
33972
33980
33970
33978
33964
33968
33966
33966
33968
33959
33958
33956
33950
33958
33953
33960
33952
33952
33944
33940
33941
33945
33940
33932
33936
33940
33921
33928
33925
33921
33921
33911
33924
33916
33924
33910
33914
33911
33920
33917
33914
33906
33908
33906
33908
33904
33908
33902
33901
33893
33900
33904
33900
33904
33899
33896
33900
33900
33902
33901
33904
33901
33904
33900
33908
33896
33900
33902
33901
33904
33906
33904
33906
33902
33901
33908
33904
33900
33897
33904
33904
33908
33910
33900
33910
33900
33908
33908
33904
33908
33904
33898
33908
33908
33902
33902
33901
33905
33905
33908
33908
33908
33909
33908
33908
33906
33908
33919
33908
33904
33901
33908
33916
33910
33910
33912
33905
33912
33913
33910
33908
33905
33910
33908
33905
33910
33900
33916
33908
33910
33902
33902
33905
33900
33902
33900
33896
33903
33896
33892
33892
33896
33894
33892
33884
33889
33884
33884
33880
33880
33876
33878
33884
33884
33874
33868
33869
33866
33864
33869
33858
33860
33854
33861
33860
33844
33844
33849
33841
33860
33854
33842
33839
33844
33852
33845
33848
33844
33840
33844
33841
33842
33838
33840
33828
33838
33834
33836
33836
33840
33832
33830
33825
33828
33828
33826
33828
33814
33818
33806
33806
33804
33808
33806
33800
33794
33796
33792
33792
33782
33788
33782
33780
33776
33768
33774
33772
33772
33772
33764
33760
33756
33764
33750
33756
33751
33748
33752
33740
33741
33732
33748
33732
33732
33734
33728
33728
33724
33720
33724
33714
33713
33712
33710
33706
33706
33718
33708
33702
33703
33709
33697
33703
33694
33689
33692
33692
33680
33687
33692
33684
33690
33684
33684
33684
33670
33678
33678
33672
33668
33677
33664
33669
33660
33668
33658
33665
33656
33658
33654
33656
33644
33648
33652
33648
33652
33643
33641
33640
33644
33636
33632
33644
33629
33642
33629
33644
33624
33628
33622
33625
33624
33621
33620
33625
33620
33624
33614
33613
33626
33620
33624
33608
33614
33604
33604
33604
33601
33596
33606
33600
33604
33596
33598
33592
33593
33596
33585
33580
33580
33578
33584
33576
33579
33572
33581
33576
33572
33572
33570
33560
33568
33564
33569
33560
33562
33554
33564
33561
33556
33556
33552
33548
33558
33559
33558
33552
33548
33545
33548
33545
33544
33545
33540
33534
33528
33528
33536
33536
33528
33528
33530
33518
33519
33518
33514
33510
33509
33508
33500
33498
33500
33492
33496
33487
33480
33480
33480
33475
33472
33460
33464
33460
33452
33450
33444
33439
33432
33429
33424
33421
33412
33409
33400
33405
33401
33391
33384
33388
33376
33384
33372
33356
33352
33356
33356
33338
33344
33329
33334
33326
33330
33316
33319
33305
33302
33300
33294
33287
33284
33277
33278
33276
33272
33268
33260
33253
33249
33244
33242
33240
33232
33231
33227
33216
33216
33217
33208
33204
33205
33200
33200
33192
33180
33184
33180
33176
33164
33174
33164
33159
33156
33150
33148
33142
33144
33135
33140
33122
33129
33121
33112
33114
33108
33096
33108
33094
33092
33086
33084
33084
33072
33080
33077
33066
33068
33060
33060
33052
33058
33054
33046
33050
33040
33032
33032
33031
33028
33028
33018
33017
33014
33013
33004
33006
33006
33004
33004
32996
32996
32996
32990
32988
32984
32982
32974
32982
32975
32972
32964
32972
32960
32966
32958
32954
32952
32956
32948
32952
32948
32945
32940
32943
32942
32937
32940
32935
32940
32940
32932
32937
32932
32930
32928
32932
32924
32924
32928
32926
32918
32924
32916
32920
32917
32920
32924
32918
32918
32920
32920
32912
32916
32914
32913
32908
32918
32908
32912
32916
32910
32908
32916
32913
32900
32906
32904
32908
32901
32900
32901
32896
32894
32900
32900
32884
32890
32890
32885
32884
32878
32884
32886
32881
32880
32873
32869
32874
32872
32870
32873
32865
32862
32866
32860
32861
32860
32853
32858
32856
32852
32853
32842
32844
32844
32842
32840
32832
32828
32834
32822
32833
32824
32828
32824
32818
32818
32825
32812
32812
32814
32807
32806
32798
32800
32800
32791
32800
32796
32792
32788
32781
32784
32774
32774
32769
32772
32766
32766
32768
32770
32752
32756
32746
32752
32756
32744
32736
32741
32732
32738
32732
32737
32724
32729
32714
32708
32716
32718
32709
32706
32696
32693
32692
32687
32692
32687
32684
32671
32672
32668
32668
32664
32661
32660
32648
32641
32645
32644
32642
32632
32628
32633
32612
32615
32620
32606
32604
32604
32599
32596
32588
32577
32583
32574
32575
32572
32564
32556
32556
32545
32544
32544
32534
32531
32528
32518
32522
32512
32500
32494
32494
32488
32492
32476
32478
32468
32466
32458
32454
32454
32442
32444
32436
32432
32428
32428
32412
32413
32400
32394
32393
32388
32380
32370
32376
32361
32360
32356
32352
32332
32340
32320
32320
32314
32304
32296
32273
32276
32271
32260
32252
32230
32228
32220
32206
32200
32194
32182
32168
32160
32154
32142
32135
32126
32126
32100
32096
32078
32072
32068
32048
32044
32036
32027
32012
32001
31996
31980
31985
31966
31964
31948
31944
31938
31936
31920
31920
31908
31909
31904
31890
31888
31878
31869
31876
31860
31860
31852
31845
31844
31838
31828
31824
31824
31816
31812
31807
31800
31806
31781
31778
31764
31765
31768
31750
31752
31742
31733
31728
31713
31704
31703
31680
31684
31682
31664
31660
31648
31645
31632
31616
31616
31604
31588
31591
31576
31565
31556
31550
31537
31527
31520
31501
31500
31489
31480
31473
31456
31448
31440
31426
31424
31410
31400
31390
31380
31369
31356
31348
31338
31332
31320
31304
31296
31286
31280
31262
31246
31238
31225
31216
31206
31202
31183
31168
31158
31140
31132
31127
31110
31092
31084
31073
31056
31049
31041
31024
31002
30994
30974
30960
30948
30932
30910
30904
30886
30880
30874
30847
30837
30822
30816
30797
30780
30766
30759
30738
30725
30708
30704
30684
30676
30660
30648
30628
30622
30604
30592
30568
30565
30554
30535
30524
30516
30508
30498
30482
30459
30460
30440
30426
30419
30408
30397
30376
30368
30362
30343
30332
30322
30316
30300
30280
30274
30266
30245
30240
30225
30214
30202
30191
30188
30156
30154
30136
30132
30120
30104
30094
30073
30072
30060
30044
30029
30021
30007
29992
29984
29961
29956
29942
29928
29910
29905
29889
29876
29866
29852
29837
29824
29809
29797
29790
29768
29750
29740
29728
29716
29700
29692
29665
29660
29642
29626
29620
29596
29588
29574
29544
29542
29520
29501
29483
29478
29454
29444
29422
29409
29390
29376
29352
29341
29316
29312
29284
29268
29249
29234
29220
29194
29174
29164
29150
29130
29105
29102
29077
29060
29036
29019
29000
28985
28972
28950
28936
28914
28892
28881
28866
28848
28832
28805
28788
28777
28756
28736
28721
28710
28685
28661
28660
28624
28620
28596
28584
28565
28549
28530
28514
28488
28484
28468
28448
28432
28412
28400
28386
28364
28352
28344
28324
28300
28292
28274
28256
28242
28232
28213
28197
28184
28173
28156
28144
28120
28102
28084
28074
28060
28045
28028
28016
27998
27982
27964
27956
27940
27924
27912
27894
27880
27868
27851
27832
27824
27810
27798
27796
27773
27762
27744
27736
27728
27712
27696
27692
27676
27668
27644
27644
27620
27614
27600
27591
27576
27564
27552
27540
27529
27520
27508
27491
27476
27469
27460
27445
27433
27420
27409
27384
27375
27364
27354
27338
27328
27320
27292
27284
27281
27262
27248
27225
27217
27201
27188
27176
27166
27148
27133
27118
27105
27074
27075
27061
27041
27028
27013
26996
26981
26966
26953
26936
26916
26904
26880
26864
26852
26830
26819
26796
26780
26765
26748
26733
26710
26690
26676
26660
26641
26620
26600
26584
26570
26552
26532
26512
26497
26468
26456
26441
26420
26404
26388
26372
26355
26334
26309
26294
26274
26252
26242
26224
26204
26185
26165
26144
26128
26103
26085
26068
26039
26021
26002
25990
25964
25941
25921
25906
25874
25860
25840
25820
25796
25776
25758
25734
25710
25689
25673
25650
25624
25605
25582
25564
25541
25519
25494
25478
25446
25430
25406
25391
25365
25340
25321
25304
25276
25252
25237
25218
25198
25164
25146
25132
25112
25088
25072
25048
25028
25012
24985
24969
24937
24916
24902
24880
24862
24844
24822
24802
24791
24764
24748
24729
24712
24677
24670
24648
24632
24613
24590
24571
24552
24532
24520
24504
24486
24468
24448
24428
24414
24392
24389
24356
24338
24332
24316
24292
24286
24268
24261
24230
24222
24212
24187
24180
24164
24142
24134
24124
24104
24092
24084
24066
24049
24042
24020
24020
24008
23985
23980
23964
23956
23938
23932
23913
23905
23896
23876
23864
23858
23848
23844
23824
23813
23807
23790
23779
23769
23760
23747
23746
23724
23718
23711
23698
23697
23680
23670
23666
23654
23644
23633
23628
23620
23620
23598
23593
23588
23583
23573
23562
23556
23543
23530
23536
23520
23520
23515
23500
23506
23492
23490
23488
23479
23469
23463
23461
23454
23456
23448
23444
23434
23436
23430
23421
23416
23412
23402
23396
23404
23400
23396
23392
23385
23380
23381
23374
23369
23368
23372
23366
23369
23364
23361
23354
23356
23353
23352
23348
23350
23345
23340
23343
23340
23340
23340
23332
23328
23336
23340
23332
23333
23329
23330
23330
23332
23326
23326
23328
23329
23322
23324
23329
23324
23328
23334
23325
23327
23332
23335
23331
23328
23327
23332
23338
23336
23336
23340
23340
23340
23340
23345
23348
23348
23353
23354
23356
23364
23364
23360
23364
23372
23369
23376
23382
23381
23384
23390
23396
23397
23400
23404
23412
23409
23413
23421
23426
23430
23436
23436
23445
23456
23448
23460
23465
23460
23465
23473
23481
23486
23488
23496
23501
23500
23512
23509
23519
23516
23524
23534
23536
23536
23542
23552
23556
23560
23556
23564
23573
23569
23580
23584
23588
23588
23594
23596
23604
23604
23609
23616
23614
23620
23620
23624
23625
23622
23640
23642
23636
23649
23649
23650
23652
23660
23652
23664
23674
23685
23680
23684
23678
23681
23684
23692
23692
23698
23698
23704
23706
23708
23712
23717
23716
23724
23730
23726
23730
23732
23734
23742
23748
23748
23760
23756
23758
23772
23764
23778
23776
23785
23791
23804
23797
23812
23812
23824
23823
23842
23838
23845
23854
23857
23874
23873
23884
23889
23892
23908
23911
23919
23928
23937
23944
23958
23964
23969
23982
23990
24000
24003
24014
24028
24032
24040
24054
24060
24062
24086
24085
24096
24106
24108
24124
24126
24141
24141
24148
24160
24174
24175
24193
24196
24202
24210
24220
24225
24236
24240
24245
24256
24260
24278
24284
24288
24300
24303
24312
24318
24326
24338
24345
24344
24363
24358
24372
24377
24385
24385
24396
24408
24417
24428
24434
24436
24455
24460
24472
24485
24496
24504
24508
24529
24541
24548
24560
24576
24588
24593
24612
24620
24632
24647
24662
24672
24684
24689
24710
24720
24732
24748
24759
24768
24780
24789
24804
24812
24823
24836
24845
24864
24876
24884
24894
24901
24908
24928
24932
24940
24960
24964
24975
24988
24996
24997
25013
25022
25036
25044
25053
25068
25072
25077
25100
25100
25118
25124
25130
25142
25149
25166
25180
25186
25199
25204
25216
25224
25236
25250
25258
25265
25283
25286
25304
25308
25321
25333
25340
25348
25360
25368
25381
25388
25396
25413
25421
25432
25441
25455
25461
25476
25484
25498
25500
25510
25527
25535
25536
25551
25560
25572
25580
25589
25601
25616
25622
25628
25647
25652
25665
25674
25686
25696
25708
25716
25732
25734
25750
25764
25774
25786
25792
25805
25825
25832
25845
25859
25871
25884
25895
25916
25920
25940
25952
25960
25973
25988
26000
26009
26026
26034
26057
26072
26082
26092
26104
26121
26132
26158
26162
26172
26188
26208
26213
26233
26245
26252
26272
26286
26294
26308
26324
26336
26353
26364
26380
26392
26396
26414
26432
26447
26460
26470
26487
26497
26500
26519
26531
26542
26556
26562
26580
26584
26600
26606
26625
26632
26652
26653
26673
26680
26698
26705
26716
26724
26742
26750
26758
26764
26775
26790
26798
26807
26828
26830
26846
26846
26864
26864
26880
26888
26900
26912
26916
26933
26944
26954
26962
26970
26980
26990
26998
27004
27012
27028
27036
27044
27052
27055
27070
27075
27088
27094
27106
27117
27116
27128
27138
27150
27153
27160
27164
27172
27184
27185
27196
27210
27213
27220
27236
27244
27248
27260
27262
27273
27272
27292
27292
27297
27308
27324
27324
27328
27341
27340
27352
27360
27367
27373
27388
27392
27400
27401
27414
27426
27424
27434
27446
27453
27458
27472
27471
27472
27485
27492
27490
27500
27506
27520
27521
27524
27542
27535
27548
27556
27554
27564
27576
27578
27577
27594
27596
27604
27610
27608
27617
27627
27636
27636
27648
27652
27661
27679
27680
27682
27692
27703
27701
27717
27730
27734
27739
27750
27756
27772
27774
27780
27788
27796
27808
27812
27818
27832
27834
27848
27852
27851
27872
27868
27876
27885
27889
27908
27910
27917
27928
27924
27941
27944
27950
27960
27967
27976
27972
27990
27992
28002
28004
28013
28016
28024
28030
28044
28046
28047
28056
28070
28068
28079
28086
28092
28100
28104
28104
28120
28128
28132
28140
28140
28148
28154
28157
28165
28172
28182
28182
28194
28196
28200
28206
28212
28225
28234
28236
28241
28252
28250
28260
28265
28264
28273
28282
28286
28292
28292
28302
28319
28308
28321
28332
28336
28339
28351
28348
28357
28362
28362
28368
28388
28384
28391
28399
28398
28398
28410
28420
28421
28432
28432
28438
28444
28440
28449
28461
28464
28468
28468
28473
28472
28481
28493
28496
28497
28505
28513
28514
28520
28532
28526
28544
28537
28546
28548
28558
28560
28564
28572
28574
28580
28584
28588
28596
28601
28605
28612
28613
28623
28625
28628
28644
28652
28653
28653
28660
28661
28684
28679
28684
28690
28704
28704
28711
28712
28722
28724
28734
28737
28740
28759
28760
28764
28770
28772
28780
28784
28792
28796
28807
28812
28821
28823
28826
28832
28848
28848
28858
28856
28868
28876
28877
28876
28888
28896
28900
28900
28916
28920
28928
28925
28936
28942
28948
28949
28961
28964
28974
28980
28980
28988
28993
28993
29002
29012
29022
29021
29031
29037
29038
29047
29050
29052
29063
29063
29068
29083
29076
29084
29090
29092
29100
29108
29112
29125
29114
29125
29128
29133
29136
29148
29153
29144
29159
29163
29166
29176
29174
29180
29177
29188
29200
29200
29204
29206
29209
29214
29216
29212
29228
29229
29232
29237
29239
29240
29246
29252
29255
29260
29260
29271
29271
29270
29276
29284
29280
29292
29296
29292
29296
29301
29308
29312
29316
29312
29318
29320
29320
29328
29332
29342
29345
29348
29348
29352
29354
29362
29356
29368
29364
29376
29376
29384
29380
29388
29396
29401
29394
29404
29412
29408
29414
29416
29423
29420
29428
29432
29432
29440
29449
29444
29448
29454
29470
29466
29470
29468
29476
29476
29480
29492
29496
29500
29508
29504
29521
29516
29512
29528
29528
29532
29540
29545
29547
29552
29552
29550
29572
29574
29578
29577
29584
29588
29588
29604
29604
29612
29617
29620
29634
29628
29632
29644
29648
29660
29664
29668
29668
29681
29686
29692
29700
29701
29716
29716
29724
29729
29730
29738
29744
29765
29762
29766
29780
29777
29790
29794
29792
29818
29813
29820
29828
29836
29846
29844
29850
29871
29866
29878
29880
29886
29895
29901
29908
29911
29918
29928
29929
29941
29941
29952
29956
29964
29964
29964
29974
29988
29988
29993
29996
30004
30010
30016
30016
30032
30032
30036
30042
30043
30058
30056
30068
30068
30076
30076
30081
30092
30089
30098
30104
30110
30114
30114
30124
30132
30129
30136
30144
30140
30148
30156
30160
30158
30164
30170
30176
30180
30185
30184
30196
30196
30210
30209
30208
30216
30225
30224
30228
30230
30236
30248
30244
30244
30252
30252
30264
30260
30277
30270
30276
30284
30293
30288
30300
30304
30306
30316
30310
30326
30320
30332
30335
30338
30344
30344
30352
30352
30372
30366
30368
30372
30378
30391
30380
30388
30400
30396
30398
30406
30412
30423
30416
30426
30424
30424
30432
30432
30444
30438
30446
30444
30448
30449
30452
30461
30464
30457
30465
30468
30472
30466
30464
30482
30468
30480
30476
30482
30484
30488
30492
30501
30498
30493
30500
30509
30512
30510
30520
30522
30518
30532
30544
30536
30545
30562
30564
30564
30575
30589
30580
30600
30601
30608
30623
30625
30638
30653
30648
30662
30676
30686
30692
30698
30700
30717
30727
30740
30744
30756
30766
30783
30784
30796
30805
30822
30825
30831
30848
30856
30868
30884
30896
30905
30918
30933
30946
30949
30960
30980
30992
31008
31022
31038
31052
31074
31076
31094
31108
31127
31148
31158
31176
31186
31210
31218
31236
31257
31272
31294
31304
31316
31337
31350
31372
31388
31405
31416
31441
31457
31470
31497
31512
31530
31550
31553
31584
31596
31613
31628
31648
31668
31682
31697
31716
31724
31748
31770
31777
31796
31803
31824
31842
31856
31869
31880
31904
31913
31930
31954
31959
31972
31990
32004
32021
32039
32056
32068
32079
32092
32110
32126
32134
32148
32173
32182
32197
32212
32232
32247
32262
32274
32296
32312
32318
32336
32356
32368
32382
32396
32417
32430
32440
32471
32478
32492
32517
32534
32548
32561
32580
32592
32621
32632
32646
32660
32684
32708
32718
32729
32756
32762
32790
32799
32822
32833
32852
32871
32884
32904
32932
32940
32957
32976
32996
33009
33026
33050
33062
33069
33096
33110
33124
33140
33164
33186
33192
33220
33228
33248
33268
33284
33300
33326
33341
33352
33378
33386
33400
33436
33444
33455
33476
33493
33504
33524
33548
33558
33576
33598
33610
33620
33644
33660
33684
33700
33708
33724
33746
33764
33776
33784
33808
33828
33840
33854
33869
33872
33892
33920
33926
33946
33966
33968
33992
34008
34022
34038
34052
34068
34083
34093
34117
34128
34139
34148
34176
34180
34204
34212
34229
34237
34248
34268
34281
34290
34300
34325
34340
34352
34360
34376
34394
34401
34428
34428
34444
34462
34469
34494
34501
34522
34528
34544
34550
34572
34589
34597
34605
34626
34632
34652
34664
34680
34680
34692
34711
34726
34737
34748
34760
34768
34788
34793
34813
34825
34840
34854
34868
34876
34884
34900
34908
34934
34940
34958
34965
34980
34998
35009
35025
35042
35042
35064
35076
35092
35092
35120
35140
35148
35164
35177
35183
35214
35220
35238
35252
35268
35287
35294
35312
35318
35340
35352
35374
35390
35404
35420
35432
35444
35456
35472
35484
35497
35515
35536
35541
35560
35564
35582
35598
35612
35624
35640
35660
35668
35681
35692
35712
35716
35728
35745
35758
35774
35786
35796
35812
35830
35828
35860
35854
35880
35876
35900
35916
35926
35940
35949
35962
35973
35982
35998
36013
36012
36036
36048
36060
36068
36085
36095
36102
36128
36128
36148
36160
36172
36185
36200
36222
36220
36226
36236
36253
36260
36286
36292
36302
36324
36326
36344
36358
36366
36384
36396
36405
36418
36428
36442
36452
36468
36476
36487
36504
36516
36533
36537
36560
36568
36578
36596
36596
36616
36624
36641
36644
36666
36681
36680
36698
36712
36724
36734
36743
36751
36767
36782
36781
36804
36820
36828
36836
36846
36853
36864
36878
36889
36893
36912
36919
36934
36950
36956
36962
36980
36984
36991
36998
37012
37016
37031
37042
37056
37066
37063
37072
37088
37103
37101
37109
37120
37136
37140
37148
37161
37174
37185
37188
37200
37209
37220
37225
37228
37244
37249
37256
37260
37280
37287
37289
37296
37312
37327
37325
37336
37344
37352
37360
37364
37366
37383
37388
37400
37409
37418
37424
37437
37440
37455
37456
37460
37476
37478
37487
37496
37504
37508
37521
37524
37537
37546
37548
37568
37561
37577
37584
37599
37604
37606
37613
37622
37624
37648
37648
37664
37660
37666
37680
37684
37684
37696
37698
37706
37726
37727
37730
37732
37745
37747
37756
37760
37776
37772
37796
37797
37790
37796
37802
37812
37822
37836
37834
37837
37840
37849
37850
37864
37872
37876
37884
37888
37900
37901
37912
37924
37924
37932
37940
37946
37948
37944
37962
37968
37964
37978
37969
37989
37998
38001
38006
38020
38021
38028
38036
38036
38044
38044
38052
38069
38068
38076
38072
38082
38084
38098
38100
38116
38114
38110
38125
38127
38128
38142
38156
38153
38154
38155
38162
38172
38180
38184
38180
38192
38196
38202
38201
38221
38217
38221
38220
38242
38236
38247
38256
38248
38252
38261
38261
38268
38273
38276
38280
38297
38296
38300
38308
38308
38308
38324
38330
38327
38334
38340
38340
38349
38340
38362
38360
38370
38369
38368
38384
38388
38392
38395
38412
38412
38413
38414
38420
38424
38428
38436
38440
38446
38449
38453
38462
38464
38464
38466
38477
38485
38480
38489
38492
38492
38500
38508
38516
38512
38524
38524
38522
38540
38532
38540
38540
38540
38550
38544
38556
38568
38568
38564
38578
38570
38588
38574
38580
38580
38588
38596
38594
38596
38604
38588
38598
38612
38604
38618
38604
38624
38613
38622
38624
38622
38624
38630
38632
38632
38628
38636
38638
38636
38644
38656
38646
38644
38650
38648
38648
38656
38653
38660
38658
38657
38656
38652
38676
38672
38662
38670
38672
38680
38685
38676
38672
38673
38679
38678
38680
38684
38686
38688
38694
38692
38697
38680
38700
38692
38704
38700
38704
38696
38702
38700
38695
38708
38710
38708
38709
38718
38721
38716
38714
38716
38720
38721
38724
38720
38725
38743
38732
38738
38736
38740
38748
38744
38752
38742
38744
38748
38740
38748
38752
38752
38744
38756
38758
38752
38759
38757
38758
38756
38756
38762
38757
38756
38764
38757
38756
38767
38756
38757
38756
38754
38756
38756
38752
38756
38756
38750
38761
38750
38766
38748
38748
38741
38752
38750
38750
38752
38756
38749
38758
38750
38756
38756
38764
38759
38769
38764
38770
38772
38772
38776
38780
38764
38776
38781
38780
38780
38784
38791
38784
38788
38788
38790
38796
38794
38797
38793
38805
38800
38812
38806
38806
38808
38808
38816
38815
38808
38812
