RESPIRATION
30773
30768
30773
30760
30756
30760
30755
30752
30748
30744
30737
30742
30728
30733
30724
30725
30717
30721
30717
30704
30711
30705
30705
30697
30697
30688
30686
30676
30682
30676
30664
30672
30656
30658
30654
30654
30645
30644
30636
30634
30616
30624
30613
30608
30601
30604
30596
30584
30586
30582
30564
30556
30557
30544
30536
30532
30520
30524
30516
30508
30500
30497
30484
30478
30480
30476
30458
30454
30448
30440
30430
30424
30420
30408
30404
30412
30388
30390
30380
30372
30372
30356
30364
30348
30346
30335
30328
30334
30320
30317
30316
30308
30297
30284
30292
30272
30276
30264
30260
30248
30250
30238
30232
30228
30220
30204
30208
30198
30200
30188
30180
30168
30168
30152
30146
30140
30132
30124
30124
30116
30108
30104
30088
30084
30075
30068
30050
30054
30048
30040
30028
30013
30016
30004
29996
29994
29973
29964
29964
29948
29948
29940
29934
29916
29911
29908
29900
29891
29872
29863
29868
29854
29848
29840
29836
29824
29816
29804
29804
29798
29784
29780
29768
29774
29753
29752
29738
29727
29720
29716
29711
29708
29688
29680
29674
29665
29664
29656
29642
29632
29624
29620
29620
29608
29600
29600
29589
29578
29570
29568
29560
29556
29536
29530
29530
29524
29512
29510
29502
29494
29477
29480
29481
29465
29473
29452
29441
29432
29429
29412
29416
29405
29404
29394
29380
29374
29369
29356
29356
29344
29340
29332
29320
29313
29301
29297
29286
29278
29269
29256
29249
29239
29228
29225
29212
29204
29190
29182
29167
29157
29142
29136
29130
29116
29108
29090
29084
29072
29060
29048
29044
29032
29020
29016
29004
28980
28977
28964
28964
28954
28936
28934
28922
28904
28900
28878
28878
28866
28864
28847
28844
28826
28818
28812
28807
28792
28783
28768
28760
28756
28742
28736
28721
28727
28710
28694
28688
28676
28671
28668
28654
28656
28640
28628
28620
28610
28604
28596
28584
28577
28574
28564
28556
28556
28550
28541
28540
28526
28517
28512
28510
28504
28502
28492
28496
28483
28468
28471
28470
28460
28456
28464
28448
28440
28440
28440
28440
28431
28418
28420
28414
28408
28408
28406
28400
28398
28400
28388
28392
28384
28374
28380
28388
28372
28370
28372
28372
28366
28366
28366
28360
28354
28348
28352
28348
28346
28344
28344
28346
28338
28339
28332
28338
28332
28338
28334
28332
28330
28328
28328
28318
28328
28324
28320
28324
28320
28320
28326
28328
28324
28320
28322
28321
28318
28315
28320
28320
28317
28319
28324
28316
28324
28324
28330
28326
28324
28332
28333
28328
28324
28324
28332
28328
28332
28332
28332
28328
28332
28329
28337
28337
28336
28341
28340
28340
28351
28348
28348
28350
28348
28352
28356
28353
28360
28358
28353
28352
28363
28358
28362
28364
28364
28364
28366
28366
28365
28362
28366
28360
28370
28360
28353
28364
28356
28368
28352
28352
28354
28356
28356
28352
28358
28354
28348
28348
28345
28343
28338
28337
28340
28336
28332
28341
28332
28325
28328
28316
28320
28317
28316
28316
28312
28308
28305
28300
28296
28302
28294
28298
28298
28292
28296
28300
28286
28289
28288
28292
28304
28290
28294
28296
28300
28304
28305
28304
28304
28310
28310
28302
28316
28316
28310
28312
28308
28310
28314
28316
28320
28312
28313
28316
28300
28318
28312
28314
28317
28316
28320
28316
28325
28314
28320
28326
28324
28326
28328
28337
28326
28333
28329
28340
28338
28336
28340
28342
28338
28343
28344
28346
28353
28349
28361
28356
28360
28364
28358
28364
28368
28375
28376
28380
28388
28384
28384
28401
28396
28400
28406
28412
28418
28428
28436
28444
28450
28452
28454
28468
28474
28476
28482
28488
28502
28508
28510
28512
28521
28531
28537
28541
28558
28558
28560
28568
28580
28582
28588
28599
28596
28608
28612
28616
28628
28636
28630
28647
28644
28657
28660
28668
28676
28676
28694
28698
28702
28704
28708
28724
28721
28726
28736
28736
28742
28744
28752
28752
28756
28762
28762
28769
28775
28776
28780
28788
28785
28796
28798
28798
28804
28802
28804
28801
28806
28812
28812
28812
28808
28812
28814
28822
28820
28815
28820
28814
28819
28817
28828
28820
28824
28823
28820
28824
28809
28817
28812
28826
28822
28823
28821
28821
28824
28828
28822
28828
28824
28829
28830
28832
28836
28833
28844
28836
28846
28844
28844
28850
28857
28856
28863
28864
28868
28878
28882
28878
28892
28900
28904
28904
28918
28921
28932
28940
28940
28942
28948
28954
28966
28972
28982
28982
28997
29002
29004
29020
29014
29032
29034
29048
29050
29054
29062
29072
29076
29092
29087
29100
29100
29116
29120
29134
29140
29144
29148
29160
29164
29173
29180
29188
29190
29198
29212
29204
29220
29228
29230
29237
29236
29255
29254
29262
29272
29289
29286
29300
29298
29308
29313
29320
29326
29340
29348
29354
29354
29366
29372
29385
29384
29400
29404
29413
29416
29420
29439
29440
29456
29464
29468
29479
29476
29496
29496
29510
29512
29524
29524
29543
29550
29556
29556
29576
29580
29594
29607
29606
29622
29633
29640
29654
29664
29670
29680
29688
29705
29716
29730
29736
29746
29765
29774
29780
29792
29805
29810
29833
29836
29846
29861
29866
29884
29888
29895
29900
29914
29924
29924
29943
29948
29950
29965
29968
29977
29992
29997
29996
30014
30022
30020
30028
30034
30042
30052
30052
30062
30068
30078
30088
30093
30104
30108
30116
30116
30124
30136
30148
30156
30152
30168
30180
30184
30190
30196
30210
30222
30225
30232
30241
30244
30255
30264
30278
30278
30292
30300
30309
30316
30321
30334
30329
30344
30348
30348
30360
30369
30378
30386
30396
30404
30400
30404
30408
30423
30425
30436
30432
30428
30440
30452
30456
30462
30470
30472
30473
30480
30484
30488
30496
30496
30508
30510
30512
30514
30524
30528
30532
30533
30544
30552
30551
30556
30561
30560
30568
30570
30571
30577
30580
30586
30588
30588
30598
30602
30606
30604
30612
30615
30616
30623
30620
30617
30632
30630
30632
30634
30632
30638
30642
30647
30652
30645
30648
30646
30652
30660
30661
30666
30660
30656
30665
30668
30668
30668
30670
30680
30676
30684
30674
30678
30684
30686
30689
30696
30686
30702
30698
30695
30704
30716
30718
30720
30716
30716
30726
30718
30738
30727
30738
30732
30740
30749
30754
30748
30760
30760
30760
30769
30776
30780
30778
30780
30792
30792
30791
30804
30804
30807
30816
30816
30824
30832
30836
30848
30855
30852
30854
30856
30868
30868
30873
30880
30886
30890
30896
30899
30904
30916
30926
30920
30927
30933
30940
30948
30954
30952
30964
30972
30977
30980
30980
30996
30996
31000
31008
31018
31014
31020
31024
31032
31034
31044
31040
31054
31052
31068
31066
31076
31084
31084
31093
31100
31097
31104
31104
31116
31108
31118
31121
31130
31135
31136
31140
31140
31151
31154
31154
31166
31169
31164
31170
31172
31170
31188
31177
31180
31180
31184
31182
31202
31190
31198
31188
31200
31200
31200
31206
31204
31204
31204
31212
31208
31216
31208
31204
31200
31208
31204
31212
31205
31201
31205
31204
31204
31206
31204
31204
31201
31204
31204
31210
31202
31204
31204
31208
31204
31209
31202
31208
31208
31208
31220
31215
31221
31219
31228
31216
31217
31214
31220
31218
31230
31228
31236
31237
31252
31238
31236
31252
31244
31248
31260
31260
31264
31264
31276
31264
31278
31265
31284
31280
31280
31280
31294
31290
31300
31297
31304
31300
31305
31310
31310
31318
31317
31322
31324
31324
31326
31326
31336
31332
31342
31344
31348
31348
31356
31342
31364
31356
31362
31356
31364
31360
31366
31367
31376
31368
31376
31380
31378
31380
31376
31390
31396
31392
31390
31398
31390
31397
31393
31412
31409
31398
31408
31408
31413
31408
31416
31417
31416
31420
31423
31422
31430
31428
31433
31432
31426
31441
31432
31441
31436
31436
31442
31452
31446
31444
31447
31440
31446
31453
31454
31449
31453
31456
31456
31452
31454
31456
31455
31450
31457
31457
31454
31460
31456
31452
31448
31448
31456
31455
31457
31454
31450
31448
31448
31458
31444
31446
31444
31452
31452
31448
31441
31454
31444
31438
31442
31446
31440
31446
31440
31432
31436
31436
31430
31438
31428
31425
31424
31420
31425
31425
31420
31421
31408
31424
31414
31412
31408
31411
31400
31412
31409
31396
31404
31406
31400
31398
31396
31396
31398
31393
31398
31404
31392
31392
31398
31397
31402
31404
31400
31398
31402
31406
31412
31406
31406
31412
31408
31406
31414
31415
31422
31412
31422
31420
31430
31412
31436
31430
31431
31430
31440
31440
31444
31440
31446
31454
31452
31453
31456
31452
31456
31460
31465
31460
31468
31468
31460
31468
31473
31480
31471
31480
31476
31476
31479
31480
31482
31484
31488
31484
31489
31480
31490
31489
31494
31495
31502
31502
31500
31512
31508
31516
31510
31512
31510
31522
31518
31521
31520
31530
31528
31540
31536
31546
31544
31546
31546
31552
31550
31556
31542
31548
31548
31552
31548
31552
31553
31552
31548
31554
31553
31552
31552
31550
31544
31552
31552
31552
31552
31549
31556
31553
31544
31543
31552
31536
31545
31546
31548
31544
31538
31538
31542
31532
31543
31538
31540
31553
31546
31539
31534
31545
31540
31553
31548
31548
31548
31560
31564
31569
31560
31564
31568
31573
31568
31580
31589
31590
31608
31600
31616
31620
31628
31628
31646
31648
31652
31657
31674
31671
31688
31692
31700
31703
31716
31720
31726
31732
31741
31754
31751
31751
31764
31776
31783
31776
31788
31796
31804
31806
31818
31816
31820
31821
31828
31826
31844
31848
31852
31850
31852
31856
31856
31860
31861
31868
31872
31868
31879
31874
31872
31872
31872
31870
31872
31880
31882
31876
31872
31876
31874
31868
31872
31872
31861
31868
31860
31857
31860
31861
31845
31844
31836
31836
31836
31828
31822
31822
31816
31812
31808
31802
31808
31804
31796
31790
31788
31788
31782
31781
31773
31772
31777
31772
31771
31764
31748
31762
31754
31748
31748
31743
31744
31746
31738
31736
31748
31737
31732
31736
31742
31736
31735
31732
31736
31748
31736
31734
31734
31736
31734
31732
31736
31736
31740
31736
31740
31754
31746
31744
31748
31744
31754
31760
31768
31764
31765
31770
31776
31781
31774
31774
31774
31788
31792
31788
31789
31788
31800
31808
31812
31802
31808
31814
31815
31822
31821
31820
31820
31822
31830
31830
31830
31833
31836
31836
31840
31844
31848
31854
31855
31856
31855
31868
31876
31868
31868
31880
31877
31886
31884
31879
31888
31892
31902
31897
31900
31904
31911
31908
31916
31914
31916
31916
31932
31924
31930
31924
31930
31938
31935
31944
31945
31944
31956
31960
31952
31949
31964
31958
31964
31966
31966
31964
31965
31972
31974
31977
31972
31976
31984
31980
31984
31992
31992
31996
32004
32000
32020
32022
32029
32030
32028
32036
32040
32044
32058
32056
32064
32065
32064
32068
32074
32076
32088
32086
32089
32100
32092
32097
32101
32104
32108
32106
32109
32114
32108
32120
32116
32117
32133
32119
32128
32136
32128
32132
32132
32137
32137
32153
32148
32144
32151
32148
32152
32156
32158
32160
32164
32164
32172
32172
32180
32186
32192
32189
32192
32192
32204
32214
32212
32216
32220
32216
32228
32231
32234
32241
32244
32252
32253
32262
32261
32258
32263
32268
32276
32273
32283
32288
32297
32284
32304
32302
32308
32312
32320
32328
32332
32336
32342
32352
32350
32369
32372
32372
32380
32388
32402
32398
32404
32420
32424
32432
32432
32456
32456
32464
32468
32492
32506
32502
32508
32521
32540
32536
32548
32560
32569
32584
32594
32608
32612
32616
32624
32642
32650
32656
32676
32685
32694
32706
32718
32732
32732
32745
32756
32772
32783
32794
32800
32812
32820
32840
32846
32855
32854
32872
32882
32909
32910
32908
32920
32930
32948
32960
32959
32982
32984
32998
33004
33008
33020
33025
33044
33052
33047
33058
33068
33069
33088
33092
33102
33100
33110
33120
33120
33126
33130
33152
33150
33160
33172
33172
33176
33186
33188
33196
33201
33206
33218
33213
33225
33236
33240
33252
33248
33255
33261
33264
33272
33280
33288
33294
33300
33304
33316
33318
33325
33338
33325
33342
33349
33353
33357
33365
33372
33376
33389
33396
33396
33408
33404
33408
33414
33420
33424
33429
33440
33440
33449
33448
33452
33460
33466
33476
33468
33482
33476
33487
33485
33504
33499
33501
33516
33512
33519
33508
33532
33528
33532
33527
33538
33542
33540
33548
33546
33550
33548
33564
33560
33568
33557
33572
33568
33581
33576
33588
33584
33588
33591
33597
33590
33598
33606
33594
33602
33606
33600
33608
33621
33615
33628
33628
33626
33628
33641
33636
33646
33640
33644
33652
33658
33654
33656
33656
33668
33668
33681
33674
33684
33685
33687
33688
33692
33706
33706
33708
33708
33724
33717
33719
33728
33734
33724
33740
33732
33740
33744
33766
33760
33760
33754
33767
33762
33770
33776
33780
33783
33784
33788
33792
33792
33796
33796
33796
33804
33796
33820
33810
33817
33812
33816
33823
33820
33826
33828
33828
33840
33828
33838
33836
33844
33848
33844
33840
33856
33844
33848
33856
33864
33870
33860
33870
33860
33868
33868
33872
33873
33884
33885
33876
33882
33887
33892
33892
33892
33900
33897
33906
33908
33909
33916
33916
33920
33919
33920
33924
33928
33932
33940
33936
33934
33936
33945
33948
33948
33944
33948
33956
33956
33958
33960
33972
33976
33973
33974
33973
33976
33984
33974
33986
33986
33980
33990
33986
33986
33985
33992
33984
33996
34000
33996
33990
33990
33992
33994
33988
33996
33995
34004
33998
34002
33994
34004
34004
33996
34000
34000
33996
33998
34004
34001
34005
34004
34004
34007
34014
34012
33998
34004
34012
34020
34016
34014
34009
34011
34010
34021
34020
34023
34020
34022
34020
34014
34020
34024
34020
34026
34028
34028
34032
34036
34036
34042
34036
34042
34040
34036
34038
34044
34044
34050
34042
34048
34045
34048
34046
34046
34039
34048
34042
34043
34050
34046
34045
34053
34048
34060
34050
34051
34048
34042
34062
34056
34048
34050
34056
34060
34054
34052
34066
34052
34052
34058
34058
34060
34068
34063
34062
34067
34071
34072
34074
34084
34084
34096
34086
34092
34085
34100
34098
34108
34116
34112
34109
34112
34108
34116
34124
34128
34124
34132
34126
34128
34128
34129
34135
34127
34136
34128
34128
34124
34130
34134
34121
34124
34113
34118
34106
34110
34112
34096
34092
34080
34084
34084
34082
34063
34068
34057
34050
34048
34036
34032
34032
34024
34012
34004
34002
33992
33994
33994
33980
33972
33975
33961
33967
33956
33952
33948
33940
33940
33930
33927
33934
33936
33932
33924
33933
33928
33933
33926
33940
33932
33945
33950
33952
33956
33965
33956
33967
33973
33984
33990
33990
33994
34000
34004
34016
34021
34028
34032
34038
34052
34054
34056
34076
34078
34082
34092
34084
34106
34106
34116
34116
34120
34124
34138
34136
34152
34148
34149
34148
34172
34173
34181
34180
34180
34190
34186
34199
34200
34193
34206
34207
34212
34208
34214
34212
34220
34219
34224
34216
34214
34216
34222
34216
34228
34216
34216
34220
34220
34216
34220
34212
34208
34212
34212
34199
34204
34202
34196
34196
34193
34185
34184
34180
34188
34176
34172
34165
34166
34164
34158
34156
34151
34150
34140
34133
34136
34138
34132
34132
34120
34124
34119
34109
34114
34116
34108
34108
34106
34097
34088
34092
34092
34088
34082
34084
34078
34068
34068
34064
34060
34056
34058
34058
34050
34056
34054
34044
34052
34050
34036
34036
34040
34036
34036
34041
34037
34028
34040
34036
34036
34028
34048
34036
34049
34042
34038
34040
34037
34045
34040
34056
34048
34052
34048
34058
34057
34063
34060
34063
34065
34064
34068
34078
34072
34072
34076
34077
34081
34084
34089
34088
34092
34092
34096
34102
34098
34113
34110
34112
34124
34124
34120
34122
34118
34128
34126
34132
34144
34142
34140
34149
34142
34148
34148
34156
34160
34168
34164
34168
34172
34180
34178
34178
34191
34178
34183
34180
34196
34204
34193
34195
34208
34215
34210
34216
34212
34222
34218
34228
34230
34237
34232
34246
34245
34248
34248
34257
34267
34268
34282
34277
34285
34292
34311
34304
34308
34316
34320
34330
34336
34346
34356
34363
34356
34368
34376
34376
34388
34388
34396
34400
34404
34407
34412
34422
34423
34430
34428
34438
34440
34442
34446
34455
34452
34462
34456
34460
34468
34472
34470
34476
34480
34490
34486
34495
34496
34497
34504
34512
34516
34512
34532
34518
34529
34530
34532
34538
34545
34548
34552
34552
34557
34572
34576
34572
34588
34580
34596
34604
34599
34606
34614
34620
34632
34621
34636
34636
34644
34652
34661
34660
34664
34668
34684
34680
34680
34700
34696
34700
34702
34716
34710
34732
34724
34733
34735
34743
34746
34752
34756
34768
34771
34776
34778
34788
34788
34792
34801
34804
34823
34823
34825
34836
34842
34847
34849
34860
34858
34868
34880
34880
34884
34892
34901
34904
34919
34918
34918
34928
34930
34938
34948
34952
34958
34960
34964
34972
34972
34982
34988
34992
35004
35009
35012
35020
35008
35024
35032
35038
35042
35050
35055
35054
35060
35065
35076
35074
35076
35088
35094
35096
35104
35113
35114
35118
35135
35132
35132
35133
35143
35153
35148
35152
35160
35173
35160
35165
35168
35184
35177
35188
35184
35188
35188
35198
35201
35201
35206
35218
35212
35220
35220
35228
35224
35232
35234
35238
35244
35246
35247
35252
35253
35269
35258
35270
35260
35272
35272
35273
35276
35276
35280
35292
35286
35288
35292
35294
35300
35304
35302
35312
35300
35312
35313
35313
35316
35325
35322
35316
35334
35322
35336
35328
35340
35334
35332
35349
35332
35336
35334
35335
35338
35332
35332
35324
35328
35334
35332
35333
35332
35324
35324
35324
35319
35320
35322
35310
35312
35302
35308
35305
35296
35300
35296
35290
35288
35286
35282
35278
35264
35270
35264
35265
35260
35252
35260
35249
35248
35245
35241
35238
35236
35238
35220
35225
35226
35230
35212
35218
35217
35204
35206
35209
35199
35196
35196
35186
35193
35192
35188
35182
35180
35184
35180
35174
35172
35168
35169
35172
35168
35160
35164
35149
35164
35161
35155
35151
35152
35148
35148
35148
35154
35156
35157
35153
35146
35144
35144
35151
35148
35144
35139
35140
35132
35146
35142
35132
35140
35148
35140
35139
35144
35136
35138
35142
35136
35145
35134
35136
35136
35140
35141
35136
35135
35137
35133
35136
35136
35134
35132
35138
35136
35137
35143
35142
35138
35132
35134
35144
35146
35152
35133
35144
35142
35136
35142
35134
35142
35144
35148
35146
35140
35144
35137
35150
35148
35152
35150
35143
35153
35160
35150
35158
35150
35162
35151
35160
35156
35160
35160
35166
35156
35152
35156
35162
35160
35168
35168
35158
35158
35164
35172
35172
35168
35170
35164
35180
35170
35167
35172
35174
35172
35172
35176
35173
35188
35177
35184
35181
35174
35178
35180
35191
35182
35184
35184
35185
35182
35184
35196
35184
35180
35196
35184
35194
35190
35189
35192
35180
35200
35180
35197
35193
35197
35186
35192
35194
35196
35200
35204
35207
35204
35201
35196
35212
35205
35220
35213
35216
35220
35217
35216
35208
35228
35228
35232
35228
35240
35232
35234
35236
35240
35244
35240
35248
35244
35247
35247
35248
35253
35252
35254
35252
35241
35256
35246
35260
35253
35260
35247
35244
35240
35240
35237
35236
35234
35237
35222
35212
35212
35216
35196
35185
35180
35180
35170
35168
35164
35164
35150
35148
35138
35136
35128
35132
35124
35119
35108
35088
35095
35089
35084
35071
35072
35072
35068
35062
35050
35052
35052
35041
35042
35036
35028
35040
35026
35036
35022
35029
35020
35020
35030
35020
35028
35022
35022
35026
35026
35036
35032
35030
35036
35041
35040
35044
35052
35046
35049
35063
35065
35070
35068
35076
35079
35093
35088
35100
35096
35102
35096
35106
35116
35116
35129
35140
35133
35140
35140
35136
35148
35152
35160
35172
35176
35172
35181
35182
35189
35205
35188
35197
35204
35212
35216
35228
35218
35228
35230
35240
35250
35246
35244
35256
35260
35256
35268
35260
35272
35278
35280
35281
35284
35280
35284
35284
35290
35288
35298
35289
35294
35303
35288
35300
35289
35286
35292
35296
35294
35296
35294
35300
35296
35300
35297
35298
35300
35292
35298
35301
35304
35310
35306
35300
35300
35302
35300
35304
35303
35308
35310
35301
35306
35301
35303
35308
35304
35312
35304
35310
35300
35316
35308
35303
35316
35308
35312
35310
35313
35318
35312
35312
35316
35312
35316
35320
35319
35316
35313
35324
35324
35330
35321
35324
35329
35334
35332
35324
35332
35329
35333
35334
35334
35348
35338
35348
35348
35356
35346
35348
35364
35360
35366
35372
35368
35384
35372
35372
35376
35381
35390
35392
35402
35400
35404
35408
35405
35412
35421
35428
35428
35431
35433
35433
35448
35452
35447
35453
35452
35460
35460
35476
35470
35484
35490
35486
35500
35489
35500
35500
35506
35520
35512
35526
35524
35524
35536
35528
35542
35538
35548
35556
35552
35556
35556
35560
35552
35576
35570
35568
35582
35580
35589
35589
35588
35596
35604
35600
35613
35614
35608
35616
35624
35636
35636
35640
35649
35648
35658
35656
35662
35664
35684
35681
35692
35684
35696
35700
35702
35708
35716
35725
35725
35732
35744
35745
35745
35741
35750
35754
35760
35756
35757
35760
35770
35768
35776
35770
35770
35779
35782
35788
35783
35783
35785
35780
35797
35784
35788
35786
35784
35794
35792
35788
35792
35794
35802
35800
35800
35800
35797
35806
35802
35804
35807
35809
35806
35800
35808
35800
35816
35806
35804
35809
35798
35804
35800
35802
35812
35790
35800
35808
35800
35804
35792
35798
35796
35786
35792
35788
35796
35785
35780
35780
35792
35780
35780
35782
35774
35774
35770
35770
35764
35768
35752
35752
35756
35756
35760
35754
35752
35748
35742
35746
35743
35741
35737
35732
35738
35735
35738
35728
35722
35730
35728
35724
35732
35716
35720
35724
35732
35724
35724
35716
35716
35720
35716
35716
35708
35716
35718
35714
35711
35708
35712
35708
35714
35716
35702
35706
35704
35696
35713
35710
35700
35708
35702
35705
35700
35700
35704
35706
35692
35692
35696
35693
35687
35694
35690
35684
35688
35682
35684
35684
35680
35680
35680
35676
35676
35678
35678
35669
35668
35672
35671
35673
35664
35668
35665
35660
35670
35662
35662
35656
35660
35658
35648
35654
35660
35653
35648
35656
35644
35644
35644
35642
35639
35644
35636
35628
35630
35628
35624
35634
35632
35628
35628
35617
35620
35614
35617
35620
35614
35604
35610
35612
35608
35604
35600
35594
35593
35600
35594
35600
35592
35600
35597
35587
35588
35588
35577
35584
35584
35584
35578
35574
35580
35576
35566
35580
35570
35564
35566
35556
35556
35556
35557
35554
35555
35552
35548
35546
35541
35544
35533
35538
35540
35529
35520
35528
35528
35524
35525
35517
35520
35504
35512
35510
35508
35500
35500
35500
35489
35486
35489
35485
35488
35480
35484
35469
35476
35476
35460
35468
35462
35460
35457
35456
35447
35448
35454
35450
35438
35438
35431
35432
35425
35424
35416
35422
35412
35416
35421
35409
35400
35400
35396
35389
35384
35380
35382
35377
35372
35364
35360
35362
35358
35356
35348
35342
35336
35328
35324
35320
35314
35316
35310
35304
35304
35304
35294
35297
35285
35286
35284
35278
35272
35276
35260
35265
35256
35260
35246
35237
35234
35231
35232
35225
35226
35215
35212
35204
35204
35198
35200
35188
35188
35182
35181
35164
35172
35162
35160
35148
35144
35143
35139
35130
35124
35120
35117
35117
35104
35102
35102
35092
35084
35076
35072
35064
35064
35069
35061
35048
35044
35037
35034
35036
35036
35020
35012
35010
35008
34998
35004
34996
34994
34976
34980
34968
34976
34969
34964
34964
34948
34937
34940
34938
34936
34930
34916
34924
34912
34914
34908
34896
34890
34880
34894
34876
34872
34872
34868
34864
34864
34852
34852
34844
34837
34833
34837
34828
34820
34822
34816
34820
34814
34814
34812
34810
34804
34806
34804
34804
34792
34792
34802
34793
34792
34790
34796
34786
34802
34788
34792
34792
34792
34789
34788
34796
34788
34788
34788
34786
34788
34784
34780
34776
34776
34760
34768
34769
34770
34751
34760
34748
34749
34752
34742
34740
34743
34728
34728
34732
34720
34724
34721
34716
34712
34700
34696
34692
34690
34692
34684
34679
34684
34664
34669
34664
34666
34649
34646
34644
34640
34640
34624
34631
34624
34612
34612
34606
34608
34601
34608
34596
34592
34596
34580
34596
34592
34588
34594
34588
34584
34582
34578
34586
34572
34580
34580
34578
34580
34582
34580
34580
34592
34583
34588
34588
34588
34593
34596
34592
34588
34593
34594
34588
34592
34590
34588
34596
34586
34596
34584
34585
34586
34580
34586
34580
34586
34572
34582
34580
34584
34578
34581
34576
34572
34568
34566
34566
34572
34560
34560
34572
34558
34560
34560
34552
34552
34550
34548
34544
34540
34540
34536
34533
34532
34528
34526
34520
34516
34512
34510
34514
34498
34486
34494
34476
34481
34478
34472
34466
34460
34456
34453
34452
34444
34436
34443
34433
34424
34420
34422
34404
34412
34396
34388
34393
34380
34382
34377
34372
34376
34368
34352
34349
34346
34343
34340
34340
34336
34332
34334
34320
34312
34312
34308
34312
34294
34304
34294
34296
34296
34288
34296
34273
34276
34274
34272
34276
34272
34272
34268
34260
34255
34256
34260
34252
34258
34241
34248
34240
34236
34244
34236
34240
34233
34232
34229
34232
34228
34228
34228
34220
34216
34216
34200
34220
34220
34212
34209
34213
34204
34200
34204
34204
34197
34196
34200
34196
34186
34188
34188
34180
34189
34176
34182
34168
34170
34177
34174
34176
34174
34164
34164
34158
34152
34152
34148
34148
34148
34144
34148
34134
34140
34132
34132
34128
34120
34124
34116
34112
34122
34104
34110
34096
34104
34098
34085
34094
34084
34085
34080
34076
34078
34064
34066
34070
34060
34060
34046
34056
34058
34048
34050
34036
34048
34052
34044
34036
34048
34044
34042
34050
34050
34048
34048
34058
34052
34054
34064
34056
34073
34072
34084
34077
34084
34084
34085
34096
34089
34092
34108
34100
34108
34112
34112
34119
34116
34126
34128
34124
34132
34130
34132
34140
34136
34140
34149
34146
34144
34148
34144
34148
34156
34160
34150
34156
34161
34156
34158
34166
34160
34160
34160
34156
34159
34161
34161
34169
34161
34164
34167
34161
34165
34176
34164
34152
34164
34156
34152
34152
34152
34156
34144
34142
34140
34132
34132
34137
34133
34128
34128
34124
34116
34118
34112
34108
34110
34092
34098
34084
34092
34084
34080
34074
34064
34074
34065
34068
34060
34056
34046
34048
34044
34041
34048
34037
34032
34032
34032
34022
34024
34024
34026
34020
34019
34012
34018
34009
34016
34020
34009
34012
34010
34008
34012
34012
34010
34004
34009
34010
34014
34004
34014
34012
34017
34012
34012
34016
34016
34016
34019
34020
34022
34022
34010
34012
34020
34022
34024
34016
34016
34024
34017
34020
34016
34020
34022
34026
34020
34022
34020
34020
34020
34024
34025
34022
34020
34018
34020
34022
34028
34022
34020
34020
34020
34018
34015
34008
34020
34016
34008
34008
34008
34012
34004
34001
34008
34004
33996
34004
33992
33994
33988
33992
33993
33994
33989
33988
33986
33976
33986
33980
33977
33974
33982
33980
33964
33968
33972
33972
33976
33962
33972
33959
33964
33966
33964
33959
33958
33953
33962
33956
33956
33952
33956
33962
33956
33960
33951
33948
33940
33950
33944
33948
33950
33956
33951
33948
33948
33945
33936
33944
33950
33948
33948
33952
33941
33940
33944
33948
33943
33944
33940
33944
33942
33940
33944
33932
33941
33952
33937
33948
33925
33943
33936
33941
33936
33932
33933
33928
33934
33937
33938
33932
33932
33932
33920
33933
33920
33920
33922
33926
33916
33922
33921
33920
33916
33908
33912
33908
33908
33908
33900
33892
33908
33904
33900
33893
33893
33892
33894
33892
33888
33888
33886
33888
33888
33890
33873
33876
33870
33876
33880
33869
33874
33860
33872
33868
33864
33868
33860
33860
33856
33860
33860
33852
33855
33852
33852
33852
33844
33844
33845
33837
33840
33836
33832
33841
33836
33833
33828
33828
33837
33828
33824
33821
33824
33825
33822
33824
33816
33809
33808
33805
33808
33804
33796
33804
33802
33801
33796
33792
33786
33788
33784
33776
33782
33768
33777
33772
33775
33772
33764
33760
33766
33760
33766
33769
33754
33764
33760
33754
33753
33742
33748
33748
33744
33740
33752
33742
33740
33740
33743
33740
33734
33736
33732
33730
33734
33736
33738
33724
33732
33726
33729
33724
33724
33720
33725
33720
33720
33713
33720
33724
33720
33716
33724
33720
33712
33720
33712
33716
33719
33716
33716
33708
33721
33708
33724
33724
33720
33718
33714
33708
33725
33712
33716
33715
33709
33718
33716
33708
33722
33716
33716
33716
33712
33710
33710
33704
33708
33708
33711
33709
33712
33710
33709
33708
33712
33721
33724
33726
33734
33728
33728
33736
33742
33756
33744
33758
33756
33756
33756
33759
33764
33758
33765
33769
33764
33775
33767
33772
33773
33776
33772
33765
33776
33764
33778
33774
33776
33766
33770
33764
33770
33774
33764
33764
33776
33760
33772
33765
33768
33768
33768
33772
33764
33762
33760
33770
33768
33772
33764
33762
33768
33764
33764
33764
33764
33772
33756
33760
33760
33756
33748
33762
33758
33761
33761
33758
33761
33761
33756
33765
33757
33764
33767
33772
33762
33776
33768
33776
33780
33798
33796
33799
33801
33815
33812
33814
33824
33824
33824
33828
33839
33844
33830
33850
33844
33842
33852
33858
33860
33860
33864
33868
33866
33873
33864
33872
33880
33868
33873
33871
33872
33880
33884
33886
33890
33884
33890
33886
33884
33884
33892
33888
33889
33878
33880
33892
33879
33880
33869
33870
33872
33879
33872
33872
33868
33869
33868
33868
33868
33860
33860
33848
33852
33852
33848
33848
33841
33836
33828
33822
33828
33820
33818
33814
33813
33797
33806
33799
33799
33796
33792
33780
33780
33781
33765
33770
33762
33764
33758
33749
33741
33741
33742
33736
33736
33726
33732
33718
33717
33716
33708
33705
33712
33697
33704
33696
33689
33684
33685
33684
33676
33681
33679
33674
33670
33672
33664
33664
33668
33664
33658
33656
33664
33653
33652
33652
33656
33648
33656
33645
33650
33652
33648
33644
33646
33655
33649
33644
33634
33640
33646
33639
33652
33650
33644
33638
33647
33646
33650
33652
33658
33644
33654
33656
33652
33652
33656
33652
33664
33660
33660
33668
33668
33665
33670
33668
33672
33662
33672
33676
33682
33668
33672
33680
33677
33690
33685
33680
33689
33688
33688
33692
33690
33684
33690
33697
33700
33700
33700
33700
33704
33708
33701
33716
33702
33702
33702
33700
33704
33710
33712
33704
33712
33708
33713
33704
33709
33702
33702
33710
33702
33700
33700
33700
33704
33701
33704
33697
33700
33696
33710
33704
33708
33700
33708
33716
33716
33708
33724
33717
33712
33720
33724
33720
33728
33726
33732
33735
33729
33736
33728
33732
33734
33732
33732
33729
33736
33737
33729
33724
33732
33734
33732
33728
33729
33728
33735
33732
33725
33724
33726
33720
33726
33729
33727
33721
33724
33728
33717
33720
33720
33727
33726
33722
33724
33728
33718
33726
33729
33732
33732
33724
33740
33732
33732
33736
33728
33732
33732
33736
33732
33732
33732
33740
33736
33732
33736
33736
33736
33735
33730
33732
33736
33726
33728
33721
33733
33722
33717
33708
33710
33713
33708
33710
33697
33698
33706
33697
33700
33685
33688
33684
33684
33681
33684
33684
33679
33673
33668
33660
33662
33662
33652
33654
33658
33656
33656
33646
33636
33648
33636
33628
33629
33637
33630
33636
33628
33620
33622
33620
33626
33620
33624
33612
33615
33616
33614
33620
33612
33620
33609
33615
33616
33610
33616
33622
33610
33620
33612
33616
33614
33614
33613
33614
33618
33606
33612
33616
33612
33616
33616
33612
33623
33625
33620
33620
33626
33620
33615
33620
33622
33628
33617
33622
33618
33617
33628
33624
33624
33624
33624
33626
33624
33624
33622
33622
33622
33620
33624
33626
33620
33624
33622
33628
33628
33621
33624
33626
33617
33630
33629
33636
33628
33636
33636
33633
33636
33632
33638
33636
33640
33644
33648
33646
33652
33650
33654
33646
33656
33656
33648
33654
33650
33660
33671
33672
33668
33674
33660
33672
33671
33684
33672
33688
33685
33684
33684
33688
33692
33696
33689
33696
33696
33697
33702
33712
33708
33708
33704
33700
33716
33714
33712
33722
33711
33720
33716
33728
33720
33724
33724
33732
33728
33728
33732
33738
33725
33732
33725
33732
33724
33732
33725
33740
33735
33734
33736
33748
33738
33736
33740
33742
33746
33741
33748
33740
33740
33745
33748
33748
33756
33756
33750
33756
33748
33748
33760
33756
33758
33760
33763
33758
33760
33764
33756
33758
33772
33767
33768
33765
33774
33772
33772
33780
33782
33790
33780
33786
33788
33773
33788
33786
33796
33794
33798
33796
33792
33792
33800
33800
33805
33799
33802
33792
33797
33813
33809
33812
33809
33812
33806
33810
33812
33807
33809
33817
33814
33812
33808
33808
33812
33812
33808
33820
33812
33815
33806
33812
33813
33824
33824
33820
33818
33812
33814
33813
33822
33816
33820
33820
33812
33816
33812
33817
33820
33813
33818
33816
33815
33812
33820
33820
33820
33822
33825
33817
33816
33820
33820
33814
33822
33825
33824
33823
33816
33815
33822
33816
33824
33816
33828
33820
33823
33824
33827
33836
33832
33826
33828
33833
33832
33836
33828
33824
33824
33834
33828
33832
33834
33836
33836
33836
33837
33840
33828
33844
33846
33840
33833
33842
33844
33848
33841
33852
33848
33839
33850
33852
33856
33856
33852
33856
33852
33854
33856
33856
33857
33852
33865
33860
33866
33864
33858
33868
33862
33864
33868
33861
33871
33870
33864
33860
33871
33868
33876
33864
33869
33869
33868
33880
33877
33879
33878
33876
33872
33876
33876
33888
33885
33884
33885
33884
33872
33880
33884
33886
33894
33876
33889
33896
33896
33892
33902
33908
33910
33914
33917
33924
33920
33932
33940
33932
33944
33948
33943
33952
33959
33965
33960
33960
33972
33976
33972
33984
33978
33976
33982
33982
33990
33980
33980
33994
33992
33980
33988
33987
33988
33982
33991
33988
33984
33976
33988
33982
33988
33986
33981
33986
33984
33980
33990
33976
33985
33980
33984
33983
33981
33984
33982
33980
33980
33980
33984
33984
33988
33988
33992
33988
33988
33988
33985
33996
33992
33994
33996
34002
34004
34000
34008
34008
34009
34012
34026
34028
34034
34048
34046
34048
34057
34060
34070
34074
34076
34096
34094
34089
34108
34112
34110
34122
34120
34137
34145
34148
34152
34156
34156
34180
34161
34180
34180
34201
34194
34204
34204
34220
34222
34218
34230
34236
34240
34244
34244
34252
34260
34268
34266
34278
34280
34276
34288
34281
34293
34305
34307
34302
34310
34320
34309
34317
34328
34328
34334
34336
34328
34336
34340
34340
34344
34340
34344
34344
34343
34337
34349
34342
34354
34348
34349
34344
34342
34350
34338
34344
34346
34344
34340
34344
34348
34350
34342
34343
34344
34346
34342
34348
34345
34348
34346
34335
34348
34346
34350
34352
34348
34340
34346
34344
34342
34356
34348
34350
34353
34352
34356
34348
34352
34352
34348
34359
34353
34361
34355
34348
34353
34360
34358
34356
34360
34360
34352
34356
34365
34364
34372
34369
34360
34373
34364
34368
34372
34369
34369
34374
34380
34380
34376
34384
34384
34392
34376
34388
34392
34398
34402
34396
34403
34407
34405
34408
34409
34406
34416
34420
34414
34414
34424
34420
34424
34426
34436
34436
34436
34433
34435
34436
34436
34438
34446
34444
34444
34440
34448
34440
34442
34448
34448
34445
34452
34456
34448
34458
34460
34468
34452
34460
34460
34462
34464
34469
34472
34466
34460
34460
34469
34468
34468
34464
34468
34469
34474
34468
34476
34465
34468
34462
34462
34460
34468
34469
34464
34465
34468
34466
34468
34465
34465
34468
34464
34460
34468
34464
34464
34470
34468
34468
34472
34476
34462
34473
34470
34468
34468
34480
34476
34468
34473
34466
34468
34468
34464
34468
34456
34466
34462
34456
34460
34460
34447
34450
34444
34440
34447
34441
34438
34430
34436
34425
34420
34428
34416
34420
34413
34420
34396
34404
34396
34388
34393
34390
34393
34388
34388
34380
34386
34373
34376
34373
34365
34366
34364
34356
34356
34350
34341
34336
34336
34326
34326
34318
34310
34305
34301
34292
34286
34280
34278
34264
34260
34260
34242
34232
34224
34231
34218
34200
34210
34197
34188
34184
34172
34166
34161
34152
34145
34140
34132
34125
34116
34116
34114
34096
34100
34084
34073
34080
34072
34062
34055
34052
34052
34041
34036
34025
34020
34012
34009
33996
33990
33985
33982
33988
33972
33968
33962
33958
33956
33937
33942
33944
33932
33932
33929
33912
33910
33918
33911
33900
33898
33890
33884
33880
33878
33862
33876
33865
33865
33852
33856
33848
33840
33844
33842
33836
33832
33828
33826
33816
33820
33812
33820
33816
33812
33813
33804
33804
33798
33804
33793
33796
33792
33799
33792
33792
33796
33802
33790
33800
33798
33804
33796
33788
33792
33786
33802
33796
33794
33788
33799
33788
33804
33796
33802
33802
33800
33800
33801
33804
33796
33804
33812
33812
33804
33814
33808
33810
33812
33808
33809
33813
33813
33809
33812
33812
33813
33813
33816
33815
33812
33818
33809
33820
33820
33822
33822
33814
33816
33820
33822
33816
33818
33817
33823
33825
33828
33824
33820
33828
33830
33828
33826
33828
33829
33832
33840
33828
33834
33832
33838
33844
33836
33836
33840
33838
33841
33852
33844
33841
33848
33852
33845
33852
33860
33856
33862
33860
33856
33852
33856
33868
33860
33860
33872
33864
33864
33876
33876
33876
33868
33872
33882
33878
33881
33885
33885
33876
33897
33885
33892
33892
33894
33893
33888
33892
33895
33901
33908
33892
33905
33908
33903
33902
33912
33916
33900
33912
33906
33913
33912
33909
33911
33914
33914
33916
33916
33924
33916
33920
33924
33920
33916
33925
33924
33928
33924
33934
33930
33932
33934
33930
33930
33938
33942
33936
33940
33950
33952
33942
33946
33944
33950
33951
33950
33942
33952
33953
33958
33956
33959
33961
33960
33956
33956
33952
33962
33953
33968
33960
33964
33966
33956
33964
33964
33964
33957
33972
33966
33961
33960
33960
33960
33956
33962
33958
33960
33958
33960
33956
33964
33948
33952
33945
33956
33952
33951
33934
33945
33932
33935
33930
33928
33928
33936
33917
33921
33904
33920
33911
33909
33908
33900
33904
33900
33896
33888
33892
33893
33884
33880
33876
33873
33868
33864
33862
33864
33857
33862
33853
33866
33844
33844
33844
33844
33840
33836
33829
33836
33830
33828
33828
33829
33814
33818
33824
33816
33818
33806
33810
33805
33804
33796
33794
33804
33799
33790
33792
33796
33788
33785
33784
33780
33781
33782
33788
33778
33775
33766
33765
33764
33766
33764
33758
33760
33741
33757
33746
33753
33753
33740
33743
33736
33740
33732
33734
33726
33728
33726
33724
33724
33720
33716
33716
33712
33716
33712
33708
33696
33708
33704
33708
33704
33700
33703
33704
33700
33696
33700
33700
33695
33695
33696
33702
33695
33690
33700
33692
33692
33696
33692
33689
33684
33676
33671
33672
33669
33671
33661
33660
33649
33648
33644
33630
33628
33620
33612
33604
33588
33586
33573
33568
33561
33546
33540
33524
33516
33500
33500
33486
33472
33461
33448
33444
33438
33424
33412
33402
33380
33372
33364
33356
33348
33334
33320
33312
33316
33296
33285
33280
33264
33269
33252
33254
33238
33242
33232
33224
33224
33216
33217
33200
33204
33202
33196
33197
33190
33184
33188
33198
33188
33188
33188
33187
33197
33184
33188
33192
33188
33185
33186
33188
33194
33192
33196
33197
33198
33196
33198
33200
33200
33204
33204
33196
33204
33213
33206
33208
33210
33222
33220
33218
33216
33212
33220
33220
33234
33226
33222
33222
33228
33228
33236
33234
33236
33228
33238
33236
33239
33238
33244
33240
33241
33243
33236
33234
33236
33237
33233
33228
33229
33224
33229
33228
33223
33216
33212
33216
33204
33212
33206
33200
33196
33186
33201
33191
33180
33172
33176
33172
33167
33168
33168
33152
33154
33150
33146
33140
33128
33128
33124
33128
33124
33116
33110
33108
33100
33102
33101
33094
33086
33087
33076
33074
33080
33078
33060
33074
33062
33064
33054
33054
33047
33060
33048
33032
33045
33036
33036
33033
33036
33031
33020
33017
33028
33029
33028
33020
33030
33014
33020
33021
33024
33028
33026
33028
33024
33032
33024
33031
33036
33032
33036
33040
33045
33043
33044
33052
33048
33054
33056
33056
33049
33060
33060
33066
33072
33071
33084
33084
33092
33092
33096
33096
33108
33114
33115
33122
33116
33128
33134
33148
33150
33152
33168
33168
33170
33184
33180
33184
33196
33195
33206
33208
33220
33220
33220
33233
33238
33248
33252
33255
33260
33272
33282
33284
33292
33294
33298
33310
33320
33324
33324
33334
33348
33352
33354
33366
33372
33372
33380
33392
33396
33396
33402
33421
33428
33436
33445
33448
33466
33468
33478
33488
33496
33512
33518
33519
33532
33536
33556
33558
33566
33580
33586
33592
33602
33614
33634
33632
33636
33647
33652
33664
33662
33676
33690
33693
33700
33700
33710
33720
33728
33732
33740
33740
33752
33764
33764
33766
33772
33772
33783
33780
33790
33800
33800
33799
33804
33812
33824
33828
33836
33840
33828
33840
33850
33849
33852
33857
33860
33871
33868
33872
33880
33884
33884
33884
33886
33887
33888
33892
33888
33877
33890
33892
33894
33890
33892
33888
33887
33888
33888
33886
33879
33884
33876
33876
33870
33876
33878
33865
33864
33868
33868
33868
33858
33860
33860
33872
33861
33868
33852
33860
33862
33856
33860
33860
33858
33861
33860
33860
33860
33866
33866
33862
33864
33870
33868
33857
33868
33872
33876
33876
33878
33879
33886
33884
33885
33887
33881
33892
33900
33896
33900
33901
33904
33900
33904
33900
33916
33924
33912
33918
33917
33930
33916
33937
33937
33942
33942
33944
33950
33948
33944
33957
33960
33960
33969
33974
33964
33968
33973
33980
33970
33984
33976
33986
33992
33991
33990
33988
34001
33988
33996
34004
34002
34010
34007
34010
34016
34024
34020
34020
34020
34020
34028
34021
34030
34046
34036
34042
34038
34040
34047
34052
34049
34052
34052
34057
34056
34056
34074
34062
34072
34072
34080
34078
34076
34076
34090
34076
34096
34098
34088
34100
34104
34110
34105
34108
34112
34116
34120
34124
34130
34132
34134
34136
34134
34142
34152
34156
34151
34172
34156
34168
34172
34178
34176
34176
34192
34200
34192
34193
34196
34208
34204
34200
34208
34222
34224
34216
34229
34229
34236
34230
34248
34242
34254
34254
34252
34252
34256
34258
34268
34268
34272
34268
34265
34276
34272
34276
34276
34276
34282
34272
34272
34279
34276
34272
34276
34277
34285
34280
34274
34278
34278
34272
34276
34288
34272
34272
34272
34274
34276
34260
34272
34264
34276
34260
34265
34266
34260
34252
34256
34252
34248
34253
34240
34240
34232
34234
34229
34220
34228
34220
34210
34212
34208
34207
34196
34193
34180
34184
34173
34176
34169
34164
34144
34142
34142
34126
34121
34114
34108
34096
34094
34082
34076
34063
34056
34060
34044
34034
34029
34024
34000
34004
33992
33980
33972
33970
33958
33954
33943
33934
33936
33920
33916
33906
33892
33884
33878
33878
33868
33856
33854
33856
33844
33828
33832
33820
33805
33808
33796
33784
33788
33773
33773
33766
33749
33760
33745
33742
33732
33734
33722
33720
33705
33708
33700
33698
33692
33686
33682
33684
33677
33672
33672
33656
33666
33668
33653
33655
33652
33648
33644
33638
33641
33636
33632
33636
33633
33620
33634
33634
33624
33628
33617
33624
33620
33620
33624
33616
33616
33615
33617
33604
33610
33610
33624
33614
33613
33608
33612
33610
33616
33604
33604
33602
33604
33601
33604
33604
33612
33604
33609
33604
33608
33598
33604
33598
33600
33596
33601
33596
33594
33592
33600
33592
33596
33594
33600
33592
33592
33604
33596
33601
33594
33600
33604
33606
33598
33605
33604
33604
33607
33620
33616
33616
33628
33628
33628
33632
33628
33633
33636
33636
33644
33640
33648
33648
33640
33646
33644
33644
33652
33649
33644
33641
33644
33638
33633
33642
33633
33640
33624
33620
33616
33615
33612
33625
33610
33608
33604
33598
33600
33592
33604
33586
33584
33588
33583
33580
33576
33568
33564
33564
33552
33548
33536
33532
33540
33526
33520
33512
33514
33500
33494
33486
33474
33481
33474
33468
33468
33466
33461
33456
33454
33455
33450
33438
33439
33420
33430
33432
33424
33420
33420
33417
33413
33397
33404
33400
33396
33388
33394
33378
33380
33376
33376
33360
33352
33353
33349
33343
33324
33324
33317
33316
33302
33293
33288
33280
33274
33264
33264
33255
33240
33230
33220
33222
33220
33204
33193
33184
33188
33180
33164
33169
33160
33148
33140
33136
33124
33117
33112
33100
33099
33090
33080
33078
33073
33071
33063
33055
33048
33041
33030
33028
33018
33004
33004
32998
32990
32975
32980
32964
32957
32948
32935
32929
32928
32910
32912
32900
32892
32888
32872
32870
32864
32859
32848
32846
32834
32820
32812
32804
32796
32790
32780
32781
32768
32764
32748
32742
32742
32734
32716
32710
32701
32697
32704
32692
32676
32672
32658
32663
32656
32652
32642
32628
32628
32622
32612
32608
32604
32594
32588
32574
32571
32578
32568
32565
32572
32562
32564
32548
32541
32544
32532
32540
32526
32526
32516
32522
32518
32512
32508
32501
32492
32500
32492
32492
32493
32489
32484
32486
32470
32480
32472
32470
32470
32470
32460
32466
32465
32450
32461
32450
32458
32444
32441
32442
32452
32444
32436
32436
32444
32436
32428
32428
32424
32421
32416
32420
32404
32408
32400
32410
32413
32400
32392
32388
32392
32388
32380
32377
32378
32372
32365
32361
32354
32350
32356
32337
32344
32330
32320
32320
32316
32310
32305
32302
32294
32289
32284
32276
32256
32262
32252
32244
32241
32229
32228
32224
32208
32204
32200
32196
32192
32194
32186
32174
32175
32167
32164
32160
32152
32148
32152
32136
32134
32127
32140
32127
32114
32118
32111
32106
32095
32084
32097
32085
32076
32069
32068
32060
32048
32044
32036
32028
32032
32016
32014
32016
32003
32006
31996
31977
31980
31969
31974
31972
31952
31956
31948
31944
31944
31926
31933
31924
31924
31916
31910
31912
31905
31908
31908
31895
31904
31888
31885
31886
31890
31884
31876
31873
31872
31870
31864
31854
31862
31860
31845
31842
31844
31836
31836
31822
31820
31816
31816
31802
31812
31801
31800
31794
31788
31780
31776
31774
31772
31762
31756
31757
31746
31736
31732
31725
31727
31716
31712
31718
31709
31712
31694
31696
31700
31685
31680
31676
31672
31668
31676
31656
31652
31655
31644
31644
31638
31640
31634
31633
31636
31629
31621
31620
31612
31616
31616
31604
31596
31608
31598
31597
31596
31594
31592
31588
31585
31586
31582
31576
31576
31562
31564
31569
31560
31553
31550
31538
31538
31542
31548
31540
31535
31532
31522
31530
31518
31522
31510
31504
31500
31502
31500
31492
31489
31476
31478
31470
31474
31476
31465
31462
31461
31452
31454
31448
31452
31442
31430
31432
31430
31430
31426
31426
31420
31414
31422
31409
31408
31404
31396
31406
31397
31397
31388
31390
31390
31390
31384
31374
31383
31380
31384
31372
31372
31366
31370
31364
31366
31360
31358
31364
31359
31368
31369
31358
31364
31373
31364
31366
31368
31364
31368
31356
31356
31357
31362
31365
31361
31366
31365
31360
31361
31380
31368
31364
31376
31377
31380
31376
31381
31394
31384
31380
31384
31384
31392
31392
31396
31396
31396
31402
31406
31408
31400
31409
31406
31412
31414
31416
31417
31417
31413
31412
31412
31412
31428
31416
31424
31424
31430
31428
31428
31429
31430
31426
31424
31422
31424
31424
31428
31424
31428
31428
31427
31420
31422
31426
31426
31432
31428
31425
31426
31426
31428
31424
31426
31428
31428
31436
31424
31428
31430
31416
31428
31428
31425
31424
31428
31425
31426
31432
31434
31428
31428
31424
31428
31425
31428
31424
31422
31424
31430
31424
31418
31413
31422
31424
31426
31420
31428
31420
31420
31412
31413
31420
31423
31416
31412
31417
31414
31414
31416
31424
31420
31416
31412
31421
31417
31416
31413
31428
31424
31420
31423
31426
31420
31426
31424
31433
31428
31428
31434
31434
31434
31428
31440
31438
31433
31444
31440
31447
31444
31444
31452
31452
31444
31452
31452
31450
31461
31461
31458
31458
31456
31460
31456
31453
31461
31464
31460
31470
31472
31466
31461
31460
31467
31468
31468
31468
31468
31472
31468
31468
31466
31469
31473
31476
31472
31480
31469
31473
31468
31472
31482
31479
31471
31484
31474
31484
31476
31484
31469
31484
31491
31486
31480
31481
31480
31500
31496
31492
31498
31492
31502
31497
31496
31492
31500
31508
31506
31508
31504
31508
31508
31500
31516
31519
31512
31512
31516
31521
31517
31518
31528
31524
31534
31528
31533
31532
31536
31534
31540
31540
31540
31540
31552
31564
31552
31560
31568
31564
31575
31582
31588
31584
31598
31604
31599
31604
31614
31628
31628
31636
31640
31646
31656
31659
31664
31668
31676
31681
31692
31692
31700
31704
31705
31714
31717
31720
31720
31724
31727
31732
31740
31746
31736
31740
31741
31748
31744
31744
31751
31756
31758
31754
31754
31756
31758
31766
31768
31758
31768
31768
31768
31768
31766
31761
31768
31776
31776
31776
31776
31772
31764
31768
31781
31780
31776
31774
31768
31780
31780
31774
31774
31772
31780
31786
31780
31784
31788
31787
31800
31794
31796
31793
31800
31812
31812
31813
31816
31824
31828
31830
31832
31844
31842
31845
31840
31857
31854
31861
31863
31868
31870
31882
31876
31888
31893
31886
31894
31892
31896
31896
31904
31906
31906
31908
31910
31908
31908
31921
31912
31924
31912
31924
31928
31922
31928
31936
31931
31932
31932
31938
31938
31942
31932
31936
31936
31949
31948
31940
31940
31938
31940
31944
31945
31936
31944
31944
31940
31940
31944
31940
31940
31936
31943
31941
31933
31932
31933
31940
31942
31930
31930
31940
31928
31928
31928
31940
31932
31924
31937
31928
31926
31932
31922
31922
31930
31920
31920
31924
31924
31921
31921
31921
31924
31928
31920
31917
31915
31908
31916
31925
31916
31908
31917
31916
31916
31926
31916
31928
31928
31932
31924
31920
31924
31936
31934
31944
31936
31940
31936
31935
31940
31944
31945
31952
31956
31960
31951
31970
31962
31964
31974
31977
31985
31984
31992
31985
31988
31985
31992
32008
32001
32020
32016
32014
32020
32023
32036
32032
32030
32039
32036
32044
32040
32050
32060
32060
32064
32064
32060
32056
32065
32073
32072
32080
32084
32092
32088
32092
32092
32098
32100
32099
32092
32096
32108
32110
32110
32118
32122
32120
32124
32127
32132
32124
32120
32128
32132
32136
32136
32136
32148
32141
32140
32140
32143
32142
32152
32153
32144
32149
32148
32148
32150
32148
32150
32156
32160
32149
32152
32152
32156
32144
32158
32157
32152
32146
32153
32158
32157
32158
32168
32169
32168
32172
32164
32181
32184
32184
32188
32185
32182
32180
32180
32192
32194
32185
32196
32196
32197
32192
32190
32196
32196
32191
32200
32196
32194
32194
32194
32196
32190
32191
32188
32188
32188
32194
32182
32172
32176
32172
32172
32164
32160
32164
32158
32165
32164
32150
32164
32155
32160
32148
32150
32142
32145
32148
32149
32132
32144
32140
32138
32132
32136
32132
32130
32132
32124
32135
32122
32132
32128
32118
32117
32124
32113
32117
32110
32100
32097
32100
32104
32093
32094
32092
32084
32084
32084
32090
32084
32072
32072
32072
32070
32066
32064
32068
32058
32060
32048
32048
32048
32048
32046
32036
32034
32028
32036
32036
32032
32024
32024
32013
32014
32012
32014
32010
32008
31998
31994
32000
32001
31996
31988
31990
31989
31985
31992
31992
31982
31984
31974
31984
31980
31980
31973
31970
31980
31967
31982
31972
31972
31970
31966
31968
31966
31960
31962
31968
31968
31964
31956
31956
31958
31952
31964
31951
31956
31948
31952
31948
31952
31950
31940
31940
31952
31948
31944
31946
31946
31940
31946
31938
31944
31936
31940
31940
31940
31936
31940
31937
31940
31934
31936
31932
31937
31930
31936
31930
31936
31932
31936
31932
31928
31936
31921
31930
31936
31934
31930
31936
31936
31932
31938
31928
31932
31936
31939
31930
31932
31934
31934
31932
31932
31933
31934
31932
31930
31921
31932
31926
31926
31932
31940
31936
31936
31940
31948
31942
31936
31936
31934
31937
31941
31940
31943
31948
31959
31948
31940
31940
31940
31948
31952
31948
31956
31948
31953
31955
31959
31948
31950
31948
31962
31958
31953
31959
31956
31956
31954
31949
31956
31949
31956
31952
31960
31948
31956
31956
31962
31951
31950
31961
31958
31952
31964
31960
31964
31956
31960
31960
31966
31960
31958
31961
31958
31964
31968
31968
31968
31960
31962
31960
31968
31960
31958
31965
31968
31973
31972
31968
31974
31976
31973
31968
31984
31975
31978
31976
31974
31984
31978
31975
31969
31978
31974
31981
31984
31980
31976
31972
31982
31971
31980
31980
31980
31970
31974
31973
31968
31972
31972
31970
31979
31969
31972
31960
31974
31964
31968
31968
31964
31956
31958
31949
31952
31948
31952
31956
31950
31936
31936
31934
31948
31942
31925
31929
31932
31924
31933
31924
31924
31924
31910
31916
31918
31905
31912
31914
31908
31905
31900
31904
31900
31896
31896
31900
31894
31892
31889
31886
31880
31884
31876
31878
31876
31872
31876
31876
31868
31870
31874
31869
31868
31878
31864
31864
31869
31860
31860
31860
31860
31862
31860
31860
31860
31866
31868
31863
31853
31862
31860
31853
31856
31856
31846
31852
31856
31850
31852
31852
31860
31858
31856
31856
31852
31854
31862
31862
31862
31860
31856
31861
31865
31864
31868
31863
31860
31865
31862
31864
31864
31868
31864
31856
31856
31860
31862
31866
31864
31868
31860
31853
31865
31862
31868
31870
31872
31868
31874
31873
31868
31878
31877
31888
31889
31892
31895
31886
31900
31897
31905
31904
31905
31908
31904
31908
31916
31920
31914
31916
31911
31916
31911
31924
31913
31919
31916
31914
31919
31900
31910
31908
31904
31908
31900
31906
31910
31896
31898
31896
31900
31898
31896
31898
31898
31898
31892
31893
31886
31890
31893
31888
31893
31886
31893
31894
31900
31890
31886
31873
31886
31886
31882
31886
31880
31886
31882
31884
31892
31880
31896
31903
31894
31898
31892
31908
31908
31912
31908
31920
31930
31936
31940
31936
31952
31960
31966
31970
31985
31988
31989
32000
32006
32013
32022
32032
32040
32040
32054
32060
32068
32072
32076
32084
32086
32092
32100
32110
32117
32119
32126
32132
32130
32138
32141
32152
32157
32158
32160
32168
32176
32176
32180
32184
32188
32196
32196
32216
32204
32214
32204
32213
32217
32216
32221
32224
32220
32220
32220
32222
32226
32224
32228
32216
32224
32218
32224
32216
32212
32220
32202
32216
32204
32200
32196
32192
32194
32186
32184
32178
32172
32175
32158
32159
32160
32148
32152
32136
32133
32126
32124
32116
32112
32100
32100
32094
32088
32080
32082
32069
32064
32052
32044
32038
32037
32034
32020
32014
32012
32008
31998
31996
31982
31981
31974
31976
31965
31961
31952
31948
31948
31946
31940
31938
31932
31932
31924
31924
31925
31912
31916
31910
31914
31908
31905
31904
31897
31902
31898
31898
31904
31900
31892
31888
31892
31892
31896
31892
31892
31897
31900
31902
31893
31896
31900
31905
31904
31912
31909
31900
31904
31908
31912
31908
31916
31912
31917
31924
31920
31924
31920
31928
31924
31932
31933
31932
31933
31936
31936
31936
31932
31938
31932
31940
31944
31940
31944
31948
31952
31936
31952
31944
31948
31942
31956
31949
31950
31948
31946
31946
31941
31942
31940
31936
31940
31936
31932
31932
31932
31924
31927
31924
31918
31920
31916
31909
31911
31905
31900
31892
31900
31896
31892
31889
31881
31888
31894
31890
31886
31884
31878
31892
31888
31892
31886
31885
31896
31884
31896
31900
31892
31894
31884
31891
31892
31892
31901
31896
31888
31904
31896
31896
31889
31892
31890
31886
31891
31881
31892
31889
31884
31890
31886
31886
31884
31892
31886
31886
31884
31884
31886
31884
31882
31888
31882
31888
31884
31886
31880
31884
31892
31881
31896
31884
31888
31888
31886
31892
31893
31888
31884
31887
31892
31885
31893
31892
31889
31886
31884
31884
31884
31886
31876
31872
31876
31870
31874
31874
31884
31872
31868
31856
31864
31870
31860
31857
31856
31856
31852
31848
31852
31845
31840
31850
31836
31844
31844
31844
31828
31840
31834
31834
31830
31830
31824
31829
31828
31829
31816
31828
31815
31818
31825
31828
31832
31834
31834
31836
31826
31828
31833
31838
31832
31837
31845
31838
31840
31846
31836
31838
31844
31847
31852
31852
31852
31848
31856
31845
31852
31860
31858
31856
31868
31856
31862
31871
31874
31868
31876
31872
31860
31870
31872
31876
31868
31880
31878
31880
31876
31880
31887
31880
31888
31887
31886
31896
31892
31892
31896
31894
31899
31896
31892
31903
31896
31905
31892
31902
31900
31904
31908
31904
31902
31908
31900
31905
31902
31900
31916
31902
31908
31910
31909
31912
31910
31903
31908
31916
31912
31903
31912
31900
31909
31909
31905
31913
31916
31914
31916
31912
31916
31912
31918
31910
31908
31910
31912
31922
31912
31911
31924
31912
31916
31916
31926
31920
31916
31918
31916
31920
31914
31916
31910
31924
31914
31924
31925
31935
31921
31914
31926
31920
31920
31920
31924
31924
31930
31928
31926
31928
31918
31920
31925
31924
31928
31928
31924
31923
31924
31932
31928
31924
31928
31928
31930
31930
31924
31924
31920
31924
31922
31924
31910
31916
31920
31920
31920
31926
31920
31912
31914
31908
31920
31918
31916
31909
31917
31903
31916
31900
31904
31901
31910
31900
31898
31906
31900
31895
31898
31892
31892
31895
31892
31900
31892
31880
31890
31880
31884
31878
31879
31886
31870
31868
31870
31878
31872
31878
31874
31868
31862
31865
31868
31864
31860
31862
31857
31853
31869
31852
31858
31852
31854
31864
31849
31844
31853
31857
31853
31852
31842
31844
31852
31848
31840
31850
31844
31844
31843
31845
31839
31842
31836
31840
31844
31844
31840
31834
31831
31840
31838
31841
31840
31838
31840
31833
31840
31836
31845
31838
31834
31840
31840
31840
31840
31847
31844
31836
31844
31837
31850
31842
31842
31844
31840
31841
31840
31840
31844
31840
31844
31844
31840
31847
31844
31842
31847
31864
31848
31860
31865
31860
31872
31872
31864
31876
31876
31877
31890
31886
31893
31896
31908
31912
31918
31920
31920
31932
31932
31932
31942
31929
31948
31953
31958
31946
31962
31964
31960
31969
31960
31964
31972
31974
31973
31976
31974
31976
31974
31975
31972
31975
31972
31976
31978
31977
31982
31982
31989
31976
31982
31987
31985
31988
31980
31977
31992
32001
31996
31992
31990
31988
31996
32000
32004
32008
32012
32012
32013
32020
32024
32027
32020
32028
32042
32040
32051
32044
32052
32054
32058
32072
32069
32084
32077
32096
32100
32111
32104
32119
32120
32132
32137
32143
32149
32158
32172
32170
32182
32180
32196
32196
32208
32208
32216
32224
32230
32238
32236
32244
32252
32255
32252
32263
32263
32269
32278
32276
32280
32284
32284
32288
32280
32292
32288
32296
32296
32293
32296
32300
32298
32298
32300
32300
32294
32289
32304
32292
32301
32294
32300
32296
32296
32294
32285
32284
32279
32292
32288
32284
32279
32286
32276
32271
32270
32276
32271
32270
32263
32272
32260
32260
32257
32255
32252
32254
32246
32248
32247
32248
32241
32236
32236
32236
32229
32238
32238
32232
32230
32226
32220
32220
32228
32221
32222
32204
32226
32215
32221
32216
32215
32208
32199
32220
32204
32218
32206
32211
32208
32208
32216
32208
32200
32201
32200
32212
32202
32204
32198
32200
32197
32208
32213
32205
32212
32212
32214
32204
32212
32213
32215
32215
32220
32216
32226
32217
32222
32228
32224
32220
32224
32236
32226
32236
32236
32244
32244
32244
32252
32235
32256
32246
32252
32248
32251
32270
32266
32265
32260
32276
32271
32273
32278
32282
32286
32289
32292
32296
32292
32300
32300
32297
32301
32321
32317
32316
32328
32325
32320
32328
32332
32337
32342
32348
32353
32348
32358
32358
32372
32368
32356
32369
32376
32384
32386
32380
32397
32389
32397
32394
32400
32402
32402
32398
32404
32404
32412
32412
32412
32417
32416
32422
32424
32420
32430
32428
32441
32444
32438
32439
32448
32444
32448
32454
32464
32469
32468
32470
32472
32472
32482
32482
32486
32486
32486
32488
32496
32492
32492
32493
32504
32498
32496
32502
32505
32508
32510
32505
32506
32505
32504
32510
32508
32516
32504
32496
32512
32508
32509
32506
32502
32500
32505
32508
32505
32504
32508
32509
32513
32508
32508
32518
32510
32512
32519
32516
32517
32514
32521
32520
32517
32512
32513
32524
32520
32522
32526
32518
32516
32526
32518
32521
32520
32520
32527
32519
32514
32512
32522
32521
32517
32508
32520
32520
32520
32520
32512
32516
32511
32518
32516
32512
32516
32512
32512
32508
32518
32522
32504
32511
32507
32502
32503
32506
32494
32492
32495
32498
32494
32500
32492
32494
32490
32496
32493
32492
32486
32480
32492
32484
32484
32476
32479
32472
32472
32482
32476
32474
32474
32476
32474
32465
32468
32480
32464
32464
32460
32468
32460
32464
32464
32460
32455
32452
32457
32460
32460
32448
32452
32454
32452
32454
32452
32452
32448
32444
32448
32444
32441
32440
32436
32443
32447
32444
32436
32449
32452
32442
32458
32446
32450
32444
32456
32450
32454
32444
32452
32456
32453
32452
32450
32452
32450
32448
32460
32448
32460
32454
32464
32464
32468
32460
32464
32464
32476
32474
32466
32477
32472
32476
32478
32484
32486
32478
32480
32486
32479
32487
32491
32488
32493
32496
32486
32502
32496
32496
32503
32500
32498
32503
32506
32516
32513
32516
32511
32508
32524
32516
32526
32524
32525
32524
32530
32524
32530
32528
32526
32533
32540
32543
32536
32546
32542
32545
32552
32540
32556
32548
32550
32559
32548
32548
32548
32550
32554
32552
32550
32556
32552
32560
32550
32544
32544
32556
32548
32552
32552
32556
32556
32552
32564
32556
32554
32551
32542
32553
32546
32552
32548
32552
32546
32552
32548
32548
32538
32540
32540
32540
32538
32534
32528
32536
32538
32530
32542
32530
32528
32526
32524
32524
32516
32528
32518
32518
32512
32522
32510
32520
32514
32517
32508
32512
32504
32508
32512
32510
32509
32516
32512
32501
32508
32511
32500
32505
32509
32512
32502
32510
32517
32511
32520
32512
32514
32520
32512
32508
32519
32510
32521
32514
32528
32516
32524
32517
32532
32522
32532
32532
32540
32540
32544
32545
32544
32554
32553
32556
32560
32560
32576
32572
32572
32576
32578
32581
32580
32586
32599
32610
32604
32610
32612
32614
32620
32626
32625
32628
32631
32636
32640
32644
32647
32644
32638
32652
32652
32644
32644
32652
32656
32652
32652
32644
32660
32660
32642
32653
32654
32656
32649
32647
32652
32652
32652
32644
32655
32648
32649
32655
32654
32655
32654
32656
32656
32660
32654
32666
32670
32670
32661
32670
32668
32672
32680
32676
32684
32686
32682
32684
32689
32697
32693
32702
32706
32724
32724
32730
32732
32742
32742
32745
32750
32754
32764
32766
32781
32796
32794
32804
32810
32828
32836
32836
32839
32846
32852
32862
32866
32874
32878
32881
32896
32889
32903
32907
32912
32925
32932
32932
32932
32940
32942
32944
32943
32949
32956
32951
32952
32962
32964
32961
32960
32974
32965
32968
32968
32976
32962
32972
32978
32978
32982
32982
32970
32976
32972
32970
32976
32977
32976
32964
32961
32964
32960
32953
32950
32952
32948
32942
32940
32933
32932
32928
32921
32912
32908
32914
32900
32900
32888
32873
32876
32875
32865
32853
32853
32844
32844
32836
32826
32824
32812
32808
32808
32798
32787
32784
32773
32766
32760
32750
32752
32744
32732
32738
32725
32718
32736
32712
32700
32706
32704
32692
32692
32678
32681
32676
32668
32662
32661
32661
32654
32652
32648
32644
32644
32644
32636
32633
32640
32625
32629
32622
32626
32626
32628
32618
32618
32618
32620
32615
32616
32612
32612
32606
32608
32614
32606
32604
32604
32608
32607
32605
32600
32604
32592
32612
32612
32596
32600
32608
32608
32608
32600
32604
32602
32608
32596
32604
32602
32602
32601
32600
32605
32600
32612
32602
32604
32608
32610
32600
32606
32598
32600
32604
32600
32600
32606
32604
32608
32593
32604
32598
32594
32596
32610
32592
32604
32590
32582
32584
32582
32582
32580
32581
32576
32576
32576
32572
32565
32565
32564
32548
32558
32556
32550
32542
32540
32540
32532
32532
32534
32528
32530
32532
32520
32527
32520
32526
32522
32514
32514
32510
32508
32509
32496
32506
32495
32496
32492
32490
32494
32486
32484
32485
32486
32480
32473
32474
32478
32471
32469
32460
32462
32454
32457
32458
32460
32448
32448
32455
32450
32444
32440
32440
32438
32437
32448
32436
32432
32432
32430
32428
32428
32433
32423
32440
32432
32442
32432
32440
32430
32433
32438
32434
32444
32444
32444
32452
32452
32449
32444
32452
32456
32460
32458
32468
32464
32466
32468
32472
32472
32476
32482
32484
32482
32485
32485
32492
32500
32492
32502
32505
32509
32504
32513
32508
32520
32524
32528
32525
32532
32528
32541
32540
32543
32544
32553
32564
32554
32556
32552
32564
32557
32574
32576
32566
32573
32573
32568
32576
32576
32578
32572
32576
32591
32586
32588
32588
32584
32583
32584
32578
32590
32590
32590
32582
32581
32583
32578
32588
32576
32588
32584
32582
32573
32576
32576
32576
32578
32580
32576
32577
32572
32572
32574
32576
32556
32564
32574
32572
32558
32561
32558
32559
32560
32565
32564
32562
32568
32569
32560
32565
32564
32567
32558
32568
32564
32572
32564
32568
32567
32568
32566
32581
32572
32578
32580
32574
32567
32576
32572
32580
32568
32580
32566
32576
32574
32580
32574
32574
32582
32577
32576
32580
32584
32578
32578
32577
32576
32580
32561
32580
32569
32569
32574
32565
32573
32566
32560
32554
32564
32564
32564
32548
32560
32551
32550
32548
32544
32548
32537
32539
32535
32544
32533
32536
32526
32520
32518
32516
32520
32512
32508
32514
32502
32498
32504
32492
32494
32492
32484
32480
32484
32480
32476
32468
32476
32464
32466
32457
32471
32452
32440
32448
32448
32442
32433
32428
32434
32428
32420
32420
32420
32420
32408
32408
32398
32396
32398
32396
32396
32380
32380
32380
32374
32372
32364
32359
32360
32352
32344
32352
32346
32337
32330
32324
32328
32316
32314
32312
32299
32312
32292
32292
32282
32292
32280
32270
32273
32271
32262
32252
32248
32248
32241
32247
32228
32226
32212
32213
32196
32205
32192
32196
32184
32180
32172
32164
32149
32152
32150
32149
32144
32140
32129
32120
32117
32108
32104
32104
32100
32088
32075
32068
32076
32065
32058
32052
32052
32032
32044
32028
32030
32018
32020
32008
32008
31994
31993
31983
31974
31976
31962
31964
31952
31956
31959
31942
31940
31940
31928
31932
31916
31920
31921
31916
31908
31908
31904
31900
31892
31886
31884
31878
31878
31884
31868
31873
31867
31862
31860
31852
31854
31844
31839
31837
31829
31814
31812
31798
31802
31794
31784
31776
31768
31761
31758
31745
31740
31725
31718
31713
31703
31687
31684
31668
31656
31652
31640
31620
31614
31608
31594
31590
31572
31576
31556
31556
31538
31530
31516
31513
31504
31501
31488
31478
31464
31460
31452
31446
31432
31428
31420
31420
31416
31414
31394
31396
31380
31388
31372
31372
31368
31372
31366
31358
31348
31349
31352
31348
31348
31336
31344
31334
31335
31332
31332
31328
31326
31324
31312
31313
31316
31308
31301
31300
31304
31296
31284
31286
31288
31282
31274
31276
31270
31266
31264
31260
31257
31249
31240
31244
31236
31236
31225
31222
31225
31212
31204
31196
31196
31194
31192
31176
31172
31172
31176
31160
31155
31153
31140
31146
31126
31120
31124
31116
31106
31100
31086
31086
31068
31073
31056
31052
31044
31034
31028
31016
31008
31002
30996
30981
30972
30968
30960
30952
30940
30937
30922
30920
30909
30913
30896
30884
30886
30864
30870
30858
30856
30842
30846
30840
30828
30821
30814
30817
30804
30798
30786
30788
30784
30776
30773
30766
30764
30752
30756
30748
30740
30736
30735
30724
30724
30721
30716
30712
30712
30702
30704
30698
30694
30689
30692
30692
30693
30684
30692
30672
30679
30670
30666
30678
30672
30674
30668
30668
30660
30672
30668
30670
30668
30668
30676
30671
30676
30668
30673
30680
30677
30682
30684
30684
30676
30684
30692
30688
30693
30695
30700
30701
30702
30708
30700
30704
30709
30720
30718
30720
30724
30721
30718
30724
30724
30729
30725
30736
30733
30730
30735
30746
30740
30736
30740
30746
30751
30752
30748
30743
30742
30752
30757
30760
30753
30756
30760
30764
30759
30766
30772
30772
30774
30765
30780
30777
30788
30781
30792
30792
30798
30798
30796
30800
30812
30813
30818
30823
30830
30832
30837
30839
30844
30854
30854
30860
30876
30870
30886
30879
30892
30892
30894
30904
30912
30916
30924
30919
30934
30936
30938
30950
30958
30960
30964
30972
30968
30979
30991
30988
30994
31001
31014
31009
31012
31024
31034
31040
31036
31050
31041
31052
31056
31060
31068
31076
31074
31079
31092
31095
31087
31100
31114
31117
31117
31120
31129
31132
31132
31148
31134
31148
31152
31160
31159
31164
31173
31175
31176
31188
31196
31199
31196
31204
31204
31208
31216
31220
31228
31232
31230
31232
31244
31242
31256
31256
31260
31260
31272
31272
31280
31276
31280
31292
31298
31292
31300
31310
31308
31311
31316
31324
31330
31329
31334
31340
31341
31353
31356
31358
31364
31366
31372
31374
31376
31388
31378
31396
31390
31400
31396
31408
31402
31406
31422
31420
31422
31428
31436
31432
31444
31437
31438
31438
31444
31452
31457
31456
31464
31472
31472
31471
31473
31476
31480
31486
31493
31494
31498
31494
31498
31516
31504
31514
31506
31520
31518
31518
31526
31528
31528
31524
31540
31544
31548
31544
31546
31561
31552
31560
31572
31572
31581
31580
31588
31583
31590
31602
31592
31605
31602
31614
31615
31622
31622
31628
31636
31644
31638
31644
31650
31647
31652
31662
31655
31676
31676
31678
31681
31680
31688
31686
31694
31696
31703
31710
31713
31720
31725
31724
31733
31740
31745
31749
31740
31757
31764
31762
31758
31772
31772
31780
31782
31788
31793
31808
31808
31804
31808
31816
31818
31828
31828
31832
31836
31848
31844
31852
31860
31864
31868
31869
31876
31878
31884
31888
31898
31892
31904
31905
31908
31913
31918
31922
31924
31928
31936
31936
31938
31940
31946
31952
31954
31961
31956
31972
31972
31964
31972
31973
31984
31984
31988
31980
31988
31984
31996
32000
32004
32012
32000
32017
32022
32016
32022
32012
32028
32028
32028
32032
32038
32030
32036
32044
32036
32048
32052
32050
32056
32048
32060
32055
32066
32064
32069
32068
32068
32077
32080
32078
32084
32084
32092
32097
32099
32098
32092
32103
32108
32111
32116
32116
32124
32119
32128
32132
32128
32140
32135
32148
32136
32148
32152
32152
32157
32160
32164
32169
32168
32164
32172
32180
32188
32180
32182
32184
32184
32196
32192
32196
32198
32196
32200
32200
32200
32203
32200
32204
32212
32212
32208
32210
32208
32226
32224
32220
32220
32236
32224
32236
32240
32241
32244
32246
32252
32249
32268
32253
32264
32278
32268
32268
32276
32284
32296
32292
32294
32292
32300
32312
32304
32308
32320
32324
32324
32330
32324
32333
32332
32337
32325
32340
32340
32332
32332
32334
32334
32332
32326
32329
32322
32324
32316
32320
32324
32312
32312
32316
32304
32304
32303
32300
32292
32294
32290
32290
32282
32290
32278
32290
32278
32276
32281
32270
32269
32272
32263
32274
32264
32271
32271
32264
32272
32284
32268
32288
32276
32287
32288
32292
32292
32296
32300
32304
32312
32317
32320
32326
32328
32336
32332
32348
32347
32350
32361
32362
32380
32378
32380
32384
32385
32396
32398
32411
32412
32424
32420
32424
32424
32430
32424
32433
32442
32456
32449
32456
32450
32462
32469
32464
32464
32476
32472
32480
32484
32487
32496
32490
32496
32500
32493
32510
32502
32516
32504
32516
32525
32512
32530
32520
32524
32532
32532
32540
32536
32529
32532
32524
32550
32536
32545
32542
32545
32542
32544
32545
32541
32534
32546
32528
32534
32534
32542
32528
32533
32532
32533
32520
32526
32512
32514
32512
32512
32510
32512
32508
32504
32508
32498
32495
32498
32484
32501
32486
32494
32484
32488
32479
32471
32477
32476
32472
32458
32458
32468
32456
32455
32453
32450
32450
32450
32438
32434
32442
32434
32430
32439
32430
32426
32429
32428
32420
32421
32424
32412
32416
32412
32412
32400
32400
32404
32404
32401
32400
32392
32396
32400
32401
32401
32384
32392
32396
32390
32386
32394
32389
32384
32390
32388
32398
32388
32392
32386
32404
32392
32402
32399
32404
32401
32406
32404
32412
32412
32416
32412
32430
32420
32420
32424
32428
32430
32442
32444
32444
32444
32460
32448
32460
32460
32460
32452
32460
32468
32476
32468
32469
32484
32479
32472
32480
32477
32478
32476
32480
32484
32484
32488
32484
32480
32480
32478
32480
32480
32483
32480
32482
32480
32484
32486
32476
32481
32481
32488
32482
32478
32484
32484
32488
32482
32481
32482
32484
32485
32484
32476
32469
32472
32476
32476
32472
32468
32468
32465
32460
32460
32452
32454
32448
32446
32448
32439
32434
32434
32424
32420
32416
32422
32399
32408
32396
32400
32384
32386
32388
32376
32372
32366
32360
32352
32350
32348
32337
32329
32330
32326
32321
32308
32310
32306
32296
32296
32296
32286
32284
32281
32272
32269
32264
32260
32252
32236
32228
32236
32228
32215
32216
32206
32190
32196
32188
32182
32175
32158
32161
32148
32150
32144
32142
32127
32122
32120
32120
32106
32104
32093
32096
32092
32094
32072
32076
32062
32060
32058
32060
32064
32048
32048
32042
32040
32038
32036
32030
32036
32037
32036
32024
32031
32020
32021
32014
32024
32020
32024
32018
32026
32020
32015
32013
32016
32020
32016
32012
32012
32018
32016
32020
32023
32020
32023
32014
32022
32020
32016
32018
32020
32012
32012
32016
32016
32020
32016
32020
32024
32026
32020
32017
32022
32017
32025
32018
32030
32020
32022
32019
32016
32017
32014
32022
32008
32014
32012
32008
32006
32006
32005
32007
31998
31999
31996
31996
31990
31982
31996
31988
31984
31980
31974
31977
31972
31976
31972
31968
31966
31966
31960
31960
31957
31964
31956
31960
31946
31949
31943
31946
31942
31948
31944
31946
31936
31932
31936
31938
31943
31928
31928
31936
31928
31929
31929
31936
31936
31932
31936
31936
31936
31948
31936
31932
31938
31942
31952
31940
31932
31949
31951
31956
31959
31952
31956
31964
31964
31968
31964
31968
31972
31972
31973
31973
31982
31988
31984
31992
31984
31998
31996
32000
31999
32004
32006
32022
32008
32008
32018
32028
32028
32024
32021
32028
32032
32030
32028
32038
32036
32045
32044
32054
32044
32052
32052
32052
32052
32054
32060
32062
32060
32064
32066
32066
32069
32076
32068
32077
32072
32086
32078
32087
32081
32080
32084
32084
32088
32084
32086
32095
32088
32092
32098
32098
32092
32092
32095
32094
32093
32096
32093
32092
32093
32096
32098
32096
32096
32088
32086
32098
32098
32084
32100
32096
32092
32087
32092
32088
32080
32092
32093
32092
32085
32090
32082
32088
32084
32084
32081
32086
32084
32078
32084
32084
32084
32082
32079
32072
32074
32072
32076
32068
32069
32072
32073
32064
32064
32068
32068
32064
32064
32064
32052
32046
32052
32057
32052
32044
32041
32036
32036
32040
32036
32048
32036
32038
32042
32034
32042
32036
32036
32036
32038
32039
32040
32041
32042
32046
32044
32048
32046
32060
32060
32065
32066
32079
32068
32072
32073
32079
32080
32088
32084
32081
32090
32098
32104
32100
32096
32092
32100
32090
32089
32102
32096
32088
32088
32088
32089
32082
32078
32095
32092
32088
32082
32076
32084
32084
32074
32086
32076
32073
32076
32069
32066
32057
32064
32052
32068
32064
32060
32049
32052
32044
32042
32053
32036
32044
32046
32040
32044
32037
32036
32029
32040
32030
32024
32036
32024
32034
32030
32036
32028
32028
32030
32036
32030
32036
32025
32036
32038
32030
32038
32036
32036
32040
32032
32028
32028
32032
32032
32043
32040
32028
32021
32022
32028
32026
32022
32024
32026
32023
32014
32012
32016
32012
32007
32009
32004
32012
32006
32010
31997
32000
31996
31996
31998
31992
31994
31986
31996
31992
31992
31981
31979
31978
31988
31976
31974
31974
31972
31968
31967
31961
31956
31959
31960
31956
31954
31948
31948
31945
31938
31942
31937
31940
31928
31926
31934
31924
31920
31916
31914
31912
31912
31896
31904
31898
31901
31893
31888
31892
31897
31888
31889
31876
31878
31876
31888
31878
31872
31868
31868
31871
31864
31876
31868
31874
31874
31866
31864
31864
31876
31866
31865
31864
31866
31861
31871
31860
31870
31865
31868
31868
31868
31873
31880
31881
31884
31890
31888
31900
31892
31900
31904
31908
31916
31924
31928
31928
31944
31936
31958
31956
31962
31966
31968
31984
31983
31996
32002
32012
32021
32032
32040
32048
32052
32066
32072
32092
32092
32097
32115
32116
32126
32148
32152
32156
32176
32195
32200
32200
32220
32233
32244
32256
32278
32284
32288
32304
32320
32326
32349
32356
32378
32391
32393
32413
32429
32438
32457
32462
32482
32488
32506
32520
32534
32542
32558
32568
32588
32588
32600
32617
32620
32644
32644
32664
32679
32682
32696
32704
32712
32732
32734
32743
32766
32769
32785
32800
32804
32820
32828
32836
32853
32864
32878
32879
32904
32898
32917
32928
32936
32956
32958
32964
32980
32980
32999
33008
33018
33010
33022
33025
33036
33044
33052
33055
33062
33072
33080
33087
33094
33092
33102
33104
33112
33120
33124
33138
33140
33140
33140
33152
33154
33154
33164
33172
33180
33182
33184
33186
33200
33191
33200
33212
33216
33223
33232
33236
33236
33242
33246
33244
33252
33250
33258
33265
33268
33268
33270
33272
33278
33280
33274
33282
33300
33292
33297
33290
33298
33300
33296
33297
33306
33303
33300
33306
33304
33300
33299
33300
33300
33296
33300
33300
33294
33297
33291
33300
33292
33284
33293
33292
33290
33281
33278
33278
33276
33276
33273
33276
33277
33272
33272
33261
33264
33268
33256
33256
33255
33254
33256
33250
33249
33250
33240
33252
33240
33240
33249
33242
33236
33236
33236
33236
33238
33233
33232
33228
33226
33232
33224
33227
33220
33228
33217
33226
33220
33216
33224
33224
33220
33216
33206
33217
33205
33213
33208
33208
33212
33209
33208
33200
33206
33200
33204
33196
33204
33193
33190
33196
33196
33190
33188
33192
33185
33188
33188
33181
33174
33168
33168
33172
33158
33152
33156
33152
33154
33152
33148
33142
33140
33128
33134
33128
33120
33118
33113
33116
33097
33100
33088
33094
33088
33088
33078
33076
33061
33065
33063
33052
33048
33045
33052
33041
33048
33040
33026
33020
33020
33014
33017
33007
33004
33004
33000
32998
32992
32991
32982
32988
32980
32968
32972
32968
32973
32964
32962
32959
32962
32948
32952
32948
32948
32944
32936
32942
32934
32936
32928
32934
32922
32923
32916
32922
32925
32918
32912
32920
32912
32904
32900
32896
32904
32892
32889
32892
32890
32884
32880
32877
32885
32882
32879
32868
32865
32868
32868
32860
32850
32855
32852
32844
32839
32836
32836
32832
32832
32824
32813
32814
32820
32804
32806
32804
32786
32796
32792
32782
32784
32772
32768
32767
32756
32760
32753
32750
32740
32743
32737
32740
32732
32740
32720
32732
32716
32712
32721
32708
32714
32704
32696
32704
32692
32696
32689
32692
32679
32684
32676
32670
32668
32672
32660
32656
32662
32661
32646
32646
32660
32648
32636
32634
32644
32645
32634
32638
32640
32632
32620
32618
32620
32620
32616
32616
32615
32608
32608
32604
32608
32612
32604
32604
32600
32599
32604
32602
32604
32598
32598
32596
32588
32582
32592
32592
32578
32584
32580
32588
32584
32578
32580
32576
32580
32578
32580
32586
32584
32576
32585
32585
32594
32584
32588
32586
32596
32600
32604
32597
32612
32616
32620
32624
32624
32631
32628
32632
32636
32642
32650
32648
32652
32646
32660
32656
32654
32662
32661
32669
32668
32664
32666
32664
32668
32660
32661
32666
32662
32664
32660
32662
32660
32660
32657
32663
32660
32666
32664
32654
32660
32648
32654
32648
32641
32649
32644
32648
32652
32642
32639
32648
32636
32640
32644
32640
32644
32646
32645
32640
32648
32641
32642
32652
32644
32644
32638
32656
32656
32660
32670
32668
32662
32668
32672
32676
32678
32681
32692
32703
32696
32705
32708
32705
32707
32712
32712
32721
32720
32730
32736
32741
32748
32744
32752
32748
32749
32756
32756
32768
32762
32764
32766
32768
32771
32778
32776
32776
32774
32764
32782
32776
32784
32782
32782
32784
32774
32788
32786
32785
32792
32784
32780
32788
32788
32780
32784
32782
32783
32782
32784
32777
32786
32776
32768
32770
32772
32772
32770
32762
32762
32767
32761
32764
32748
32744
32744
32740
32742
32728
32728
32731
32709
32720
32712
32708
32716
32705
32696
32692
32694
32688
32689
32692
32685
32678
32677
32669
32669
32668
32660
32653
32653
32636
32640
32646
32637
32632
32639
32644
32624
32628
32638
32625
32620
32616
32613
32620
32606
32604
32609
32610
32600
32604
32604
32600
32604
32598
32596
32594
32597
32596
32584
32593
32588
32596
32592
32590
32596
32590
32592
32583
32593
32600
32585
32592
32590
32591
32590
32589
32596
32596
32596
32596
32599
32598
32598
32592
32601
32610
32608
32604
32600
32606
32608
32615
32613
32616
32616
32620
32616
32632
32628
32626
32624
32634
32630
32632
32633
32636
32639
32642
32645
32644
32650
32644
32648
32656
32657
32655
32660
32654
32661
32660
32663
32660
32670
32660
32676
32666
32668
32663
32664
32668
32660
32668
32665
32665
32668
32662
32657
32652
32664
32664
32660
32665
32665
32652
32656
32665
32656
32664
32668
32652
32664
32657
32672
32660
32673
32654
32665
32654
32670
32663
32668
32656
32660
32653
32663
32661
32652
32657
32661
32656
32652
32644
32649
32640
32647
32639
32652
32632
32637
32631
32632
32624
32616
32616
32620
32620
32614
32612
32616
32610
32606
32604
32610
32601
32600
32608
32594
32599
32596
32600
32600
32596
32590
32589
32600
32588
32601
32592
32596
32591
32600
32593
32592
32590
32597
32596
32590
32586
32588
32584
32591
32588
32586
32590
32590
32584
32585
32583
32588
32580
32580
32584
32580
32583
32576
32580
32568
32577
32576
32576
32570
32572
32572
32566
32568
32565
32572
32564
32568
32564
32568
32566
32564
32566
32554
32564
32559
32548
32559
32552
32548
32556
32553
32556
32553
32550
32556
32551
32552
32554
32552
32548
32556
32548
32562
32556
32544
32552
32550
32540
32561
32558
32556
32556
32556
32562
32553
32568
32564
32549
32560
32564
32575
32564
32569
32570
32556
32564
32570
32569
32568
32572
32568
32576
32573
32578
32576
32577
32576
32575
32588
32584
32574
32585
32589
32584
32596
32592
32596
32594
32604
32600
32600
32604
32616
32608
32612
32610
32612
32620
32624
32633
32630
32636
32640
32636
32649
32654
32654
32660
32664
32662
32676
32679
32686
32688
32700
32708
32707
32716
32722
32736
32732
32736
32754
32748
32754
32772
32772
32786
32794
32804
32808
32816
32824
32836
32836
32842
32855
32866
32876
32876
32892
32897
32910
32920
32926
32928
32940
32949
32965
32969
32986
32992
32992
33000
33020
33020
33040
33036
33049
33060
33066
33084
33080
33092
33104
33108
33124
33124
33132
33144
33148
33156
33172
33178
33172
33184
33194
33204
33214
33216
33228
33228
33236
33240
33252
33256
33256
33268
33266
33274
33282
33297
33288
33304
33304
33314
33317
33322
33321
33327
33338
33349
33344
33342
33352
33349
33350
33361
33361
33372
33372
33366
33380
33374
33388
33388
33388
33396
33392
33400
33399
33414
33399
33404
33407
33408
33409
33408
33412
33408
33405
33420
33414
33413
33416
33412
33415
33412
33412
33414
33420
33412
33416
33414
33414
33414
33412
33406
33410
33404
33404
33400
33400
33404
33398
33396
33400
33400
33388
33388
33393
33390
33388
33376
33381
33374
33372
33374
33366
33365
33364
33348
33358
33352
33348
33338
33348
33336
33340
33322
33336
33327
33316
33318
33314
33316
33308
33310
33300
33302
33294
33288
33286
33276
33270
33272
33264
33257
33256
33256
33248
33246
33242
33234
33234
33223
33228
33220
33208
33214
33208
33200
33198
33194
33182
33186
33172
33164
33168
33156
33156
33152
33149
33142
33141
33136
33126
33120
33130
33116
33122
33114
33116
33108
33110
33114
33104
33104
33100
33100
33102
33104
33108
33094
33106
33116
33112
33112
33108
33116
33114
33114
33116
33120
33116
33124
33113
33122
33120
33116
33124
33120
33122
33112
33120
33116
33118
33113
33108
33112
33110
33105
33108
33101
33096
33100
33092
33088
33088
33082
33084
33076
33078
33076
33072
33072
33070
33060
33056
33056
33060
33060
33056
33064
33057
33046
33049
33047
33038
33054
33036
33038
33042
33048
33052
33042
33053
33041
33050
33056
33060
33060
33072
33066
33072
33076
33080
33084
33098
33106
33108
33117
33116
33128
33136
33136
33148
33152
33164
33180
33180
33195
33192
33204
33210
33226
33230
33241
33240
33253
33268
33264
33278
33284
33290
33300
33304
33314
33326
33328
33336
33340
33344
33359
33360
33373
33368
33384
33388
33396
33404
33412
33413
33416
33421
33438
33430
33444
33454
33455
33464
33466
33471
33476
33488
33484
33486
33496
33508
33506
33510
33512
33516
33516
33527
33524
33519
33529
33524
33540
33532
33535
33554
33548
33556
33557
33548
33554
33570
33572
33572
33572
33581
33572
33580
33583
33594
33588
33596
33588
33598
33604
33608
33612
33614
33616
33620
33632
33628
33628
33634
33636
33640
33636
33646
33654
33656
33652
33664
33664
33660
33673
33669
33680
33674
33692
33684
33692
33688
33696
33697
33700
33705
33708
33714
33717
33720
33716
33720
33721
33730
33728
33728
33732
33732
33740
33743
33736
33740
33748
33748
33751
33756
33754
33761
33764
33758
33768
33756
33772
33768
33778
33770
33777
33767
33780
33784
33777
33780
33784
33785
33788
33788
33790
33781
33785
33796
33793
33790
33789
33796
33792
33802
33784
33796
33793
33806
33802
33796
33794
33796
33800
33796
33801
33804
33800
33792
33790
33798
33796
33790
33793
33788
33790
33781
33788
33772
33780
33774
33772
33767
33756
33764
33764
33757
33756
33748
33749
33750
33742
33736
33728
33736
33728
33730
33728
33719
33719
33716
33712
33716
33706
33708
33700
33696
33692
33700
33687
33677
33685
33682
33668
33668
33666
33660
33656
33644
33646
33636
33626
33616
33622
33614
33604
33602
33598
33593
33581
33588
33572
33569
33564
33552
33548
33534
33536
33524
33524
33520
33510
33509
33500
33504
33486
33480
33476
33476
33466
33460
33452
33453
33445
33444
33436
33432
33432
33416
33412
33412
33404
33404
33404
33380
33380
33373
33370
33366
33356
33348
33336
33334
33325
33326
33329
33310
33300
33296
33289
33274
33269
33268
33260
33254
33247
33236
33232
33222
33220
33212
33205
33196
33188
33186
33184
33180
33172
33164
33165
33156
33152
33138
33132
33128
33128
33114
33110
33110
33096
33088
33091
33089
33078
33082
33064
33061
33060
33049
33048
33038
33032
33038
33020
33018
33016
33013
33002
32996
32986
32988
32988
32974
32972
32976
32964
32964
32951
32945
32943
32944
32922
32918
32927
32916
32906
32901
32900
32896
32896
32880
32872
32870
32866
32856
32856
32852
32841
32836
32836
32824
32820
32817
32812
32800
32801
32784
32785
32776
32773
32756
32759
32752
32737
32736
32738
32728
32725
32709
32710
32704
32700
32686
32684
32684
32676
32668
32665
32648
32656
32640
32640
32636
32632
32624
32612
32612
32602
32594
32596
32586
32580
32574
32576
32565
32566
32559
32548
32548
32540
32528
32538
32524
32520
32516
32512
32508
32500
32506
32492
32492
32481
32476
32474
32476
32460
32468
32460
32456
32450
32440
32436
32442
32440
32428
32428
32421
32421
32418
32410
32400
32404
32405
32400
32396
32392
32391
32383
32388
32380
32369
32366
32366
32372
32356
32359
32352
32354
32344
32354
32336
32340
32334
32338
32332
32325
32324
32316
32318
32310
32304
32304
32298
32295
32292
32292
32284
32282
32286
32280
32272
32271
32264
32261
32264
32252
32252
32243
32244
32236
32244
32232
32236
32224
32228
32228
32224
32216
32216
32206
32204
32196
32192
32192
32190
32196
32192
32184
32184
32180
32168
32172
32169
32168
32165
32172
32164
32164
32158
32148
32148
32152
32140
32148
32144
32148
32135
32138
32140
32132
32137
32128
32132
32132
32132
32129
32135
32132
32130
32125
32124
32128
32126
32132
32124
32134
32132
32132
32136
32133
32136
32137
32146
32141
32148
32152
32153
32148
32156
32161
32160
32168
32158
32176
32180
32173
32184
32182
32190
32188
32200
32190
32197
32196
32204
32206
32216
32212
32217
32228
32221
32226
32236
32232
32236
32244
32252
32252
32242
32261
32256
32260
32266
32262
32268
32273
32280
32276
32280
32284
32280
32284
32295
32293
32292
32298
32293
32301
32308
32308
32313
32312
32324
32320
32324
32320
32334
32334
32335
32351
32340
32348
32352
32356
32360
32365
32368
32373
32377
32388
32388
32388
32409
32398
32412
32420
32422
32418
32432
32432
32444
32452
32448
32456
32454
32464
32461
32476
32478
32480
32484
32489
32482
32488
32492
32506
32502
32496
32505
32496
32500
32502
32502
32510
32498
32511
32496
32500
32491
32492
32500
32496
32494
32490
32493
32494
32500
32488
32497
32492
32494
32488
32488
32485
32492
32490
32487
32501
32480
32485
32484
32488
32484
32485
32495
32494
32500
32496
32504
32504
32511
32520
32516
32532
32536
32529
32558
32538
32553
32552
32560
32574
32574
32588
32584
32592
32609
32612
32622
32624
32636
32636
32644
32656
32665
32670
32676
32677
32692
32689
32696
32708
32712
32722
32720
32734
32738
32736
32743
32740
32757
32764
32764
32772
32778
32784
32790
32791
32800
32798
32804
32805
32820
32820
32828
32829
32822
32829
32834
32833
32830
32846
32844
32841
32844
32854
32852
32852
32845
32852
32848
32852
32848
32854
32852
32853
32849
32844
32852
32842
32845
32836
32840
32839
32826
32830
32823
32832
32828
32822
32825
32820
32816
32820
32816
32810
32810
32808
32796
32804
32800
32798
32791
32804
32788
32794
32784
32783
32782
32788
32780
32776
32777
32776
32776
32776
32773
32769
32768
32765
32770
32766
32762
32770
32764
32764
32756
32767
32756
32760
32761
32760
32761
32757
32768
32764
32772
32766
32776
32766
32773
32774
32780
32783
32788
32794
32792
32792
32804
32802
32808
32813
32821
32818
32828
32828
32837
32840
32846
32844
32864
32866
32872
32868
32876
32881
32894
32893
32903
32908
32922
32922
32932
32932
32942
32952
32954
32964
32964
32980
32980
32988
33000
33000
33007
33016
33024
33030
33031
33044
33058
33060
33069
33076
33087
33094
33095
33096
33108
33118
33128
33140
33136
33145
33156
33160
33168
33168
33182
33188
33200
33194
33210
33214
33216
33230
33249
33255
33256
33260
33278
33284
33284
33304
33312
33316
33330
33334
33345
33354
33362
33369
33380
33390
33396
33404
33414
33420
33421
33436
33444
33452
33456
33462
33464
33479
33484
33485
33492
33492
33496
33508
33516
33514
33524
33532
33532
33540
33540
33548
33548
33552
33570
33564
33567
33572
33572
33574
33580
33578
33576
33584
33588
33592
33594
33595
33589
33600
33606
33604
33614
33612
33622
33605
33620
33620
33613
33624
33622
33617
33620
33620
33632
33628
33632
33628
33632
33636
33624
33626
33632
33631
33624
33620
33628
33626
33622
33636
33616
33617
33622
33616
33616
33624
33612
33608
33604
33608
33600
33604
33596
33610
33606
33598
33604
33588
33600
33592
33593
33588
33588
33582
33582
33586
33576
33580
33580
33573
33568
33572
33572
33574
33564
33568
33564
33570
33560
33560
33564
33561
33564
33552
33561
33560
33548
33552
33555
33553
33548
33548
33551
33553
33556
33549
33549
33541
33542
33542
33548
33541
33536
33537
33535
33532
33536
33536
33536
33528
33530
33524
33528
33526
33527
33529
33525
33526
33518
33516
33518
33516
33512
33514
33506
33511
33512
33508
33512
33500
33508
33510
33508
33510
33512
33508
33504
33508
33508
33500
33501
33508
33512
33511
33512
33508
33516
33516
33520
33514
33524
33524
33534
33536
33534
33536
33541
33540
33540
33552
33550
33548
33560
33564
33560
33570
33578
33580
33584
33588
33592
33604
33602
33612
33612
33624
33628
33624
33636
33646
33637
33653
33658
33670
33663
33680
33684
33696
33695
33701
33701
33716
33722
33724
33738
33750
33744
33748
33756
33758
33766
33774
33776
33788
33798
33808
33818
33814
33820
33820
33830
33832
33840
33844
33860
33848
33861
33868
33876
33880
33885
33892
33896
33898
33908
33925
33921
33924
33924
33924
33940
33943
33952
33953
33956
33970
33964
33968
33980
33984
33984
33986
33992
34000
34012
34006
34008
34023
34026
34028
34039
34046
34044
34054
34052
34064
34065
34068
34082
34080
34084
34090
34092
34100
34100
34120
34112
34116
34116
34124
34126
34135
34140
34148
34144
34148
34148
34148
34156
34152
34151
34156
34164
34164
34168
34181
34167
34176
34180
34181
34181
34184
34188
34183
34190
34186
34192
34192
34188
34193
34186
34184
34188
34190
34196
34186
34196
34196
34196
34196
34188
34193
34196
34198
34196
34192
34193
34204
34192
34184
34196
34196
34190
34192
34192
34189
34196
34196
34193
34192
34188
34188
34196
34186
34180
34188
34200
34192
34188
34186
34184
34192
34190
34190
34186
34186
34196
34188
34184
34190
34182
34188
34188
34185
34198
34195
34184
34184
34182
34186
34192
34190
34196
34184
34188
34198
34184
34185
34188
34200
34190
34190
34188
34180
34196
34192
34188
34186
34192
34189
34188
34188
34185
34188
34191
34190
34182
34188
34196
34190
34192
34188
34196
34188
34189
34200
34196
34208
34196
34206
34206
34205
34198
34207
34220
34220
34220
34221
34229
34236
34239
34244
34242
34244
34252
34246
34252
34252
34256
34260
34256
34256
34262
34256
34260
34260
34256
34262
34268
34256
34260
34260
34260
34260
34256
34254
34248
34256
34238
34241
34240
34236
34237
34240
34236
34224
34236
34224
34224
34220
34222
34228
34213
34220
34212
34200
34208
34188
34199
34184
34188
34190
34180
34168
34176
34170
34176
34165
34158
34161
34161
34153
34144
34144
34140
34144
34148
34149
34142
34144
34132
34140
34132
34142
34132
34140
34132
34128
34136
34128
34136
34129
34128
34132
34120
34128
34120
34120
34108
34119
34110
34110
34108
34112
34104
34100
34092
34094
34084
34082
34080
34072
34065
34060
34056
34070
34044
34044
34038
34033
34024
34028
34024
34020
34008
34008
34008
34004
34006
33989
33984
33978
33982
33976
33972
33961
33960
33948
33956
33940
33946
33940
33936
33932
33928
33921
33912
33916
33908
33900
33888
33895
33888
33887
33871
33876
33868
33856
33860
33858
33844
33840
33837
33836
33824
33820
33828
33812
33809
33806
33796
33792
33785
33777
33776
33786
33766
33764
33764
33750
33750
33748
33736
33736
33732
33724
33732
33716
33724
33714
33710
33704
33702
33700
33692
33689
33680
33684
33680
33686
33676
33672
33664
33664
33655
33658
33657
33652
33648
33636
33648
33646
33632
33632
33632
33628
33624
33624
33628
33621
33620
33616
33615
33615
33616
33604
33604
33604
33598
33601
33601
33604
33592
33590
33588
33588
33588
33592
33584
33573
33580
33572
33573
33568
33576
33572
33568
33568
33569
33561
33556
33564
33568
33559
33556
33556
33558
33560
33552
33564
33550
33544
33548
33540
33548
33548
33550
33540
33544
33540
33544
33542
33537
33528
33532
33536
33527
33530
33527
33526
33526
33524
33524
33517
33516
33514
33508
33511
33512
33506
33508
33508
33495
33496
33498
33492
33502
33481
33488
33488
33484
33494
33484
33480
33483
33488
33482
33480
33484
33472
33472
33476
33480
33476
33484
33470
33473
33468
33469
33468
33452
33466
33457
33460
33452
33453
33444
33438
33438
33431
33438
33428
33423
33412
33412
33407
33405
33398
33396
33385
33386
33380
33380
33376
33363
33356
33360
33352
33348
33344
33344
33344
33334
33328
33319
33318
33316
33308
33306
33306
33300
33292
33292
33286
33280
33272
33276
33268
33262
33256
33248
33248
33236
33232
33240
33220
33230
33220
33212
33214
33200
33204
33200
33189
33180
33184
33172
33166
33167
33157
33159
33153
33156
33142
33146
33144
33134
33132
33130
33124
33116
33120
33108
33108
33097
33102
33092
33092
33092
33086
33086
33077
33078
33076
33068
33064
33055
33056
33056
33044
33056
33042
33044
33036
33044
33038
33028
33028
33027
33024
33020
33018
33016
33012
33012
33006
33004
33004
32996
33001
33000
32996
32988
32996
32992
32984
32988
32977
32988
32974
32968
32969
32964
32970
32960
32960
32950
32952
32948
32948
32949
32938
32936
32938
32937
32932
32928
32929
32924
32918
32920
32920
32918
32912
32908
32906
32901
32908
32896
32900
32890
32890
32889
32891
32885
32884
32879
32884
32880
32884
32880
32878
32872
32879
32873
32869
32874
32870
32868
32866
32868
32876
32868
32864
32868
32872
32870
32869
32860
32868
32868
32864
32876
32865
32870
32862
32871
32872
32881
32864
32878
32870
32876
32877
32871
32872
32880
32870
32877
32876
32876
32877
32884
32879
32884
32884
32884
32892
32876
32890
32884
32886
32884
32889
32885
32881
32890
32900
32892
32900
32892
32900
32896
32892
32896
32892
32892
32884
32900
32888
32887
32894
32884
32896
32887
32888
32888
32885
32887
32892
32890
32886
32888
32886
32878
32881
32884
32881
32882
32876
32881
32876
32884
32874
32872
32873
32870
32869
32876
32866
32869
32874
32871
32866
32869
32864
32868
32856
32857
32854
32849
32852
32848
32852
32852
32846
32844
32844
32844
32841
32836
32838
32842
32836
32833
32831
32826
32836
32832
32836
32824
32831
32822
32828
32817
32822
32812
32816
32808
32812
32814
32809
32804
32808
32796
32804
32804
32801
32788
32793
32797
32798
32791
32796
32796
32790
32790
32780
32788
32780
32788
32776
32785
32778
32780
32772
32774
32764
32772
32772
32774
32768
32768
32764
32774
32762
32761
32760
32758
32764
32752
32753
32756
32760
32742
32748
32741
32744
32752
32749
32750
32749
32740
32749
32734
32745
32740
32736
32744
32744
32748
32744
32745
32741
32738
32748
32742
32750
32744
32746
32748
32744
32748
32748
32749
32760
32748
32752
32756
32752
32750
32748
32764
32762
32758
32759
32762
32770
32768
32760
32764
32768
32764
32768
32762
32768
32756
32772
32764
32772
32774
32770
32769
32774
32764
32772
32760
32774
32772
32767
32768
32767
32782
32764
32772
32772
32776
32774
32774
32772
32780
32776
32768
32772
32774
32780
32777
32776
32776
32777
32772
32780
32776
32788
32793
32784
32791
32797
32792
32800
32806
32808
32801
32805
32812
32810
32817
32816
32820
32824
32818
32820
32824
32828
32833
32828
32830
32825
32832
32832
32832
32830
32828
32836
32836
32821
32836
32816
32826
32808
32820
32812
32816
32812
32820
32816
32816
32809
32812
32804
32804
32808
32800
32808
32802
32812
32800
32800
32794
32796
32784
32790
32792
32790
32796
32796
32788
32793
32786
32794
32784
32788
32786
32788
32791
32788
32783
32796
32788
32797
32794
32788
32796
32796
32801
32805
32812
32812
32814
32814
32817
32816
32826
32825
32828
32833
32829
32821
32832
32832
32832
32832
32832
32841
32840
32840
32848
32840
32842
32852
32844
32840
32840
32836
32852
32846
32839
32856
32852
32848
32844
32840
32852
32852
32844
32842
32848
32852
32848
32852
32838
32840
32846
32848
32842
32845
32841
32845
32836
32834
32838
32830
32844
32833
32824
32834
32828
32826
32820
32820
32816
32822
32817
32805
32808
32800
32804
32794
32788
32788
32776
32790
32780
32782
32774
32772
32758
32760
32750
32756
32756
32748
32748
32744
32740
32741
32732
32732
32730
32724
32724
32712
32716
32706
32702
32705
32692
32692
32684
32684
32684
32680
32688
32672
32676
32666
32663
32665
32656
32657
32655
32652
32648
32648
32652
32652
32640
32636
32636
32636
32635
32634
32620
32628
32614
32630
32625
32608
32621
32612
32613
32612
32606
32614
32610
32612
32606
32608
32602
32604
32612
32604
32604
32601
32608
32604
32602
32604
32600
32601
32596
32602
32596
32606
32592
32608
32606
32600
32601
32613
32604
32612
32608
32606
32612
32612
32612
32613
32608
32609
32612
32612
32613
32612
32612
32609
32621
32615
32625
32620
32617
32622
32626
32618
32620
32623
32618
32613
32622
32616
32620
32620
32616
32624
32612
32616
32612
32612
32604
32612
32606
32612
32608
32603
32596
32604
32604
32605
32607
32602
32588
32594
32597
32590
32589
32588
32592
32592
32584
32584
32592
32588
32588
32584
32590
32576
32583
32590
32573
32580
32572
32574
32572
32572
32564
32568
32560
32558
32564
32564
32548
32549
32543
32546
32540
32532
32530
32533
32517
32516
32510
32508
32500
32502
32491
32491
32492
32484
32482
32472
32476
32470
32471
32465
32470
32450
32462
32448
32452
32444
32444
32440
32440
32437
32428
32430
32424
32420
32424
32420
32412
32412
32415
32397
32394
32384
32396
32374
32380
32378
32376
32361
32364
32349
32357
32344
32352
32324
32328
32324
32322
32322
32316
32309
32303
32300
32290
32293
32282
32280
32272
32271
32266
32254
32252
32253
32252
32239
32245
32234
32240
32220
32224
32212
32220
32204
32199
32192
32193
32180
32188
32177
32172
32161
32170
32164
32152
32160
32156
32148
32145
32140
32124
32132
32124
32120
32111
32113
32104
32104
32103
32097
32092
32092
32100
32088
32082
32078
32080
32064
32076
32070
32064
32064
32056
32064
32048
32052
32047
32044
32036
32034
32036
32032
32036
32036
32029
32024
32028
32020
32028
32014
32016
32018
32004
32004
32001
32006
31998
31996
31996
31995
31985
31992
31992
31988
31989
31984
31980
31980
31976
31978
31972
31970
31972
31976
31970
31974
31972
31969
31962
31966
31956
31972
31960
31960
31958
31954
31954
31952
31943
31942
31944
31937
31950
31945
31936
31932
31940
31934
31934
31927
31928
31924
31927
31917
31935
31919
31908
31911
31918
31904
31904
31904
31908
31904
31901
31902
31890
31897
31884
31886
31880
31880
31878
31873
31872
31878
31872
31868
31868
31861
31860
31860
31862
31848
31856
31846
31846
31844
31844
31832
31838
31834
31844
31828
31824
31828
31830
31828
31820
31828
31812
31814
31812
31817
31810
31804
31808
31799
31796
31796
31806
31782
31790
31788
31793
31788
31784
31780
31782
31772
31776
31774
31768
31760
31764
31760
31760
31758
31760
31750
31760
31746
31748
31748
31748
31737
31740
31736
31732
31732
31732
31730
31718
31732
31717
31717
31716
31714
31712
31698
31708
31702
31700
31700
31692
31695
31684
31688
31690
31688
31680
31684
31684
31682
31681
31671
31673
31672
31668
31672
31672
31664
31664
31660
31656
31664
31659
31652
31654
31647
31654
31648
31642
31644
31638
31645
31637
31632
31628
31631
31625
31624
31620
31621
31614
31612
31620
31606
31618
31600
31604
31598
31597
31594
31591
31584
31588
31580
31576
31577
31569
31564
31564
31564
31556
31556
31550
31553
31548
31548
31542
31541
31536
31534
31542
31533
31528
31520
31524
31524
31522
31517
31520
31528
31522
31516
31508
31509
31524
31512
31514
31505
31513
31508
31513
31504
31509
31498
31508
31505
31512
31504
31520
31504
31506
31508
31508
31510
31508
31513
31516
31509
31512
31518
31508
31524
31516
31518
31525
31532
31528
31521
31510
31524
31533
31526
31530
31524
31536
31533
31536
31530
31532
31532
31530
31540
31540
31544
31548
31543
31544
31542
31549
31552
31543
31558
31550
31559
31568
31561
31560
31567
31573
31574
31570
31584
31577
31594
31592
31600
31601
31616
31610
31618
31620
31630
31628
31636
31636
31640
31647
31654
31652
31656
31656
31668
31664
31665
31668
31674
31684
31676
31680
31674
31680
31680
31687
31686
31682
31688
31685
31685
31680
31680
31684
31676
31677
31684
31682
31674
31676
31684
31680
31680
31677
31680
31684
31677
31681
31684
31682
31688
31686
31676
31694
31684
31684
31700
31689
31700
31690
31704
31700
31701
31706
31716
31716
31712
31716
31719
31732
31740
31748
31750
31748
31759
31767
31776
31778
31794
31796
31797
31810
31820
31824
31836
31844
31856
31852
31860
31873
31878
31881
31896
31902
31905
31908
31924
31924
31940
31936
31953
31948
31957
31968
31964
31976
31972
31972
31990
31988
31990
31997
31996
32004
32010
32008
32017
32014
32025
32021
32030
32036
32032
32038
32048
32044
32039
32040
32052
32048
32048
32052
32052
32058
32060
32061
32065
32062
32064
32065
32060
32061
32067
32065
32062
32062
32064
32066
32054
32056
32060
32064
32056
32054
32058
32058
32050
32052
32052
32041
32058
32052
32048
32040
32049
32042
32036
32038
32028
32038
32024
32034
32036
32016
32022
32016
32028
32014
32020
32020
32015
32016
32008
32006
32014
32008
32010
32012
32010
32012
32011
32002
32006
32002
32008
32010
32006
32006
31996
32020
32009
32008
32008
32012
32020
32013
32012
32023
32024
32026
32023
32020
32037
32034
32042
32040
32040
32048
32052
32056
32064
32063
32068
32070
32078
32078
32080
32096
32092
32106
32108
32112
32113
32116
32124
32135
32142
32142
32152
32153
32164
32172
32164
32181
32182
32190
32200
32202
32204
32214
32220
32232
32228
32236
32241
32252
32252
32263
32263
32272
32277
32291
32286
32306
32300
32312
32320
32310
32324
32326
32336
32337
32340
32353
32356
32360
32360
32360
32372
32382
32377
32388
32382
32399
32398
32406
32417
32405
32420
32412
32425
32429
32432
32428
32437
32444
32444
32446
32464
32466
32472
32491
32482
32484
32488
32490
32504
32510
32508
32518
32524
32524
32532
32525
32536
32532
32542
32550
32554
32552
32560
32556
32570
32564
32568
32568
32572
32576
32576
32577
32577
32578
32588
32585
32584
32581
32590
32584
32592
32596
32590
32588
32600
32604
32599
32596
32600
32600
32608
32604
32614
32612
32614
32614
32628
32628
32620
32625
32633
32631
32636
32637
32638
32648
32636
32642
32640
32656
32656
32652
32653
32654
32660
32653
32668
32660
32662
32664
32666
32664
32664
32668
32678
32664
32665
32672
32671
32676
32680
32676
32680
32676
32676
32665
32680
32670
32677
32676
32680
32672
32685
32682
32680
32681
32684
32678
32684
32682
32676
32684
32680
32685
32680
32684
32680
32680
32680
32679
32682
32676
32680
32682
32684
32672
32678
32686
32680
32676
32680
32676
32677
32676
32672
32678
32680
32668
32680
32676
32684
32679
32680
32677
32676
32674
32684
32682
32676
32682
32678
32678
32684
32676
32678
32676
32676
32671
32686
32680
32682
32676
32676
32680
32686
32686
32683
32685
32687
32688
32693
32687
32692
32692
32692
32689
32696
32693
32705
32700
32700
32711
32712
32717
32704
32708
32716
32714
32716
32714
32718
32728
32732
32728
32732
32725
32740
32736
32752
32742
32746
32744
32754
32759
32756
32764
32766
32766
32768
32768
32780
32775
32775
32780
32788
32785
32790
32788
32785
32791
32808
32800
32802
32804
32804
32808
32809
32820
32821
32817
32824
32832
32824
32836
32832
32840
32837
32838
32834
32840
32853
32840
32852
32854
32852
32851
32862
32864
32861
32868
32864
32876
32868
32868
32868
32878
32884
32876
32880
32878
32890
32884
32901
32890
32892
32894
32892
32895
32898
32896
32895
32900
32904
32898
32910
32899
32906
32897
32906
32904
32912
32908
32916
32904
32912
32908
32912
32916
32909
32916
32917
32921
32922
32924
32912
32921
32923
32921
32917
32922
32924
32932
32928
32930
32920
32932
32926
32928
32930
32930
32928
32930
32932
32928
32938
32928
32941
32935
32940
32932
32944
32929
32934
32948
32942
32928
32944
32934
32943
32935
32944
32936
32946
32932
32936
32945
32942
32940
32941
32936
32942
32940
32942
32950
32934
32940
32940
32936
32940
32932
32936
32937
32933
32932
32922
32940
32928
32932
32921
32924
32925
32912
32921
32918
32916
32914
32922
32920
32912
32913
32916
32912
32916
32904
32904
32896
32908
32904
32898
32894
32909
32902
32892
32896
32890
32886
32888
32884
32889
32876
32877
32873
32886
32877
32874
32872
32877
32882
32872
32872
32864
32870
32864
32864
32860
32865
32856
32859
32864
32864
32863
32860
32858
32854
32856
32848
32868
32849
32856
32853
32858
32850
32853
32861
32851
32845
32860
32847
32848
32854
32853
32848
32857
32852
32846
32862
32862
32848
32860
32856
32854
32856
32848
32855
32860
32858
32860
32864
32856
32856
32856
32856
32861
32852
32860
32864
32868
32860
32872
32868
32869
32879
32868
32876
32884
32888
32890
32897
32897
32900
32896
32903
32904
32904
32918
32916
32914
32920
32926
32933
32932
32938
32936
32940
32938
32946
32941
32942
32942
32950
32950
32950
32948
32933
32948
32952
32948
32944
32936
32938
32938
32932
32928
32926
32928
32929
32928
32924
32928
32916
32916
32916
32900
32911
32912
32904
32897
32901
32896
32898
32884
32892
32890
32892
32877
32876
32884
32871
32872
32874
32864
32874
32864
32864
32868
32868
32869
32868
32869
32868
32856
32866
32866
32865
32870
32868
32868
32865
32872
32878
32881
32874
32882
32885
32884
32878
32888
32893
32892
32896
32894
32892
32888
32890
32901
32894
32900
32888
32894
32889
32892
32890
32881
32888
32892
32890
32876
32880
32884
32873
32881
32864
32887
32864
32868
32868
32868
32860
32853
32856
32848
32844
32841
32836
32836
32836
32830
32842
32821
32832
32820
32820
32812
32808
32808
32800
32804
32799
32796
32786
32780
32772
32767
32765
32767
32756
32753
32752
32744
32736
32737
32734
32728
32720
32716
32704
32704
32708
32700
32704
32685
32692
32684
32682
32681
32668
32676
32664
32652
32652
32656
32648
32649
32634
32630
32629
32630
32625
32620
32616
32614
32608
32617
32612
32604
32594
32604
32604
32593
32597
32597
32596
32588
32593
32588
32580
32584
32584
32580
32586
32580
32584
32587
32587
32584
32588
32588
32576
32578
32588
32590
32586
32584
32588
32590
32596
32596
32600
32598
32598
32598
32604
32598
32608
32608
32608
32612
32605
32609
32621
32616
32622
32625
32628
32629
32632
32630
32652
32636
32641
32644
32658
32646
32647
32652
32660
32660
32660
32668
32672
32676
32676
32684
32682
32687
32688
32686
32702
32692
32701
32710
32710
32716
32719
32721
32720
32716
32724
32732
32734
32732
32735
32740
32734
32730
32740
32728
32743
32742
32748
32738
32743
32746
32745
32740
32736
32740
32750
32748
32745
32740
32748
32744
32744
32756
32750
32751
32752
32756
32764
32756
32756
32768
32752
32764
32761
32768
32768
32758
32764
32768
32761
32766
32768
32764
32764
32766
32769
32770
32762
32766
32760
32773
32756
32762
32752
32760
32740
32744
32746
32748
32738
32740
32740
32736
32740
32737
32728
32717
32724
32724
32718
32716
32714
32716
32708
32699
32704
32701
32700
32712
32702
32697
32692
32690
32701
32700
32692
32692
32693
32686
32686
32684
32678
32692
32680
32676
32673
32670
32676
32676
32668
32668
32660
32656
32650
32652
32646
32650
32647
32644
32645
32645
32640
32632
32624
32633
32628
32628
32621
32616
32616
32610
32613
32612
32610
32604
32606
32604
32601
32596
32596
32588
32594
32588
32584
32590
32584
32584
32573
32580
32580
32584
32576
32572
32576
32576
32566
32572
32564
32567
32568
32554
32564
32546
32556
32552
32560
32558
32550
32557
32548
32546
32540
32544
32538
32548
32544
32534
32532
32535
32532
32528
32521
32526
32521
32530
32517
32524
32527
32516
32513
32519
32508
32513
32505
32508
32503
32503
32500
32505
32500
32501
32502
32496
32484
32500
32488
32489
32492
32494
32490
32496
32488
32492
32480
32484
32488
32486
32485
32484
32482
32482
32480
32480
32482
32476
32480
32480
32478
32470
32484
32480
32488
32460
32470
32468
32477
32470
32477
32470
32464
32478
32464
32476
32468
32464
32468
32470
32466
32464
32470
32476
32464
32466
32460
32468
32464
32464
32469
32472
32468
32466
32472
32472
32474
32464
32466
32470
32466
32468
32469
32466
32469
32473
32468
32468
32468
32464
32470
32470
32464
32470
32464
32476
32474
32460
32467
32474
32471
32468
32470
32468
32468
32464
32473
32468
32473
32464
32466
32466
32468
32468
32468
32462
32465
32468
32464
32460
32450
32466
32454
32452
32457
32454
32461
32448
32456
32452
32456
32444
32452
32444
32448
32436
32436
32439
32425
32437
32431
32426
32432
32424
32420
32428
32428
32416
32412
32412
32416
32404
32404
32406
32404
32400
32392
32398
32392
32392
32384
32388
32390
32376
32391
32380
32372
32370
32364
32372
32369
32365
32358
32346
32348
32352
32348
32344
32334
32336
32332
32330
32332
32328
32314
32313
32310
32302
32304
32302
32301
32292
32276
32288
32286
32278
32276
32272
32270
32262
32256
32253
32252
32255
32244
32241
32239
32240
32228
32240
32228
32222
32216
32221
32220
32223
32207
32200
32196
32192
32200
32201
32196
32199
32200
32196
32189
32201
32194
32192
32196
32192
32194
32191
32193
32198
32198
32199
32196
32200
32208
32205
32206
32202
32204
32216
32217
32215
32218
32216
32216
32228
32230
32228
32233
32232
32237
32244
32248
32248
32254
32256
32260
32262
32272
32270
32278
32284
32281
32293
32284
32298
32296
32298
32308
32312
32312
32310
32328
32321
32328
32324
32334
32332
32336
32340
32344
32356
32354
32356
32366
32360
32366
32370
32381
32380
32380
32388
32384
32392
32398
32408
32408
32417
32428
32426
32428
32430
32442
32447
32449
32463
32460
32472
32472
32481
32490
32486
32490
32504
32509
32513
32517
32520
32518
32524
32532
32528
32538
32536
32550
32540
32544
32548
32548
32549
32540
32552
32552
32553
32551
32552
32550
32556
32556
32552
32556
32556
32552
32556
32556
32556
32559
32556
32562
32562
32569
32560
32574
32569
32573
32564
32574
32580
32574
32574
32576
32590
32580
32589
32588
32596
32598
32604
32600
32610
32614
32608
32609
32622
32626
32638
32637
32648
32653
32650
32656
32674
32670
32684
32686
32693
32693
32702
32704
32711
32713
32718
32724
32727
32740
32746
32748
32742
32749
32752
32758
32760
32768
32772
32778
32774
32781
32776
32784
32780
32788
32790
32788
32799
32796
32804
32796
32800
32796
32800
32804
32804
32812
32802
32809
32808
32812
32806
32804
32804
32805
32806
32800
32804
32804
32804
32799
32808
32809
32804
32801
32804
32809
32801
32797
32796
32796
32780
32778
32774
32769
32777
32772
32774
32765
32764
32760
32744
32756
32737
32746
32728
32737
32720
32730
32721
32722
32705
32706
32704
32704
32694
32698
32676
32676
32672
32668
32664
32664
32649
32644
32648
32644
32640
32636
32632
32626
32622
32612
32612
32608
32608
32604
32597
32604
32604
32591
32608
32584
32588
32582
32580
32582
32580
32572
32572
32566
32574
32568
32568
32574
32560
32561
32564
32568
32568
32560
32572
32557
32562
32570
32568
32568
32572
32576
32576
32580
32578
32578
32581
32580
32590
32592
32586
32592
32597
32598
32604
32605
32608
32617
32612
32620
32624
32628
32636
32632
32637
32636
32640
32646
32650
32660
32656
32661
32676
32681
32688
32680
32690
32688
32696
32703
32704
32712
32712
32720
32724
32726
32740
32730
32737
32744
32752
32758
32754
32752
32764
32770
32777
32777
32777
32781
32786
32790
32794
32784
32792
32798
32808
32804
32806
32804
32812
32816
32815
32828
32822
32820
32824
32833
32840
32831
32838
32844
32848
32848
32852
32848
32862
32860
32866
32857
32868
32864
32868
32868
32868
32874
32872
32873
32868
32878
32868
32872
32869
32868
32864
32876
32860
32869
32861
32872
32856
32860
32854
32862
32850
32852
32844
32852
32844
32847
32844
32836
32828
32836
32820
32824
32824
32824
32829
32817
32822
32818
32812
32812
32815
32801
32804
32804
32796
32800
32804
32796
32796
32788
32794
32788
32792
32782
32789
32772
32776
32775
32772
32768
32768
32772
32768
32766
32765
32756
32760
32761
32752
32750
32752
32741
32746
32751
32741
32736
32732
32740
32736
32737
32732
32742
32732
32736
32733
32740
32728
32730
32730
32728
32732
32724
32717
32735
32724
32722
32724
32728
32730
32724
32736
32725
32728
32726
32732
32726
32732
32728
32732
32734
32726
32724
32724
32730
32725
32740
32730
32740
32728
32730
32730
32734
32728
32720
32726
32736
32734
32729
32724
32726
32728
32724
32724
32722
32728
32724
32721
32728
32724
32718
32722
32722
32714
32724
32720
32717
32716
32712
32720
32708
32712
32710
32712
32708
32716
32712
32718
32712
32708
32714
32708
32704
32712
32702
32712
32696
32708
32702
32708
32696
32694
32698
32695
32704
32692
32703
32694
32698
32697
32692
32690
32692
32700
32708
32688
32694
32684
32688
32688
32684
32684
32684
32689
32694
32680
32684
32684
32684
32688
32682
32688
32692
32680
32688
32693
32686
32684
32688
32684
32688
32687
32684
32684
32680
32684
32684
32695
32682
32680
32685
32689
32678
32680
32672
32679
32676
32674
32674
32670
32672
32668
32662
32664
32656
32663
32652
32666
32649
32657
32652
32660
32640
32644
32639
32645
32637
32648
32624
32631
32622
32621
32616
32616
32621
32608
32604
32600
32613
32595
32592
32588
32581
32590
32577
32582
32576
32576
32570
32566
32570
32564
32564
32558
32554
32544
32546
32548
32542
32536
32532
32530
32528
32524
32524
32529
32521
32512
32504
32506
32508
32506
32502
32488
32495
32481
32492
32477
32484
32476
32470
32462
32461
32460
32454
32452
32448
32446
32444
32436
32434
32428
32420
32420
32408
32414
32408
32404
32408
32397
32397
32382
32389
32380
32370
32363
32364
32352
32356
32356
32353
32342
32338
32332
32329
32324
32324
32318
32308
32314
32302
32302
32300
32294
32284
32284
32278
32272
32268
32262
32259
32254
32244
32240
32236
32240
32236
32228
32222
32220
32218
32216
32212
32204
32200
32198
32196
32191
32194
32188
32172
32182
32180
32174
32169
32164
32156
32158
32153
32164
32148
32144
32141
32147
32138
32136
32145
32126
32126
32124
32125
32124
32119
32113
32108
32116
32117
32108
32108
32108
32100
32100
32092
32101
32092
32088
32092
32095
32080
32076
32085
32078
32076
32076
32074
32078
32073
32072
32074
32081
32076
32077
32072
32076
32072
32086
32076
32074
32090
32078
32078
32084
32073
32080
32088
32078
32076
32074
32076
32084
32084
32076
32078
32076
32070
32074
32068
32066
32068
32061
32060
32048
32052
32047
32044
32041
32045
32030
32030
32020
32024
32017
32012
32000
32004
31996
31990
31986
31988
31973
31976
31972
31961
31967
31957
31960
31948
31944
31952
31948
31940
31932
31936
31930
31938
31921
31920
31917
31916
31918
31912
31910
31914
31905
31908
31910
31908
31909
31913
31908
31913
31908
31910
31912
31916
31920
31920
31922
31924
31925
31928
31937
31936
31938
31936
31938
31944
31948
31940
31940
31948
31959
31952
31964
31960
31960
31972
31956
31957
31952
31966
31972
31959
31957
31966
31967
31959
31962
31965
31960
31950
31960
31954
31956
31944
31940
31944
31940
31936
31937
31928
31934
31916
31920
31916
31908
31908
31902
31900
31894
31886
31886
31884
31876
31867
31860
31856
31848
31844
31836
31828
31825
31814
31808
31796
31796
31786
31780
31762
31764
31750
31741
31740
31728
31722
31714
31696
31697
31692
31688
31675
31665
31652
31654
31641
31621
31628
31628
31616
31608
31604
31588
31584
31580
31572
31561
31559
31551
31535
31528
31524
31524
31518
31504
31494
31493
31485
31484
31466
31466
31466
31453
31454
31432
31428
31431
31418
31412
31408
31409
31400
31398
31377
31376
31380
31366
31368
31362
31352
31350
31343
31334
31340
31330
31326
31322
31324
31304
31306
31302
31297
31296
31296
31286
31282
31280
31268
31274
31268
31264
31271
31262
31256
31247
31249
31240
31242
31238
31228
31228
31228
31223
31217
31212
31215
31212
31204
31198
31200
31197
31193
31197
31192
31181
31180
31176
31172
31175
31175
31164
31167
31166
31162
31156
31159
31150
31148
31156
31148
31145
31133
31132
31139
31124
31126
31126
31121
31116
31118
31116
31104
31108
31100
31100
31095
31089
31092
31088
31083
31084
31081
31070
31076
31073
31082
31069
31076
31076
31072
31068
31065
31064
31066
31064
31060
31060
31064
31066
31056
31054
31040
31054
31054
31048
31042
31042
31040
31044
31029
31029
31034
31029
31036
31020
31017
31022
31016
31020
31012
31009
31008
31012
31000
31002
30993
31006
30998
31001
30997
30984
30991
30981
30986
30988
30981
30980
30983
30992
30983
30984
30980
30984
30972
30980
30976
30976
30976
30970
30980
30972
30976
30976
30972
30976
30980
30974
30974
30980
30984
30972
30977
30974
30982
30980
30969
30974
30980
30970
30980
30978
30970
30979
30976
30976
30984
30976
30984
30983
30990
30980
30992
30988
30996
30990
30996
30992
30998
31004
31001
31008
31012
31006
31009
31010
31012
31009
31020
31020
31028
31016
31026
31030
31032
31038
31041
31038
31036
31044
31048
31046
31052
31060
31056
31056
31062
31068
31068
31068
31081
31080
31081
31081
31080
31093
31096
31096
31088
31092
31108
31102
31104
31124
31104
31119
31120
31124
31128
31136
31135
31140
31140
31142
31149
31153
31156
31156
31153
31152
31164
31172
31170
31176
31176
31180
31188
31194
31196
31200
31205
31212
31216
31215
31224
31228
31231
31239
31244
31244
31249
31253
31254
31262
31268
31266
31284
31288
31286
31298
31300
31300
31312
31320
31326
31324
31332
31334
31334
31348
31352
31361
31364
31368
31377
31384
31388
31402
31402
31424
31416
31429
31428
31436
31452
31456
31462
31476
31481
31490
31498
31496
31508
31504
31524
31532
31536
31548
31550
31568
31576
31584
31592
31588
31599
31612
31620
31620
31621
31644
31646
31652
31656
31668
31672
31684
31686
31690
31708
31710
31714
31725
31728
31738
31744
31760
31762
31768
31768
31782
31792
31788
31800
31800
31808
31816
31834
31824
31840
31833
31848
31860
31857
31862
31862
31879
31874
31886
31886
31896
31904
31904
31905
31918
31909
31920
31936
31932
31942
31951
31940
31952
31958
31968
31972
31972
31975
31984
31992
31988
32000
32006
32012
32012
32024
32027
32038
32036
32044
32048
32048
32057
32070
32086
32082
32086
32096
32104
32100
32108
32110
32116
32128
32134
32144
32151
32153
32164
32176
32180
32177
32192
32197
32194
32212
32216
32229
32224
32244
32244
32249
32261
32264
32278
32276
32288
32284
32300
32305
32316
32324
32320
32341
32340
32348
32353
32361
32373
32376
32384
32388
32400
32406
32408
32416
32428
32428
32440
32460
32456
32468
32472
32482
32489
32501
32512
32517
32524
32540
32550
32548
32564
32572
32576
32588
32596
32604
32606
32623
32629
32644
32650
32654
32668
32680
32682
32692
32702
32704
32720
32721
32732
32729
32743
32742
32756
32764
32764
32775
32780
32772
32776
32776
32784
32784
32789
32790
32791
32796
32788
32787
32793
32790
32794
32793
32788
32790
32791
32791
32792
32792
32784
32788
32788
32789
32784
32790
32782
32781
32784
32784
32779
32778
32776
32776
32778
32777
32781
32778
32779
32769
32776
32789
32792
32784
32788
32792
32796
32800
32801
32800
32804
32808
32820
32820
32824
32824
32836
32840
32838
32856
32863
32868
32874
32868
32884
32884
32901
32908
32900
32912
32913
32932
32933
32932
32945
32956
32961
32972
32972
32972
32984
32984
32998
32991
33012
33015
33013
33012
33028
33036
33044
33038
33048
33052
33060
33060
33068
33070
33089
33086
33097
33097
33100
33112
33120
33120
33128
33135
33134
33144
33144
33152
33156
33156
33163
33172
33176
33168
33184
33185
33192
33190
33202
33200
33196
33208
33204
33205
33206
33207
33208
33206
33212
33209
33217
33216
33220
33216
33213
33212
33215
33209
33214
33216
33208
33212
33212
33208
33216
33214
33204
33205
33204
33200
33204
33202
33199
33208
33206
33207
33196
33202
33205
33206
33200
33201
33205
33210
33198
33198
33206
33192
33208
33200
33208
33197
33199
33206
33207
33201
33200
33198
33206
33194
33196
33200
33204
33208
33197
33208
33198
33196
33210
33216
33204
33212
33209
33204
33224
33224
33222
33228
33224
33222
33228
33228
33228
33240
33238
33238
33252
33246
33256
33261
33260
33272
33271
33264
33276
33280
33281
33284
33292
33292
33300
33304
33296
33308
33315
33319
33320
33316
33322
33324
33336
33332
33340
33336
33340
33345
33349
33348
33356
33354
33348
33357
33359
33368
33364
33381
33366
33381
33374
33380
33372
33378
33384
33384
33388
33396
33389
33388
33397
33392
33406
33391
33412
33402
33406
33408
33413
33412
33420
33428
33424
33429
33432
33442
33440
33453
33452
33448
33457
33456
33464
33470
33470
33468
33465
33476
33473
33474
33470
33478
33476
33470
33476
33476
33480
33476
33488
33480
33480
33484
33486
33484
33489
33484
33480
33488
33486
33487
33476
33476
33478
33477
33489
33482
33474
33480
33484
33472
33480
33474
33476
33468
33464
33476
33472
33476
33476
33476
33472
33473
33476
33473
33476
33480
33480
33472
33472
33476
33482
33481
33472
33480
33484
33479
33488
33480
33476
33480
33484
33480
33480
33479
33484
33478
33478
33473
33480
33472
33472
33479
33468
33470
33468
33472
33468
33470
33478
33472
33469
33464
33466
33464
33468
33460
33463
33462
33456
33452
33450
33460
33452
33456
33457
33448
33456
33449
33452
33445
33444
33444
33444
33444
33436
33440
33443
33444
33430
33436
33433
33432
33428
33425
33424
33414
33424
33428
33418
33412
33410
33413
33417
33414
33412
33408
33412
33412
33402
33401
33401
33389
33404
33398
33404
33404
33397
33394
33389
33392
33389
33382
33388
33384
33383
33380
33382
33383
33376
33382
33377
33377
33381
33377
33377
33380
33376
33382
33374
33376
33376
33373
33376
33376
33368
33375
33374
33372
33373
33369
33376
33376
33380
33372
33382
33372
33376
33364
33368
33380
33370
33383
33377
33381
33388
33383
33377
33373
33378
33378
33381
33388
33380
33391
33384
33386
33383
33385
33392
33388
33392
33388
33392
33394
33390
33397
33388
33391
33396
33393
33392
33394
33394
33393
33388
33390
33391
33393
33391
33391
33394
33396
33392
33392
33388
33392
33393
33390
33384
33391
33392
33388
33382
33382
33383
33388
33390
33388
33392
33383
33388
33381
33388
33382
33376
33380
33380
33380
33380
33385
33380
33388
33372
33384
33372
33370
33376
33380
33378
33369
33380
33370
33364
33372
33364
33368
33374
33364
33374
33366
33360
33368
33364
33362
33372
33364
33368
33360
33365
33354
33362
33364
33372
33365
33378
33372
33370
33374
33372
33361
33376
33376
33370
33377
33380
33374
33378
33382
33378
33378
33381
33382
33384
33381
33383
33380
33386
33384
33381
33381
33377
33381
33384
33389
33384
33388
33388
33390
33396
33400
33392
33388
33390
33390
33401
33396
33388
33388
33396
33396
33393
33392
33392
33396
33393
33392
33394
33390
33396
33386
33393
33391
33397
33390
33380
33400
33390
33383
33390
33383
33384
33384
33384
33380
33380
33381
33384
33378
33376
33376
33376
33378
33374
33372
33372
33366
33372
33372
33362
33364
33361
33354
33360
33356
33345
33348
33348
33352
33343
33348
33352
33352
33348
33352
33352
33360
33348
33356
33356
33356
33358
33368
33373
33374
33380
33372
33377
33380
33380
33388
33387
33392
33406
33393
33406
33400
33400
33409
33406
33404
33409
33412
33411
33416
33417
33420
33412
33413
33404
33414
33413
33412
33418
33418
33414
33420
33408
33423
33414
33412
33416
33420
33413
33412
33420
33412
33402
33416
33412
33412
33412
33412
33408
33412
