RESPIRATION
16471
16448
16430
16400
16374
16348
16340
16312
16278
16260
16249
16229
16205
16174
16172
16148
16128
16110
16100
16082
16061
16054
16036
16020
16004
16003
15984
15972
15972
15952
15942
15938
15924
15919
15918
15904
15898
15896
15888
15888
15882
15885
15866
15877
15878
15864
15874
15878
15864
15871
15882
15876
15890
15884
15889
15901
15893
15898
15912
15913
15923
15937
15932
15942
15957
15972
15976
15996
16008
16009
16027
16038
16059
16068
16080
16100
16118
16120
16140
16162
16164
16190
16212
16228
16240
16255
16283
16293
16318
16337
16356
16380
16398
16420
16440
16453
16478
16498
16516
16534
16559
16590
16610
16622
16654
16682
16696
16717
16756
16780
16796
16820
16842
16876
16892
16919
16937
16961
16992
17020
17030
17056
17088
17109
17128
17174
17194
17216
17244
17261
17284
17316
17338
17356
17388
17415
17437
17464
17491
17508
17536
17564
17586
17606
17638
17668
17684
17720
17738
17764
17800
17810
17841
17862
17895
17912
17930
17968
17991
18006
18036
18063
18084
18114
18136
18157
18184
18204
18236
18260
18274
18304
18329
18347
18366
18396
18408
18438
18462
18477
18504
18519
18541
18570
18588
18606
18629
18646
18672
18692
18709
18721
18752
18760
18780
18798
18804
18833
18844
18849
18872
18888
18904
18912
18928
18950
18954
18966
18980
19002
19003
19018
19010
19028
19046
19048
19051
19052
19062
19065
19081
19076
19068
19086
19096
19092
19092
19093
19096
19096
19097
19100
19086
19096
19093
19081
19087
19086
19080
19062
19062
19060
19050
19047
19040
19030
19030
19020
19004
19002
18984
18976
18974
18950
18937
18933
18912
18900
18890
18874
18860
18845
18828
18813
18798
18774
18766
18752
18726
18719
18689
18672
18658
18640
18612
18600
18584
18552
18536
18518
18494
18470
18455
18431
18415
18400
18370
18354
18333
18318
18292
18263
18253
18234
18194
18176
18159
18144
18120
18096
18074
18052
18036
18018
17993
17969
17952
17936
17909
17885
17869
17848
17830
17802
17778
17765
17740
17720
17702
17684
17652
17636
17613
17582
17575
17550
17524
17509
17482
17457
17436
17421
17406
17370
17344
17324
17305
17274
17256
17224
17214
17184
17156
17140
17117
17080
17069
17046
17017
16991
16968
16943
16922
16888
16870
16852
16821
16800
16775
16755
16740
16717
16692
16674
16653
16638
16616
16598
16583
16566
16550
16526
16528
16512
16489
16479
16467
16449
16436
16437
16428
16410
16410
16414
16404
16389
16392
16393
16390
16390
16390
16396
16388
16387
16401
16395
16392
16420
16412
16410
16420
16442
16440
16453
16468
16481
16492
16508
16532
16545
16551
16574
16592
16612
16620
16644
16661
16686
16706
16720
16750
16780
16794
16823
16852
16874
16906
16929
16954
16992
17020
17042
17071
17112
17144
17172
17210
17245
17271
17298
17337
17374
17411
17439
17476
17522
17564
17594
17632
17671
17713
17762
17791
17842
17882
17924
17952
17997
18045
18085
18122
18167
18214
18264
18308
18346
18384
18447
18486
18532
18568
18612
18660
18712
18750
18789
18823
18870
18911
18960
19012
19050
19093
19134
19174
19218
19252
19296
19340
19386
19420
19462
19500
19540
19569
19599
19632
19668
19704
19740
19776
19801
19836
19865
19901
19932
19960
19978
20008
20042
20074
20108
20132
20156
20177
20205
20231
20256
20280
20292
20324
20349
20362
20388
20409
20435
20454
20468
20494
20511
20528
20544
20552
20578
20598
20606
20622
20641
20653
20669
20673
20688
20710
20719
20721
20734
20748
20762
20773
20792
20802
20813
20804
20817
20836
20845
20852
20848
20864
20872
20889
20892
20898
20902
20918
20924
20932
20940
20950
20963
20972
20974
20978
20996
21002
21011
21016
21030
21024
21032
21048
21057
21073
21072
21077
21092
21108
21112
21116
21126
21141
21150
21164
21162
21178
21190
21202
21200
21210
21228
21240
21252
21260
21274
21280
21292
21317
21324
21330
21348
21363
21382
21386
21404
21422
21444
21447
21462
21474
21490
21512
21526
21540
21565
21572
21588
21606
21630
21645
21660
21668
21688
21704
21717
21737
21767
21784
21800
21816
21828
21834
21857
21877
21900
21924
21936
21947
21964
21985
22012
22025
22034
22052
22074
22088
22112
22132
22132
22150
22169
22188
22203
22216
22233
22254
22272
22284
22298
22312
22334
22340
22357
22380
22380
22393
22411
22428
22440
22448
22460
22462
22476
22501
22516
22520
22532
22542
22560
22574
22577
22586
22593
22613
22618
22630
22632
22640
22649
22658
22653
22660
22672
22692
22690
22686
22700
22710
22708
22712
22724
22734
22733
22726
22741
22751
22752
22740
22741
22751
22748
22756
22767
22772
22751
22762
22768
22772
22772
22768
22780
22788
22769
22782
22784
22780
22778
22790
22783
22780
22778
22792
22776
22784
22790
22784
22781
22796
22797
22796
22796
22800
22793
22804
22796
22810
22799
22796
22799
22813
22808
22812
22818
22814
22820
22818
22822
22833
22832
22838
22836
22844
22860
22858
22860
22856
22866
22874
22884
22892
22891
22894
22908
22919
22929
22932
22938
22952
22976
22986
22984
22993
23022
23029
23045
23050
23069
23072
23092
23103
23112
23124
23148
23170
23180
23202
23200
23220
23254
23272
23279
23298
23333
23344
23362
23374
23397
23430
23442
23460
23476
23498
23524
23552
23570
23588
23616
23646
23673
23704
23720
23742
23778
23802
23826
23839
23866
23901
23927
23957
23984
24009
24030
24054
24084
24130
24144
24166
24199
24241
24276
24292
24318
24348
24389
24416
24438
24464
24508
24523
24555
24594
24628
24648
24678
24712
24740
24784
24802
24830
24870
24906
24933
24962
24996
25030
25066
25097
25124
25164
25195
25232
25266
25292
25332
25372
25396
25432
25472
25509
25524
25564
25609
25642
25670
25706
25743
25776
25802
25842
25884
25922
25953
25984
26024
26062
26088
26120
26172
26204
26234
26270
26306
26348
26380
26409
26446
26484
26526
26548
26588
26632
26668
26694
26730
26772
26810
26844
26882
26924
26964
26996
27038
27075
27108
27140
27178
27220
27254
27300
27321
27369
27404
27448
27486
27518
27554
27601
27644
27674
27714
27756
27788
27826
27868
27908
27958
27980
28012
28056
28100
28137
28164
28208
28255
28288
28322
28372
28416
28440
28484
28527
28552
28588
28632
28664
28701
28744
28774
28805
28849
28884
28912
28958
28996
29028
29062
29092
29132
29180
29201
29236
29282
29304
29334
29371
29404
29452
29468
29494
29528
29562
29590
29620
29648
29692
29716
29754
29772
29804
29832
29871
29898
29912
29942
29982
29996
30029
30046
30076
30100
30133
30158
30180
30202
30228
30257
30282
30300
30316
30350
30368
30393
30404
30436
30464
30472
30492
30516
30528
30564
30572
30584
30612
30636
30646
30660
30684
30694
30722
30728
30741
30773
30794
30812
30806
30828
30849
30864
30870
30879
30884
30904
30924
30938
30938
30962
30978
30986
30989
31001
31024
31030
31031
31044
31052
31062
31072
31072
31080
31088
31105
31097
31100
31116
31124
31130
31133
31126
31141
31146
31148
31144
31156
31156
31148
31166
31156
31148
31153
31156
31152
31156
31151
31148
31144
31140
31132
31132
31136
31132
31121
31108
31108
31106
31098
31097
31074
31076
31068
31064
31042
31040
31043
31020
31007
31004
30992
30976
30970
30972
30953
30932
30924
30913
30898
30887
30868
30856
30844
30816
30812
30797
30777
30762
30748
30740
30716
30710
30692
30662
30656
30624
30599
30588
30577
30552
30536
30514
30494
30472
30446
30412
30394
30374
30358
30337
30320
30292
30272
30238
30214
30185
30156
30137
30102
30076
30047
30036
30001
29966
29941
29912
29894
29852
29804
29780
29761
29734
29686
29654
29626
29597
29562
29524
29484
29448
29420
29385
29349
29310
29272
29240
29214
29176
29129
29084
29057
29030
28986
28946
28920
28887
28836
28791
28768
28732
28696
28648
28612
28574
28548
28496
28456
28420
28384
28350
28316
28277
28228
28198
28172
28132
28086
28052
28022
27982
27948
27902
27868
27842
27810
27760
27724
27697
27668
27630
27584
27556
27526
27497
27468
27420
27380
27354
27320
27276
27248
27228
27185
27148
27121
27104
27052
27028
27004
26968
26927
26897
26879
26840
26807
26768
26742
26716
26682
26644
26621
26600
26560
26528
26492
26464
26448
26420
26374
26352
26332
26299
26272
26244
26220
26184
26160
26144
26097
26076
26053
26028
25988
25973
25944
25910
25903
25887
25844
25820
25810
25792
25757
25734
25716
25684
25687
25656
25622
25620
25590
25568
25562
25537
25508
25499
25482
25461
25440
25441
25416
25388
25388
25372
25348
25338
25326
25304
25284
25280
25273
25249
25224
25222
25208
25188
25184
25172
25167
25140
25127
25119
25108
25096
25082
25060
25052
25050
25028
25014
24999
25000
24994
24970
24956
24944
24940
24918
24908
24894
24892
24883
24856
24848
24849
24821
24808
24804
24788
24772
24765
24756
24740
24724
24712
24709
24692
24676
24663
24668
24644
24638
24631
24616
24596
24580
24585
24562
24548
24550
24529
24514
24509
24502
24476
24476
24477
24453
24440
24442
24424
24406
24408
24400
24388
24372
24377
24360
24349
24332
24330
24324
24300
24288
24284
24280
24261
24252
24242
24246
24236
24218
24221
24200
24183
24180
24178
24168
24144
24142
24140
24125
24112
24116
24100
24087
24080
24074
24060
24040
24040
24036
24022
24008
24002
23996
23980
23978
23964
23948
23936
23932
23932
23916
23908
23896
23885
23882
23878
23860
23852
23852
23832
23829
23824
23810
23802
23798
23781
23776
23768
23752
23758
23748
23732
23717
23720
23712
23702
23696
23692
23679
23684
23678
23661
23662
23652
23646
23649
23636
23628
23624
23614
23604
23610
23588
23586
23596
23598
23576
23580
23582
23572
23580
23566
23556
23560
23558
23553
23545
23548
23534
23532
23541
23532
23528
23516
23530
23524
23516
23524
23519
23516
23513
23516
23512
23510
23516
23516
23496
23501
23505
23504
23496
23494
23512
23498
23496
23505
23504
23498
23510
23515
23512
23514
23516
23509
23524
23526
23516
23534
23527
23532
23535
23544
23544
23550
23568
23568
23569
23585
23588
23588
23602
23610
23622
23622
23640
23644
23645
23664
23669
23677
23688
23696
23700
23724
23730
23737
23753
23775
23776
23789
23808
23807
23834
23836
23846
23868
23876
23884
23904
23918
23916
23930
23960
23966
23965
24000
24005
24020
24048
24052
24060
24089
24084
24108
24126
24128
24144
24164
24174
24184
24202
24213
24224
24248
24260
24270
24280
24314
24324
24340
24356
24370
24381
24391
24412
24420
24441
24452
24458
24484
24500
24509
24516
24549
24556
24573
24590
24612
24613
24628
24650
24673
24679
24698
24720
24732
24732
24749
24768
24780
24798
24822
24823
24834
24862
24876
24881
24904
24921
24928
24944
24966
24975
24995
25005
25015
25028
25044
25045
25070
25084
25085
25102
25125
25136
25134
25153
25172
25180
25208
25208
25217
25232
25240
25244
25262
25274
25274
25292
25304
25302
25320
25328
25331
25341
25365
25368
25371
25384
25404
25400
25408
25430
25428
25434
25447
25457
25456
25464
25476
25476
25481
25492
25503
25504
25508
25524
25518
25526
25537
25549
25540
25545
25564
25566
25566
25570
25576
25572
25568
25578
25582
25584
25589
25592
25588
25601
25601
25596
25604
25608
25610
25607
25608
25608
25596
25614
25610
25600
25609
25607
25610
25602
25612
25620
25610
25604
25610
25608
25608
25602
25612
25605
25600
25607
25604
25597
25599
25604
25596
25584
25588
25588
25580
25572
25573
25577
25574
25564
25572
25575
25564
25552
25556
25560
25557
25548
25550
25541
25528
25524
25526
25528
25512
25505
25516
25508
25500
25492
25508
25493
25484
25479
25486
25469
25465
25460
25458
25444
25440
25439
25433
25428
25408
25412
25420
25401
25400
25398
25393
25388
25383
25386
25372
25366
25362
25364
25345
25346
25348
25334
25325
25320
25316
25314
25308
25312
25308
25296
25286
25290
25280
25276
25276
25268
25254
25268
25264
25250
25245
25244
25232
25220
25232
25230
25220
25209
25220
25205
25196
25190
25205
25188
25177
25177
25180
25172
25159
25159
25160
25159
25144
25147
25137
25128
25126
25127
25126
25114
25108
25116
25100
25102
25104
25094
25097
25089
25084
25084
25078
25060
25068
25060
25068
25053
25041
25048
25047
25036
25036
25038
25032
25022
25025
25016
25012
25008
24996
24997
25006
24985
24977
24980
24986
24975
24964
24968
24967
24960
24958
24961
24949
24944
24936
24948
24932
24930
24934
24930
24917
24918
24918
24922
24908
24903
24902
24901
24896
24892
24904
24896
24888
24884
24884
24886
24888
24877
24886
24877
24866
24868
24864
24872
24864
24868
24853
24870
24874
24866
24866
24864
24866
24865
24868
24864
24864
24873
24865
24855
24858
24861
24862
24856
24848
24854
24864
24856
24856
24860
24861
24866
24860
24856
24860
24866
24858
24858
24866
24860
24860
24856
24864
24865
24868
24859
24856
24870
24872
24859
24862
24873
24876
24876
24868
24868
24868
24876
24872
24866
24878
24872
24872
24878
24880
24884
24886
24892
24896
24890
24888
24896
24892
24892
24904
24901
24892
24902
24913
24912
24900
24918
24919
24916
24922
24924
24926
24924
24933
24932
24936
24944
24948
24948
24949
24961
24970
24956
24964
24972
24966
24972
24990
24984
24981
24996
24996
24998
25004
25008
25014
25022
25026
25026
25026
25029
25038
25039
25036
25036
25054
25062
25045
25058
25064
25060
25061
25064
25073
25078
25065
25081
25084
25082
25085
25089
25094
25088
25096
25096
25100
25096
25100
25108
25108
25108
25100
25118
25120
25116
25124
25128
25124
25124
25128
25125
25132
25140
25124
25134
25140
25124
25140
25134
25128
25128
25140
25140
25140
25144
25145
25148
25154
25140
25152
25148
25143
25148
25148
25145
25140
25149
25152
25141
25150
25142
25148
25137
25140
25150
25136
25146
25148
25146
25149
25154
25144
25150
25142
25148
25127
25136
25144
25136
25136
25136
25127
25138
25139
25127
25126
25140
25134
25128
25132
25132
25132
25138
25139
25120
25124
25129
25132
25118
25134
25140
25128
25124
25142
25129
25124
25128
25143
25130
25122
25129
25134
25132
25126
25128
25125
25124
25124
25126
25126
25120
25130
25122
25119
25133
25125
25116
25125
25136
25134
25132
25124
25124
25125
25132
25118
25129
25130
25127
25126
25136
25128
25132
25120
25140
25134
25132
25144
25141
25134
25136
25144
25150
25140
25140
25148
25140
25140
25151
25154
25158
25160
25154
25152
25148
25162
25172
25167
25172
25180
25184
25181
25176
25190
25185
25176
25182
25192
25204
25197
25196
25200
25204
25216
25210
25214
25224
25228
25218
25225
25240
25238
25232
25244
25252
25244
25241
25252
25256
25260
25260
25262
25280
25269
25280
25292
25281
25281
25293
25300
25296
25296
25312
25314
25316
25316
25329
25317
25333
25342
25337
25342
25344
25353
25364
25364
25374
25380
25366
25378
25390
25391
25385
25398
25412
25405
25412
25416
25428
25419
25422
25439
25448
25444
25438
25458
25468
25472
25468
25469
25480
25482
25483
25484
25490
25504
25496
25498
25512
25516
25524
25516
25516
25524
25533
25544
25545
25550
25544
25554
25562
25572
25564
25560
25568
25572
25588
25585
25590
25585
25596
25604
25599
25609
25613
25612
25622
25626
25624
25628
25640
25640
25646
25644
25645
25664
25658
25652
25662
25670
25682
25682
25676
25672
25682
25686
25692
25681
25693
25698
25700
25696
25696
25703
25704
25692
25694
25708
25716
25697
25696
25704
25705
25700
25700
25704
25704
25695
25692
25710
25700
25685
25692
25696
25698
25692
25680
25682
25688
25668
25680
25682
25676
25664
25679
25677
25668
25656
25664
25666
25660
25642
25652
25640
25645
25638
25640
25628
25632
25625
25614
25616
25608
25620
25602
25581
25592
25590
25585
25574
25565
25564
25552
25542
25540
25542
25524
25521
25501
25494
25494
25481
25470
25460
25450
25434
25433
25425
25412
25397
25386
25382
25376
25350
25328
25322
25316
25300
25272
25258
25256
25244
25220
25204
25186
25177
25164
25146
25124
25108
25100
25081
25064
25038
25028
24992
24982
24964
24956
24928
24902
24892
24881
24848
24833
24806
24800
24782
24756
24732
24708
24692
24676
24651
24620
24608
24588
24568
24547
24522
24496
24476
24462
24440
24416
24392
24368
24356
24328
24304
24282
24260
24244
24204
24188
24158
24140
24120
24088
24066
24044
24028
23989
23975
23952
23937
23892
23882
23856
23836
23801
23788
23766
23733
23703
23679
23661
23636
23601
23586
23564
23540
23510
23480
23464
23444
23413
23390
23373
23353
23330
23304
23281
23260
23230
23206
23190
23169
23140
23116
23094
23084
23062
23033
23017
23006
22978
22952
22928
22913
22896
22870
22850
22833
22823
22800
22776
22748
22738
22716
22700
22672
22656
22644
22626
22616
22598
22570
22556
22540
22532
22509
22477
22470
22454
22444
22431
22410
22384
22375
22362
22350
22329
22311
22304
22304
22279
22258
22245
22244
22228
22212
22203
22176
22174
22159
22153
22135
22128
22109
22100
22078
22090
22074
22064
22044
22036
22029
22025
22014
22004
21992
21978
21970
21970
21972
21953
21943
21927
21924
21923
21919
21905
21900
21890
21884
21880
21874
21864
21854
21858
21852
21856
21850
21840
21831
21828
21830
21828
21818
21816
21810
21824
21816
21802
21805
21802
21798
21801
21797
21796
21786
21779
21776
21792
21788
21783
21776
21774
21776
21784
21780
21772
21770
21782
21792
21790
21786
21789
21792
21790
21794
21800
21802
21806
21804
21798
21816
21818
21818
21822
21825
21832
21844
21856
21858
21861
21869
21881
21892
21896
21901
21916
21917
21930
21940
21944
21952
21959
21978
21991
21988
22006
22024
22036
22044
22052
22076
22081
22092
22111
22128
22135
22142
22152
22176
22188
22191
22204
22216
22244
22257
22268
22284
22304
22314
22327
22336
22356
22377
22388
22396
22420
22436
22440
22458
22488
22498
22504
22528
22554
22568
22572
22584
22620
22636
22640
22670
22680
22698
22712
22732
22745
22754
22788
22804
22821
22834
22854
22880
22892
22913
22919
22948
22960
22988
23010
23028
23036
23056
23081
23103
23109
23124
23160
23168
23178
23204
23226
23240
23259
23280
23308
23311
23332
23357
23376
23388
23398
23418
23436
23460
23476
23492
23500
23520
23544
23560
23573
23585
23605
23630
23639
23648
23668
23688
23697
23708
23732
23748
23754
23772
23786
23813
23816
23826
23842
23860
23870
23880
23894
23912
23921
23936
23958
23962
23974
23996
23994
24017
24028
24030
24046
24057
24065
24076
24092
24104
24108
24118
24135
24146
24159
24166
24168
24190
24196
24199
24214
24232
24228
24240
24248
24256
24270
24270
24286
24280
24301
24312
24316
24322
24328
24338
24352
24348
24364
24372
24372
24382
24393
24400
24412
24406
24405
24420
24432
24436
24432
24444
24454
24456
24452
24474
24470
24472
24482
24488
24484
24493
24501
24492
24498
24510
24520
24520
24503
24517
24518
24513
24520
24528
24526
24528
24528
24536
24538
24544
24537
24536
24532
24547
24536
24527
24535
24534
24524
24529
24532
24525
24522
24524
24521
24518
24513
24516
24520
24514
24496
24503
24504
24492
24480
24488
24484
24470
24460
24470
24460
24448
24444
24448
24444
24428
24428
24429
24424
24406
24400
24404
24393
24386
24384
24374
24364
24354
24364
24346
24336
24328
24329
24316
24316
24286
24281
24292
24289
24272
24261
24246
24244
24238
24228
24212
24200
24197
24192
24190
24173
24160
24150
24144
24144
24136
24117
24104
24099
24088
24086
24072
24072
24048
24034
24026
24016
23996
23992
23988
23986
23964
23957
23952
23945
23934
23921
23908
23895
23897
23896
23880
23868
23852
23837
23831
23835
23822
23810
23799
23784
23776
23761
23764
23758
23746
23737
23720
23712
23696
23701
23692
23680
23660
23653
23652
23645
23636
23622
23605
23598
23599
23588
23568
23564
23559
23560
23544
23535
23529
23521
23512
23501
23494
23486
23484
23468
23470
23452
23436
23428
23422
23416
23418
23408
23406
23384
23370
23376
23372
23362
23351
23344
23345
23336
23316
23304
23305
23306
23292
23281
23276
23271
23260
23268
23256
23246
23233
23234
23234
23231
23221
23206
23204
23204
23194
23182
23183
23185
23180
23168
23158
23148
23154
23153
23148
23136
23132
23136
23126
23130
23118
23118
23118
23112
23104
23090
23092
23096
23092
23078
23078
23076
23078
23074
23052
23068
23068
23064
23061
23047
23052
23056
23052
23044
23040
23036
23044
23030
23028
23026
23038
23032
23016
23023
23028
23028
23023
23021
23026
23030
23022
23022
23020
23012
23008
23020
23020
23016
23012
23009
23016
23028
23010
23018
23020
23030
23028
23021
23018
23023
23034
23028
23024
23030
23030
23022
23018
23012
23024
23022
23023
23026
23032
23032
23034
23028
23032
23036
23028
23036
23032
23040
23038
23040
23044
23041
23044
23040
23044
23050
23056
23046
23046
23054
23057
23052
23054
23062
23061
23056
23072
23069
23071
23060
23062
23070
23072
23068
23072
23080
23076
23076
23081
23092
23084
23088
23096
23104
23096
23105
23114
23109
23106
23108
23122
23116
23116
23117
23122
23128
23126
23128
23144
23143
23141
23152
23156
23152
23158
23166
23169
23161
23176
23176
23173
23182
23188
23190
23192
23205
23201
23203
23214
23221
23218
23221
23236
23239
23233
23244
23260
23260
23254
23258
23267
23260
23266
23277
23280
23271
23293
23290
23286
23300
23306
23312
23304
23309
23319
23330
23328
23319
23328
23340
23342
23348
23340
23342
23358
23348
23356
23362
23368
23366
23372
23376
23388
23380
23385
23398
23392
23400
23408
23404
23402
23404
23416
23413
23420
23441
23429
23434
23432
23444
23460
23440
23452
23464
23458
23464
23469
23477
23487
23474
23483
23492
23490
23485
23489
23494
23508
23510
23501
23505
23524
23520
23518
23530
23527
23525
23524
23540
23546
23528
23535
23538
23537
23536
23528
23529
23542
23538
23529
23544
23544
23542
23543
23548
23533
23558
23541
23548
23543
23545
23552
23552
23545
23552
23534
23544
23556
23540
23544
23548
23534
23552
23544
23548
23549
23544
23552
23553
23542
23551
23550
23544
23548
23549
23544
23540
23546
23545
23540
23546
23540
23552
23552
23546
23553
23544
23544
23558
23549
23543
23550
23544
23543
23544
23537
23540
23550
23536
23545
23548
23538
23544
23552
23554
23543
23542
23550
23544
23548
23543
23544
23544
23540
23536
23550
23545
23537
23532
23540
23547
23532
23541
23544
23537
23532
23526
23539
23541
23532
23532
23536
23537
23529
23530
23525
23534
23528
23525
23537
23524
23525
23536
23530
23524
23527
23536
23520
23530
23530
23532
23528
23533
23530
23525
23520
23528
23522
23524
23519
23524
23536
23532
23526
23520
23523
23526
23529
23530
23513
23525
23532
23529
23524
23516
23513
23518
23522
23530
23524
23518
23524
23524
23532
23524
23512
23520
23535
23528
23525
23514
23518
23522
23528
23516
23525
23526
23526
23520
23520
23521
23518
23528
23524
23524
23521
23529
23530
23534
23528
23524
23524
23521
23526
23524
23519
23526
23524
23518
23520
23532
23526
23519
23520
23532
23525
23524
23532
23532
23516
23520
23530
23524
23520
23528
23528
23520
23524
23522
23524
23510
23516
23517
23535
23516
23508
23516
23518
23516
23504
23516
23514
23512
23513
23512
23502
23508
23509
23500
23493
23492
23490
23493
23492
23493
23486
23494
23496
23497
23490
23492
23492
23500
23493
23485
23481
23488
23486
23492
23487
23496
23480
23478
23484
23492
23488
23489
23480
23478
23476
23484
23481
23461
23467
23473
23472
23479
23470
23476
23474
23479
23469
23471
23468
23473
23468
23461
23462
23486
23476
23460
23460
23471
23474
23468
23452
23461
23464
23480
23473
23473
23452
23461
23472
23470
23466
23460
23468
23472
23474
23468
23465
23466
23464
23464
23471
23468
23468
23470
23461
23468
23472
23468
23460
23468
23469
23466
23460
23468
23466
23455
23460
23468
23458
23456
23468
23458
23446
23457
23463
23456
23456
23464
23460
23460
23468
23470
23468
23454
23461
23472
23464
23460
23462
23458
23465
23455
23464
23467
23468
23457
23456
23467
23462
23456
23468
23470
23460
23458
23466
23462
23460
23460
23453
23460
23465
23460
23456
23460
23465
23449
23457
23466
23466
23453
23460
23468
23468
23452
23461
23464
23464
23444
23453
23457
23453
23452
23454
23446
23456
23455
23442
23454
23468
23452
23452
23460
23464
23460
23454
23463
23454
23446
23446
23454
23448
23448
23460
23462
23452
23460
23460
23454
23456
23452
23471
23468
23452
23456
23465
23460
23460
23460
23460
23464
23465
23461
23458
23466
23462
23467
23463
23464
23473
23474
23470
23479
23484
23476
23472
23472
23484
23472
23470
23484
23488
23472
23484
23490
23484
23474
23489
23494
23482
23493
23496
23487
23492
23504
23498
23485
23490
23494
23500
23494
23492
23500
23504
23500
23490
23490
23500
23502
23504
23498
23503
23508
23504
23496
23500
23512
23512
23505
23502
23509
23508
23500
23508
23511
23510
23506
23519
23521
23509
23512
23522
23516
23520
23520
23532
23530
23525
23528
23531
23524
23528
23537
23536
23524
23532
23541
23540
23537
23550
23552
23546
23555
23550
23548
23552
23560
23549
23544
23558
23564
23556
23554
23568
23568
23569
23573
23564
23565
23584
23581
23584
23580
23586
23589
23588
23580
23583
23594
23595
23587
23582
23589
23602
23592
23592
23597
23610
23602
23601
23614
23610
23612
23610
23614
23616
23621
23612
23624
23620
23620
23621
23622
23640
23634
23622
23636
23626
23631
23649
23650
23640
23654
23654
23652
23649
23660
23653
23660
23660
23668
23664
23663
23668
23677
23670
23670
23676
23685
23682
23680
23689
23692
23688
23692
23700
23704
23702
23697
23697
23702
23696
23694
23708
23700
23708
23716
23708
23707
23718
23728
23717
23716
23732
23720
23716
23726
23736
23724
23718
23730
23732
23720
23728
23734
23730
23724
23734
23742
23748
23741
23736
23733
23744
23754
23752
23746
23748
23757
23748
23742
23758
23761
23756
23760
23756
23754
23758
23776
23764
23760
23778
23780
23772
23768
23776
23788
23783
23775
23782
23790
23792
23783
23793
23800
23796
23797
23804
23809
23802
23796
23807
23817
23820
23815
23809
23810
23815
23814
23814
23804
23814
23824
23820
23817
23814
23824
23824
23828
23820
23823
23826
23834
23829
23828
23824
23828
23834
23832
23833
23824
23828
23836
23836
23832
23824
23836
23838
23833
23837
23840
23849
23842
23838
23841
23845
23846
23832
23829
23842
23841
23836
23838
23846
23848
23834
23840
23849
23848
23844
23850
23846
23855
23848
23848
23858
23857
23845
23860
23855
23852
23860
23854
23848
23853
23860
23858
23856
23857
23860
23856
23857
23854
23860
23863
23858
23848
23864
23862
23860
23855
23858
23860
23868
23864
23860
23859
23872
23870
23872
23864
23864
23864
23877
23870
23870
23873
23869
23872
23874
23876
23874
23864
23872
23876
23870
23872
23870
23888
23874
23888
23884
23881
23882
23887
23888
23884
23880
23884
23892
23886
23883
23891
23884
23889
23892
23882
23894
23892
23884
23900
23892
23893
23904
23900
23898
23903
23906
23900
23906
23908
23903
23903
23908
23905
23909
23908
23913
23916
23906
23916
23918
23912
23928
23920
23924
23920
23925
23925
23914
23936
23927
23916
23932
23934
23928
23932
23942
23940
23944
23944
23946
23954
23956
23944
23952
23952
23962
23969
23956
23970
23972
23965
23956
23964
23984
23973
23974
23976
23982
23994
23985
23985
23990
23993
23990
23997
23997
23990
24006
24006
24004
23996
24006
24012
24015
24012
24012
24018
24025
24021
24020
24016
24020
24020
24024
24037
24030
24030
24030
24040
24036
24038
24030
24032
24045
24052
24049
24042
24044
24053
24060
24056
24048
24056
24060
24068
24057
24058
24068
24069
24063
24063
24076
24076
24080
24072
24076
24099
24092
24084
24084
24094
24100
24100
24092
24097
24100
24106
24101
24095
24104
24106
24102
24112
24105
24117
24116
24132
24132
24128
24124
24124
24134
24144
24134
24132
24160
24153
24148
24149
24156
24165
24154
24161
24172
24176
24170
24172
24173
24184
24182
24179
24184
24199
24194
24196
24196
24198
24202
24208
24196
24204
24208
24220
24215
24215
24228
24226
24224
24225
24238
24242
24233
24240
24246
24254
24250
24252
24250
24260
24256
24260
24260
24256
24260
24274
24276
24274
24276
24288
24284
24294
24278
24286
24305
24296
24289
24297
24304
24298
24306
24298
24312
24324
24316
24316
24324
24326
24338
24321
24328
24342
24350
24352
24344
24354
24356
24351
24360
24368
24364
24360
24374
24384
24388
24374
24379
24386
24384
24390
24392
24401
24404
24405
24405
24406
24424
24423
24413
24420
24416
24424
24424
24425
24438
24434
24432
24438
24452
24452
24443
24456
24468
24457
24458
24471
24469
24463
24468
24484
24484
24478
24484
24488
24488
24494
24506
24504
24496
24501
24509
24516
24506
24516
24516
24532
24527
24520
24524
24528
24536
24541
24532
24542
24548
24545
24540
24552
24566
24557
24548
24564
24568
24566
24558
24568
24576
24577
24568
24576
24586
24570
24577
24590
24590
24592
24588
24592
24598
24598
24597
24596
24606
24612
24614
24604
24609
24618
24618
24612
24614
24628
24616
24616
24620
24633
24638
24622
24634
24634
24642
24628
24630
24648
24644
24640
24646
24654
24640
24646
24654
24657
24638
24649
24656
24660
24652
24664
24658
24656
24661
24674
24662
24662
24662
24676
24673
24664
24669
24679
24676
24665
24672
24686
24681
24679
24686
24682
24680
24692
24690
24686
24688
24694
24689
24692
24698
24688
24689
24704
24697
24688
24702
24711
24702
24696
24702
24720
24708
24714
24721
24717
24717
24732
24717
24713
24729
24724
24718
24720
24736
24736
24740
24728
24725
24744
24742
24741
24742
24749
24756
24742
24746
24756
24760
24752
24752
24760
24766
24758
24762
24767
24772
24766
24772
24778
24780
24774
24796
24794
24788
24794
24802
24800
24796
24800
24813
24812
24805
24814
24822
24818
24809
24816
24826
24830
24831
24832
24834
24843
24854
24846
24849
24857
24860
24860
24865
24874
24866
24868
24884
24884
24882
24892
24897
24899
24892
24912
24912
24916
24928
24932
24930
24928
24936
24935
24941
24952
24945
24950
24948
24960
24964
24968
24964
24966
24972
24984
24974
24982
24991
24992
24989
24992
24996
24988
25004
25004
25005
24998
24997
25002
25001
25016
25005
25008
25020
25008
24996
25010
25016
25014
25004
25014
25004
25004
25000
25000
25000
24996
24990
24992
24996
24977
24976
24976
24964
24950
24958
24954
24940
24932
24928
24924
24911
24900
24894
24884
24862
24852
24848
24833
24815
24809
24797
24781
24773
24758
24744
24722
24726
24709
24686
24663
24654
24638
24620
24604
24594
24572
24560
24528
24510
24502
24484
24461
24444
24433
24412
24397
24380
24364
24347
24325
24304
24286
24277
24254
24228
24218
24208
24188
24161
24150
24140
24118
24094
24090
24064
24044
24032
24024
23999
23973
23970
23956
23912
23908
23892
23882
23856
23846
23834
23818
23797
23783
23767
23738
23732
23728
23710
23684
23668
23667
23636
23625
23612
23608
23584
23568
23556
23550
23525
23515
23500
23493
23468
23460
23450
23432
23426
23406
23404
23389
23381
23368
23349
23344
23331
23321
23300
23300
23280
23268
23264
23262
23238
23236
23234
23217
23201
23193
23188
23184
23162
23160
23149
23124
23132
23128
23112
23100
23093
23092
23074
23072
23070
23063
23038
23038
23036
23023
23008
23016
23004
22996
22988
22986
22980
22964
22958
22967
22948
22938
22936
22934
22925
22932
22929
22916
22912
22901
22913
22900
22892
22886
22892
22882
22872
22864
22856
22864
22848
22853
22840
22838
22844
22847
22836
22825
22814
22820
22818
22810
22798
22794
22797
22792
22776
22768
22764
22774
22767
22752
22756
22756
22752
22744
22740
22736
22741
22721
22711
22724
22720
22710
22701
22700
22703
22686
22688
22688
22690
22668
22669
22674
22672
22656
22661
22670
22668
22656
22648
22644
22648
22647
22646
22644
22636
22634
22629
22636
22634
22624
22639
22625
22628
22634
22628
22625
22632
22628
22628
22621
22637
22632
22624
22632
22636
22634
22636
22640
22642
22638
22650
22652
22654
22660
22676
22672
22670
22680
22687
22687
22700
22694
22700
22704
22720
22720
22719
22730
22728
22738
22748
22756
22756
22764
22778
22786
22794
22794
22814
22818
22820
22824
22842
22851
22848
22863
22876
22872
22884
22900
22898
22916
22934
22940
22948
22961
22964
22973
22996
22997
23004
23031
23037
23028
23034
23048
23068
23071
23082
23096
23109
23117
23136
23144
23154
23164
23180
23192
23190
23204
23222
23231
23232
23245
23263
23266
23274
23298
23294
23316
23325
23328
23348
23360
23364
23376
23392
23396
23404
23426
23421
23432
23447
23454
23460
23461
23485
23488
23488
23504
23520
23516
23526
23542
23546
23551
23560
23572
23573
23586
23596
23600
23599
23610
23614
23633
23628
23632
23650
23650
23653
23664
23676
23676
23678
23698
23700
23696
23712
23720
23716
23722
23744
23742
23736
23746
23760
23748
23764
23770
23780
23772
23780
23792
23790
23793
23797
23804
23810
23804
23812
23820
23832
23834
23826
23830
23838
23846
23838
23844
23844
23862
23852
23861
23869
23861
23869
23872
23876
23872
23872
23876
23888
23876
23868
23884
23890
23872
23884
23882
23893
23882
23881
23898
23886
23878
23885
23892
23895
23878
23877
23887
23889
23878
23876
23881
23876
23864
23868
23868
23862
23863
23866
23860
23852
23848
23853
23842
23842
23834
23828
23838
23820
23814
23802
23792
23800
23796
23780
23788
23774
23762
23758
23764
23759
23736
23737
23736
23720
23708
23710
23700
23682
23680
23668
23676
23664
23649
23626
23633
23630
23617
23600
23596
23592
23578
23560
23556
23550
23536
23522
23509
23505
23490
23476
23468
23456
23447
23436
23416
23408
23400
23378
23364
23366
23344
23330
23316
23308
23292
23270
23260
23252
23224
23212
23204
23179
23158
23148
23133
23119
23100
23082
23070
23054
23032
23012
23008
22980
22963
22956
22925
22906
22886
22877
22850
22833
22820
22800
22774
22764
22740
22715
22702
22679
22656
22646
22623
22592
22578
22564
22532
22510
22498
22470
22444
22429
22415
22396
22372
22344
22321
22308
22280
22253
22245
22221
22192
22175
22160
22130
22100
22084
22068
22040
22016
21996
21968
21945
21932
21908
21876
21853
21844
21810
21785
21784
21748
21715
21700
21676
21656
21630
21604
21575
21568
21541
21508
21492
21474
21450
21416
21398
21380
21357
21328
21308
21281
21260
21243
21222
21188
21169
21148
21126
21108
21076
21047
21024
21005
20983
20965
20948
20912
20895
20881
20848
20837
20810
20788
20760
20748
20720
20696
20680
20657
20633
20608
20582
20572
20552
20527
20509
20496
20469
20449
20432
20407
20390
20380
20349
20324
20313
20296
20261
20247
20234
20210
20186
20178
20156
20132
20110
20100
20071
20059
20046
20016
20004
19980
19965
19946
19932
19913
19896
19872
19862
19848
19826
19800
19782
19772
19763
19749
19724
19712
19689
19686
19664
19646
19642
19628
19608
19592
19584
19564
19552
19532
19521
19521
19502
19482
19476
19473
19455
19444
19440
19422
19418
19410
19390
19384
19384
19372
19359
19344
19344
19340
19332
19314
19312
19308
19301
19296
19291
19292
19277
19268
19273
19268
19250
19252
19254
19246
19238
19234
19231
19222
19218
19224
19221
19209
19216
19220
19219
19212
19209
19216
19210
19210
19207
19210
19208
19220
19204
19205
19214
19217
19218
19216
19221
19216
19224
19230
19238
19238
19242
19250
19256
19249
19266
19268
19266
19274
19273
19281
19300
19305
19302
19312
19320
19332
19338
19346
19352
19356
19367
19384
19382
19392
19400
19420
19426
19428
19439
19454
19465
19471
19478
19497
19504
19515
19528
19549
19551
19572
19580
19596
19604
19626
19634
19644
19659
19672
19678
19690
19706
19724
19732
19748
19757
19770
19790
19812
19823
19844
19855
19874
19886
19902
19914
19940
19945
19960
19964
19989
20008
20022
20036
20048
20072
20094
20100
20116
20130
20157
20162
20183
20195
20210
20220
20239
20257
20280
20284
20294
20316
20328
20344
20353
20384
20382
20408
20425
20436
20452
20464
20481
20497
20514
20528
20544
20554
20574
20590
20598
20608
20617
20640
20656
20660
20670
20690
20709
20720
20732
20743
20761
20772
20776
20793
20812
20828
20826
20846
20862
20865
20866
20887
20896
20910
20920
20942
20944
20950
20972
20974
20992
20996
21009
21012
21020
21037
21043
21052
21062
21068
21082
21092
21092
21100
21118
21121
21124
21141
21148
21152
21149
21176
21184
21174
21179
21198
21196
21201
21209
21224
21223
21220
21231
21242
21254
21249
21260
21284
21277
21279
21288
21288
21288
21294
21314
21308
21314
21324
21324
21325
21324
21339
21341
21338
21353
21349
21352
21364
21374
21368
21374
21388
21384
21384
21396
21392
21397
21408
21406
21400
21408
21418
21404
21418
21431
21434
21430
21421
21437
21444
21436
21440
21446
21448
21444
21440
21446
21454
21452
21448
21453
21465
21457
21461
21452
21460
21468
21468
21471
21456
21465
21469
21468
21468
21468
21469
21457
21458
21464
21463
21452
21455
21460
21460
21461
21448
21452
21458
21458
21452
21446
21448
21454
21444
21438
21440
21446
21442
21421
21422
21434
21436
21413
21426
21424
21426
21416
21410
21416
21414
21406
21408
21407
21408
21402
21399
21402
21396
21386
21392
21387
21380
21381
21386
21380
21373
21374
21376
21374
21358
21359
21364
21370
21350
21357
21356
21345
21344
21352
21346
21342
21345
21340
21332
21340
21341
21325
21337
21328
21324
21329
21330
21324
21326
21320
21321
21316
21314
21316
21313
21314
21316
21312
21300
21305
21313
21308
21304
21317
21310
21298
21304
21304
21300
21296
21306
21300
21290
21290
21304
21297
21292
21292
21301
21296
21297
21289
21286
21298
21296
21296
21288
21288
21292
21300
21292
21290
21294
21295
21292
21285
21287
21293
21292
21287
21294
21298
21294
21292
21302
21308
21294
21296
21298
21302
21298
21297
21298
21300
21304
21302
21304
21316
21294
21297
21316
21312
21308
21314
21316
21324
21316
21324
21326
21314
21318
21328
21332
21322
21328
21336
21337
21330
21344
21346
21334
21353
21356
21366
21352
21358
21372
21374
21364
21367
21372
21384
21383
21376
21380
21396
21398
21392
21392
21412
21408
21413
21416
21418
21433
21436
21429
21430
21438
21444
21452
21448
21452
21460
21464
21456
21474
21476
21480
21484
21492
21492
21493
21502
21510
21508
21525
21530
21516
21530
21541
21538
21542
21553
21548
21550
21560
21568
21561
21564
21584
21583
21581
21592
21590
21596
21606
21612
21604
21608
21620
21618
21620
21632
21632
21631
21636
21638
21647
21658
21656
21659
21669
21668
21668
21678
21678
21682
21690
21708
21692
21692
21702
21712
21712
21720
21724
21712
21725
21741
21736
21745
21751
21752
21757
21768
21768
21766
21785
21780
21788
21788
21792
21804
21804
21796
21810
21813
21817
21824
21828
21840
21836
21836
21856
21844
21849
21857
21860
21852
21870
21872
21864
21865
21878
21870
21873
21889
21886
21881
21890
21900
21901
21896
21916
21905
21906
21924
21908
21908
21920
21917
21917
21914
21927
21923
21917
21921
21929
21924
21933
21925
21940
21935
21928
21934
21942
21943
21937
21948
21942
21942
21941
21952
21948
21942
21948
21958
21954
21952
21957
21960
21956
21956
21968
21960
21962
21960
21972
21964
21968
21977
21968
21969
21976
21980
21984
21976
21974
21990
21988
21980
21992
21991
21988
21989
21990
22002
21997
21996
22000
22006
22001
21994
21997
22008
22005
22000
22007
22020
22020
22016
22018
22015
22033
22036
22024
22022
22025
22044
22045
22044
22041
22044
22039
22048
22048
22042
22056
22058
22057
22052
22063
22060
22068
22064
22068
22064
22065
22076
22077
22078
22078
22082
22089
22090
22086
22090
22098
22103
22100
22102
22105
22115
22118
22116
22112
22124
22133
22136
22124
22128
22144
22149
22155
22148
22144
22154
22157
22173
22173
22170
22182
22193
22188
22190
22200
22198
22198
22222
22212
22222
22232
22228
22242
22248
22244
22252
22263
22260
22272
22274
22272
22292
22301
22300
22316
22322
22314
22325
22333
22336
22338
22352
22350
22349
22372
22376
22380
22380
22392
22402
22408
22414
22413
22421
22436
22444
22452
22448
22464
22468
22466
22476
22480
22486
22505
22498
22511
22518
22530
22528
22532
22550
22564
22554
22574
22572
22586
22586
22598
22604
22609
22618
22615
22620
22625
22646
22648
22650
22656
22673
22672
22680
22692
22697
22694
22709
22718
22722
22727
22738
22742
22740
22752
22768
22769
22767
22783
22784
22788
22800
22814
22818
22821
22828
22831
22852
22856
22848
22856
22868
22880
22888
22892
22897
22897
22900
22914
22924
22933
22928
22938
22948
22956
22965
22961
22966
22976
22977
22990
22997
22989
22999
23016
23016
23022
23028
23040
23047
23046
23056
23074
23072
23076
23087
23088
23098
23093
23107
23120
23118
23120
23124
23138
23151
23148
23142
23152
23165
23176
23180
23180
23188
23204
23211
23216
23208
23224
23231
23232
23253
23245
23250
23252
23266
23260
23270
23284
23288
23287
23288
23301
23313
23322
23324
23332
23340
23340
23344
23348
23356
23360
23360
23374
23372
23375
23388
23384
23395
23409
23400
23412
23437
23425
23427
23446
23449
23448
23448
23462
23466
23460
23473
23482
23482
23488
23496
23493
23504
23512
23528
23524
23520
23534
23548
23544
23542
23556
23569
23566
23564
23572
23584
23584
23584
23598
23612
23609
23608
23616
23630
23636
23628
23641
23655
23652
23662
23656
23664
23681
23681
23684
23693
23696
23700
23713
23717
23714
23720
23732
23744
23744
23748
23764
23770
23768
23774
23788
23798
23785
23802
23804
23806
23812
23824
23836
23836
23834
23854
23856
23850
23868
23878
23872
23884
23894
23904
23900
23910
23920
23913
23926
23924
23941
23940
23940
23954
23972
23964
23970
23978
23984
23985
23994
24006
24000
24008
24020
24021
24024
24032
24039
24040
24037
24052
24064
24066
24056
24068
24087
24082
24079
24094
24105
24108
24103
24114
24125
24129
24122
24130
24144
24144
24138
24150
24164
24153
24165
24173
24176
24174
24192
24192
24204
24204
24202
24207
24224
24216
24220
24228
24236
24232
24248
24252
24246
24256
24263
24260
24272
24268
24276
24292
24294
24289
24306
24302
24300
24316
24318
24316
24334
24330
24332
24336
24348
24352
24344
24368
24364
24362
24386
24384
24380
24398
24400
24396
24414
24410
24412
24433
24432
24428
24449
24452
24448
24462
24464
24462
24478
24485
24497
24498
24502
24512
24514
24518
24532
24542
24534
24544
24558
24553
24557
24568
24574
24575
24600
24600
24600
24610
24628
24624
24628
24646
24660
24656
24654
24678
24674
24672
24690
24690
24688
24708
24712
24713
24724
24732
24736
24740
24752
24748
24758
24768
24778
24772
24788
24801
24790
24801
24813
24809
24818
24830
24818
24838
24845
24844
24860
24868
24862
24876
24892
24888
24890
24917
24910
24910
24922
24929
24932
24944
24943
24945
24952
24964
24974
24980
24982
24994
25004
25004
25002
25014
25024
25037
25030
25032
25056
25056
25052
25060
25074
25076
25072
25080
25092
25098
25100
25112
25116
25118
25124
25124
25143
25139
25140
25148
25162
25156
25152
25172
25173
25167
25176
25189
25184
25183
25198
25194
25196
25192
25210
25212
25213
25225
25220
25218
25225
25244
25236
25225
25236
25244
25252
25252
25250
25263
25264
25278
25274
25275
25276
25284
25301
25290
25297
25303
25312
25310
25316
25320
25316
25321
25342
25332
25333
25348
25357
25361
25354
25364
25377
25378
25372
25390
25406
25390
25396
25402
25410
25412
25416
25424
25430
25438
25424
25440
25452
25456
25446
25462
25476
25466
25476
25492
25486
25489
25509
25496
25508
25515
25512
25512
25526
25534
25542
25538
25544
25548
25559
25568
25562
25569
25578
25585
25573
25580
25590
25606
25604
25598
25604
25622
25622
25624
25636
25636
25640
25644
25658
25660
25658
25662
25680
25670
25676
25692
25696
25689
25692
25700
25710
25712
25710
25720
25736
25736
25732
25739
25760
25752
25752
25766
25776
25772
25776
25792
25789
25780
25796
25806
25794
25814
25824
25816
25827
25836
25832
25842
25846
25860
25860
25860
25876
25872
25879
25884
25899
25900
25888
25902
25912
25912
25920
25925
25928
25945
25946
25944
25950
25959
25965
25961
25986
25980
25980
25992
25996
25991
26001
26008
25999
26012
26024
26023
26030
26040
26032
26045
26052
26052
26064
26069
26067
26071
26076
26090
26080
26085
26097
26100
26106
26108
26118
26124
26120
26118
26129
26142
26138
26148
26149
26156
26164
26162
26165
26188
26174
26176
26187
26200
26200
26198
26200
26212
26221
26214
26214
26237
26237
26234
26242
26256
26255
26246
26264
26265
26262
26280
26276
26278
26284
26292
26294
26289
26300
26302
26304
26310
26319
26323
26316
26318
26338
26328
26336
26348
26340
26342
26354
26350
26356
26364
26364
26362
26376
26384
26364
26384
26392
26380
26388
26400
26412
26404
26404
26405
26418
26424
26412
26417
26424
26436
26436
26432
26434
26450
26436
26454
26465
26448
26467
26471
26473
26464
26464
26486
26488
26484
26502
26489
26492
26504
26516
26513
26512
26532
26521
26518
26525
26540
26532
26544
26551
26545
26546
26564
26560
26551
26570
26576
26575
26570
26580
26580
26580
26596
26592
26592
26600
26607
26601
26606
26617
26612
26608
26620
26621
26620
26626
26629
26626
26644
26638
26636
26650
26653
26652
26649
26658
26658
26662
26660
26676
26673
26668
26677
26688
26686
26684
26692
26695
26696
26700
26704
26704
26708
26704
26724
26720
26708
26724
26735
26732
26724
26734
26746
26734
26737
26744
26748
26756
26758
26748
26752
26759
26770
26766
26776
26781
26780
26780
26781
26790
26804
26796
26796
26804
26799
26816
26804
26802
26816
26816
26818
26822
26829
26825
26834
26845
26836
26844
26853
26852
26846
26860
26856
26853
26870
26864
26863
26874
26875
26870
26872
26887
26884
26889
26896
26898
26892
26904
26916
26916
26916
26908
26920
26932
26934
26918
26932
26935
26931
26935
26936
26936
26952
26954
26952
26957
26968
26960
26956
26978
26972
26970
26980
26994
26991
26984
26992
26991
26992
27001
26989
27004
27014
27012
27009
27024
27016
27014
27024
27029
27028
27024
27032
27038
27029
27035
27044
27044
27038
27055
27054
27055
27052
27070
27072
27070
27080
27081
27074
27088
27076
27088
27092
27088
27101
27086
27093
27100
27086
27104
27104
27108
27121
27104
27112
27127
27124
27124
27136
27144
27136
27137
27150
27160
27150
27154
27150
27165
27164
27160
27172
27177
27174
27182
27192
27180
27184
27204
27205
27196
27214
27216
27212
27218
27228
27216
27224
27230
27238
27237
27236
27244
27241
27244
27252
27262
27258
27272
27271
27268
27269
27280
27281
27272
27288
27288
27285
27292
27296
27296
27288
27296
27304
27311
27302
27312
27319
27316
27316
27326
27322
27329
27332
27332
27344
27332
27336
27338
27348
27340
27350
27340
27348
27358
27354
27360
27360
27362
27372
27360
27364
27369
27368
27362
27374
27374
27364
27368
27382
27378
27376
27388
27376
27382
27388
27380
27388
27390
27380
27389
27388
27380
27384
27384
27377
27388
27380
27380
27384
27378
27374
27390
27382
27368
27378
27380
27380
27384
27372
27370
27372
27372
27368
27373
27364
27363
27362
27364
27343
27356
27352
27350
27357
27352
27352
27354
27356
27350
27343
27352
27344
27342
27340
27336
27322
27334
27325
27332
27328
27326
27320
27314
27321
27322
27310
27316
27318
27310
27316
27316
27303
27301
27304
27304
27298
27300
27300
27281
27288
27300
27291
27282
27292
27279
27280
27287
27289
27280
27278
27278
27276
27264
27279
27268
27265
27272
27267
27262
27268
27260
27248
27260
27268
27256
27246
27262
27254
27247
27252
27252
27237
27246
27242
27232
27236
27236
27228
27236
27233
27225
27236
27217
27216
27216
27221
27212
27221
27221
27202
27215
27216
27193
27206
27194
27188
27193
27188
27186
27180
27180
27172
27182
27168
27162
27172
27156
27157
27173
27146
27148
27148
27146
27130
27140
27125
27126
27128
27113
27122
27110
27100
27102
27106
27096
27096
27092
27084
27088
27088
27077
27080
27076
27073
27066
27063
27054
27052
27050
27048
27044
27044
27030
27032
27040
27016
27028
27016
27008
27024
27013
27008
27001
27010
26997
26993
26991
26982
26984
26976
26980
26968
26976
26976
26956
26960
26964
26954
26956
26948
26956
26951
26936
26936
26932
26921
26920
26918
26919
26913
26909
26906
26902
26904
26892
26890
26888
26888
26869
26876
26872
26872
26876
26860
26848
26845
26841
26848
26844
26832
26821
26828
26822
26810
26809
26820
26810
26808
26792
26796
26788
26784
26784
26784
26782
26766
26760
26767
26761
26745
26744
26744
26754
26726
26737
26740
26724
26721
26723
26732
26706
26710
26710
26694
26690
26690
26684
26684
26678
26670
26668
26652
26648
26660
26640
26650
26646
26638
26644
26636
26628
26622
26628
26608
26613
26604
26596
26606
26595
26587
26596
26576
26586
26582
26568
26580
26570
26560
26564
26560
26548
26562
26553
26532
26537
26541
26532
26528
26516
26516
26525
26516
26505
26505
26500
26489
26489
26501
26492
26481
26492
26480
26476
26474
26466
26449
26468
26453
26437
26441
26445
26430
26439
26425
26416
26416
26412
26406
26410
26398
26412
26395
26382
26377
26384
26376
26375
26368
26354
26352
26353
26345
26340
26336
26340
26332
26330
26328
26317
26312
26308
26313
26311
26296
26286
26298
26285
26274
26280
26281
26280
26264
26268
26270
26257
26252
26258
26252
26244
26244
26244
26246
26226
26229
26234
26220
26212
26212
26224
26204
26208
26204
26196
26189
26200
26188
26186
26184
26180
26189
26178
26178
26177
26166
26160
26172
26154
26152
26148
26152
26138
26140
26144
26126
26134
26141
26126
26124
26127
26122
26110
26120
26112
26100
26105
26100
26095
26087
26100
26089
26080
26088
26085
26076
26080
26083
26074
26066
26068
26073
26052
26064
26060
26056
26052
26054
26060
26049
26034
26052
26048
26032
26024
26036
26034
26039
26026
26028
26030
26022
26024
26032
26016
26005
26012
26010
26000
26004
26001
25998
25987
25996
25994
25988
25980
25990
25989
25988
25978
25977
25970
25970
25966
25972
25956
25958
25961
25946
25956
25954
25940
25944
25946
25940
25936
25941
25936
25932
25936
25927
25934
25928
25924
25916
25924
25914
25910
25913
25912
25898
25912
25909
25896
25905
25900
25896
25897
25896
25896
25881
25882
25888
25874
25876
25884
25869
25872
25876
25864
25854
25860
25849
25854
25860
25838
25860
25850
25836
25848
25836
25829
25834
25829
25830
25822
25824
25826
25816
25805
25808
25808
25803
25796
25796
25797
25792
25786
25794
25784
25781
25782
25773
25774
25766
25761
25758
25764
25749
25748
25752
25752
25735
25737
25742
25724
25732
25728
25725
25720
25732
25724
25718
25724
25712
25712
25708
25712
25704
25696
25711
25703
25696
25700
25700
25694
25696
25700
25696
25692
25696
25702
25678
25680
25698
25684
25678
25682
25688
25680
25676
25673
25680
25680
25682
25681
25679
25678
25672
25676
25676
25674
25670
25660
25668
25668
25654
25650
25661
25656
25636
25646
25648
25640
25638
25636
25636
25629
25636
25629
25620
25624
25628
25628
25616
25620
25620
25622
25606
25602
25606
25608
25600
25593
25594
25599
25597
25596
25588
25590
25598
25593
25572
25588
25588
25582
25572
25579
25572
25572
25578
25578
25567
25570
25572
25572
25553
25564
25562
25556
25556
25564
25554
25552
25556
25552
25540
25546
25552
25551
25550
25536
25540
25556
25544
25540
25536
25537
25544
25532
25530
25525
25540
25530
25533
25520
25522
25524
25530
25524
25516
25510
25520
25519
25518
25504
25510
25520
25521
25504
25508
25516
25508
25505
25505
25514
25501
25501
25502
25498
25502
25496
25497
25500
25494
25500
25504
25504
25494
25508
25508
25499
25500
25506
25502
25492
25501
25508
25484
25495
25496
25494
25500
25504
25502
25496
25502
25508
25501
25508
25500
25508
25508
25492
25514
25506
25498
25496
25504
25504
25492
25508
25512
25506
25503
25496
25506
25516
25498
25506
25520
25506
25500
25506
25505
25506
25498
25508
25505
25494
25502
25512
25500
25501
25508
25508
25496
25500
25508
25508
25502
25505
25512
25509
25498
25501
25501
25505
25495
25494
25508
25498
25490
25495
25508
25500
25489
25494
25502
25492
25494
25497
25492
25492
25486
25492
25500
25488
25476
25490
25490
25476
25466
25476
25472
25482
25476
25476
25476
25480
25476
25468
25466
25477
25464
25462
25465
25471
25462
25458
25464
25468
25455
25456
25468
25466
25452
25452
25460
25454
25460
25455
25465
25456
25452
25454
25454
25448
25452
25457
25444
25440
25452
25444
25440
25450
25449
25438
25446
25452
25444
25432
25444
25444
25436
25444
25440
25425
25429
25433
25432
25416
25421
25430
25428
25422
25420
25424
25426
25420
25420
25430
25412
25416
25420
25412
25415
25418
25412
25404
25412
25413
25410
25404
25414
25410
25413
25403
25410
25406
25416
25404
25404
25410
25410
25404
25400
25404
25406
25400
25396
25396
25396
25408
25397
25392
25397
25398
25396
25392
25402
25394
25389
25396
25396
25393
25388
25393
25388
25391
25384
25388
25380
25374
25381
25388
25380
25376
25381
25376
25372
25380
25380
25368
25370
25368
25372
25367
25370
25368
25361
25366
25356
25368
25370
25353
25356
25358
25360
25360
25354
25356
25360
25348
25360
25360
25353
25348
25346
25348
25352
25336
25344
25348
25336
25340
25362
25348
25340
25340
25348
25341
25328
25334
25342
25334
25324
25336
25328
25328
25330
25326
25333
25340
25320
25332
25326
25317
25321
25332
25323
25322
25320
25324
25327
25310
25320
25322
25312
25316
25321
25318
25304
25312
25321
25324
25311
25318
25320
25317
25308
25312
25318
25318
25309
25304
25304
25315
25308
25308
25312
25312
25314
25302
25305
25320
25302
25306
25308
25312
25316
25311
25308
25312
25316
25310
25305
25311
25308
25302
25308
25304
25297
25302
25308
25308
25302
25300
25308
25308
25310
25308
25312
25309
25308
25300
25301
25300
25300
25304
25303
25312
25308
25296
25298
25304
25316
25308
25309
25310
25300
25293
25300
25304
25302
25300
25292
25298
25292
25302
25304
25296
25300
25284
25289
25286
25292
25290
25290
25284
25280
25296
25280
25271
25276
25280
25280
25277
25274
25260
25256
25268
25262
25252
25252
25256
25261
25254
25237
25252
25252
25252
25228
25238
25244
25232
25228
25238
25220
25214
25218
25220
25209
25200
25202
25204
25208
25199
25197
25204
25196
25192
25202
25185
25186
25181
25185
25180
25176
25156
25166
25180
25172
25163
25162
25173
25156
25156
25164
25160
25152
25151
25154
25160
25141
25148
25155
25142
25127
25134
25141
25135
25118
25123
25126
25122
25116
25128
25124
25118
25104
25108
25107
25111
25104
25094
25095
25088
25106
25092
25088
25084
25092
25084
25074
25071
25082
25070
25070
25080
25068
25068
25072
25064
25062
25060
25060
25050
25048
25056
25048
25038
25038
25045
25044
25038
25047
25038
25031
25028
25036
25036
25033
25026
25033
25030
25016
25024
25029
25017
25021
25020
25024
25020
25026
25018
25020
25017
25013
25014
25006
25021
25004
25018
25013
24998
25011
25008
25002
24993
24994
25005
24988
24986
24997
24996
24984
24974
24981
24982
24982
24964
24966
24969
24964
24960
24956
24954
24934
24936
24946
24932
24924
24921
24930
24926
24922
24910
24912
24917
24909
24903
24898
24898
24894
24892
24881
24874
24880
24870
24874
24862
24864
24868
24867
24854
24856
24854
24849
24840
24848
24846
24838
24836
24838
24831
24833
24816
24820
24828
24820
24809
24820
24809
24807
24814
24813
24802
24812
24808
24804
24801
24813
24800
24800
24807
24802
24794
24790
24796
24796
24787
24800
24800
24786
24798
24804
24796
24796
24790
24802
24792
24776
24796
24796
24798
24782
24796
24787
24786
24780
24794
24796
24784
24789
24790
24776
24784
24792
24782
24779
24785
24794
24782
24776
24782
24782
24774
24776
24786
24780
24784
24768
24784
24788
24772
24772
24780
24785
24788
24780
24772
24778
24786
24778
24772
24788
24788
24783
24780
24786
24785
24776
24776
24788
24784
24780
24785
24788
24786
24782
24788
24794
24780
24784
24790
24788
24784
24788
24792
24775
24788
24794
24790
24791
24792
24798
24794
24792
24792
24794
24804
24804
24792
24796
24792
24803
24796
24792
24798
24799
24798
24794
24798
24808
24810
24796
24798
24802
24804
24802
24804
24807
24805
24801
24805
24814
24804
24800
24804
24804
24798
24804
24804
24801
24802
24808
24804
24798
24804
24809
24796
24799
24807
24812
24799
24796
24794
24799
24792
24796
24796
24797
24791
24788
24793
24796
24788
24785
24792
24796
24786
24784
24799
24796
24785
24782
24796
24794
24778
24776
24788
24784
24774
24780
24791
24788
24777
24774
24776
24785
24780
24776
24777
24776
24773
24770
24760
24772
24772
24756
24772
24770
24761
24764
24772
24764
24761
24750
24764
24762
24768
24758
24752
24755
24756
24759
24746
24746
24749
24752
24748
24740
24737
24742
24748
24745
24733
24745
24745
24733
24734
24737
24744
24726
24729
24734
24731
24724
24726
24729
24728
24722
24724
24724
24734
24730
24728
24730
24735
24730
24720
24724
24730
24726
24714
24716
24718
24712
24708
24704
24716
24708
24702
24716
24718
24709
24714
24716
24710
24703
24710
24720
24716
24700
24712
24718
24702
24696
24713
24705
24703
24702
24705
24708
24700
24704
24710
24704
24700
24693
24704
24711
24702
24696
24709
24708
24704
24693
24698
24700
24694
24700
24698
24708
24702
24698
24701
24704
24708
24702
24692
24694
24706
24698
24700
24694
24702
24690
24686
24692
24704
24690
24690
24693
24692
24689
24682
24692
24704
24699
24692
24686
24696
24692
24689
24678
24681
24695
24688
24678
24684
24696
24686
24685
24680
24688
24700
24684
24680
24686
24700
24690
24686
24684
24693
24692
24687
24680
24679
24686
24689
24686
24696
24692
24678
24685
24689
24692
24680
24693
24693
24680
24688
24704
24696
24690
24690
24696
24685
24690
24700
24688
24693
24697
24705
24704
24697
24706
24710
24704
24700
24702
24710
24702
24708
24713
24706
24705
24716
24711
24708
24708
24711
24716
24716
24714
24725
24720
24720
24716
24732
24720
24712
24720
24732
24730
24719
24718
24726
24726
24728
24730
24726
24724
24736
24741
24733
24728
24729
24736
24734
24732
24725
24738
24740
24736
24732
24741
24730
24728
24724
24740
24740
24740
24732
24738
24744
24738
24727
24738
24740
24740
24740
24727
24736
24735
24738
24739
24727
24726
24736
24734
24724
24719
24730
24730
24724
24728
24730
24728
24719
24724
24732
24736
24724
24721
24721
24722
24720
24721
24732
24732
24724
24717
24718
24724
24732
24734
24736
24734
24724
24726
24734
24732
24736
24726
24722
24729
24732
24732
24727
24727
24736
24726
24728
24732
24734
24740
24737
24730
24738
24744
24742
24740
24740
24746
24748
24743
24748
24744
24742
24756
24744
24752
24756
24752
24752
24756
24756
24764
24753
24768
24760
24758
24776
24768
24752
24764
24768
24772
24765
24772
24776
24773
24772
24776
24774
24786
24789
24775
24794
24785
24792
24796
24785
24796
24800
24804
24808
24797
24809
24809
24814
24819
24808
24824
24821
24816
24822
24824
24832
24833
24827
24838
24838
24832
24842
24848
24836
24852
24844
24852
24862
24857
24863
24866
24861
24868
24870
24873
24868
24881
24872
24886
24872
24882
24881
24884
24882
24890
24884
24896
24892
24906
24900
24897
24904
24892
24902
24906
24900
24910
24916
24900
24910
24916
24910
24917
24908
24908
24920
24916
24908
24924
24921
24925
24928
24924
24921
24933
24926
24924
24927
24935
24924
24930
24932
24928
24929
24936
24928
24932
24944
24926
24941
24952
24940
24948
24954
24944
24949
24940
24948
24954
24948
24956
24950
24946
24958
24952
24962
24961
24956
24969
24953
24962
24964
24972
24967
24974
24966
24980
24974
24973
24973
24981
24981
24966
24983
24976
24989
24984
24985
24985
24988
24996
24997
24989
24991
25000
24996
24991
24992
25004
25004
24992
25000
25008
24996
24996
25002
25003
24996
24998
25009
25004
25008
25020
25012
25004
25015
25020
25012
25017
25022
25022
25016
25016
25022
25024
25008
25016
25028
25034
25028
25027
25028
25034
25030
25033
25041
25040
25032
25032
25044
25044
25042
25042
25050
25044
25044
25048
25053
25057
25052
25058
25068
25063
25057
25071
25076
25078
25068
25077
25076
25078
25082
25088
25089
25079
25084
25088
25100
25096
25097
25096
25102
25116
25117
25115
25123
25126
25126
25118
25132
25127
25136
25142
25128
25135
25138
25156
25154
25150
25144
25151
25156
25159
25168
25176
25173
25172
25182
25180
25188
25191
25196
25202
25208
25192
25196
25204
25208
25223
25220
25222
25216
25229
25240
25234
25232
25245
25245
25238
25249
25254
25260
25258
25260
25255
25262
25262
25260
25268
25280
25280
25273
25280
25292
25292
25284
25293
25301
25305
25308
25302
25309
25314
25312
25321
25320
25317
25326
25341
25332
25336
25329
25344
25350
25356
25354
25368
25360
25356
25353
25364
25368
25368
25370
25368
25374
25382
25380
25380
25382
25389
25394
25404
25401
25399
25408
25410
25412
25409
25409
25416
25423
25428
25420
25422
25436
25430
25434
25437
25444
25450
25460
25461
25462
25464
25472
25476
25468
25473
25476
25476
25492
25492
25480
25494
25501
25502
25514
25514
25522
25521
25516
25524
25538
25532
25541
25545
25548
25548
25540
25556
25564
25564
25564
25562
25570
25581
25580
25583
25586
25600
25601
25597
25604
25624
25622
25612
25614
25624
25629
25626
25645
25645
25640
25643
25660
25652
25660
25660
25664
25680
25684
25678
25689
25696
25700
25692
25704
25709
25712
25713
25712
25722
25730
25732
25730
25732
25744
25752
25758
25757
25750
25760
25770
25772
25786
25776
25784
25802
25794
25796
25796
25804
25818
25816
25816
25824
25834
25834
25830
25832
25850
25862
25856
25861
25865
25872
25876
25884
25880
25884
25884
25898
25893
25904
25912
25918
25909
25916
25932
25940
25937
25940
25951
25956
25960
25956
25964
25972
25977
25982
25980
25988
26000
25996
26000
26007
26020
26021
26024
26022
26036
26044
26049
26048
26050
26054
26072
26073
26076
26071
26088
26089
26100
26103
26096
26104
26120
26126
26128
26124
26142
26144
26138
26144
26158
26164
26166
26160
26165
26178
26186
26188
26185
26192
26201
26209
26208
26204
26220
26226
26236
26232
26238
26242
26257
26250
26256
26256
26268
26280
26271
26272
26284
26284
26284
26290
26296
26304
26302
26304
26306
26324
26320
26320
26328
26328
26340
26334
26338
26336
26344
26344
26350
26342
26350
26362
26369
26367
26365
26370
26380
26376
26376
26389
26392
26400
26396
26394
26397
26410
26414
26412
26404
26415
26416
26434
26424
26426
26425
26431
26435
26448
26448
26436
26453
26450
26448
26456
26468
26469
26456
26464
26482
26474
26472
26486
26492
26490
26485
26497
26502
26500
26498
26524
26518
26512
26519
26524
26524
26524
26532
26534
26542
26531
26544
26550
26558
26562
26562
26556
26566
26572
26580
26588
26594
26578
26592
26597
26596
26596
26603
26607
26618
26612
26614
26614
26628
26632
26637
26632
26640
26642
26644
26660
26652
26654
26662
26668
26652
26664
26668
26676
26660
26668
26680
26680
26674
26684
26684
26696
26693
26688
26697
26704
26702
26700
26708
26707
26720
26714
26710
26718
26724
26724
26725
26720
26726
26730
26738
26720
26734
26744
26750
26736
26748
26748
26758
26756
26753
26762
26776
26766
26773
26768
26776
26792
26788
26785
26789
26795
26812
26812
26806
26820
26832
26836
26834
26822
26832
26845
26846
26838
26847
26863
26856
26860
26864
26878
26876
26880
26888
26890
26897
26890
26906
26900
26898
26910
26908
26912
26908
26914
26916
26930
26916
26924
26926
26940
26930
26935
26948
26943
26945
26952
26958
26948
26962
26958
26950
26952
26964
26956
26956
26964
26970
26969
26959
26968
26982
26972
26964
26980
26981
26982
26977
26988
26990
26988
26993
27001
26984
26984
27002
26999
26990
27004
27002
27003
27012
27013
27016
27004
27025
27029
27022
27020
27030
27032
27020
27034
27040
27032
27036
27046
27037
27040
27048
27056
27052
27054
27062
27076
27056
27074
27074
27070
27080
27082
27082
27085
27082
27092
27086
27096
27108
27100
27096
27109
27116
27110
27118
27124
27125
27134
27137
27148
27140
27140
27138
27156
27148
27153
27160
27164
27164
27164
27180
27178
27183
27184
27188
27180
27200
27200
27196
27202
27216
27216
27214
27220
27226
27216
27232
27239
27242
27236
27256
27249
27249
27264
27268
27268
27274
27278
27279
27292
27296
27300
27310
27302
27313
27312
27308
27330
27332
27336
27348
27348
27348
27349
27361
27367
27368
27372
27388
27388
27386
27394
27402
27414
27408
27420
27421
27425
27428
27438
27432
27439
27452
27458
27463
27460
27469
27480
27466
27488
27484
27495
27492
27492
27508
27508
27512
27500
27518
27528
27520
27526
27528
27545
27545
27542
27544
27552
27564
27562
27564
27568
27580
27584
27584
27578
27592
27596
27593
27593
27608
27610
27600
27613
27624
27622
27622
27644
27641
27648
27640
27650
27652
27656
27653
27656
27664
27666
27661
27676
27680
27689
27679
27688
27700
27700
27695
27700
27712
27719
27708
27717
27733
27727
27717
27736
27737
27730
27736
27752
27748
27746
27756
27759
27758
27764
27778
27780
27770
27784
27790
27793
27786
27788
27796
27804
27812
27806
27804
27816
27820
27828
27824
27821
27830
27842
27844
27844
27848
27848
27847
27849
27865
27862
27856
27872
27878
27872
27866
27876
27890
27885
27892
27894
27909
27903
27904
27932
27928
27920
27927
27938
27936
27924
27949
27948
27938
27960
27964
27960
27972
27968
27975
27974
27980
27984
27988
28000
28000
28000
27998
28003
28006
28024
28016
28014
28008
28025
28039
28036
28032
28040
28041
28054
28064
28052
28055
28070
28070
28072
28053
28066
28080
28084
28084
28084
28078
28088
28095
28100
28107
28104
28106
28108
28123
28122
28128
28130
28132
28136
28135
28140
28142
28146
28137
28140
28156
28164
28156
28158
28165
28164
28182
28175
28185
28180
28196
28199
28196
28190
28205
28218
28212
28212
28208
28222
28221
28217
28217
28222
28248
28231
28240
28236
28252
28258
28249
28253
28256
28255
28264
28269
28278
28280
28284
28277
28278
28284
28298
28297
28294
28293
28304
28310
28318
28321
28317
28324
28326
28328
28332
28336
28340
28338
28340
28350
28345
28358
28365
28365
28358
28372
28373
28388
28384
28388
28388
28396
28398
28408
28414
28418
28418
28421
28418
28420
28428
28436
28441
28444
28444
28452
28446
28452
28468
28472
28473
28472
28480
28492
28495
28492
28492
28494
28494
28506
28508
28508
28512
28514
28518
28510
28525
28533
28532
28540
28548
28541
28548
28540
28544
28548
28564
28560
28560
28549
28548
28554
28570
28565
28568
28568
28568
28568
28576
28585
28581
28580
28574
28585
28584
28585
28582
28588
28580
28580
28583
28576
28582
28580
28588
28594
28590
28582
28588
28590
28608
28596
28604
28590
28590
28594
28596
28602
28600
28588
28590
28596
28600
28608
28610
28600
28604
28602
28604
28608
28604
28608
28604
28604
28606
28600
28610
28610
28600
28600
28604
28612
28608
28600
28604
28601
28612
28610
28612
28604
28604
28608
28608
28612
28610
28600
28600
28600
28614
28610
28606
28600
28604
28592
28604
28599
28600
28596
28586
28599
28604
28601
28606
28606
28588
28590
28598
28592
28598
28591
28586
28580
28580
28586
28580
28588
28588
28580
28578
28581
28588
28573
28568
28578
28580
28572
28573
28576
28576
28566
28564
28564
28570
28566
28566
28572
28566
28554
28568
28576
28559
28560
28565
28560
28556
28566
28572
28564
28552
28560
28564
28560
28553
28556
28554
28556
28568
28552
28556
28548
28560
28556
28553
28548
28550
28552
28561
28552
28542
28544
28544
28550
28555
28546
28544
28532
28544
28540
28550
28549
28542
28548
28548
28548
28540
28538
28556
28540
28537
28540
28534
28535
28529
28538
28534
28537
28528
28526
28527
28524
28529
28532
28534
28524
28529
28536
28527
28522
28526
28527
28518
28516
28516
28527
28521
28516
28524
28528
28524
28522
28516
28532
28524
28508
28524
28524
28527
28516
28520
28525
28522
28512
28516
28529
28520
28520
28518
28532
28532
28524
28536
28534
28530
28520
28538
28548
28538
28532
28538
28545
28536
28537
28544
28538
28544
28546
28550
28537
28546
28556
28564
28556
28559
28569
28562
28559
28557
28574
28558
28562
28576
28574
28553
28568
28578
28576
28572
28578
28580
28580
28582
28580
28591
28585
28586
28600
28592
28592
28593
28592
28608
28596
28595
28592
28608
28608
28602
28593
28610
28622
28618
28612
28604
28612
28628
28618
28614
28612
28614
28620
28625
28612
28623
28630
28628
28624
28624
28632
28630
28628
28628
28632
28637
28642
28632
28645
28640
28636
28632
28642
28640
28628
28644
28650
28644
28641
28639
28653
28644
28644
28645
28650
28657
28656
28644
28652
28650
28652
28648
28654
28644
28644
28648
28654
28644
28642
28645
28656
28640
28652
28657
28662
28645
28652
28650
28652
28654
28652
28652
28654
28646
28650
28644
28663
28654
28642
28651
28655
28644
28654
28656
28656
28642
28640
28644
28642
28644
28652
28654
28648
28641
28636
28636
28640
28648
28630
28636
28637
28640
28639
28648
28639
28630
28631
28628
28636
28631
28635
28626
28615
28628
28630
28620
28616
28628
28635
28628
28616
28630
28633
28628
28620
28624
28631
28633
28620
28612
28630
28628
28624
28620
28610
28608
28620
28616
28604
28604
28614
28615
28616
28608
28606
28610
28614
28614
28610
28608
28606
28610
28616
28604
28598
28593
28592
28588
28594
28600
28608
28604
28596
28596
28600
28602
28591
28590
28596
28590
28592
28588
28589
28580
28580
28568
28574
28586
28581
28580
28573
28574
28576
28576
28577
28570
28576
28581
28577
28571
28564
28572
28558
28564
28562
28567
28550
28548
28560
28561
28560
28553
28552
28554
28548
28556
28542
28548
28546
28544
28540
28528
28539
28538
28538
28532
28532
28528
28528
28530
28528
28524
28528
28527
28534
28534
28522
28525
28514
28514
28518
28512
28520
28510
28509
28502
28499
28504
28500
28492
28493
28503
28494
28484
28482
28500
28496
28485
28484
28481
28484
28484
28474
28472
28464
28472
28469
28460
28466
28462
28468
28460
28447
28452
28448
28448
28454
28452
28450
28440
28428
28432
28433
28420
28428
28422
28425
28425
28413
28404
28409
28410
28412
28418
28396
28396
28388
28397
28398
28396
28383
28381
28380
28374
28377
28380
28373
28370
28360
28360
28372
28364
28354
28352
28356
28348
28342
28336
28344
28340
28328
28326
28324
28332
28322
28320
28316
28308
28316
28310
28305
28312
28308
28292
28294
28296
28294
28292
28284
28285
28286
28286
28278
28268
28265
28274
28274
28270
28256
28258
28260
28258
28261
28262
28248
28245
28248
28248
28238
28236
28226
28230
28224
28228
28228
28221
28216
28212
28220
28216
28212
28204
28196
28208
28217
28200
28196
28190
28193
28195
28184
28178
28168
28177
28178
28172
28168
28164
28168
28156
28158
28161
28164
28152
28152
28148
28154
28144
28136
28138
28134
28134
28126
28120
28120
28128
28114
28112
28118
28114
28104
28102
28108
28108
28110
28100
28092
28093
28087
28100
28085
28089
28080
28074
28072
28074
28074
28068
28060
28066
28073
28064
28054
28053
28060
28062
28052
28040
28040
28053
28038
28046
28028
28032
28036
28036
28025
28024
28020
28015
28024
28026
28012
28000
28004
28016
28000
28000
27991
27994
27988
27984
27972
27967
27969
27972
27966
27959
27966
27964
27964
27957
27956
27953
27940
27945
27952
27942
27942
27936
27931
27934
27925
27924
27911
27914
27912
27905
27919
27901
27904
27918
27912
27912
27906
27900
27904
27900
27897
27893
27890
27888
27896
27884
27877
27870
27884
27878
27872
27875
27872
27878
27878
27864
27864
27872
27872
27860
27856
27862
27862
27854
27838
27842
27844
27846
27837
27832
27828
27832
27824
27820
27828
27822
27818
27814
27813
27813
27822
27808
27804
27796
27798
27796
27800
27786
27788
27774
27778
27780
27794
27775
27770
27758
27772
27764
27767
27768
27758
27764
27748
27750
27756
27740
27746
27738
27729
27732
27741
27740
27730
27722
27721
27728
27720
27717
27720
27722
27719
27720
27705
27714
27711
27709
27702
27696
27701
27704
27697
27692
27684
27686
27696
27689
27679
27684
27684
27686
27682
27666
27679
27680
27676
27666
27660
27668
27672
27663
27654
27655
27656
27666
27664
27645
27653
27657
27652
27646
27636
27644
27656
27638
27636
27632
27634
27642
27629
27621
27624
27632
27628
27620
27616
27624
27620
27609
27601
27604
27617
27604
27594
27594
27592
27592
27592
27589
27584
27588
27593
27588
27578
27572
27576
27577
27580
27572
27572
27568
27576
27564
27562
27556
27548
27552
27560
27555
27548
27545
27552
27551
27558
27548
27542
27550
27548
27542
27548
27545
27540
27536
27528
27534
27548
27530
27520
27528
27528
27532
27532
27526
27513
27516
27524
27530
27526
27520
27526
27516
27516
27516
27516
27520
27512
27509
27503
27508
27505
27500
27508
27504
27502
27505
27503
27510
27498
27492
27497
27494
27496
27496
27498
27488
27482
27476
27488
27483
27480
27472
27476
27479
27480
27464
27468
27478
27476
27468
27462
27464
27470
27458
27448
27452
27460
27456
27448
27444
27448
27444
27456
27444
27440
27432
27446
27448
27438
27442
27428
27432
27440
27445
27424
27422
27423
27423
27428
27430
27417
27416
27420
27424
27422
27418
27412
27420
27420
27428
27416
27404
27400
27408
27412
27404
27401
27404
27397
27406
27398
27392
27397
27396
27396
27390
27390
27376
27385
27386
27393
27381
27364
27376
27377
27380
27375
27364
27368
27373
27364
27364
27364
27364
27365
27361
27362
27364
27364
27370
27359
27352
27348
27352
27352
27360
27350
27348
27348
27338
27332
27341
27338
27345
27344
27334
27344
27324
27342
27335
27342
27332
27329
27322
27320
27324
27328
27326
27329
27324
27320
27313
27312
27321
27322
27322
27325
27312
27318
27306
27319
27320
27306
27312
27308
27320
27320
27304
27302
27301
27308
27302
27300
27300
27304
27308
27300
27292
27300
27300
27308
27300
27296
27286
27282
27286
27297
27288
27274
27277
27280
27287
27284
27286
27272
27276
27278
27284
27284
27280
27268
27273
27266
27268
27269
27268
27262
27257
27252
27250
27260
27261
27252
27244
27250
27255
27260
27257
27258
27252
27242
27242
27236
27235
27244
27239
27236
27238
27230
27225
27228
27226
27224
27228
27225
27234
27224
27217
27220
27220
27216
27224
27220
27212
27204
27196
27204
27201
27208
27207
27198
27202
27198
27196
27178
27192
27200
27194
27202
27186
27184
27192
27190
27185
27180
27168
27167
27172
27178
27168
27168
27166
27160
27160
27164
27169
27159
27152
27160
27168
27152
27156
27150
27153
27156
27141
27136
27146
27148
27152
27144
27136
27132
27140
27140
27140
27132
27132
27134
27136
27120
27124
27129
27118
27118
27111
27112
27120
27113
27108
27108
27105
27102
27108
27114
27114
27113
27092
27097
27104
27105
27098
27098
27094
27092
27096
27088
27092
27079
27084
27082
27088
27080
27073
27078
27087
27082
27064
27072
27068
27076
27074
27062
27062
27056
27056
27068
27064
27052
27044
27050
27056
27056
27046
27049
27052
27055
27048
27038
27042
27044
27049
27048
27039
27026
27028
27020
27036
27028
27032
27020
27020
27024
27036
27032
27033
27028
27026
27014
27028
27016
27021
27013
27028
27020
27007
27008
27012
27016
27016
27013
27004
27012
27016
27012
27010
27011
26998
27002
27012
27004
26997
27007
26998
26988
26984
26991
26996
26984
26978
26980
26985
26981
26977
26974
26973
26981
26976
26968
26969
26976
26968
26958
26968
26966
26964
26956
26948
26952
26964
26958
26943
26944
26945
26954
26957
26942
26947
26952
26952
26960
26958
26952
26934
26937
26942
26948
26946
26948
26942
26936
26940
26953
26947
26948
26943
26940
26938
26946
26944
26948
26940
26940
26934
26941
26942
26932
26924
26932
26935
26934
26936
26928
26933
26926
26940
26940
26933
26926
26929
26924
26940
26934
26926
26920
26924
26925
26921
26920
26912
26914
26916
26921
26916
26911
26914
26910
26903
26900
26904
26913
26908
26901
26892
26902
26904
26900
26896
26888
26898
26892
26882
26888
26890
26896
26886
26880
26876
26884
26888
26880
26874
26876
26866
26876
26871
26869
26860
26877
26864
26865
26856
26861
26866
26868
26868
26860
26854
26864
26860
26852
26849
26854
26854
26856
26848
26848
26848
26854
26850
26853
26836
26842
26852
26852
26844
26849
26852
26852
26844
26848
26840
26842
26852
26844
26836
26839
26844
26846
26830
26830
26836
26844
26844
26829
26830
26849
26842
26836
26829
26840
26838
26838
26832
26840
26834
26828
26828
26840
26842
26832
26836
26828
26831
26846
26830
26834
26824
26832
26842
26840
26830
26824
26822
26830
26839
26833
26822
26820
26826
26826
26836
26830
26832
26826
26832
26826
26838
26833
26833
26833
26828
26828
26828
26838
26844
26832
26828
26824
26828
26834
26846
26841
26830
26826
26829
26840
26840
26844
26830
26832
26832
26841
26836
26826
26834
26838
26832
26836
26832
26836
26830
26843
26847
26846
26838
26837
26842
26860
26857
26842
26844
26852
26861
26844
26847
26848
26846
26852
26852
26854
26854
26844
26857
26862
26856
26857
26854
26848
26853
26855
26860
26860
26856
26852
26844
26861
26862
26854
26852
26850
26865
26858
26853
26853
26850
26854
26860
26856
26862
26854
26853
26852
26857
26860
26846
26849
26849
26868
26850
26857
26852
26848
26862
26861
26860
26858
26854
26860
26860
26848
26852
26852
26854
26852
26856
26845
26832
26848
26844
26844
26844
26836
26831
26837
26837
26837
26829
26836
26836
26834
26828
26826
26830
26829
26820
26808
26818
26812
26818
26812
26817
26820
26812
26808
26809
26816
26808
26808
26810
26808
26802
26797
26794
26808
26802
26804
26793
26788
26786
26789
26788
26793
26798
26796
26796
26781
26788
26788
26790
26794
26784
26782
26780
26774
26768
26773
26774
26778
26776
26780
26772
26766
26765
26768
26772
26776
26776
26768
26762
26758
26767
26760
26756
26754
26752
26756
26754
26748
26756
26757
26756
26756
26746
26751
26744
26746
26749
26748
26753
26748
26742
26740
26740
26744
26735
26729
26724
26728
26736
26728
26729
26730
26734
26733
26733
26720
26728
26732
26732
26728
26720
26722
26718
26726
26722
26722
26718
26718
26724
26716
26710
26720
26720
26709
26706
26716
26712
26704
26708
26706
26712
26704
26700
26700
26705
26700
26694
26690
26694
26700
26698
26694
26680
26690
26696
26709
26700
26688
26688
26689
26688
26682
26684
26684
26692
26688
26672
26676
26684
26676
26666
26676
26680
26681
26678
26676
26668
26668
26670
26676
26670
26660
26664
26668
26666
26665
26663
26656
26661
26664
26656
26668
26660
26656
26658
26668
26662
26649
26664
26666
26660
26652
26650
26646
26654
26648
26657
26652
26645
26644
26648
26653
26641
26644
26644
26646
26656
26652
26640
26648
26644
26649
26646
26632
26632
26648
26640
26632
26639
26640
26637
26640
26640
26624
26636
26638
26638
26639
26628
26628
26636
26637
26632
26624
26620
26631
26625
26620
26617
26618
26624
26629
26632
26618
26612
26624
26620
26621
26621
26620
26607
26613
26616
26609
26604
26605
26600
26612
26607
26604
26596
26600
26612
26600
26602
26600
26600
26613
26601
26599
26596
26600
26597
26604
26586
26589
26592
26591
26578
26590
26596
26592
26589
26580
26588
26590
26592
26577
26584
26588
26591
26584
26584
26580
26578
26578
26570
26580
26584
26581
26572
26568
26583
26578
26580
26572
26574
26584
26574
26574
26576
26588
26580
26570
26568
26582
26576
26568
26574
26577
26580
26576
26564
26572
26578
26584
26584
26576
26574
26575
26580
26590
26585
26576
26575
26575
26572
26581
26580
26590
26583
26582
26580
26574
26584
26590
26594
26598
26584
26575
26580
26582
26588
26582
26574
26564
26577
26581
26580
26580
26582
26584
26572
26570
26571
26574
26580
26574
26570
26568
26566
26582
26569
26564
26572
26570
26573
26570
26565
26560
26574
26566
26561
26569
26572
26565
26566
26572
26574
26567
26563
26580
26572
26565
26566
26566
26568
26573
26572
26560
26568
26580
26572
26570
26576
26580
26580
26566
26572
26575
26584
26580
26574
26572
26582
26594
26580
26565
26576
26576
26582
26584
26572
26572
26572
26581
26580
26583
26582
26570
26581
26572
26586
26580
26568
26574
26568
26574
26577
26573
26573
26564
26569
26574
26572
26572
26570
26568
26574
26582
26582
26576
26576
26570
26574
26580
26564
26576
26577
26576
26572
26575
26576
26582
26577
26580
26570
26574
26584
26580
26573
26586
26576
26594
26586
26568
26572
26580
26585
26584
26580
26580
26584
26583
26593
26580
26581
26590
26584
26584
26588
26578
26582
26586
26586
26588
26574
26584
26576
26572
26577
26584
26586
26588
26580
26584
26589
26594
26588
26588
26582
26576
26574
26588
26580
26576
26580
26588
26580
26572
26580
26580
26588
26580
26586
26580
26580
26590
26580
26588
26589
26592
26582
26579
26590
26588
26576
26574
26574
26587
26588
26582
26586
26585
26590
26590
26589
26593
26592
26590
26580
26580
26596
26584
26586
26580
26596
26583
26581
26576
26580
26589
26588
26588
26584
26585
26596
26604
26592
26580
26588
26596
26596
26592
26590
26588
26593
26599
26594
26598
26591
26592
26592
26608
26605
26605
26594
26600
26608
26609
26605
26604
26604
26592
26608
26608
26612
26620
26608
26608
26610
26616
26620
26624
26614
26616
26620
26628
26632
26624
26636
26628
26638
26632
26628
26622
26644
26644
26636
26640
26644
26641
26644
26640
26644
26655
26652
26648
26650
26656
26652
26648
26656
26664
26654
26660
26650
26654
26660
26656
26664
26650
26660
26658
26673
26664
26662
26661
26666
26672
26662
26664
26662
26658
26660
26664
26664
26663
26666
26664
26661
26670
26676
26672
26672
26674
26674
26680
26680
26664
26671
26674
26676
26663
26661
26668
26664
26666
26667
26656
26660
26658
26670
26676
26676
26660
26658
26664
26657
26660
26661
26665
26668
26660
26656
26657
26664
26656
26656
26662
26662
26663
26656
26656
26664
26658
26668
26660
26649
26661
26664
26663
26652
26650
26660
26660
26668
26660
26656
26648
26666
26672
26654
26649
26652
26664
26664
26665
26652
26660
26665
26672
26660
26652
26652
26661
26665
26662
26661
26654
26660
26667
26663
26660
26661
26664
26674
26668
26661
26674
26676
26670
26656
26668
26676
26666
26668
26662
26668
26668
26680
26685
26668
26672
26680
26677
26680
26672
26680
26682
26680
26684
26682
26688
26688
26672
26680
26692
26688
26680
26688
26688
26700
26692
26686
26692
26690
26700
26697
26700
26704
26704
26692
26692
26701
26708
26694
26698
26692
26701
26698
26710
26697
26700
26704
26716
26712
26703
26708
26708
26716
26714
26705
26700
26708
26716
26708
26708
26705
26718
26720
26709
26712
26716
26732
26720
26716
26716
26716
26726
26724
26720
26713
26725
26732
26724
26714
26720
26724
26728
26720
26722
26717
26730
26738
26736
26720
26724
26728
26738
26736
26729
26725
26732
26742
26742
26740
26728
26740
26745
26740
26736
26745
26750
26750
26748
26735
26753
26760
26758
26756
26740
26764
26760
26756
26748
26756
26772
26772
26756
26756
26761
26770
26776
26769
26772
26773
26788
26778
26768
26792
26788
26776
26788
26784
26796
26788
26789
26788
26796
26804
26793
26792
26796
26801
26801
26804
26800
26804
26812
26800
26796
26798
26812
26812
26801
26806
26804
26804
26818
26820
26813
26810
26820
26816
26824
26836
26832
26818
26820
26826
26824
26816
26825
26828
26830
26824
26825
26821
26823
26833
26844
26844
26832
26842
26851
26841
26841
26852
26868
26848
26848
26856
26846
26852
26856
26856
26852
26862
26864
26860
26868
26865
26866
26868
26866
26870
26884
26880
26874
26884
26884
26881
26880
26885
26884
26896
26886
26889
26892
26896
26892
26900
26900
26900
26908
26900
26901
26912
26909
26908
26904
26916
26910
26908
26909
26920
26916
26918
26914
26928
26929
26914
26920
26933
26932
26924
26924
26938
26934
26932
26942
26940
26936
26929
26935
26947
26940
26936
26948
26948
26948
26958
26964
26964
26958
26958
26964
26968
26948
26966
26971
26968
26960
26976
26970
26970
26971
26976
26980
26977
26980
26991
26980
26982
26986
26993
26981
26980
26988
27001
26996
26996
26984
26992
26988
27002
26988
26982
27004
27009
26999
27000
27012
27010
27008
27002
27013
27014
27008
27012
27020
27006
27013
27023
27024
27016
27016
27020
27029
27022
27024
27028
27030
27034
27026
27027
27036
27040
27039
27030
27036
27044
27037
27032
27040
27036
27038
27040
27032
27036
27044
27044
27036
27044
27044
27056
27041
27046
27045
27057
27048
27040
27042
27057
27058
27053
27049
27048
27056
27048
27044
27058
27060
27044
27052
27057
27065
27055
27053
27048
27056
27057
27054
27054
27052
27062
27058
27048
27049
27052
27056
27052
27056
27056
27058
27062
27050
27049
27056
27057
27057
27052
27058
27059
27054
27044
27055
27054
27054
27044
27056
27060
27061
27054
27056
27061
27058
27046
27044
27056
27054
27044
27039
27056
27048
27044
27044
27047
27032
27034
27040
27044
27028
27036
27036
27044
27040
27028
27020
27028
27036
27022
27017
27013
27012
27020
27016
27004
27002
27012
27004
27000
27001
27008
26992
26988
26993
26989
26976
26977
26988
26977
26961
26972
26966
26952
26956
26964
26957
26946
26944
26956
26945
26946
26940
26940
26951
26939
26934
26930
26932
26936
26930
26914
26918
26922
26917
26916
26911
26904
26910
26920
26906
26912
26914
26920
26915
26912
26910
26916
26914
26904
26916
26916
26910
26904
26901
26917
26914
26910
26916
26910
26921
26918
26928
26920
26924
26925
26932
26929
26924
26921
26932
26940
26935
26934
26936
26952
26944
26944
26956
26954
26950
26959
26974
26970
26975
26966
26972
26982
26980
26988
26980
26992
26988
27004
26998
26996
26990
27002
27004
27012
27014
27020
27016
27020
27028
27032
27034
27026
27032
27039
27040
27044
27046
27036
27040
27044
27052
27046
27056
27044
27053
27064
27056
27056
27054
27061
27065
27070
27065
27056
27060
27066
27056
27060
27060
27068
27066
27058
27053
27069
27068
27065
27064
27060
27060
27064
27063
27060
27056
27046
27047
27057
27054
27056
27044
27041
27034
27052
27052
27046
27039
27040
27038
27038
27040
27044
27032
27032
27028
27020
27020
27032
27028
27020
27014
27014
27012
27004
27001
27010
27010
27009
27007
26996
27000
27011
26996
27004
27002
26997
26984
26998
26996
26988
26989
26974
26989
26998
26998
26996
27012
27000
26996
26985
26994
26993
27009
27004
26997
26999
27001
27014
27004
27000
27014
27028
27024
27028
27028
27028
27034
27045
27044
27042
27046
27057
27066
27072
27074
27073
27066
27074
27085
27098
27108
27102
27103
27108
27120
27132
27136
27142
27138
27145
27144
27159
27166
27186
27192
27184
27188
27192
27202
27208
27214
27232
27223
27238
27236
27244
27254
27272
27269
27275
27285
27284
27280
27290
27308
27308
27312
27319
27324
27324
27324
27336
27336
27348
27342
27354
27366
27380
27380
27389
27394
27393
27402
27396
27400
27408
27409
27417
27418
27430
27434
27436
27440
27440
27444
27452
27448
27462
27464
27476
27473
27484
27476
27485
27484
27480
27482
27490
27501
27508
27504
27498
27508
27505
27516
27516
27524
27524
27532
27528
27541
27548
27549
27548
27552
27556
27548
27552
27552
27552
27558
27564
27575
27578
27584
27584
27588
27588
27596
27608
27608
27604
27608
27618
27621
27620
27622
27626
27620
27620
27628
27648
27648
27660
27662
27662
27656
27648
27668
27676
27673
27682
27692
27692
27688
27701
27696
27708
27712
27716
27728
27716
27724
27734
27744
27744
27752
27750
27751
27764
27775
27788
27784
27780
27781
27789
27798
27797
27816
27817
27812
27818
27828
27836
27840
27845
27844
27842
27856
27864
27870
27876
27886
27889
27896
27890
27893
27894
27898
27918
27924
27920
27926
27920
27934
27945
27945
27948
27950
27962
27969
27978
27980
27982
27988
27984
27986
27991
27996
28008
28014
28014
28024
28020
28034
28034
28044
28050
28052
28053
28048
28054
28066
28076
28080
28088
28088
28090
28096
28090
28100
28110
28108
28124
28120
28128
28128
28126
28138
28142
28152
28149
28152
28158
28162
28162
28172
28180
28179
28172
28180
28192
28188
28200
28204
28209
28230
28222
28224
28223
28228
28236
28230
28239
28242
28244
28252
28256
28256
28244
28268
28270
28274
28262
28279
28288
28290
28300
28300
28302
28302
28311
28320
28316
28324
28324
28320
28321
28334
28336
28344
28346
28350
28364
28372
28369
28364
28372
28380
28377
28381
28395
28395
28400
28406
28404
28418
28408
28420
28424
28430
28432
28438
28432
28440
28446
28456
28458
28460
28454
28460
28470
28476
28484
28480
28480
28473
28488
28490
28500
28509
28501
28498
28506
28505
28514
28528
28532
28530
28538
28536
28529
28536
28548
28546
28556
28565
28564
28564
28567
28572
28574
28575
28581
28576
28588
28596
28594
28606
28620
28622
28626
28624
28639
28636
28639
28641
28637
28640
28652
28654
28660
28666
28679
28688
28698
28700
28696
28705
28710
28709
28712
28714
28718
28734
28728
28736
28748
28740
28744
28744
28756
28764
28758
28749
28760
28768
28780
28784
28780
28784
28782
28794
28804
28798
28796
28790
28786
28804
28792
28804
28808
28805
28814
28824
28812
28814
28820
28828
28824
28828
28839
28842
28836
28823
28836
28840
28856
28850
28838
28844
28846
28856
28864
28860
28866
28864
28862
28870
28865
28878
28884
28884
28886
28882
28880
28898
28892
28894
28888
28898
28912
28908
28914
28904
28908
28921
28928
28932
28938
28925
28932
28946
28958
28952
28962
28959
28960
28957
28957
28965
28975
28982
28992
28990
28988
28992
28996
29008
29005
29006
29008
29016
29018
29028
29040
29036
29032
29033
29030
29039
29044
29042
29057
29057
29064
29058
29060
29071
29068
29088
29090
29080
29086
29088
29089
29100
29100
29108
29106
29105
29103
29100
29118
29124
29128
29132
29130
29136
29144
29148
29156
29151
29160
29156
29156
29166
29164
29164
29178
29176
29181
29180
29184
29193
29208
29209
29212
29216
29210
29216
29218
29224
29228
29242
29246
29245
29250
29249
29252
29249
29250
29254
29265
29264
29277
29280
29284
29282
29293
29288
29290
29297
29308
29308
29316
29316
29309
29316
29318
29332
29336
29342
29344
29351
29348
29354
29356
29360
29366
29362
29367
29372
29378
29388
29381
29384
29381
29384
29386
29402
29402
29408
29420
29410
29416
29416
29412
29420
29422
29436
29436
29437
29442
29440
29446
29452
29455
29460
29468
29456
29460
29469
29465
29472
29471
29474
29486
29484
29497
29498
29504
29504
29502
29501
29500
29500
29508
29508
29525
29514
29526
29532
29536
29540
29545
29549
29538
29548
29551
29544
29542
29548
29552
29552
29556
29570
29562
29552
29557
29564
29562
29568
29572
29578
29574
29566
29576
29588
29591
29584
29580
29578
29584
29576
29584
29582
29588
29592
29593
29596
29596
29592
29588
29596
29610
29616
29604
29604
29612
29616
29613
29606
29620
29630
29616
29608
29616
29625
29620
29612
29626
29632
29632
29630
29632
29636
29644
29640
29650
29640
29644
29640
29652
29654
29656
29653
29663
29661
29654
29656
29656
29665
29661
29667
29665
29676
29672
29681
29680
29679
29676
29684
29696
29692
29688
29688
29688
29688
29694
29700
29692
29694
29696
29711
29706
29709
29712
29708
29708
29700
29710
29708
29709
29716
29719
29724
29716
29716
29726
29722
29716
29726
29718
29732
29734
29732
29733
29733
29740
29742
29744
29742
29745
29744
29740
29744
29744
29748
29753
29756
29752
29748
29756
29760
29765
29768
29777
29776
29772
29768
29776
29774
29782
29780
29784
29788
29790
29790
29784
29798
29794
29801
29804
29813
29800
29802
29812
29820
29826
29824
29829
29828
29820
29832
29838
29841
29842
29842
29836
29850
29848
29860
29860
29853
29854
29864
29866
29884
29872
29868
29874
29880
29884
29890
29899
29880
29892
29888
29898
29910
29909
29900
29912
29920
29918
29918
29922
29928
29928
29932
29929
29938
29940
29948
29934
29941
29946
29960
29954
29942
29946
29960
29964
29964
29964
29964
29972
29980
29967
29970
29984
29990
29991
29982
29984
29980
29977
29982
29989
29984
29996
30004
30006
29997
30004
29998
30000
30006
30012
30016
30018
30008
30006
30012
30010
30018
30014
30026
30021
30023
30024
30020
30024
30028
30040
30032
30028
30040
30042
30040
30040
30032
30041
30044
30048
30032
30032
30052
30050
30039
30052
30054
30056
30054
30052
30048
30057
30068
30064
30057
30060
30071
30072
30060
30059
30064
30070
30078
30064
30064
30074
30088
30080
30076
30081
30080
30096
30088
30088
30086
30086
30100
30100
30094
30100
30096
30092
30104
30104
30112
30103
30102
30102
30100
30114
30120
30122
30118
30120
30119
30128
30120
30114
30116
30116
30120
30128
30124
30120
30116
30122
30120
30129
30128
30125
30116
30124
30132
30132
30132
30129
30132
30124
30114
30120
30122
30118
30120
30117
30118
30118
30116
30117
30124
30124
30110
30116
30124
30128
30118
30120
30118
30126
30130
30112
30114
30129
30117
30112
30109
30118
30124
30116
30116
30115
30116
30129
30128
30116
30116
30124
30123
30126
30117
30114
30120
30118
30121
30122
30117
30116
30120
30116
30132
30129
30116
30118
30125
30122
30138
30128
30112
30122
30132
30133
30132
30124
30110
30112
30125
30126
30129
30118
30112
30112
30116
30125
30127
30114
30106
30117
30126
30116
30108
30108
30104
30112
30108
30108
30092
30096
30102
30100
30106
30100
30096
30098
30092
30088
30100
30100
30096
30092
30084
30078
30072
30076
30082
30076
30078
30084
30084
30084
30085
30072
30076
30070
30068
30064
30072
30064
30070
30068
30060
30077
30062
30060
30064
30052
30055
30062
30060
30060
30052
30042
30044
30048
30052
30052
30052
30044
30041
30032
30033
30030
30037
30024
30028
30023
30028
30020
30021
30014
30012
30009
30012
30012
29996
29996
29994
30000
29993
29988
29982
29980
29970
29970
29980
29972
29961
29950
29950
29956
29948
29958
29942
29932
29940
29934
29932
29928
29924
29914
29911
29916
29914
29902
29896
29886
29891
29892
29882
29871
29870
29866
29866
29872
29866
29862
29852
29852
29855
29858
29846
29828
29836
29831
29830
29825
29825
29806
29809
29820
29812
29806
29796
29804
29804
29793
29788
29792
29788
29784
29776
29768
29769
29774
29760
29756
29758
29766
29750
29746
29744
29740
29728
29737
29741
29740
29728
29720
29726
29728
29720
29708
29703
29703
29704
29701
29700
29696
29680
29688
29688
29692
29678
29672
29678
29674
29678
29671
29672
29655
29657
29662
29655
29640
29632
29644
29636
29639
29634
29628
29624
29620
29628
29620
29609
29612
29612
29608
29598
29604
29602
29596
29586
29582
29580
29577
29566
29570
29569
29574
29556
29558
29556
29556
29561
29548
29540
29549
29544
29535
29520
29528
29532
29524
29509
29512
29500
29512
29510
29500
29494
29488
29496
29492
29482
29468
29484
29471
29462
29466
29464
29464
29444
29444
29444
29432
29428
29428
29428
29428
29412
29412
29418
29412
29408
29397
29401
29396
29381
29376
29396
29388
29365
29364
29364
29364
29352
29358
29350
29352
29344
29332
29334
29340
29334
29324
29324
29326
29313
29301
29301
29296
29304
29300
29279
29285
29284
29288
29273
29274
29262
29260
29277
29262
29240
29254
29252
29252
29232
29232
29233
29228
29222
29220
29220
29220
29212
29206
29185
29199
29192
29198
29198
29188
29184
29170
29180
29170
29164
29146
29148
29154
29144
29137
29130
29124
29118
29118
29122
29122
29116
29103
29100
29097
29103
29096
29084
29079
29084
29084
29078
29070
29051
29055
29060
29054
29036
29039
29041
29046
29029
29024
29028
29026
29014
29012
29004
29006
28996
28996
28980
28994
28990
28977
28968
28968
28974
28964
28968
28957
28948
28942
28940
28948
28936
28921
28926
28924
28922
28917
28904
28905
28902
28902
28890
28885
28888
28886
28881
28876
28864
28862
28872
28860
28850
28849
28844
28836
28840
28834
28824
28824
28820
28812
28806
28806
28813
28815
28796
28792
28794
28796
28781
28784
28800
28772
28775
28764
28768
28769
28768
28760
28750
28756
28748
28740
28740
28746
28744
28718
28728
28740
28740
28726
28728
28721
28724
28714
28705
28712
28704
28708
28708
28692
28694
28700
28696
28680
28684
28697
28680
28686
28671
28669
28676
28668
28664
28652
28661
28648
28658
28644
28644
28638
28636
28636
28620
28628
28631
28632
28618
28618
28602
28608
28612
28612
28592
28596
28596
28592
28580
28578
28576
28578
28564
28558
28562
28554
28546
28544
28547
28545
28536
28534
28534
28534
28533
28526
28512
28508
28508
28506
28504
28488
28489
28485
28482
28484
28480
28476
28470
28476
28464
28462
28452
28458
28460
28448
28440
28445
28450
28440
28434
28424
28432
28424
28420
28410
28408
28412
28418
28410
28401
28404
28412
28402
28388
28388
28392
28388
28375
28374
28364
28370
28376
28368
28369
28360
28364
28366
28364
28356
28356
28356
28352
28356
28356
28352
28345
28325
28350
28334
28335
28328
28336
28332
28333
28332
28322
28321
28318
28312
28317
28316
28321
28316
28324
28324
28324
28308
28304
28300
28297
28300
28312
28304
28296
28301
28298
28284
28300
28298
28303
28305
28288
28295
28294
28296
28292
28285
28280
28282
28288
28287
28284
28276
28277
28278
28277
28280
28277
28272
28271
28268
28266
28266
28256
28274
28268
28260
28258
28244
28252
28255
28246
28236
28238
28228
28239
28236
28229
28224
28218
28224
28228
28228
28216
28206
28206
28219
28206
28192
28190
28188
28192
28188
28172
28176
28174
28172
28160
28160
28156
28160
28154
28153
28148
28138
28136
28132
28142
28129
28117
28122
28120
28112
28120
28108
28100
28110
28113
28108
28100
28098
28092
28096
28092
28097
28089
28092
28087
28077
28076
28074
28067
28068
28060
28054
28063
28064
28058
28070
28062
28056
28056
28052
28056
28054
28068
28060
28054
28046
28053
28056
28056
28036
28048
28050
28044
28044
28040
28039
28051
28043
28037
28045
28040
28048
28038
28036
28032
28036
28040
28040
28037
28028
28032
28040
28036
28028
28028
28044
28038
28028
28033
28036
28039
28033
28044
28044
28037
28030
28024
28038
28036
28034
28030
28032
28040
28028
28032
28036
28048
28036
28028
28036
28042
28042
28032
28030
28036
28044
28034
28024
28037
28040
28038
28030
28044
28041
28030
28028
28040
28040
28036
28031
28030
28042
28040
28040
28032
28046
28036
28037
28044
28042
28033
28036
28034
28040
28036
28036
28036
28046
28040
28040
28036
28042
28040
28037
28036
28044
28048
28036
28032
28040
28046
28052
28040
28024
28036
28040
28045
28040
28029
28040
28046
28040
28045
28056
28044
28042
28040
28034
28048
28034
28040
28036
28039
28031
28042
28040
28039
28030
28036
28036
28040
28039
28029
28024
28024
28036
28036
28028
28020
28024
28030
28020
28028
28020
28018
28030
28034
28026
28016
28024
28022
28029
28030
28012
28008
28017
28012
28015
28014
28020
28020
28012
28017
28010
28000
28002
28006
28004
28010
28012
28004
28001
27992
27994
27996
28000
27992
27992
27978
27981
27982
27976
27984
27984
27978
27982
27968
27973
27966
27966
27973
27980
27972
27962
27964
27946
27958
27954
27952
27938
27940
27943
27948
27944
27936
27938
27940
27943
27940
27932
27932
27939
27930
27936
27928
27914
27912
27913
27916
27916
27913
27900
27908
27902
27919
27901
27904
27892
27902
27906
27912
27901
27884
27885
27895
27888
27876
27887
27878
27872
27877
27879
27878
27870
27870
27872
27872
27879
27868
27867
27852
27853
27866
27866
27844
27855
27844
27840
27844
27846
27839
27838
27839
27837
27829
27825
27834
27838
27828
27816
27836
27828
27828
27818
27814
27830
27820
27820
27808
27808
27814
27816
27804
27804
27804
27812
27812
27809
27802
27799
27796
27793
27788
27803
27793
27793
27790
27786
27784
27784
27787
27774
27770
27778
27776
27768
27768
27772
27772
27780
27768
27760
27764
27764
27766
27753
27756
27756
27760
27756
27748
27748
27748
27753
27746
27734
27740
27737
27752
27746
27740
27735
27728
27737
27736
27744
27734
27730
27730
27724
27720
27725
27720
27720
27724
27726
27718
27709
27716
27718
27732
27716
27712
27716
27716
27700
27700
27708
27710
27708
27696
27694
27702
27705
27700
27697
27700
27712
27700
27694
27700
27704
27706
27695
27695
27692
27688
27685
27697
27688
27688
27684
27688
27693
27686
27684
27682
27680
27697
27688
27692
27678
27684
27689
27684
27685
27678
27676
27676
27677
27680
27688
27684
27676
27678
27674
27684
27684
27684
27680
27672
27672
27676
27678
27681
27679
27668
27673
27681
27674
27666
27664
27676
27670
27666
27664
27676
27676
27672
27665
27665
27665
27668
27668
27676
27660
27658
27665
27670
27660
27658
27660
27660
27668
27668
27656
27664
27664
27666
27669
27660
27663
27654
27660
27663
27660
27663
27668
27650
27654
27654
27650
27664
27658
27656
27658
27668
27670
27660
27654
27670
27668
27668
27646
27656
27658
27658
27650
27652
27652
27660
27660
27653
27652
27656
27661
27648
27650
27654
27656
27660
27656
27650
27638
27640
27636
27639
27641
27644
27626
27634
27636
27638
27638
27635
27632
27636
27629
27640
27644
27632
27630
27630
27623
27632
27636
27634
27624
27624
27612
27622
27628
27628
27632
27624
27608
27622
27628
27628
27625
27622
27624
27628
27620
27622
27616
27620
27618
27616
27624
27622
27621
27615
27617
27612
27616
27618
27624
27618
27620
27617
27612
27608
27606
27605
27620
27601
27597
27594
27584
27588
27594
27598
27596
27592
27588
27585
27588
27588
27592
27592
27590
27592
27581
27584
27570
27569
27572
27568
27566
27560
27572
27570
27572
27567
27557
27558
27560
27560
27560
27564
27564
27560
27552
27557
27556
27558
27553
27544
27554
27552
27555
27550
27550
27550
27556
27556
27552
27550
27549
27548
27544
27556
27566
27556
27560
27556
27566
27560
27560
27558
27550
27556
27568
27564
27562
27564
27572
27572
27563
27564
27580
27576
27568
27564
27564
27572
27578
27578
27565
27568
27576
27576
27572
27570
27572
27580
27572
27566
27581
27574
27573
27577
27583
27570
27570
27574
27580
27576
27578
27570
27575
27580
27580
27568
27572
27578
27584
27576
27572
27570
27576
27588
27582
27572
27582
27564
27568
27570
27576
27576
27572
27572
27575
27576
27576
27576
27576
27588
27580
27580
27572
27580
27588
27585
27578
27586
27576
27584
27580
27580
27590
27594
27590
27592
27584
27591
27592
27598
27596
27592
27592
27591
27596
27602
27600
27600
27600
27600
27594
27594
27608
27608
27612
27608
27600
27600
27612
27610
27620
27608
27604
27612
27622
27618
27611
27620
27630
27618
27620
27626
27620
27615
27628
27630
27622
27625
27628
27634
27644
27640
27636
27632
27628
27636
27628
27626
27640
27640
27632
27636
27648
27646
27637
27646
27644
27641
27644
27660
27652
27648
27654
27662
27653
27652
27653
27657
27658
27652
27655
27664
27672
27664
27664
27668
27668
27660
27668
27673
27682
27684
27669
27670
27690
27678
27678
27671
27673
27680
27674
27676
27683
27684
27684
27679
27680
27684
27696
27685
27684
27686
27684
27693
27692
27681
27686
27688
27688
27685
27681
27684
27687
27690
27687
27693
27690
27687
27681
27684
27684
27684
27690
27692
27684
27678
27682
27686
27685
27688
27684
27677
27680
27685
27696
27682
27684
27680
27688
27694
27692
27679
27684
27689
27684
27680
27677
27674
27681
27681
27680
27676
27674
27668
27672
27692
27689
27679
27684
27684
27688
27680
27680
27686
27684
27670
27680
27688
27680
27672
27673
27682
27668
27670
27680
27678
27670
27673
27671
27672
27677
27664
27670
27680
27671
27674
27662
27668
27676
27672
27664
27662
27676
27673
27664
27666
27661
27672
27672
27681
27676
27672
27669
27668
27661
27664
27676
27676
27671
27664
27658
27664
27666
27669
27672
27667
27676
27669
27666
27662
27668
27664
27672
27668
27662
27656
27664
27664
27676
27668
27668
27660
27656
27658
27661
27666
27658
27669
27668
27672
27668
27660
27661
27652
27664
27664
27668
27659
27653
27645
27655
27656
27662
27658
27660
27669
27661
27652
27664
27656
27660
27666
27656
27665
27650
27656
27654
27656
27668
27671
27660
27660
27669
27670
27668
27674
27668
27660
27676
27680
27684
27681
27687
27682
27678
27678
27692
27696
27689
27688
27684
27686
27687
27700
27700
27702
27708
27702
27713
27712
27713
27714
27720
27728
27720
27717
27708
27720
27729
27732
27744
27742
27733
27736
27735
27738
27751
27756
27750
27748
27750
27758
27766
27761
27756
27764
27775
27768
27764
27766
27780
27784
27784
27778
27778
27784
27790
27800
27789
27794
27790
27801
27801
27804
27793
27812
27812
27807
27806
27796
27814
27814
27816
27818
27824
27818
27824
27816
27824
27826
27828
27828
27837
27840
27818
27828
27841
27836
27832
27832
27824
27838
27844
27842
27834
27844
27848
27849
27845
27846
27838
27844
27852
27850
27842
27833
27855
27856
27844
27844
27848
27856
27856
27844
27854
27850
27856
27847
27856
27864
27852
27854
27856
27864
27865
27860
27860
27864
27862
27860
27860
27870
27868
27860
27868
27868
27864
27865
27876
27876
27869
27874
27878
27872
27869
27876
27873
27869
27873
27874
27870
27874
27890
27880
27886
27876
27882
27877
27876
27885
27890
27892
27892
27888
27885
27902
27896
27887
27892
27895
27888
27898
27897
27892
27894
27894
27900
27904
27898
27895
27912
27904
27902
27902
27916
27905
27910
27908
27916
27912
27906
27914
27920
27917
27908
27920
27917
27920
27924
27933
27935
27924
27922
27940
27940
27929
27926
27936
27934
27924
27936
27944
27944
27938
27940
27934
27950
27951
27944
27942
27948
27948
27953
27940
27944
27940
27940
27948
27948
27956
27948
27948
27948
27949
27950
27944
27944
27957
27950
27952
27948
27960
27952
27956
27942
27956
27950
27952
27940
27944
27954
27952
27946
27943
27952
27954
27956
27942
27956
27953
27952
27948
27964
27950
27940
27952
27964
27953
27953
27954
27958
27957
27948
27956
27960
27960
27958
27949
27956
27962
27968
27964
27968
27960
27950
27951
27962
27964
27972
27964
27953
27956
27964
27964
27960
27964
27969
27973
27968
27962
27964
27964
27973
27970
27964
27974
27972
27972
27960
27974
27972
27972
27966
27972
27969
27968
27980
27967
27970
27968
27984
27976
27972
27970
27980
27983
27976
27972
27976
27976
27984
27980
27973
27976
27970
27976
27985
27988
27985
27974
27994
28004
27990
27996
27992
27992
27988
27992
28004
27996
27997
28003
28005
28004
28000
28000
28005
28012
28015
28012
28008
28024
28022
28020
28020
28028
28028
28018
28030
28024
28033
28024
28029
28037
28036
28040
28040
28040
28049
28048
28054
28056
28044
28052
28048
28068
28064
28056
28053
28058
28060
28068
28056
28064
28084
28068
28076
28080
28075
28084
28092
28084
28080
28088
28096
28089
28092
28092
28096
28096
28088
28094
28104
28105
28097
28098
28100
28112
28112
28100
28112
28110
28117
28117
28112
28116
28116
28110
28122
28118
28126
28128
28120
28124
28128
28132
28124
28130
28138
28132
28140
28134
28144
28140
28144
28149
28134
28148
28140
28134
28151
28143
28152
28140
28152
28163
28148
28160
28165
28167
28176
28160
28168
28164
28170
28172
28166
28172
28170
28164
28168
28169
28182
28176
28182
28177
28180
28181
28188
28185
28176
28192
28192
28184
28188
28194
28192
28180
28196
28194
28198
28188
28192
28196
28196
28188
28202
28209
28204
28197
28206
28208
28212
28216
28212
28216
28220
28212
28213
28214
28226
28224
28228
28226
28232
28222
28229
28244
28236
28242
28245
28242
28247
28252
28260
28257
28246
28254
28268
28257
28252
28269
28278
28265
28261
28276
28282
28282
28282
28287
28286
28288
28284
28294
28302
28305
28299
28300
28300
28304
28322
28319
28312
28312
28316
28326
28332
28324
28333
28333
28333
28328
28330
28333
28348
28344
28346
28353
28355
28357
28346
28352
28354
28360
28364
28360
28372
28381
28368
28372
28374
28376
28384
28391
28392
28392
28392
28396
28393
28392
28394
28396
28404
28397
28414
28416
28424
28414
28416
28432
28428
28426
28432
28434
28433
28430
28432
28436
28446
28446
28439
28448
28452
28465
28456
28450
28460
28472
28466
28472
28464
28480
28481
28485
28480
28478
28496
28496
28494
28496
28492
28500
28514
28508
28508
28514
28524
28532
28526
28525
28536
28536
28550
28554
28544
28548
28548
28556
28576
28573
28560
28568
28570
28584
28585
28591
28588
28602
28604
28616
28604
28612
28628
28628
28626
28636
28641
28642
28639
28632
28645
28660
28660
28656
28662
28672
28680
28670
28684
28692
28692
28696
28704
28699
28716
28722
28722
28730
28732
28736
28738
28741
28736
28748
28750
28772
28770
28770
28766
28782
28789
28784
28790
28788
28804
28804
28812
28812
28806
28808
28815
28828
28837
28838
28836
28844
28846
28861
28864
28867
28860
28868
28874
28879
28885
28876
28888
28896
28905
28904
28900
28906
28912
28928
28928
28928
28928
28940
28952
28952
28952
28953
28958
28966
28964
28969
28974
28984
28980
28988
28996
29012
28999
28998
29004
29020
29026
29024
29028
29046
29048
29052
29052
29060
29076
29066
29076
29081
29094
29100
29093
29092
29104
29114
29119
29124
29120
29136
29128
29156
29150
29148
29152
29168
29166
29169
29166
29178
29197
29191
29184
29204
29212
29212
29210
29215
29230
29224
29220
29237
29249
29252
29244
29252
29260
29276
29276
29266
29270
29282
29292
29289
29292
29300
29308
29318
29320
29324
29324
29332
29344
29348
29348
29342
29346
29352
29368
29374
29375
29376
29380
29383
29392
29401
29407
29406
29418
29422
29430
29428
29434
29452
29456
29449
29460
29456
29470
29464
29476
29486
29489
29491
29500
29508
29518
29524
29522
29526
29536
29538
29548
29544
29556
29566
29568
29568
29565
29574
29572
29588
29588
29588
29589
29598
29606
29602
29604
29606
29630
29620
29616
29628
29636
29652
29652
29652
29644
29648
29664
29660
29656
29660
29670
29674
29673
29678
29684
29684
29688
29694
29694
29701
29708
29716
29717
29718
29717
29713
29730
29736
29740
29744
29742
29746
29758
29761
29756
29765
29777
29772
29780
29774
29788
29792
29792
29804
29808
29796
29807
29814
29818
29821
29820
29823
29836
29832
29838
29852
29856
29856
29860
29868
29881
29880
29870
29887
29888
29896
29900
29896
29898
29902
29912
29918
29920
29932
29937
29937
29948
29952
29960
29960
29956
29976
29976
29976
29974
29987
29988
29988
29984
29997
30008
30004
30016
30008
30026
30029
30030
30027
30041
30048
30046
30044
30048
30056
30062
30068
30069
30076
30069
30082
30092
30100
30104
30100
30108
30118
30116
30116
30122
30128
30137
30144
30144
30145
30156
30162
30160
30162
30168
30172
30188
30184
30198
30193
30202
30212
30218
30216
30220
30224
30229
30228
30240
30252
30248
30244
30252
30264
30262
30274
30284
30286
30289
30296
30309
30312
30308
30313
30327
30332
30332
30337
30350
30344
30348
30352
30361
30368
30360
30385
30380
30388
30396
30397
30404
30404
30412
30420
30424
30420
30424
30436
30432
30448
30452
30452
30458
30460
30462
30468
30474
30484
30496
30492
30494
30496
30502
30505
30516
30514
30520
30528
30538
30541
30534
30540
30554
30551
30562
30560
30556
30568
30580
30588
30590
30597
30588
30612
30612
30622
30624
30624
30634
30631
30634
30628
30654
30644
30652
30660
30660
30664
30681
30688
30685
30688
30685
30703
30708
30716
30712
30720
30712
30732
30725
30733
30730
30736
30744
30753
30750
30762
30760
30764
30772
30780
30788
30792
30800
30805
30810
30805
30806
30818
30821
30828
30824
30820
30840
30836
30857
30850
30861
30864
30854
30876
30872
30886
30880
30876
30897
30905
30906
30905
30902
30909
30922
30922
30920
30920
30938
30932
30936
30942
30962
30960
30956
30960
30972
30980
30980
30969
30969
30976
30999
31000
30996
30999
31006
31005
31012
31029
31018
31024
31028
31040
31041
31047
31048
31044
31052
31061
31072
31066
31062
31066
31072
31092
31084
31080
31080
31100
31102
31102
31108
31118
31124
31116
31116
31130
31141
31140
31140
31134
31140
31143
31149
31148
31156
31168
31170
31166
31164
31176
31177
31188
31193
31184
31194
31201
31205
31201
31204
31213
31236
31216
31220
31224
31230
31239
31233
31226
31233
31246
31252
31258
31256
31260
31260
31268
31274
31263
31272
31274
31270
31276
31280
31292
31284
31292
31287
31300
31300
31312
31296
31310
31316
31316
31312
31324
31332
31332
31328
31320
31334
31333
31334
31340
31335
31336
31348
31348
31356
31350
31356
31368
31361
31364
31364
31366
31364
31360
31373
31386
31368
31368
31372
31384
31380
31375
31391
31392
31393
31390
31397
31396
31396
31399
31396
31400
31396
31413
31408
31402
31396
31408
31408
31416
31412
31410
31412
31404
31424
31422
31432
31427
31420
31416
31430
31432
31430
31422
31424
31422
31432
31428
31428
31428
31428
31432
31440
31436
31436
31430
31432
31437
31445
31436
31442
31448
31440
31438
31444
31452
31448
31438
31436
31444
31436
31438
31446
31433
31453
31446
31442
31444
31464
31442
31446
31452
31437
31436
31446
31444
31436
31440
31440
31448
31444
31435
31444
31449
31448
31448
31441
31448
31444
31452
31446
31444
31452
31442
31440
31454
31448
31440
31452
31448
31452
31449
31453
31444
31454
31446
31454
31460
31456
31445
31456
31464
31456
31438
31465
31452
31452
31453
31460
31449
31444
31444
31460
31448
31442
31457
31456
31452
31456
31456
31444
31450
31458
31444
31442
31450
31456
31438
31439
31448
31442
31441
31448
31436
31440
31446
31448
31452
31442
31452
31448
31452
31445
31444
31452
31448
31441
31448
31457
31450
31448
31448
31452
31448
31456
31461
31456
31458
31448
31460
31462
31456
31460
31464
31464
31462
31454
31460
31464
31450
31460
31466
31460
31458
31466
31476
31458
31464
31468
31468
31457
31476
31472
31460
31474
31465
31462
31460
31460
31468
31468
31462
31460
31464
31468
31456
31461
31456
31452
31456
31456
31447
31453
31462
31448
31447
31448
31452
31444
31431
31442
31448
31444
31440
31440
31452
31440
31434
31431
31440
31452
31444
31432
31436
31447
31440
31440
31428
31444
31445
31428
31432
31440
31428
31425
31436
31445
31428
31428
31447
31436
31439
31437
31444
31428
31432
31440
31428
31424
31441
31429
31428
31436
31436
31436
31450
31442
31428
31444
31450
31436
31436
31454
31444
31440
31450
31446
31442
31446
31445
31434
31438
31448
31448
31436
31449
31452
31446
31448
31458
31448
31446
31454
31452
31440
31448
31452
31452
31437
31444
31460
31448
31440
31446
31448
31442
31447
31460
31444
31441
31450
31454
31444
31440
31447
31452
31444
31440
31448
31448
31441
31440
31448
31456
31447
31446
31452
31452
31454
31441
31448
31452
31452
31444
31460
31448
31448
31452
31453
31456
31448
31456
31452
31440
31452
31455
31456
31454
31460
31460
31446
31458
31464
31464
31462
31460
31464
31464
31460
31456
31464
31458
31461
31476
31468
31460
31482
31472
31477
31476
31480
31473
31472
31480
31480
31484
31480
31480
31485
31485
31473
31484
31485
31484
31494
31490
31497
31498
31486
31498
31498
31492
31508
31488
31492
31501
31492
31500
31489
31496
31508
31496
31506
31501
31498
31514
31506
31506
31518
31508
31508
31522
31516
31520
31512
31512
31524
31512
31513
31517
31510
31524
31524
31516
31530
31524
31532
31532
31525
31534
31536
31544
31544
31534
31546
31534
31534
31544
31540
31532
31543
31540
31548
31551
31538
31550
31552
31543
31548
31550
31552
31558
31544
31552
31550
31556
31554
31548
31555
31550
31552
31550
31564
31544
31556
31556
31553
31554
31552
31552
31557
31556
31556
31552
31554
31556
31556
31553
31558
31550
31556
31562
31553
31568
31556
31556
31568
31568
31572
31572
31570
31580
31580
31584
31571
31576
31576
31574
31588
31584
31580
31580
31596
31582
31580
31590
31589
31588
31608
31600
31604
31588
31596
31617
31600
31598
31612
31604
31602
31612
31608
31608
31608
31604
31616
31614
31616
31616
31624
31620
31617
31625
31620
31615
31620
31629
31614
31617
31624
31614
31620
31628
31615
31620
31625
31626
31629
31621
31618
31628
31630
31621
31633
31628
31620
31625
31614
31620
31623
31622
31620
31628
31620
31630
31621
31624
31632
31624
31624
31638
31628
31630
31624
31624
31620
31623
31630
31622
31628
31622
31638
31628
31622
31626
31628
31628
31632
31625
31637
31620
31636
31624
31628
31636
31620
31638
31630
31629
31624
31612
31632
31620
31610
31624
31620
31618
31612
31618
31624
31612
31620
31622
31620
31604
31613
31616
31620
31600
31606
31610
31588
31596
31604
31599
31594
31601
31607
31600
31588
31594
31612
31601
31588
31592
31596
31586
31588
31588
31582
31588
31584
31577
31588
31588
31588
31580
31590
31586
31580
31580
31589
31584
31580
31588
31580
31574
31570
31582
31570
31565
31588
31560
31566
31585
31560
31562
31572
31572
31560
31564
31578
31572
31553
31552
31556
31561
31543
31546
31556
31528
31532
31540
31532
31534
31532
31529
31522
31534
31524
31520
31508
31524
31524
31504
31506
31508
31492
31492
31496
31488
31471
31476
31472
31473
31460
31472
31468
31454
31456
31452
31454
31441
31433
31428
31446
31424
31416
31422
31424
31416
31404
31404
31412
31404
31394
31389
31393
31397
31390
31380
31380
31380
31372
31370
31365
31366
31360
31361
31357
31356
31343
31336
31340
31342
31330
31324
31332
31336
31324
31316
31332
31314
31312
31308
31306
31288
31298
31294
31280
31285
31288
31278
31268
31268
31272
31272
31264
31256
31256
31252
31252
31258
31256
31244
31238
31216
31234
31236
31232
31217
31209
31218
31212
31220
31226
31210
31204
31210
31220
31196
31207
31208
31201
31204
31205
31201
31180
31193
31196
31180
31188
31196
31184
31180
31180
31192
31181
31180
31192
31176
31175
31166
31174
31168
31172
31166
31156
31164
31164
31159
31152
31160
31152
31143
31148
31158
31142
31146
31150
31140
31132
31142
31140
31121
31124
31130
31112
31110
31118
31116
31103
31100
31108
31098
31095
31098
31096
31088
31084
31086
31081
31072
31072
31070
31068
31052
31052
31054
31046
31042
31040
31034
31034
31038
31020
31022
31032
31028
31018
31015
31008
31009
31018
31010
30986
30992
30997
30994
30988
30968
30982
30980
30974
30972
30960
30960
30968
30958
30954
30956
30957
30950
30948
30954
30950
30932
30942
30949
30930
30931
30932
30924
30922
30920
30916
30918
30926
30910
30912
30916
30908
30910
30912
30897
30896
30904
30884
30886
30882
30888
30884
30869
30878
30880
30880
30870
30864
30868
30864
30868
30862
30874
30856
30846
30856
30855
30852
30836
30848
30849
30835
30828
30833
30828
30824
30825
30823
30814
30818
30818
30810
30806
30804
30797
30798
30798
30786
30789
30782
30776
30788
30772
30765
30772
30768
30764
30760
30769
30757
30744
30754
30756
30732
30744
30734
30738
30732
30720
30718
30725
30720
30708
30704
30716
30706
30700
30684
30696
30700
30693
30680
30682
30692
30684
30670
30680
30668
30656
30661
30660
30654
30660
30648
30660
30654
30647
30646
30640
30644
30634
30632
30642
30624
30623
30622
30626
30610
30600
30604
30608
30596
30591
30596
30598
30582
30584
30596
30582
30580
30581
30582
30558
30560
30562
30564
30549
30528
30548
30532
30528
30532
30526
30520
30512
30516
30510
30510
30512
30503
30485
30492
30496
30488
30478
30470
30468
30472
30449
30445
30452
30461
30434
30445
30436
30432
30428
30436
30428
30416
30422
30416
30400
30402
30404
30390
30396
30396
30383
30369
30377
30385
30361
30362
30354
30368
30360
30341
30350
30351
30345
30332
30344
30330
30324
30325
30312
30302
30306
30300
30297
30288
30296
30285
30276
30285
30271
30268
30268
30272
30261
30260
30268
30240
30245
30249
30238
30237
30237
30226
30216
30222
30205
30208
30208
30204
30206
30196
30198
30189
30190
30182
30168
30174
30168
30157
30158
30156
30144
30137
30140
30141
30136
30124
30116
30119
30126
30116
30105
30108
30106
30108
30096
30088
30096
30098
30082
30080
30076
30080
30064
30068
30070
30062
30056
30060
30056
30048
30041
30041
30052
30038
30036
30036
30032
30025
30028
30020
30029
30013
30006
30008
30008
30016
30004
29992
30002
30000
29993
29995
29992
29993
29996
29994
29980
29978
29982
29980
29969
29967
29972
29959
29952
29962
29960
29954
29952
29952
29945
29949
29948
29938
29928
29937
29928
29930
29925
29919
29923
29919
29902
29908
29914
29904
29902
29892
29884
29894
29897
29886
29876
29874
29888
29872
29864
29866
29864
29860
29852
29854
29851
29844
29840
29838
29830
29830
29830
29824
29825
29813
29815
29816
29813
29802
29796
29801
29796
29792
29788
29786
29786
29786
29775
29770
29768
29772
29764
29756
29759
29762
29758
29750
29746
29750
29738
29729
29732
29728
29732
29713
29729
29716
29712
29716
29716
29706
29704
29700
29692
29698
29692
29681
29674
29680
29678
29668
29658
29666
29658
29650
29652
29648
29648
29644
29638
29632
29634
29634
29624
29612
29618
29624
29612
29605
29606
29600
29598
29596
29580
29572
29572
29572
29572
29564
29568
29550
29554
29562
29556
29556
29548
29552
29538
29532
29530
29528
29526
29520
29519
29502
29505
29508
29493
29494
29480
29484
29488
29482
29477
29470
29473
29485
29472
29460
29455
29448
29460
29448
29438
29432
29444
29444
29430
29418
29413
29420
29423
29408
29408
29410
29409
29401
29390
29388
29388
29374
29376
29380
29366
29356
29356
29350
29348
29340
29340
29334
29334
29329
29332
29324
29320
29310
29305
29305
29300
29300
29288
29288
29280
29280
29276
29265
29260
29260
29256
29258
29249
29238
29234
29237
29236
29229
29220
29212
29216
29218
29209
29204
29194
29204
29198
29192
29194
29188
29180
29175
29169
29160
29170
29165
29166
29164
29167
29157
29142
29144
29138
29146
29150
29137
29134
29126
29133
29132
29123
29121
29124
29116
29128
29120
29113
29108
29112
29116
29101
29100
29092
29092
29094
29088
29086
29076
29070
29084
29073
29064
29064
29068
29074
29062
29052
29047
29048
29050
29045
29041
29029
29028
29036
29031
29020
29021
29013
29014
29020
29008
29008
29002
29006
29008
28992
28994
28996
28996
28980
28996
28986
28982
28973
28972
28977
28968
28964
28963
28967
28965
28953
28954
28962
28952
28948
28953
28953
28952
28940
28939
28952
28936
28932
28937
28932
28924
28930
28930
28924
28920
28915
28932
28914
28909
28924
28922
28908
28904
28915
28909
28904
28900
28888
28901
28898
28900
28888
28888
28894
28892
28892
28881
28885
28893
28885
28876
28880
28884
28881
28868
28868
28868
28862
28864
28860
28871
28864
28864
28855
28857
28856
28858
28848
28856
28861
28853
28853
28846
28846
28844
28832
28834
28832
28838
28844
28836
28837
28833
28830
28836
28831
28836
28832
28824
28824
28828
28832
28828
28824
28821
28814
28812
28808
28812
28808
28812
28817
28800
28802
28808
28812
28814
28808
28808
28796
28800
28800
28798
28795
28794
28804
28790
28788
28781
28786
28788
28790
28784
28784
28798
28786
28783
28777
28792
28781
28782
28777
28776
28780
28772
28778
28780
28768
28761
28772
28772
28770
28760
28752
28770
28769
28760
28750
28758
28762
28756
28753
28759
28760
28753
28744
28742
28756
28740
28737
28726
28733
28740
28732
28737
28734
28729
28724
28724
28716
28718
28720
28720
28723
28717
28703
28708
28706
28700
28696
28692
28697
28704
28694
28692
28692
28697
28694
28696
28687
28692
28686
28692
28694
28676
28678
28678
28678
28664
28672
28674
28671
28668
28656
28661
28663
28662
28660
28658
28649
28652
28648
28660
28652
28644
28636
28642
28638
28638
28620
28634
28632
28630
28623
28624
28628
28626
28617
28608
28614
28620
28617
28620
28618
28598
28608
28610
28600
28600
28604
28612
28615
28596
28600
28598
28590
28600
28600
28600
28592
28594
28590
28598
28594
28588
28580
28576
28593
28584
28580
28574
28581
28592
28580
28580
28581
28574
28576
28588
28578
28576
28564
28578
28578
28574
28569
28570
28574
28572
28558
28568
28568
28568
28556
28580
28564
28556
28560
28570
28569
28561
28564
28574
28561
28556
28568
28562
28560
28557
28561
28560
28556
28556
28560
28548
28550
28558
28553
28548
28552
28558
28542
28552
28556
28536
28550
28548
28545
28536
28544
28538
28532
28540
28546
28533
28534
28540
28542
28540
28532
28542
28536
28522
28532
28538
28529
28521
28520
28524
28521
28515
28516
28513
28520
28524
28532
28510
28518
28524
28524
28508
28508
28510
28512
28508
28504
28500
28517
28496
28494
28496
28508
28493
28484
28490
28502
28497
28489
28492
28494
28504
28485
28488
28492
28496
28488
28476
28484
28489
28484
28486
28480
28488
28492
28492
28480
28485
28484
28487
28492
28484
28472
28480
28484
28484
28484
28472
28472
28478
28480
28480
28484
28480
28476
28485
28470
28480
28484
28478
28472
28472
28479
28478
28476
28484
28472
28465
28474
28472
28474
28466
28480
28478
28474
28465
28473
28477
28476
28474
28472
28490
28474
28470
28474
28473
28480
28474
28468
28470
28469
28474
28472
28484
28472
28476
28476
28473
28478
28484
28474
28476
28479
28484
28468
28463
28476
28472
28476
28464
28466
28484
28477
28456
28468
28472
28470
28476
28478
28473
28461
28460
28472
28476
28466
28460
28462
28462
28466
28460
28460
28474
28464
28456
28466
28464
28470
28458
28456
28457
28462
28461
28464
28453
28452
28460
28462
28456
28452
28458
28462
28466
28464
28460
28448
28456
28464
28464
28468
28464
28456
28464
28464
28469
28462
28452
28454
28452
28459
28456
28450
28448
28458
28460
28462
28464
28458
28453
28466
28462
28461
28462
28462
28470
28466
28468
28468
28464
28460
28460
28464
28472
28468
28458
28466
28468
28468
28464
28460
28464
28468
28476
28476
28462
28466
28472
28472
28470
28462
28458
28468
28466
28463
28452
28460
28476
28470
28460
28468
28466
28472
28474
28472
28470
28468
28468
28462
28469
28474
28469
28462
28464
28472
28476
28477
28468
28476
28480
28473
28484
28478
28476
28464
28478
28481
28472
28478
28484
28484
28478
28477
28481
28484
28476
28478
28484
28480
28466
28480
28493
28485
28482
28478
28480
28484
28479
28472
28476
28480
28474
28469
28466
28476
28476
28468
28468
28462
28456
28472
28473
28480
28468
28457
28457
28462
28461
28454
28452
28456
28452
28444
28453
28444
28436
28436
28452
28448
28440
28438
28438
28437
28441
28440
28432
28430
28432
28436
28434
28416
28420
28425
28437
28425
28430
28429
28420
28424
28432
28426
28425
28417
28423
28428
28426
28420
28412
28408
28417
28412
28408
28404
28404
28412
28420
28416
28416
28396
28408
28416
28416
28412
28412
28405
28404
28396
28397
28396
28396
28398
28406
28400
28394
28392
28396
28396
28388
28396
28400
28397
28399
28400
28392
28391
28396
28396
28388
28380
28386
28388
28388
28390
28391
28367
28372
28380
28388
28384
28384
28376
28376
28389
28385
28382
28380
28378
28378
28377
28366
28376
28374
28388
28382
28373
28374
28372
28374
28376
28376
28384
28375
28378
28378
28381
28388
28386
28376
28372
28368
28380
28378
28370
28376
28384
28383
28374
28380
28388
28384
28384
28385
28392
28394
28390
28384
28388
28397
28389
28380
28385
28388
28382
28389
28392
28391
28396
28389
28396
28402
28407
28394
28399
28405
28404
28402
28404
28414
28402
28404
28412
28410
28400
28406
28412
28413
28405
28406
28421
28416
28414
28415
28417
28424
28416
28414
28434
28417
28408
28418
28418
28418
28416
28426
28424
28413
28416
28436
28432
28412
28438
28432
28434
28414
28430
28436
28440
28432
28434
28430
28434
28445
28438
28445
28436
28436
28452
28454
28444
28448
28440
28452
28455
28458
28456
28452
28457
28463
28461
28468
28456
