RESPIRATION
32597
32604
32596
32600
32592
32596
32588
32596
32584
32582
32580
32572
32576
32582
32572
32577
32568
32573
32566
32561
32559
32558
32568
32565
32557
32550
32548
32564
32548
32550
32544
32546
32542
32540
32540
32538
32526
32534
32524
32516
32516
32514
32516
32519
32500
32492
32492
32485
32478
32477
32485
32466
32470
32466
32456
32450
32441
32444
32444
32440
32438
32436
32438
32428
32428
32417
32421
32420
32412
32412
32422
32416
32406
32412
32412
32412
32404
32409
32406
32401
32406
32396
32392
32390
32400
32394
32388
32385
32389
32382
32378
32366
32368
32368
32370
32364
32360
32350
32348
32348
32335
32342
32336
32325
32325
32328
32320
32320
32316
32302
32302
32312
32308
32298
32296
32300
32288
32284
32284
32288
32276
32286
32276
32281
32272
32268
32272
32270
32272
32270
32270
32273
32276
32268
32270
32269
32269
32269
32268
32264
32268
32265
32272
32264
32268
32262
32263
32265
32258
32266
32257
32263
32268
32264
32257
32263
32261
32256
32256
32254
32256
32262
32260
32260
32258
32258
32254
32249
32249
32250
32246
32252
32244
32248
32239
32239
32236
32236
32225
32229
32228
32228
32223
32220
32220
32212
32204
32204
32198
32192
32190
32186
32186
32180
32183
32172
32164
32165
32164
32161
32150
32140
32133
32133
32124
32124
32124
32116
32117
32108
32100
32100
32090
32080
32090
32076
32060
32068
32064
32051
32050
32040
32048
32040
32030
32033
32024
32025
32017
32004
32001
31996
31982
31990
31980
31968
31965
31960
31940
31948
31944
31934
31928
31921
31908
31906
31900
31888
31884
31878
31872
31862
31857
31856
31848
31840
31825
31820
31818
31804
31804
31796
31786
31780
31770
31764
31758
31752
31745
31726
31732
31724
31708
31701
31688
31676
31672
31666
31672
31649
31648
31641
31637
31632
31620
31620
31607
31606
31592
31588
31588
31566
31565
31553
31544
31548
31541
31528
31519
31521
31516
31502
31504
31492
31484
31484
31468
31460
31456
31450
31452
31436
31436
31432
31428
31420
31412
31402
31402
31392
31388
31386
31372
31372
31365
31368
31358
31348
31348
31342
31332
31328
31327
31317
31316
31304
31308
31300
31296
31284
31284
31281
31268
31272
31264
31264
31256
31256
31249
31240
31236
31232
31222
31228
31220
31216
31212
31210
31193
31197
31191
31190
31188
31176
31172
31170
31164
31160
31158
31160
31148
31150
31140
31138
31132
31132
31127
31117
31116
31114
31112
31100
31108
31094
31092
31085
31080
31073
31072
31074
31068
31065
31061
31056
31052
31044
31042
31052
31036
31044
31038
31040
31026
31036
31024
31020
31025
31017
31013
31014
31013
31007
31002
31001
30992
30998
30991
30992
30982
30994
30984
30980
30984
30976
30980
30967
30966
30968
30968
30964
30964
30964
30962
30953
30950
30951
30952
30944
30945
30944
30948
30940
30933
30938
30936
30933
30924
30929
30921
30924
30925
30920
30928
30914
30916
30916
30916
30913
30916
30912
30912
30904
30900
30908
30904
30904
30897
30908
30903
30904
30901
30896
30890
30894
30890
30894
30893
30894
30892
30888
30882
30884
30880
30884
30881
30884
30876
30872
30876
30868
30868
30868
30877
30870
30868
30864
30858
30855
30856
30844
30848
30848
30850
30832
30831
30837
30830
30828
30830
30824
30820
30823
30812
30820
30812
30809
30806
30796
30792
30790
30792
30788
30780
30780
30776
30772
30765
30770
30760
30754
30756
30748
30744
30744
30724
30724
30718
30717
30706
30704
30700
30692
30700
30692
30689
30684
30684
30672
30668
30660
30660
30656
30652
30644
30647
30636
30647
30629
30646
30630
30632
30632
30621
30621
30620
30615
30617
30616
30606
30608
30612
30613
30606
30608
30601
30596
30594
30582
30584
30583
30574
30574
30566
30564
30552
30548
30552
30537
30540
30524
30526
30520
30513
30501
30492
30482
30476
30464
30464
30452
30444
30441
30426
30421
30410
30401
30392
30389
30377
30368
30370
30359
30348
30340
30332
30316
30310
30304
30292
30292
30277
30268
30269
30260
30252
30240
30237
30228
30214
30224
30209
30210
30192
30186
30188
30177
30176
30164
30160
30154
30148
30136
30134
30129
30132
30124
30124
30116
30119
30105
30116
30110
30096
30094
30096
30085
30080
30079
30076
30070
30072
30064
30066
30069
30065
30056
30052
30052
30052
30052
30053
30044
30044
30040
30039
30040
30038
30032
30028
30030
30032
30032
30032
30032
30020
30021
30025
30017
30028
30018
30020
30016
30014
30016
30004
30008
29994
29992
29995
29987
29980
29977
29976
29968
29968
29952
29960
29956
29953
29952
29938
29930
29928
29924
29921
29916
29906
29897
29900
29889
29884
29872
29876
29860
29860
29852
29844
29839
29825
29828
29824
29820
29804
29796
29796
29785
29780
29776
29762
29764
29752
29756
29744
29736
29732
29728
29711
29704
29701
29696
29694
29684
29680
29677
29666
29660
29663
29653
29650
29644
29640
29636
29636
29628
29620
29614
29606
29608
29600
29597
29592
29589
29592
29585
29584
29580
29581
29576
29568
29569
29566
29560
29560
29560
29556
29550
29548
29540
29541
29545
29544
29540
29536
29542
29540
29542
29536
29534
29530
29529
29528
29522
29520
29532
29518
29524
29525
29522
29524
29524
29521
29520
29522
29516
29520
29522
29510
29520
29518
29522
29520
29523
29508
29522
29516
29512
29528
29512
29524
29519
29520
29522
29532
29533
29524
29524
29528
29527
29529
29528
29527
29530
29524
29538
29524
29530
29530
29532
29532
29540
29536
29544
29540
29544
29540
29541
29548
29548
29544
29560
29552
29558
29551
29556
29556
29556
29570
29572
29568
29566
29576
29574
29576
29580
29576
29578
29584
29585
29599
29596
29606
29606
29608
29608
29620
29612
29612
29618
29632
29630
29632
29628
29644
29640
29642
29656
29652
29652
29657
29660
29676
29665
29668
29676
29670
29673
29686
29689
29693
29693
29688
29691
29700
29708
29706
29713
29712
29724
29724
29733
29734
29743
29743
29746
29744
29756
29766
29769
29772
29784
29794
29796
29796
29798
29807
29816
29831
29831
29840
29836
29839
29852
29852
29868
29868
29872
29873
29880
29886
29885
29892
29896
29900
29892
29902
29902
29908
29918
29916
29918
29924
29924
29918
29926
29929
29927
29924
29940
29937
29932
29940
29941
29940
29944
29948
29940
29945
29948
29952
29948
29950
29961
29956
29962
29962
29962
29968
29964
29972
29970
29972
29973
29980
29980
29983
29981
29984
29993
29993
29996
30000
29996
30008
30008
30008
30018
30020
30017
30024
30025
30027
30032
30033
30032
30040
30044
30048
30060
30056
30060
30060
30064
30068
30077
30074
30086
30085
30086
30092
30100
30105
30105
30102
30104
30113
30116
30124
30126
30126
30121
30140
30137
30137
30144
30141
30146
30156
30151
30156
30168
30164
30170
30170
30172
30174
30180
30178
30178
30184
30192
30196
30190
30198
30194
30200
30208
30206
30210
30218
30222
30212
30217
30234
30228
30228
30233
30224
30240
30240
30240
30244
30249
30248
30244
30249
30258
30262
30264
30268
30273
30278
30271
30280
30278
30276
30286
30286
30288
30298
30296
30304
30297
30304
30300
30308
30312
30308
30316
30313
30316
30316
30320
30328
30325
30330
30337
30332
30338
30340
30333
30343
30344
30348
30342
30342
30356
30344
30348
30344
30351
30353
30356
30352
30355
30364
30358
30357
30360
30354
30356
30360
30362
30360
30356
30364
30353
30352
30354
30356
30344
30349
30351
30350
30353
30350
30354
30348
30345
30345
30340
30342
30344
30342
30336
30334
30335
30336
30324
30332
30324
30332
30334
30332
30334
30328
30324
30316
30321
30316
30321
30319
30324
30313
30309
30309
30314
30306
30310
30312
30312
30308
30301
30304
30302
30298
30302
30302
30294
30300
30300
30292
30301
30296
30296
30297
30292
30300
30296
30292
30295
30286
30285
30296
30288
30292
30288
30290
30295
30280
30294
30292
30292
30296
30286
30284
30287
30284
30294
30285
30284
30276
30280
30274
30277
30281
30282
30276
30276
30276
30276
30278
30281
30285
30273
30280
30278
30277
30280
30284
30278
30280
30280
30276
30284
30276
30276
30282
30277
30279
30276
30281
30282
30277
30281
30276
30282
30284
30284
30282
30284
30284
30284
30292
30293
30280
30292
30286
30280
30287
30286
30292
30289
30289
30294
30293
30300
30292
30295
30301
30304
30296
30296
30293
30297
30308
30301
30308
30298
30308
30308
30306
30312
30310
30307
30316
30308
30313
30316
30316
30316
30318
30320
30317
30324
30320
30337
30332
30341
30340
30333
30330
30334
30348
30353
30348
30348
30357
30350
30352
30356
30366
30360
30367
30361
30372
30376
30364
30372
30382
30388
30388
30388
30394
30396
30393
30396
30401
30402
30408
30412
30412
30416
30418
30416
30428
30428
30438
30432
30436
30440
30436
30448
30450
30448
30448
30455
30453
30460
30465
30472
30464
30477
30476
30476
30476
30479
30482
30488
30488
30498
30500
30493
30508
30511
30508
30514
30518
30519
30512
30520
30524
30532
30530
30540
30536
30541
30550
30548
30548
30552
30556
30560
30566
30568
30572
30572
30566
30573
30576
30580
30576
30584
30596
30596
30598
30593
30606
30604
30607
30600
30608
30614
30616
30624
30623
30628
30636
30636
30629
30645
30629
30630
30636
30636
30636
30645
30648
30649
30648
30645
30652
30662
30658
30660
30666
30668
30673
30676
30678
30680
30690
30681
30678
30692
30694
30702
30700
30696
30704
30709
30705
30716
30716
30728
30729
30738
30744
30744
30752
30748
30760
30760
30757
30771
30776
30782
30777
30784
30796
30784
30804
30796
30801
30804
30806
30804
30804
30805
30814
30806
30809
30808
30816
30820
30816
30816
30812
30820
30826
30820
30822
30820
30826
30822
30817
30818
30833
30828
30826
30827
30828
30830
30832
30832
30824
30833
30837
30830
30821
30820
30824
30826
30820
30828
30818
30824
30813
30816
30815
30804
30812
30804
30804
30808
30804
30801
30799
30796
30800
30798
30800
30796
30794
30784
30796
30796
30796
30784
30784
30792
30784
30790
30792
30788
30792
30784
30790
30792
30784
30790
30792
30784
30788
30792
30790
30791
30784
30793
30790
30797
30796
30796
30794
30792
30796
30792
30800
30796
30794
30796
30796
30784
30795
30793
30788
30794
30794
30794
30786
30784
30792
30788
30797
30788
30782
30784
30768
30778
30774
30776
30768
30772
30772
30766
30757
30760
30753
30756
30750
30752
30748
30744
30744
30742
30736
30734
30728
30728
30720
30714
30713
30716
30696
30696
30696
30695
30694
30690
30691
30684
30681
30672
30664
30661
30666
30662
30656
30660
30657
30654
30655
30642
30640
30639
30636
30634
30630
30628
30624
30621
30620
30621
30616
30620
30612
30608
30606
30604
30606
30589
30594
30596
30590
30588
30584
30582
30576
30580
30572
30574
30565
30564
30567
30568
30560
30566
30556
30552
30553
30548
30548
30552
30549
30548
30541
30542
30533
30532
30532
30532
30533
30532
30534
30529
30528
30522
30524
30521
30527
30524
30528
30524
30521
30532
30526
30522
30524
30536
30526
30532
30516
30528
30533
30530
30532
30526
30532
30544
30534
30532
30542
30542
30548
30551
30548
30556
30552
30552
30564
30563
30562
30568
30570
30568
30580
30580
30585
30584
30584
30588
30592
30596
30597
30598
30602
30604
30613
30624
30616
30629
30626
30633
30628
30644
30641
30649
30650
30652
30657
30662
30672
30670
30684
30676
30679
30688
30696
30700
30709
30708
30713
30714
30724
30730
30736
30742
30736
30748
30752
30761
30764
30776
30780
30784
30784
30798
30789
30799
30804
30809
30816
30825
30820
30834
30836
30844
30852
30852
30852
30866
30872
30880
30884
30884
30886
30904
30906
30908
30912
30924
30924
30930
30942
30945
30946
30950
30959
30966
30962
30976
30992
30992
30990
31001
31012
31018
31025
31040
31042
31044
31049
31058
31082
31084
31094
31100
31113
31116
31118
31133
31141
31150
31156
31158
31170
31180
31186
31182
31197
31204
31206
31217
31222
31224
31236
31238
31237
31244
31254
31266
31265
31272
31276
31276
31288
31292
31294
31296
31308
31312
31312
31328
31319
31332
31328
31340
31344
31348
31352
31356
31356
31366
31370
31376
31376
31384
31388
31392
31396
31412
31407
31409
31420
31425
31432
31424
31441
31438
31444
31456
31456
31465
31468
31476
31476
31482
31489
31488
31496
31500
31522
31524
31522
31532
31530
31532
31538
31542
31541
31557
31560
31566
31567
31572
31580
31577
31584
31585
31596
31601
31608
31620
31610
31612
31616
31620
31624
31637
31630
31640
31641
31645
31652
31660
31652
31666
31676
31676
31673
31681
31681
31685
31690
31705
31700
31708
31713
31708
31719
31724
31727
31724
31736
31744
31748
31750
31753
31757
31765
31764
31780
31780
31782
31788
31788
31798
31800
31813
31822
31813
31826
31828
31834
31838
31845
31850
31855
31872
31863
31871
31876
31878
31892
31893
31894
31898
31904
31910
31918
31916
31922
31932
31942
31948
31940
31948
31956
31957
31960
31968
31972
31980
31977
31984
31984
31991
32004
32010
32012
32014
32021
32024
32036
32032
32032
32044
32052
32049
32055
32064
32064
32066
32078
32076
32087
32084
32088
32097
32096
32108
32102
32112
32120
32118
32124
32126
32137
32140
32148
32160
32158
32159
32168
32164
32168
32173
32184
32196
32194
32200
32209
32212
32221
32217
32228
32240
32244
32248
32264
32268
32273
32284
32292
32298
32302
32312
32311
32320
32336
32340
32350
32356
32366
32376
32384
32391
32400
32399
32424
32426
32439
32452
32456
32462
32468
32484
32492
32488
32512
32516
32529
32546
32549
32559
32560
32572
32584
32598
32609
32617
32621
32640
32644
32654
32666
32680
32688
32701
32704
32716
32720
32738
32742
32760
32764
32776
32782
32798
32804
32812
32817
32836
32836
32847
32862
32873
32878
32886
32900
32910
32918
32930
32936
32944
32958
32964
32970
32989
32986
33004
33012
33020
33036
33037
33052
33056
33056
33070
33084
33092
33111
33114
33112
33120
33132
33140
33148
33157
33156
33172
33184
33184
33196
33205
33210
33210
33228
33230
33236
33244
33254
33262
33263
33268
33285
33292
33290
33304
33310
33320
33324
33326
33332
33340
33356
33356
33360
33376
33372
33380
33384
33390
33394
33409
33408
33412
33420
33426
33424
33440
33446
33446
33460
33452
33460
33466
33460
33476
33476
33484
33480
33490
33489
33492
33500
33508
33508
33506
33508
33518
33512
33509
33526
33520
33528
33534
33534
33540
33532
33535
33540
33549
33544
33544
33544
33551
33552
33548
33566
33559
33568
33565
33564
33570
33572
33570
33572
33576
33580
33580
33585
33586
33592
33588
33588
33592
33598
33595
33600
33604
33604
33613
33608
33618
33616
33628
33612
33628
33623
33624
33634
33628
33635
33636
33640
33646
33644
33654
33656
33654
33648
33661
33666
33664
33666
33670
33676
33684
33688
33692
33692
33700
33700
33692
33702
33706
33709
33716
33712
33730
33732
33730
33736
33734
33748
33740
33751
33744
33740
33752
33761
33758
33764
33765
33764
33776
33774
33780
33783
33789
33780
33786
33788
33790
33793
33792
33796
33802
33798
33804
33802
33806
33806
33812
33807
33808
33814
33814
33820
33813
33820
33814
33816
33818
33814
33814
33816
33812
33814
33820
33813
33816
33812
33822
33820
33804
33812
33806
33808
33813
33805
33812
33800
33804
33804
33800
33800
33806
33796
33808
33808
33793
33798
33796
33800
33796
33800
33796
33800
33804
33802
33799
33812
33812
33809
33801
33812
33814
33816
33820
33821
33817
33822
33828
33828
33832
33836
33829
33839
33840
33840
33838
33840
33836
33832
33834
33836
33838
33838
33841
33828
33834
33830
33829
33826
33824
33818
33815
33820
33820
33824
33812
33805
33810
33813
33804
33804
33798
33796
33796
33799
33788
33800
33789
33780
33780
33772
33776
33780
33777
33766
33764
33764
33760
33761
33758
33753
33752
33755
33749
33741
33736
33741
33732
33745
33732
33726
33716
33724
33716
33720
33725
33716
33712
33705
33712
33708
33704
33705
33705
33706
33696
33702
33700
33708
33704
33696
33701
33696
33696
33706
33708
33705
33705
33696
33706
33697
33692
33700
33701
33696
33704
33703
33708
33706
33704
33700
33700
33704
33704
33700
33704
33696
33693
33696
33700
33688
33697
33700
33700
33696
33700
33697
33694
33695
33685
33686
33688
33690
33681
33676
33676
33676
33672
33664
33664
33654
33656
33652
33648
33649
33649
33637
33636
33624
33628
33614
33615
33604
33602
33594
33590
33588
33574
33572
33568
33560
33556
33544
33547
33536
33537
33524
33524
33509
33504
33498
33492
33486
33478
33468
33474
33461
33462
33454
33438
33444
33422
33424
33413
33412
33412
33405
33400
33397
33393
33391
33381
33374
33368
33368
33368
33360
33356
33348
33352
33336
33344
33328
33321
33328
33320
33316
33318
33308
33308
33302
33302
33290
33303
33292
33292
33276
33278
33265
33272
33272
33268
33260
33262
33256
33256
33260
33252
33252
33246
33248
33244
33237
33241
33232
33237
33236
33238
33240
33226
33226
33236
33224
33221
33232
33222
33224
33220
33220
33218
33216
33224
33224
33220
33218
33220
33216
33218
33222
33218
33220
33229
33228
33230
33228
33226
33220
33220
33224
33232
33232
33237
33237
33242
33236
33242
33236
33238
33245
33245
33249
33236
33253
33252
33250
33260
33264
33269
33264
33274
33272
33280
33284
33280
33285
33286
33300
33294
33308
33304
33306
33318
33312
33328
33322
33324
33324
33326
33335
33338
33345
33348
33349
33349
33348
33368
33364
33364
33372
33380
33381
33388
33384
33388
33390
33396
33396
33400
33408
33412
33408
33420
33428
33423
33436
33424
33435
33438
33430
33436
33440
33444
33444
33448
33452
33455
33462
33452
33462
33462
33463
33472
33472
33472
33482
33484
33494
33492
33488
33492
33501
33503
33504
33504
33510
33533
33528
33534
33536
33552
33552
33562
33560
33562
33572
33577
33574
33590
33584
33600
33604
33605
33610
33620
33622
33620
33623
33630
33632
33632
33636
33632
33652
33644
33652
33652
33656
33658
33662
33662
33669
33670
33666
33672
33676
33677
33684
33688
33690
33696
33696
33702
33702
33711
33700
33719
33710
33712
33722
33725
33730
33732
33734
33740
33741
33756
33752
33762
33764
33765
33770
33772
33776
33775
33792
33791
33791
33812
33806
33810
33820
33816
33829
33836
33842
33840
33847
33853
33862
33861
33876
33870
33876
33876
33892
33892
33892
33900
33908
33916
33916
33921
33924
33928
33932
33932
33932
33940
33940
33940
33940
33949
33957
33956
33958
33962
33956
33966
33964
33966
33964
33976
33977
33972
33976
33976
33984
33979
33988
33990
33984
33990
33984
33992
33988
33998
33988
33992
34000
34000
34001
34000
34006
34010
34004
34008
34008
34006
34009
34010
34008
34012
34008
34012
34021
34012
34008
34008
34012
34009
34010
34013
34012
34009
34012
34010
34013
34008
34002
34012
34000
34010
33993
34000
34004
33994
33989
33989
33988
33984
33985
33984
33990
33960
33972
33978
33960
33960
33956
33948
33950
33945
33940
33926
33933
33924
33922
33912
33917
33911
33893
33898
33889
33884
33879
33884
33868
33870
33869
33853
33852
33842
33836
33828
33828
33820
33814
33812
33804
33796
33788
33788
33782
33782
33772
33765
33761
33756
33748
33748
33744
33732
33716
33717
33717
33720
33702
33704
33694
33686
33681
33684
33672
33670
33668
33662
33640
33644
33634
33624
33634
33616
33614
33606
33608
33600
33588
33596
33578
33570
33572
33566
33566
33554
33544
33541
33525
33524
33524
33516
33504
33502
33489
33489
33476
33473
33458
33462
33448
33446
33439
33438
33424
33415
33414
33410
33396
33385
33380
33370
33368
33351
33350
33344
33332
33327
33324
33316
33308
33297
33285
33290
33276
33272
33256
33244
33240
33232
33224
33224
33214
33202
33204
33188
33178
33172
33160
33148
33138
33134
33130
33120
33116
33110
33100
33096
33080
33082
33064
33057
33052
33048
33044
33032
33031
33013
32998
32998
32990
32986
32976
32972
32962
32956
32944
32936
32935
32924
32911
32908
32908
32900
32888
32882
32880
32872
32864
32857
32844
32839
32831
32828
32816
32812
32800
32798
32794
32783
32775
32767
32758
32752
32744
32736
32729
32724
32710
32714
32696
32689
32681
32670
32666
32658
32652
32648
32630
32640
32629
32614
32612
32598
32588
32583
32580
32566
32568
32554
32554
32540
32532
32519
32528
32509
32505
32504
32496
32484
32476
32468
32456
32456
32448
32448
32448
32440
32431
32412
32416
32410
32404
32396
32392
32385
32380
32361
32356
32352
32352
32346
32332
32336
32320
32312
32316
32304
32294
32292
32284
32286
32272
32260
32257
32244
32236
32234
32222
32212
32212
32202
32196
32188
32180
32172
32169
32165
32149
32144
32140
32126
32124
32109
32108
32102
32090
32084
32073
32068
32057
32046
32042
32042
32028
32022
32018
32012
31992
31992
31972
31976
31956
31952
31942
31940
31921
31920
31912
31902
31892
31898
31885
31876
31872
31852
31849
31842
31840
31832
31828
31814
31809
31800
31793
31785
31774
31774
31760
31764
31752
31740
31742
31728
31724
31732
31716
31720
31705
31700
31690
31694
31680
31680
31670
31660
31660
31664
31652
31648
31640
31632
31624
31617
31604
31599
31598
31588
31573
31567
31554
31552
31540
31528
31524
31514
31495
31486
31484
31472
31454
31442
31428
31421
31416
31398
31397
31380
31364
31368
31352
31336
31329
31313
31309
31289
31284
31272
31264
31255
31249
31233
31228
31212
31205
31204
31201
31180
31180
31176
31156
31149
31143
31140
31132
31130
31108
31114
31106
31090
31090
31092
31077
31078
31064
31060
31048
31044
31049
31036
31028
31029
31017
31016
31009
31004
31006
30992
30990
30992
30977
30972
30956
30960
30957
30959
30948
30950
30928
30932
30925
30926
30918
30914
30903
30904
30900
30897
30886
30888
30884
30878
30880
30870
30865
30860
30865
30856
30852
30844
30841
30834
30832
30820
30821
30817
30806
30804
30798
30789
30788
30784
30768
30769
30770
30762
30750
30736
30740
30737
30720
30717
30700
30702
30692
30685
30686
30662
30657
30657
30648
30628
30628
30622
30620
30602
30598
30590
30577
30569
30562
30548
30542
30528
30524
30516
30513
30492
30492
30478
30467
30445
30446
30433
30428
30414
30406
30396
30388
30380
30377
30360
30356
30341
30333
30324
30316
30303
30292
30285
30274
30270
30268
30255
30246
30238
30228
30224
30217
30212
30197
30180
30180
30182
30164
30167
30164
30158
30150
30140
30132
30136
30124
30113
30116
30100
30101
30096
30080
30085
30076
30069
30064
30064
30056
30052
30052
30042
30036
30033
30030
30022
30016
30012
30004
30008
30002
29996
29996
29982
29980
29984
29968
29980
29971
29968
29968
29953
29953
29955
29952
29948
29946
29944
29940
29944
29940
29928
29928
29930
29927
29929
29932
29928
29924
29924
29917
29920
29916
29913
29912
29912
29912
29915
29908
29911
29910
29905
29916
29909
29908
29912
29902
29908
29900
29909
29910
29908
29906
29916
29920
29914
29920
29916
29916
29910
29908
29910
29920
29919
29920
29920
29924
29930
29934
29928
29933
29926
29929
29936
29932
29936
29940
29941
29940
29946
29948
29952
29960
29946
29956
29964
29960
29954
29960
29960
29965
29964
29970
29968
29974
29964
29976
29984
29974
29978
29986
29980
29978
29976
29984
29980
29976
29984
29985
29984
29986
29988
29988
29988
29992
29995
29997
29997
29994
30004
30002
30013
30018
30016
30020
30020
30020
30032
30037
30046
30043
30056
30055
30063
30062
30068
30068
30072
30082
30076
30081
30084
30084
30100
30088
30096
30096
30097
30097
30104
30100
30104
30100
30100
30101
30111
30108
30110
30112
30112
30106
30112
30108
30108
30109
30108
30104
30104
30106
30109
30109
30103
30109
30104
30100
30102
30098
30101
30105
30104
30101
30108
30104
30108
30108
30104
30104
30118
30108
30116
30113
30111
30112
30116
30116
30127
30124
30136
30124
30132
30126
30136
30136
30137
30144
30144
30142
30148
30156
30156
30156
30158
30164
30165
30168
30172
30180
30176
30180
30186
30192
30193
30196
30199
30200
30208
30208
30202
30220
30220
30224
30213
30225
30224
30228
30230
30228
30237
30230
30245
30242
30252
30248
30260
30246
30250
30260
30257
30260
30264
30264
30268
30266
30278
30277
30280
30286
30286
30293
30286
30292
30301
30294
30305
30308
30304
30304
30312
30312
30314
30324
30319
30324
30321
30326
30332
30331
30328
30331
30342
30340
30350
30356
30349
30352
30357
30356
30362
30364
30364
30368
30375
30372
30382
30380
30380
30380
30384
30382
30393
30384
30393
30382
30388
30398
30396
30401
30400
30395
30398
30392
30401
30400
30396
30400
30404
30398
30396
30404
30408
30404
30396
30400
30388
30396
30391
30394
30399
30390
30390
30388
30394
30386
30383
30394
30379
30382
30382
30372
30380
30376
30372
30368
30362
30364
30364
30359
30361
30357
30352
30354
30350
30340
30339
30333
30332
30332
30332
30329
30319
30320
30324
30321
30308
30309
30310
30300
30295
30300
30294
30302
30292
30286
30280
30280
30281
30273
30276
30272
30269
30264
30264
30257
30250
30242
30242
30240
30244
30238
30236
30231
30229
30228
30216
30216
30220
30216
30208
30208
30209
30200
30207
30204
30189
30193
30188
30188
30184
30178
30180
30174
30170
30168
30174
30165
30164
30160
30159
30160
30156
30152
30144
30149
30140
30140
30136
30136
30128
30140
30134
30137
30132
30124
30122
30124
30126
30124
30118
30120
30116
30112
30116
30108
30112
30112
30096
30104
30098
30102
30104
30097
30092
30082
30084
30088
30084
30093
30084
30088
30090
30084
30088
30080
30084
30088
30084
30080
30076
30072
30072
30072
30074
30072
30064
30072
30068
30068
30061
30065
30063
30060
30065
30063
30058
30056
30052
30052
30056
30052
30052
30046
30044
30044
30046
30044
30048
30048
30036
30036
30035
30030
30026
30022
30025
30028
30024
30018
30020
30020
30021
30018
30010
30016
30010
30010
30008
30008
30000
29998
29993
30004
30006
30000
29994
29992
29994
29988
29989
29992
29988
29982
29980
29984
29985
29976
29974
29986
29978
29989
29972
29972
29974
29967
29966
29966
29962
29964
29964
29960
29957
29958
29958
29952
29956
29948
29947
29956
29953
29944
29944
29945
29951
29940
29934
29940
29936
29932
29936
29947
29932
29946
29934
29936
29932
29940
29928
29933
29934
29940
29930
29932
29934
29929
29935
29932
29940
29936
29933
29926
29926
29932
29933
29926
29933
29933
29932
29940
29947
29936
29932
29933
29940
29932
29944
29934
29945
29936
29932
29944
29936
29940
29943
29940
29936
29930
29938
29932
29941
29948
29936
29940
29936
29936
29932
29932
29941
29944
29940
29936
29940
29940
29936
29940
29940
29933
29938
29926
29928
29928
29940
29932
29932
29929
29930
29920
29928
29924
29940
29926
29932
29918
29916
29924
29922
29926
29926
29922
29924
29924
29925
29932
29928
29941
29929
29932
29930
29928
29933
29934
29940
29932
29940
29936
29944
29950
29948
29952
29940
29956
29950
29959
29960
29957
29957
29946
29944
29956
29952
29960
29948
29950
29941
29936
29944
29936
29945
29936
29932
29940
29937
29936
29929
29935
29926
29924
29924
29922
29920
29918
29916
29919
29916
29909
29916
29917
29908
29912
29904
29909
29900
29910
29904
29888
29894
29884
29884
29884
29884
29876
29873
29872
29870
29861
29865
29860
29862
29852
29848
29844
29856
29849
29850
29836
29844
29836
29836
29836
29837
29836
29844
29830
29832
29828
29836
29826
29829
29828
29833
29832
29826
29822
29824
29832
29828
29828
29828
29834
29825
29822
29828
29824
29825
29822
29822
29828
29825
29824
29822
29822
29825
29820
29823
29818
29823
29816
29825
29817
29815
29816
29814
29806
29804
29810
29802
29804
29800
29799
29796
29796
29794
29792
29792
29785
29785
29780
29769
29775
29772
29774
29761
29758
29760
29758
29752
29748
29737
29746
29735
29720
29727
29724
29717
29713
29708
29708
29698
29704
29696
29689
29680
29680
29677
29668
29666
29656
29660
29656
29646
29640
29644
29640
29640
29636
29628
29624
29620
29614
29616
29607
29608
29602
29604
29596
29596
29588
29581
29582
29584
29580
29581
29582
29572
29568
29570
29570
29564
29566
29564
29556
29554
29554
29544
29544
29540
29544
29548
29538
29537
29536
29528
29532
29522
29528
29524
29524
29516
29514
29514
29512
29512
29524
29514
29508
29508
29509
29497
29502
29505
29504
29503
29508
29500
29500
29494
29500
29497
29501
29495
29492
29492
29489
29502
29500
29500
29493
29504
29504
29500
29500
29508
29504
29504
29505
29504
29504
29502
29504
29515
29517
29512
29519
29520
29520
29516
29520
29522
29524
29524
29518
29528
29532
29536
29537
29544
29538
29544
29548
29556
29548
29560
29556
29558
29562
29569
29572
29576
29584
29585
29584
29594
29588
29596
29592
29604
29608
29612
29608
29617
29624
29620
29629
29630
29632
29644
29644
29648
29648
29656
29662
29665
29671
29672
29674
29676
29688
29684
29690
29700
29710
29711
29716
29717
29729
29732
29736
29740
29742
29746
29757
29768
29769
29760
29786
29772
29783
29788
29785
29804
29804
29815
29813
29816
29818
29831
29837
29840
29844
29850
29856
29860
29858
29876
29874
29889
29891
29892
29894
29904
29916
29924
29924
29933
29942
29948
29957
29964
29972
29984
29992
30002
30004
30021
30020
30028
30036
30042
30052
30056
30060
30072
30076
30082
30078
30092
30100
30102
30112
30124
30120
30128
30132
30136
30142
30147
30150
30152
30158
30158
30160
30176
30177
30182
30190
30188
30204
30199
30204
30208
30212
30213
30224
30236
30239
30239
30240
30245
30240
30247
30252
30266
30262
30270
30268
30276
30282
30288
30292
30288
30302
30300
30306
30316
30318
30325
30325
30337
30330
30336
30334
30348
30351
30354
30362
30359
30369
30376
30374
30376
30388
30396
30404
30403
30404
30404
30404
30416
30418
30420
30432
30436
30435
30438
30448
30448
30448
30461
30466
30463
30474
30469
30478
30484
30481
30477
30492
30496
30496
30508
30509
30516
30512
30525
30524
30528
30535
30548
30536
30540
30557
30564
30565
30568
30572
30577
30576
30596
30588
30606
30596
30612
30618
30631
30629
30628
30628
30644
30655
30652
30662
30664
30666
30672
30681
30684
30694
30702
30701
30709
30708
30719
30735
30732
30734
30734
30746
30752
30760
30758
30769
30769
30780
30780
30784
30792
30794
30800
30804
30806
30812
30812
30810
30820
30820
30828
30822
30828
30835
30830
30844
30847
30844
30848
30844
30844
30848
30856
30854
30852
30856
30868
30864
30860
30866
30858
30860
30863
30860
30864
30866
30874
30872
30876
30872
30865
30868
30870
30866
30862
30865
30873
30868
30880
30872
30879
30878
30870
30876
30868
30879
30874
30878
30880
30872
30876
30880
30878
30876
30880
30876
30886
30884
30876
30880
30878
30880
30882
30894
30884
30877
30886
30880
30876
30880
30884
30885
30886
30892
30884
30884
30884
30896
30892
30886
30891
30896
30885
30889
30895
30900
30900
30896
30901
30894
30904
30895
30896
30895
30900
30901
30912
30900
30904
30904
30912
30910
30912
30916
30910
30916
30916
30916
30912
30916
30910
30925
30921
30922
30920
30925
30926
30926
30928
30924
30932
30930
30932
30930
30932
30933
30938
30944
30942
30944
30945
30940
30948
30950
30944
30946
30950
30948
30960
30956
30948
30958
30956
30958
30964
30966
30967
30958
30960
30972
30964
30966
30966
30976
30975
30978
30974
30976
30976
30975
30968
30977
30982
30978
30980
30988
30992
30988
30988
30988
30987
30992
30993
30992
30997
30996
31000
30996
30998
30997
31002
31003
31002
31012
31000
31000
31004
31010
31006
31004
31012
31004
31006
31004
31004
31012
31016
31012
31012
31012
31016
31012
31020
31024
31020
31016
31017
31024
31020
31012
31017
31020
31016
31012
31020
31016
31016
31020
31023
31018
31016
31014
31022
31014
31016
31016
31020
31022
31020
31012
31016
31020
31016
31024
31008
31010
31016
31012
31014
31009
31008
31010
31018
31012
31012
31017
31013
31010
31014
31014
31015
31014
31004
31010
31009
31002
31008
31010
31008
31008
31000
31012
31005
31010
31009
31008
31012
31004
31000
31011
31012
31008
31008
31008
31005
31002
31012
31010
31006
31004
31010
31002
31013
31006
31008
31000
31008
31009
31014
31010
31010
31004
31011
31010
31012
31015
31016
31014
31012
31020
31016
31016
31024
31020
31020
31016
31024
31018
31022
31024
31016
31032
31028
31033
31028
31032
31028
31028
31024
31034
31033
31032
31036
31030
31034
31030
31034
31040
31029
31032
31032
31024
31024
31034
31024
31030
31024
31035
31028
31034
31028
31028
31020
31028
31024
31017
31020
31020
31014
31024
31015
31014
31016
31014
31012
31013
31017
31010
31008
31010
31006
31012
31004
31010
31008
31006
31004
31004
30999
31000
30994
31001
31004
31008
30998
31000
31000
31002
31008
31000
30996
31000
31008
31001
31008
31002
31014
31014
31014
31017
31016
31012
31020
31013
31021
31023
31020
31020
31022
31018
31017
31021
31012
31020
31020
31008
31012
31012
31012
31010
31006
31004
31004
31000
31000
31000
30994
30998
30996
30996
30992
30992
30993
30987
30992
30988
30988
30984
30979
30975
30976
30974
30972
30968
30961
30958
30968
30959
30948
30952
30945
30936
30938
30936
30937
30926
30916
30916
30912
30906
30900
30888
30886
30884
30885
30877
30876
30864
30864
30862
30852
30848
30852
30840
30836
30837
30839
30836
30830
30822
30817
30820
30810
30804
30802
30810
30800
30798
30796
30797
30788
30782
30784
30776
30777
30772
30777
30768
30769
30762
30758
30759
30764
30748
30752
30754
30751
30737
30740
30732
30727
30724
30718
30721
30713
30712
30708
30700
30690
30690
30688
30684
30676
30680
30673
30668
30660
30654
30644
30652
30644
30626
30628
30620
30620
30611
30605
30592
30580
30586
30572
30564
30564
30554
30541
30540
30530
30528
30519
30520
30502
30498
30490
30482
30482
30468
30470
30460
30452
30448
30436
30432
30420
30412
30412
30404
30397
30396
30390
30376
30376
30364
30363
30352
30357
30344
30346
30333
30329
30321
30318
30314
30304
30302
30295
30290
30272
30277
30276
30268
30268
30255
30252
30252
30240
30236
30236
30218
30220
30216
30204
30208
30198
30188
30189
30183
30188
30182
30168
30176
30166
30160
30149
30156
30148
30145
30138
30141
30130
30126
30124
30120
30118
30116
30108
30106
30106
30105
30092
30091
30094
30094
30096
30088
30092
30088
30089
30086
30084
30080
30082
30079
30078
30081
30084
30081
30082
30076
30077
30076
30076
30080
30077
30076
30076
30076
30078
30088
30084
30088
30088
30092
30092
30092
30096
30104
30100
30100
30110
30112
30116
30117
30120
30120
30133
30138
30134
30140
30150
30156
30162
30167
30178
30176
30185
30193
30196
30212
30209
30217
30232
30232
30244
30248
30260
30270
30274
30287
30298
30316
30319
30334
30334
30349
30364
30369
30383
30392
30405
30412
30428
30439
30450
30460
30468
30487
30490
30504
30524
30537
30543
30564
30574
30588
30596
30609
30623
30633
30644
30660
30670
30687
30696
30720
30730
30750
30756
30772
30786
30792
30808
30821
30831
30853
30864
30878
30900
30909
30932
30944
30951
30966
30978
30996
31012
31025
31044
31062
31080
31093
31108
31134
31150
31162
31176
31200
31224
31222
31240
31261
31284
31301
31316
31336
31351
31370
31380
31399
31406
31424
31433
31450
31461
31488
31502
31517
31536
31544
31564
31580
31592
31616
31628
31638
31653
31668
31682
31701
31704
31716
31735
31748
31770
31780
31792
31804
31816
31838
31860
31868
31870
31888
31904
31916
31932
31944
31960
31968
31989
32000
32016
32022
32037
32052
32071
32081
32088
32111
32112
32128
32145
32164
32177
32188
32206
32224
32226
32240
32256
32269
32280
32288
32306
32322
32340
32338
32354
32374
32376
32388
32398
32417
32428
32437
32448
32466
32464
32482
32484
32508
32510
32528
32538
32550
32556
32568
32584
32585
32596
32604
32615
32624
32644
32644
32664
32660
32676
32684
32696
32700
32708
32718
32724
32740
32748
32759
32772
32780
32793
32791
32808
32812
32821
32834
32837
32854
32856
32864
32878
32880
32888
32900
32908
32919
32930
32946
32941
32950
32964
32973
32980
32984
33000
32998
33004
33018
33022
33028
33037
33040
33054
33057
33068
33074
33076
33082
33086
33099
33093
33101
33117
33124
33124
33124
33136
33132
33137
33144
33144
33150
33156
33165
33158
33166
33172
33180
33176
33181
33176
33172
33180
33186
33183
33188
33188
33189
33192
33196
33191
33192
33190
33189
33190
33199
33198
33192
33192
33200
33192
33204
33198
33209
33200
33198
33198
33204
33199
33205
33205
33204
33201
33198
33204
33206
33198
33208
33200
33200
33208
33206
33204
33206
33209
33208
33210
33216
33212
33209
33216
33208
33214
33217
33218
33230
33217
33225
33224
33222
33220
33231
33226
33234
33228
33228
33244
33238
33230
33232
33245
33241
33244
33248
33252
33252
33244
33247
33247
33262
33262
33256
33272
33260
33261
33274
33272
33282
33282
33281
33280
33284
33278
33284
33294
33289
33288
33302
33294
33300
33300
33304
33300
33314
33316
33308
33313
33316
33322
33316
33320
33328
33329
33328
33336
33336
33350
33348
33345
33345
33348
33353
33351
33358
33361
33352
33367
33364
33364
33370
33375
33377
33373
33375
33377
33383
33384
33390
33382
33382
33396
33396
33398
33398
33406
33405
33409
33399
33404
33414
33412
33413
33418
33425
33425
33432
33430
33436
33430
33444
33432
33444
33446
33452
33455
33462
33460
33460
33464
33468
33472
33472
33480
33476
33480
33486
33489
33494
33500
33504
33504
33504
33505
33511
33518
33509
33524
33519
33516
33532
33534
33521
33530
33532
33530
33536
33538
33544
33540
33547
33540
33544
33556
33552
33552
33548
33556
33565
33565
33560
33560
33564
33566
33560
33569
33569
33568
33569
33572
33569
33580
33580
33574
33566
33572
33572
33576
33572
33580
33578
33582
33578
33584
33580
33584
33582
33584
33582
33580
33588
33584
33582
33585
33588
33583
33588
33582
33590
33585
33592
33586
33588
33596
33584
33590
33588
33586
33588
33588
33586
33589
33586
33588
33588
33588
33596
33590
33584
33596
33585
33592
33588
33589
33594
33598
33604
33602
33610
33604
33604
33608
33601
33606
33610
33610
33610
33608
33617
33628
33620
33608
33614
33617
33620
33624
33616
33636
33628
33630
33632
33616
33628
33628
33628
33628
33636
33636
33636
33632
33632
33636
33632
33634
33636
33634
33641
33632
33625
33636
33628
33632
33628
33624
33636
33630
33632
33626
33632
33628
33628
33624
33626
33624
33620
33620
33620
33624
33614
33618
33620
33618
33608
33606
33604
33606
33604
33601
33604
33600
33588
33594
33596
33588
33584
33586
33588
33580
33588
33584
33582
33576
33572
33576
33573
33572
33572
33580
33575
33568
33572
33580
33572
33570
33572
33572
33561
33573
33572
33578
33576
33580
33584
33588
33584
33584
33602
33596
33596
33598
33596
33596
33598
33592
33604
33608
33600
33594
33597
33600
33594
33600
33594
33596
33588
33582
33582
33570
33572
33572
33575
33569
33564
33568
33552
33552
33541
33542
33536
33535
33540
33523
33530
33534
33524
33521
33512
33522
33512
33502
33510
33504
33500
33490
33496
33489
33497
33485
33488
33482
33480
33476
33480
33476
33474
33476
33476
33468
33468
33461
33460
33466
33464
33462
33456
33456
33456
33464
33464
33464
33456
33454
33462
33462
33462
33455
33454
33459
33464
33467
33466
33464
33468
33472
33468
33464
33470
33470
33472
33469
33484
33472
33484
33476
33480
33484
33481
33484
33487
33488
33486
33492
33492
33493
33487
33499
33492
33494
33494
33498
33492
33492
33496
33501
33489
33498
33485
33494
33478
33478
33488
33484
33476
33480
33472
33476
33466
33468
33468
33456
33452
33452
33447
33440
33436
33432
33420
33416
33413
33404
33393
33396
33388
33380
33380
33368
33360
33350
33340
33336
33326
33312
33308
33298
33294
33292
33290
33268
33253
33250
33252
33233
33226
33215
33205
33188
33186
33183
33165
33161
33149
33148
33140
33130
33124
33111
33100
33088
33088
33081
33070
33062
33054
33038
33035
33024
33014
33008
33000
32993
32984
32979
32972
32959
32948
32944
32940
32940
32933
32918
32910
32912
32902
32892
32884
32872
32876
32864
32864
32860
32852
32840
32832
32832
32814
32816
32804
32816
32796
32793
32789
32782
32775
32774
32769
32767
32753
32756
32748
32732
32738
32734
32728
32726
32719
32718
32726
32702
32700
32700
32700
32700
32693
32686
32682
32680
32676
32680
32663
32664
32660
32664
32656
32654
32652
32652
32645
32646
32644
32640
32644
32640
32642
32624
32624
32632
32621
32620
32624
32618
32618
32615
32613
32608
32612
32609
32606
32609
32613
32602
32612
32600
32598
32600
32608
32605
32596
32605
32604
32604
32608
32604
32596
32600
32602
32612
32608
32602
32611
32607
32612
32604
32604
32609
32614
32612
32610
32620
32618
32608
32614
32616
32620
32620
32612
32616
32607
32616
32612
32619
32612
32612
32612
32612
32604
32606
32604
32610
32608
32604
32598
32602
32596
32604
32598
32592
32592
32600
32592
32588
32588
32590
32588
32592
32588
32581
32583
32582
32590
32593
32592
32592
32596
32593
32597
32599
32606
32604
32604
32600
32606
32602
32597
32608
32596
32600
32599
32594
32598
32596
32585
32588
32588
32586
32588
32585
32584
32576
32580
32578
32568
32570
32576
32576
32568
32568
32574
32565
32556
32564
32567
32549
32556
32548
32548
32544
32545
32544
32540
32545
32540
32532
32532
32530
32529
32536
32534
32540
32541
32527
32536
32537
32536
32540
32534
32543
32548
32546
32542
32549
32540
32548
32552
32546
32551
32548
32552
32550
32556
32554
32558
32561
32554
32561
32562
32565
32567
32568
32558
32564
32560
32561
32564
32572
32568
32568
32570
32568
32572
32566
32554
32556
32564
32564
32560
32560
32565
32551
32556
32557
32552
32546
32548
32545
32540
32532
32535
32532
32520
32520
32522
32508
32512
32500
32504
32505
32494
32488
32496
32474
32476
32468
32464
32464
32453
32452
32444
32442
32446
32438
32428
32423
32417
32407
32406
32396
32396
32384
32383
32380
32360
32360
32365
32354
32345
32350
32340
32333
32328
32316
32320
32304
32304
32290
32285
32276
32284
32268
32261
32260
32249
32248
32236
32228
32224
32220
32208
32206
32197
32184
32176
32168
32160
32156
32145
32140
32128
32116
32108
32102
32098
32084
32079
32068
32060
32044
32036
32038
32020
32018
32003
31994
31989
31981
31972
31961
31950
31940
31928
31930
31908
31901
31892
31880
31868
31862
31855
31841
31837
31824
31816
31804
31793
31784
31782
31772
31762
31748
31736
31733
31724
31705
31695
31692
31684
31672
31663
31658
31644
31636
31630
31616
31618
31608
31596
31596
31576
31580
31562
31550
31556
31540
31528
31524
31516
31500
31494
31492
31484
31480
31468
31461
31454
31440
31446
31440
31420
31414
31404
31398
31388
31395
31380
31380
31364
31356
31353
31352
31340
31327
31326
31312
31304
31300
31301
31296
31283
31284
31271
31268
31253
31252
31244
31238
31220
31228
31217
31206
31204
31202
31192
31188
31176
31168
31166
31165
31159
31149
31142
31136
31132
31125
31117
31110
31104
31100
31094
31093
31085
31081
31074
31068
31060
31053
31044
31045
31041
31036
31028
31020
31024
31012
31008
31004
30992
30980
30980
30980
30972
30974
30970
30956
30948
30952
30936
30940
30935
30925
30924
30923
30911
30902
30898
30892
30892
30886
30884
30870
30872
30849
30852
30849
30848
30840
30836
30829
30828
30820
30822
30809
30808
30801
30788
30796
30788
30772
30770
30766
30756
30761
30748
30748
30740
30724
30721
30714
30717
30708
30704
30700
30692
30685
30676
30669
30670
30664
30656
30650
30654
30652
30637
30628
30629
30626
30624
30614
30604
30600
30600
30589
30588
30580
30580
30572
30576
30568
30568
30554
30554
30545
30542
30540
30545
30542
30530
30535
30530
30530
30517
30520
30504
30508
30499
30503
30496
30506
30492
30494
30484
30484
30476
30479
30469
30465
30465
30460
30465
30457
30455
30452
30444
30444
30433
30430
30434
30428
30416
30415
30412
30410
30399
30406
30402
30396
30384
30385
30380
30368
30369
30368
30356
30353
30348
30352
30348
30336
30336
30322
30318
30324
30308
30308
30297
30290
30288
30276
30284
30270
30276
30268
30256
30249
30240
30232
30224
30216
30220
30218
30208
30200
30202
30188
30182
30176
30177
30168
30167
30160
30159
30152
30145
30144
30143
30128
30124
30125
30124
30124
30120
30110
30118
30110
30110
30104
30093
30092
30093
30086
30092
30077
30073
30072
30056
30056
30048
30052
30044
30036
30032
30024
30020
30004
30007
30002
29990
29987
29976
29972
29964
29949
29943
29934
29924
29914
29914
29902
29896
29888
29885
29881
29869
29860
29858
29848
29834
29836
29832
29818
29818
29808
29812
29797
29789
29796
29778
29772
29767
29761
29760
29750
29744
29728
29732
29724
29722
29718
29718
29708
29710
29700
29703
29696
29692
29686
29684
29676
29668
29676
29670
29664
29658
29657
29664
29652
29648
29640
29650
29636
29636
29639
29628
29636
29624
29621
29624
29614
29620
29618
29604
29610
29612
29600
29604
29596
29600
29593
29587
29590
29593
29584
29577
29576
29572
29572
29570
29570
29565
29553
29556
29551
29541
29536
29536
29529
29524
29532
29524
29508
29509
29504
29494
29493
29496
29496
29474
29480
29476
29466
29461
29460
29449
29438
29433
29436
29429
29426
29410
29412
29400
29401
29389
29392
29377
29382
29364
29364
29354
29350
29336
29338
29332
29328
29320
29316
29305
29304
29298
29288
29285
29280
29276
29265
29248
29252
29236
29236
29236
29218
29220
29212
29204
29200
29196
29184
29182
29162
29168
29167
29161
29152
29150
29140
29134
29128
29125
29130
29120
29114
29112
29100
29092
29092
29088
29084
29086
29078
29070
29064
29065
29060
29061
29056
29052
29040
29038
29026
29033
29028
29028
29035
29026
29024
29023
29012
29012
29001
28997
29003
28994
28992
28990
28990
28988
28991
28980
28972
28980
28976
28980
28975
28972
28966
28964
28966
28964
28965
28958
28958
28964
28953
28954
28954
28956
28950
28952
28944
28952
28947
28944
28946
28932
28938
28937
28936
28940
28942
28939
28940
28940
28940
28933
28928
28935
28936
28938
28935
28936
28939
28925
28930
28935
28937
28928
28927
28936
28936
28938
28936
28944
28948
28936
28945
28944
28940
28940
28946
28948
28940
28940
28953
28950
28949
28952
28956
28956
28960
28964
28962
28959
28960
28960
28967
28968
28964
28969
28980
28976
28970
28976
28980
28975
28978
28985
28980
28982
28988
28987
28992
28988
28990
28993
28990
28988
28990
28996
28996
28998
28996
28988
28988
28992
28990
28994
28997
28995
28986
28989
28996
28996
28996
28997
28996
29000
29006
29004
29006
29008
29012
29016
29020
29028
29032
29022
29026
29038
29032
29044
29039
29044
29047
29048
29047
29050
29049
29056
29060
29064
29060
29061
29054
29065
29061
29064
29060
29063
29068
29068
29068
29068
29064
29068
29060
29068
29064
29061
29062
29062
29058
29054
29060
29059
29054
29054
29053
29049
29044
29046
29046
29039
29045
29040
29038
29036
29032
29030
29040
29033
29028
29033
29032
29033
29032
29032
29028
29032
29028
29028
29026
29031
29034
29033
29028
29028
29028
29028
29028
29042
29038
29037
29041
29042
29039
29041
29041
29044
29050
29046
29048
29042
29048
29048
29058
29050
29058
29060
29062
29057
29062
29063
29069
29056
29060
29068
29073
29072
29072
29072
29076
29069
29080
29068
29077
29080
29073
29076
29076
29082
29088
29080
29088
29088
29080
29085
29092
29086
29084
29092
29095
29088
29096
29089
29085
29093
29100
29100
29097
29100
29094
29098
29108
29109
29108
29104
29104
29101
29107
29109
29112
29117
29116
29116
29110
29124
29122
29117
29119
29134
29124
29128
29122
29125
29128
29127
29134
29132
29137
29137
29135
29137
29134
29136
29138
29138
29144
29144
29140
29142
29150
29148
29156
29156
29141
29144
29147
29148
29153
29160
29150
29153
29148
29138
29140
29145
29152
29150
29142
29136
29144
29140
29138
29141
29137
29134
29140
29132
29132
29124
29128
29118
29114
29120
29116
29119
29119
29108
29105
29108
29104
29100
29096
29093
29090
29093
29088
29079
29076
29080
29072
29074
29072
29065
29072
29055
29068
29058
29059
29064
29048
29053
29047
29048
29054
29049
29044
29037
29038
29041
29037
29032
29029
29033
29026
29028
29020
29017
29014
29018
29013
29012
29006
29008
29004
29008
29004
29004
29008
29001
29004
28998
28996
28992
28988
28988
28988
28985
28988
28986
28977
28990
28980
28982
28992
28980
28986
28976
28976
28972
28977
28972
28972
28970
28964
28972
28968
28966
28968
28970
28972
28959
28965
28961
28964
28965
28961
28968
28960
28964
28952
28956
28958
28958
28954
28950
28958
28964
28956
28952
28957
28953
28952
28956
28948
28948
28946
28952
28940
28946
28936
28945
28938
28942
28948
28933
28945
28936
28936
28938
28936
28929
28929
28932
28932
28928
28932
28927
28924
28924
28932
28932
28920
28924
28918
28916
28912
28908
28913
28911
28905
28906
28906
28903
28900
28898
28898
28896
28892
28896
28894
28892
28894
28882
28878
28886
28874
28876
28884
28885
28880
28874
28880
28860
28869
28872
28864
28868
28868
28866
28868
28868
28868
28864
28866
28864
28860
28864
28857
28852
28854
28862
28866
28862
28852
28859
28860
28858
28860
28860
28863
28866
28862
28856
28852
28856
28856
28857
28858
28854
28852
28854
28854
28858
28858
28862
28861
28866
28858
28864
28858
28854
28866
28862
28864
28856
28855
28854
28857
28866
28862
28862
28862
28866
28862
28864
28857
28862
28864
28864
28868
28865
28865
28863
28864
28862
28869
28860
28868
28877
28872
28872
28866
28864
28869
28876
28876
28873
28874
28876
28874
28876
28878
28872
28882
28875
28880
28880
28886
28892
28884
28884
28868
28882
28884
28884
28888
28888
28884
28884
28880
28892
28882
28886
28879
28884
28892
28880
28884
28888
28892
28880
28885
28885
28880
28873
28880
28884
28884
28876
28879
28876
28876
28870
28868
28868
28868
28869
28864
28866
28860
28868
28865
28860
28860
28860
28858
28848
28852
28860
28856
28856
28852
28852
28852
28852
28844
28856
28841
28852
28844
28852
28848
28852
28856
28852
28856
28854
28856
28858
28870
28872
28872
28872
28869
28868
28878
28874
28877
28878
28880
28885
28884
28888
28882
28888
28890
28884
28894
28881
28880
28876
28884
28876
28882
28877
28880
28873
28868
28870
28878
28872
28869
28864
28856
28868
28857
28860
28864
28856
28861
28862
28848
28854
28858
28847
28853
28837
28842
28844
28840
28840
28840
28836
28836
28828
28825
28828
28806
28812
28813
28813
28808
28805
28806
28792
28790
28794
28794
28784
28788
28777
28776
28778
28770
28768
28774
28772
28780
28772
28768
28773
28765
28768
28769
28768
28761
28772
28760
28766
28765
28764
28766
28768
28772
28768
28764
28768
28772
28772
28762
28768
28764
28762
28770
28776
28768
28772
28780
28768
28766
28768
28768
28768
28762
28756
28757
28758
28764
28760
28767
28756
28748
28745
28748
28744
28740
28746
28746
28748
28732
28728
28730
28724
28728
28724
28712
28722
28710
28707
28704
28693
28692
28696
28690
28682
28676
28668
28670
28668
28660
28660
28652
28652
28641
28634
28634
28633
28628
28617
28614
28615
28608
28597
28598
28588
28592
28584
28578
28564
28564
28558
28556
28550
28545
28544
28536
28532
28532
28530
28524
28517
28513
28497
28500
28492
28492
28482
28480
28480
28478
28468
28466
28464
28456
28456
28452
28444
28446
28442
28441
28422
28428
28420
28412
28416
28418
28406
28396
28396
28394
28388
28388
28385
28372
28381
28376
28369
28364
28361
28361
28356
28360
28357
28354
28350
28348
28345
28338
28340
28342
28342
28340
28330
28332
28341
28340
28334
28340
28336
28332
28326
28332
28336
28338
28334
28336
28337
28337
28332
28336
28337
28343
28346
28341
28344
28348
28356
28356
28356
28360
28358
28369
28366
28368
28368
28377
28382
28388
28388
28390
28394
28396
28404
28404
28412
28412
28420
28420
28422
28434
28442
28437
28444
28452
28450
28452
28460
28468
28474
28484
28484
28492
28492
28497
28498
28506
28516
28520
28526
28528
28540
28541
28550
28554
28559
28574
28573
28586
28589
28589
28591
28607
28610
28614
28625
28632
28641
28642
28644
28650
28661
28664
28664
28679
28680
28696
28692
28704
28714
28702
28712
28728
28728
28740
28741
28740
28748
28753
28764
28764
28768
28770
28772
28780
28790
28796
28802
28808
28806
28815
28826
28832
28832
28844
28848
28860
28857
28860
28863
28872
28885
28896
28896
28904
28912
28920
28936
28942
28950
28956
28965
28964
28981
28985
28992
28996
29012
29008
29017
29022
29026
29028
29036
29047
29048
29056
29060
29064
29076
29072
29084
29088
29093
29100
29102
29106
29112
29122
29120
29128
29130
29134
29145
29149
29156
29152
29158
29165
29172
29176
29180
29184
29184
29200
29204
29217
29215
29220
29223
29230
29245
29245
29253
29256
29263
29276
29276
29284
29296
29300
29301
29308
29316
29324
29333
29343
29345
29356
29358
29362
29374
29382
29382
29391
29397
29412
29415
29426
29428
29436
29444
29436
29448
29464
29468
29478
29480
29488
29496
29492
29496
29506
29524
29524
29526
29533
29540
29540
29552
29559
29568
29570
29574
29578
29590
29593
29596
29604
29613
29612
29612
29622
29624
29634
29641
29645
29656
29658
29666
29668
29670
29678
29687
29692
29696
29700
29704
29724
29718
29720
29740
29748
29740
29752
29760
29768
29760
29784
29780
29788
29798
29800
29807
29807
29816
29832
29834
29844
29838
29844
29860
29860
29871
29874
29880
29896
29896
29896
29900
29908
29916
29916
29932
29936
29946
29953
29956
29961
29960
29971
29974
29980
29984
29988
29998
30000
30004
30012
30008
30020
30020
30032
30027
30040
30038
30044
30044
30046
30051
30053
30068
30055
30062
30073
30068
30073
30070
30080
30088
30081
30092
30092
30096
30096
30100
30104
30110
30112
30106
30107
30116
30116
30122
30124
30127
30130
30134
30142
30140
30144
30145
30152
30148
30156
30152
30165
30173
30174
30180
30177
30192
30188
30183
30188
30196
30207
30209
30224
30231
30236
30234
30245
30252
30256
30269
30272
30272
30284
30296
30294
30312
30316
30326
30327
30334
30352
30369
30372
30377
30388
30396
30397
30420
30428
30434
30452
30460
30476
30480
30490
30510
30517
30520
30536
30554
30568
30582
30588
30604
30612
30625
30636
30648
30670
30682
30688
30700
30722
30735
30748
30756
30776
30788
30800
30804
30821
30836
30858
30876
30886
30901
30912
30929
30938
30966
30968
30977
31008
31014
31028
31044
31062
31080
31092
31104
31121
31132
31150
31164
31172
31188
31209
31213
31229
31245
31262
31273
31288
31306
31324
31334
31348
31352
31376
31387
31400
31417
31428
31444
31460
31468
31476
31497
31514
31529
31544
31558
31566
31585
31591
31616
31628
31632
31644
31664
31666
31680
31700
31708
31721
31741
31752
31758
31772
31780
31793
31806
31828
31836
31841
31860
31864
31884
31900
31908
31912
31920
31940
31940
31960
31964
31980
31991
32010
32012
32028
32032
32040
32060
32073
32084
32088
32098
32112
32129
32126
32140
32148
32160
32169
32182
32188
32198
32216
32220
32232
32236
32251
32262
32268
32272
32284
32293
32303
32320
32328
32337
32344
32350
32362
32368
32374
32388
32392
32404
32410
32422
32430
32441
32439
32450
32464
32476
32482
32484
32498
32505
32510
32519
32528
32534
32542
32556
32551
32570
32572
32588
32596
32604
32608
32616
32623
32634
32636
32644
32652
32654
32668
32678
32680
32688
32706
32704
32716
32716
32728
32736
32746
32756
32764
32772
32782
32796
32788
32798
32810
32820
32820
32829
32844
32849
32856
32868
32869
32880
32887
32893
32896
32905
32916
32928
32924
32937
32937
32943
32949
32960
32960
32964
32978
32980
32984
32988
32992
33005
33006
33014
33006
33024
33017
33024
33029
33034
33040
33038
33052
33052
33052
33060
33068
33056
33068
33070
33069
33076
33084
33081
33088
33084
33092
33092
33088
33094
33095
33100
33100
33104
33104
33108
33113
33114
33124
33116
33124
33124
33126
33136
33140
33145
33140
33161
33156
33164
33162
33169
33182
33176
33185
33184
33189
33192
33192
33201
33208
33208
33201
33206
33217
33216
33216
33210
33220
33209
33223
33222
33222
33220
33221
33232
33212
33218
33222
33222
33219
33216
33230
33216
33220
33228
33220
33222
33221
33222
33220
33220
33220
33218
33214
33216
33216
33214
33206
33210
33216
33213
33215
33210
33218
33212
33218
33220
33216
33220
33205
33212
33208
33208
33216
33212
33210
33208
33208
33204
33201
33206
33204
33205
33204
33208
33212
33214
33216
33208
33216
33224
33220
33222
33216
33220
33224
33228
33222
33236
33236
33231
33242
33239
33244
33241
33248
33253
33252
33244
33248
33256
33264
33260
33265
33270
33268
33264
33265
33268
33268
33274
33272
33282
33270
33271
33272
33276
33272
33273
33286
33290
33280
33276
33277
33281
33278
33284
33287
33284
33288
33280
33272
33272
33274
33274
33273
33274
33272
33260
33262
33260
33264
33271
33260
33258
33252
33236
33236
33240
33233
33236
33224
33220
33217
33216
33220
33201
33205
33194
33188
33184
33184
33164
33168
33156
33152
33151
33140
33140
33132
33124
33124
33118
33116
33116
33108
33096
33092
33088
33081
33080
33069
33065
33056
33062
33054
33049
33036
33036
33036
33028
33032
33016
33018
33010
33012
33000
33006
32996
32996
32992
32988
32988
32983
32976
32972
32967
32973
32966
32960
32962
32962
32960
32946
32960
32952
32948
32954
32942
32940
32949
32945
32948
32944
32940
32932
32942
32942
32938
32944
32940
32934
32942
32938
32945
32940
32934
32940
32935
32932
32942
32944
32941
32947
32952
32944
32948
32956
32959
32956
32960
32948
32964
32966
32961
32964
32974
32969
32980
32972
32986
32990
32990
32990
32986
32996
33001
32994
33008
33016
33018
33012
33023
33026
33030
33030
33036
33036
33034
33045
33048
33056
33054
33066
33060
33068
33075
33078
33082
33082
33086
33092
33100
33096
33099
33108
33112
33110
33122
33124
33129
33126
33142
33140
33148
33144
33149
33152
33154
33161
33169
33168
33174
33174
33176
33188
33180
33181
33188
33193
33196
33204
33206
33208
33216
33208
33216
33216
33220
33220
33222
33224
33228
33228
33223
33228
33233
33238
33229
33240
33237
33237
33239
33236
33246
33242
33242
33248
33246
33260
33254
33256
33265
33272
33261
33272
33277
33278
33282
33289
33292
33304
33308
33310
33316
33308
33326
33321
33334
33332
33337
33340
33340
33351
33340
33354
33350
33356
33356
33358
33367
33366
33378
33373
33378
33382
33381
33380
33388
33396
33389
33391
33393
33397
33407
33404
33405
33412
33411
33420
33421
33424
33428
33429
33440
33441
33441
33447
33445
33458
33454
33470
33468
33474
33472
33472
33481
33489
33490
33496
33504
33493
33516
33516
33525
33529
33532
33530
33540
33540
33552
33556
33556
33560
33568
33580
33583
33588
33594
33604
33604
33601
33615
33616
33626
33628
33632
33632
33644
33652
33655
33660
33664
33668
33674
33677
33688
33692
33688
33700
33701
33704
33724
33708
33716
33732
33732
33732
33736
33741
33744
33752
33756
33757
33764
33764
33757
33768
33776
33776
33788
33788
33784
33796
33796
33801
33802
33799
33808
33815
33820
33821
33821
33828
33831
33831
33844
33838
33836
33846
33839
33844
33848
33851
33860
33862
33852
33860
33860
33868
33868
33872
33868
33881
33868
33880
33876
33878
33876
33884
33886
33887
33888
33884
33889
33888
33888
33892
33892
33888
33885
33876
33892
33890
33886
33888
33883
33884
33876
33878
33876
33876
33868
33876
33876
33870
33866
33868
33862
33868
33864
33856
33854
33860
33854
33856
33848
33849
33848
33836
33848
33840
33836
33840
33837
33833
33831
33830
33828
33824
33816
33828
33821
33818
33822
33822
33812
33812
33808
33809
33796
33800
33804
33799
33800
33792
33788
33792
33789
33788
33789
33788
33788
33782
33784
33784
33782
33788
33778
33782
33780
33770
33772
33765
33764
33764
33772
33762
33764
33764
33756
33758
33764
33758
33744
33751
33744
33740
33736
33736
33732
33728
33731
33724
33722
33716
33716
33708
33708
33705
33708
33697
33700
33690
33697
33692
33676
33669
33672
33677
33669
33670
33661
33660
33652
33644
33644
33640
33634
33636
33624
33628
33620
33614
33609
33600
33601
33604
33596
33592
33580
33576
33579
33568
33564
33560
33560
33548
33552
33544
33534
33540
33526
33526
33524
33512
33515
33504
33497
33501
33492
33492
33492
33478
33482
33473
33468
33464
33465
33449
33452
33446
33450
33444
33436
33432
33423
33412
33407
33412
33412
33396
33399
33397
33390
33388
33376
33377
33372
33372
33358
33353
33356
33344
33340
33341
33332
33328
33326
33321
33310
33309
33304
33300
33289
33284
33271
33268
33269
33262
33252
33250
33252
33240
33232
33230
33224
33212
33217
33204
33201
33197
33182
33181
33180
33180
33164
33162
33154
33160
33156
33148
33134
33124
33124
33126
33114
33104
33104
33096
33088
33082
33084
33081
33071
33074
33072
33060
33055
33049
33052
33046
33044
33030
33028
33020
33018
33014
33008
33009
33000
32990
32982
32976
32976
32966
32969
32964
32964
32953
32940
32942
32936
32930
32920
32919
32908
32904
32900
32888
32884
32881
32874
32868
32853
32852
32840
32839
32826
32809
32812
32804
32800
32794
32784
32774
32760
32760
32748
32740
32732
32725
32720
32708
32706
32694
32689
32676
32672
32664
32653
32644
32639
32629
32614
32614
32596
32592
32573
32576
32561
32556
32545
32540
32524
32520
32516
32505
32489
32484
32478
32468
32460
32456
32450
32432
32420
32408
32408
32400
32389
32375
32380
32360
32356
32340
32337
32336
32328
32316
32308
32302
32294
32282
32273
32262
32248
32240
32232
32228
32220
32215
32190
32185
32176
32156
32136
32132
32117
32108
32086
32076
32060
32038
32030
32012
31994
31976
31967
31952
31934
31921
31912
31890
31870
31860
31844
31831
31816
31800
31784
31768
31749
31742
31728
31714
31714
31680
31674
31668
31648
31642
31626
31610
31596
31588
31566
31558
31549
31528
31524
31508
31496
31490
31469
31464
31448
31439
31429
31418
31412
31394
31382
31376
31369
31360
31344
31333
31328
31316
31308
31288
31285
31270
31280
31248
31245
31236
31224
31212
31202
31204
31184
31178
31158
31164
31148
31135
31128
31132
31113
31102
31108
31087
31074
31076
31060
31048
31037
31033
31029
31017
31010
30996
30992
30986
30976
30964
30944
30948
30934
30928
30918
30906
30901
30886
30884
30866
30857
30852
30833
30830
30815
30805
30788
30780
30761
30757
30741
30733
30729
30708
30694
30684
30676
30660
30654
30632
30629
30624
30592
30588
30576
30573
30554
30532
30522
30513
30500
30483
30470
30470
30448
30436
30424
30412
30404
30377
30370
30356
30345
30344
30320
30309
30298
30274
30271
30262
30241
30236
30225
30208
30191
30188
30168
30156
30152
30129
30132
30112
30102
30100
30084
30070
30064
30056
30041
30030
30020
30012
30004
29992
29985
29970
29960
29956
29940
29932
29925
29916
29893
29898
29892
29877
29876
29856
29849
29848
29832
29831
29820
29812
29806
29800
29785
29780
29766
29768
29758
29752
29736
29726
29732
29726
29709
29709
29690
29682
29684
29670
29668
29668
29652
29650
29642
29632
29629
29630
29625
29613
29604
29600
29598
29592
29581
29572
29569
29568
29572
29556
29556
29548
29540
29542
29540
29532
29528
29526
29514
29513
29508
29508
29501
29506
29494
29499
29489
29489
29486
29476
29484
29473
29474
29472
29470
29464
29468
29468
29464
29460
29456
29458
29458
29445
29448
29446
29452
29441
29444
29444
29441
29448
29452
29438
29440
29442
29434
29428
29436
29434
29436
29432
29430
29436
29436
29430
29431
29424
29440
29424
29428
29436
29428
29428
29423
29420
29422
29415
29410
29418
29415
29412
29408
29404
29404
29398
29394
29393
29388
29387
29393
29391
29392
29387
29390
29389
29392
29384
29391
29395
29396
29396
29400
29402
29392
29406
29402
29402
29406
29408
29416
29416
29416
29424
29418
29424
29416
29426
29428
29424
29436
29426
29422
29436
29430
29422
29429
29428
29428
29422
29423
29420
29422
29420
29421
29432
29423
29416
29416
29420
29415
29415
29407
29414
29405
29402
29404
29406
29400
29392
29393
29390
29388
29389
29381
29380
29380
29372
29376
29370
29372
29376
29364
29368
29359
29362
29354
29360
29356
29358
29356
29360
29360
29361
29364
29364
29364
29356
29356
29359
29354
29357
29362
29364
29358
29359
29358
29356
29359
29356
29370
29365
29365
29372
29368
29372
29388
29372
29380
29376
29376
29380
29380
29388
29380
29385
29380
29388
29380
29390
29384
29390
29390
29396
29388
29389
29396
29396
29388
29392
29396
29397
29396
29396
29392
29392
29392
29398
29390
29396
29393
29400
29395
29404
29396
29400
29396
29392
29404
29402
29397
29405
29404
29402
29396
29396
29396
29404
29404
29404
29414
29402
29406
29404
29404
29409
29405
29408
29412
29408
29420
29412
29412
29417
29422
29412
29414
29418
29412
29420
29420
29421
29423
29424
29428
29421
29420
29424
29420
29424
29420
29424
29423
29428
29420
29422
29422
29424
29417
29418
29418
29416
29412
29420
29412
29415
29412
29412
29407
29402
29408
29412
29404
29398
29396
29398
29394
29396
29384
29384
29382
29372
29380
29372
29382
29366
29358
29360
29356
29357
29356
29348
29348
29353
29349
29336
29342
29329
29326
29336
29328
29324
29318
29312
29316
29308
29308
29302
29302
29300
29294
29292
29284
29292
29278
29284
29282
29276
29272
29272
29268
29263
29260
29261
29250
29256
29253
29248
29244
29244
29248
29237
29233
29236
29233
29238
29228
29232
29224
29228
29220
29216
29216
29216
29212
29212
29212
29200
29204
29200
29196
29194
29192
29186
29184
29180
29178
29185
29182
29178
29172
29176
29166
29167
29168
29168
29162
29156
29157
29164
29164
29160
29162
29144
29146
29145
29142
29140
29137
29138
29138
29130
29136
29133
29128
29125
29128
29123
29124
29124
29113
29109
29116
29107
29104
29100
29100
29104
29105
29096
29098
29098
29092
29092
29093
29088
29082
29076
29085
29083
29079
29076
29072
29071
29070
29060
29063
29055
29051
29047
29056
29044
29053
29044
29039
29044
29038
29045
29038
29029
29028
29026
29026
29030
29024
29017
29018
29012
29013
29012
29012
29008
29012
29010
29001
28996
28993
28990
28988
28989
28984
28980
28982
28980
28973
28972
28972
28972
28970
28959
28960
28964
28951
28954
28965
28952
28956
28942
28940
28944
28936
28937
28934
28930
28926
28928
28932
28928
28924
28924
28924
28921
28912
28916
28913
28922
28908
28904
28905
28914
28902
28911
28900
28900
28900
28908
28892
28892
28900
28900
28894
28900
28888
28892
28888
28894
28892
28894
28890
28888
28888
28887
28885
28892
28889
28888
28889
28888
28890
28881
28892
28888
28896
28886
28896
28892
28892
28888
28896
28895
28890
28898
28886
28886
28888
28892
28889
28890
28890
28886
28884
28890
28886
28888
28880
28888
28886
28886
28884
28884
28880
28881
28880
28876
28880
28876
28880
28873
28880
28880
28872
28876
28864
28868
28868
28866
28860
28865
28856
28860
28862
28856
28857
28845
28850
28846
28847
28841
28844
28848
28836
28844
28839
28838
28840
28840
28837
28844
28844
28837
28844
28846
28842
28844
28838
28848
28846
28845
28852
28848
28842
28846
28844
28854
28854
28844
28852
28840
28844
28842
28832
28836
28836
28836
28828
28828
28828
28817
28810
28816
28808
28804
28806
28798
28794
28794
28788
28785
28780
28777
28776
28766
28764
28766
28756
28756
28752
28753
28742
28740
28744
28732
28734
28728
28717
28716
28703
28708
28701
28694
28692
28692
28689
28676
28673
28664
28663
28657
28656
28647
28654
28645
28640
28636
28639
28618
28624
28618
28616
28612
28614
28604
28608
28607
28616
28608
28604
28603
28600
28592
28602
28598
28590
28597
28593
28598
28592
28588
28586
28596
28588
28588
28589
28589
28588
28578
28584
28584
28581
28588
28577
28580
28580
28574
28576
28573
28574
28564
28569
28566
28564
28569
28564
28561
28562
28558
28558
28550
28556
28548
28550
28548
28542
28538
28535
28533
28524
28528
28522
28518
28504
28500
28508
28496
28498
28496
28490
28482
28476
28476
28476
28468
28463
28456
28449
28436
28437
28430
28430
28415
28412
28410
28394
28396
28393
28388
28386
28376
28376
28368
28360
28348
28352
28348
28340
28332
28328
28332
28320
28308
28308
28300
28304
28292
28284
28285
28284
28276
28268
28268
28259
28256
28254
28252
28244
28238
28240
28237
28230
28226
28221
28222
28216
28211
28212
28204
28192
28192
28182
28186
28182
28172
28176
28170
28164
28166
28156
28156
28158
28150
28140
28136
28141
28132
28132
28131
28129
28128
28126
28124
28124
28116
28120
28114
28110
28106
28104
28100
28112
28110
28101
28098
28098
28100
28100
28098
28093
28096
28100
28096
28094
28095
28094
28092
28096
28098
28096
28088
28092
28093
28088
28086
28092
28088
28096
28097
28096
28099
28096
28103
28100
28100
28100
28098
28096
28108
28104
28104
28108
28109
28116
28116
28118
28124
28116
28118
28126
28131
28124
28124
28134
28137
28138
28138
28142
28146
28140
28148
28144
28152
28164
28174
28162
28172
28174
28180
28180
28180
28197
28200
28206
28206
28204
28217
28221
28224
28224
28228
28231
28232
28241
28246
28256
28251
28262
28268
28266
28272
28285
28286
28286
28288
28292
28308
28302
28311
28309
28312
28325
28321
28332
28336
28336
28344
28344
28338
28352
28356
28357
28358
28364
28373
28372
28372
28376
28380
28390
28396
28398
28404
28408
28417
28420
28424
28430
28438
28444
28450
28446
28462
28470
28469
28476
28478
28489
28496
28497
28500
28513
28520
28520
28528
28525
28529
28542
28540
28548
28556
28562
28558
28564
28567
28572
28566
28576
28580
28580
28596
28590
28600
28596
28608
28616
28604
28616
28616
28618
28624
28636
28636
28644
28639
28646
28650
28656
28657
28660
28666
28671
28668
28678
28677
28686
28690
28700
28700
28708
28714
28716
28724
28720
28728
28734
28738
28748
28756
28756
28760
28768
28773
28786
28784
28796
28797
28806
28806
28812
28820
28822
28833
28831
28848
28841
28850
28853
28865
28869
28876
28880
28886
28892
28894
28908
28908
28908
28919
28916
28932
28929
28932
28946
28949
28953
28960
28964
28978
28970
28976
28984
28984
28989
28997
28996
29007
29006
29012
29016
29028
29028
29033
29037
29052
29048
29046
29068
29060
29062
29078
29081
29092
29093
29089
29100
29102
29108
29120
29117
29124
29129
29132
29140
29147
29156
29164
29162
29165
29170
29183
29191
29192
29196
29208
29206
29221
29220
29228
29232
29232
29240
29252
29256
29260
29266
29265
29274
29276
29278
29284
29294
29301
29306
29312
29310
29320
29318
29324
29324
29332
29337
29341
29346
29348
29356
29349
29352
29364
29361
29368
29374
29372
29372
29376
29377
29392
29382
29384
29380
29392
29392
29390
29396
29402
29396
29400
29398
29388
29401
29396
29396
29404
29406
29401
29412
29406
29398
29401
29406
29408
29408
29412
29402
29404
29404
29396
29388
29400
29392
29398
29392
29395
29400
29398
29402
29400
29396
29402
29394
29401
29400
29406
29400
29404
29404
29396
29401
29392
29404
29404
29401
29400
29401
29396
29399
29406
29396
29404
29412
29399
29413
29408
29409
29408
29401
29405
29404
29404
29400
29396
29408
29406
29409
29412
29412
29415
29420
29408
29412
29413
29416
29423
29420
29416
29412
29412
29416
29412
29415
29418
29420
29420
29428
29426
29432
29432
29428
29436
29433
29432
29429
29438
29429
29432
29434
29448
29433
29449
29448
29456
29459
29452
29452
29452
29456
29466
29466
29458
29461
29474
29468
29464
29469
29476
29474
29470
29476
29482
29484
29484
29487
29484
29495
29481
29493
29492
29494
29496
29492
29504
29502
29508
29506
29516
29508
29508
29514
29518
29509
29518
29520
29520
29528
29529
29528
29521
29525
29528
29529
29540
29538
29540
29536
29537
29546
29540
29542
29544
29544
29544
29546
29545
29552
29559
29556
29565
29556
29560
29560
29565
29564
29564
29568
29576
29579
29584
29576
29580
29580
29581
29580
29588
29588
29582
29591
29588
29594
29596
29598
29604
29604
29597
29607
29615
29614
29609
29616
29616
29621
29620
29628
29626
29624
29624
29620
29622
29628
29632
29628
29636
29636
29638
29636
29648
29642
29650
29654
29652
29653
29660
29658
29660
29666
29660
29662
29665
29664
29679
29676
29670
29676
29676
29692
29681
29688
29690
29690
29693
29696
29692
29708
29704
29713
29716
29726
29718
29717
29718
29726
29732
29732
29740
29742
29750
29748
29744
29752
29752
29760
29760
29768
29764
29776
29767
29780
29781
29782
29788
29784
29796
29793
29802
29805
29800
29808
29809
29816
29816
29816
29824
29829
29834
29828
29828
29829
29826
29836
29833
29840
29841
29845
29848
29846
29846
29846
29850
29852
29854
29860
29860
29860
29863
29872
29868
29866
29880
29868
29876
29878
29878
29882
29876
29886
29886
29888
29889
29896
29904
29906
29904
29906
29901
29920
29930
29924
29940
29938
29936
29949
29944
29964
29952
29972
29968
29974
29981
29986
29985
29990
29996
29998
30000
30010
30012
30015
30016
30022
30020
30032
30022
30034
30034
30046
30042
30046
30046
30052
30056
30052
30054
30060
30065
30071
30070
30078
30084
30082
30091
30096
30094
30102
30108
30116
30116
30120
30120
30128
30133
30140
30138
30144
30142
30149
30161
30164
30169
30174
30176
30173
30188
30184
30192
30200
30208
30208
30212
30218
30231
30224
30248
30240
30252
30256
30266
30274
30289
30293
30294
30308
30318
30327
30334
30342
30361
30376
30384
30390
30400
30416
30425
30444
30448
30461
30474
30490
30501
30512
30529
30531
30552
30572
30574
30597
30612
30625
30638
30644
30668
30678
30690
30700
30724
30736
30754
30762
30778
30788
30805
30818
30828
30847
30861
30872
30888
30894
30901
30920
30929
30948
30960
30968
30988
30999
31006
31020
31034
31036
31061
31072
31084
31088
31100
31110
31118
31128
31142
31148
31161
31168
31184
31183
31197
31206
31212
31220
31236
31244
31258
31248
31266
31280
31284
31293
31305
31312
31308
31320
31325
31343
31335
31344
31354
31364
31364
31380
31384
31388
31396
31405
31413
31415
31422
31428
31436
31429
31440
31456
31453
31456
31456
31456
31472
31480
31472
31480
31492
31496
31492
31506
31508
31516
31512
31521
31526
31524
31528
31526
31525
31542
31533
31536
31543
31548
31553
31550
31560
31556
31564
31572
31568
31570
31572
31576
31586
31580
31596
31580
31582
31589
31596
31604
31612
31605
31606
31605
31612
31612
31612
31626
31624
31622
31639
31636
31644
31648
31644
31645
31650
31662
31662
31662
31676
31680
31680
31684
31688
31700
31706
31700
31705
31710
31717
31717
31726
31744
31748
31752
31756
31765
31764
31768
31776
31780
31784
31790
31801
31809
31816
31812
31826
31836
31837
31845
31855
31856
31868
31868
31875
31884
31885
31892
31894
31916
31920
31932
31932
31934
31951
31948
31960
31968
31975
31982
31988
31993
32005
32016
32023
32020
32036
32044
32040
32052
32068
32068
32070
32072
32084
32100
32100
32106
32120
32121
32132
32132
32149
32148
32164
32168
32180
32184
32192
32189
32204
32208
32212
32215
32220
32228
32240
32256
32252
32256
32262
32268
32288
32295
32300
32303
32305
32318
32321
32336
32340
32348
32356
32359
32368
32380
32392
32400
32412
32412
32420
32436
32435
32441
32456
32470
32472
32489
32492
32504
32504
32514
32528
32528
32545
32547
32554
32564
32572
32580
32578
32588
32601
32604
32612
32616
32621
32624
32636
32646
32648
32661
32660
32664
32672
32676
32690
32692
32704
32708
32707
32709
32714
32728
32737
32742
32746
32764
32760
32778
32784
32784
32798
32802
32804
32808
32816
32831
32828
32841
32846
32861
32868
32872
32880
32888
32900
32900
32910
32919
32922
32932
32934
32948
32957
32960
32980
32981
32997
33000
33006
33016
33024
33029
33038
33044
33054
33060
33076
33077
33090
33100
33110
33116
33119
33129
33128
33140
33149
33157
33164
33166
33171
33189
33190
33192
33212
33214
33220
33222
33226
33225
33240
33248
33260
33261
33268
33272
33280
33278
33292
33297
33304
33316
33316
33313
33326
33331
33333
33342
33340
33356
33358
33357
33364
33378
33376
33377
33386
33388
33396
33401
33404
33409
33410
33416
33416
33428
33436
33421
33441
33444
33444
33452
33452
33454
33460
33460
33470
33472
33470
33476
33478
33481
33480
33484
33492
33501
33489
33496
33496
33500
33502
33512
33510
33512
33505
33506
33517
33514
33510
33518
33520
33512
33516
33506
33522
33515
33524
33525
33518
33518
33524
33526
33524
33520
33524
33524
33521
33521
33524
33524
33520
33520
33518
33530
33516
33532
33511
33520
33514
33524
33516
33516
33512
33516
33516
33508
33510
33510
33515
33516
33517
33516
33512
33512
33511
33512
33516
33522
33518
33516
33524
33508
33512
33510
33506
33516
33516
33512
33520
33528
33521
33524
33521
33518
33514
33524
33524
33530
33530
33534
33521
33533
33532
33538
33536
33540
33532
33542
33540
33546
33552
33545
33550
33534
33548
33556
33554
33548
33548
33558
33551
33556
33556
33556
33556
33554
33554
33565
33560
33556
33572
33561
33560
33568
33566
33568
33569
33570
33570
33576
33580
33572
33575
33574
33568
33577
33580
33576
33580
33576
33581
33586
33588
33590
33584
33580
33586
33590
33585
33590
33582
33586
33588
33594
33594
33584
33596
33590
33596
33598
33606
33600
33604
33604
33600
33607
33606
33609
33600
33604
33612
33602
33612
33608
33613
33617
33606
33614
33612
33613
33612
33621
33608
33614
33614
33617
33617
33617
33614
33626
33625
33616
33620
33624
33620
33628
33626
33629
33626
33624
33624
33620
33622
33624
33626
33630
33628
33632
33630
33632
33636
33629
33632
33632
33636
33632
33636
33638
33634
33642
33638
33641
33645
33644
33645
33647
33648
33652
33652
33644
33657
33656
33648
33656
33662
33664
33648
33658
33663
33664
33668
33666
33673
33664
33668
33676
33674
33680
33676
33672
33677
33678
33679
33687
33686
33692
33689
33692
33688
33692
33704
33697
33704
33705
33701
33706
33704
33702
33713
33709
33724
33718
33722
33732
33724
33725
33728
33732
33726
33739
33740
33732
33741
33736
33736
33744
33740
33737
33744
33748
33756
33753
33749
33748
33748
33764
33752
33756
33756
33750
33756
33752
33752
33754
33758
33766
33756
33760
33760
33754
33764
33761
33756
33753
33768
33768
33756
33764
33764
33760
33756
33756
33759
33756
33754
33744
33756
33756
33750
33756
33756
33756
33758
33752
33764
33756
33748
33752
33752
33757
33754
33753
33756
33748
33753
33756
33750
33756
33756
33756
33756
33749
33752
33752
33760
33758
33764
33760
33764
33760
33756
33768
33765
33761
33772
33766
33768
33768
33772
33772
33780
33777
33766
33768
33769
33768
33758
33758
33756
33756
33749
33745
33742
33734
33724
33724
33727
33726
33714
33704
33700
33693
33681
33684
33673
33666
33674
33664
33654
33640
33637
33637
33633
33616
33615
33618
33612
33608
33600
33598
33588
33586
33582
33572
33576
33572
33560
33563
33556
33544
33551
33536
33536
33528
33525
33520
33516
33508
33508
33505
33508
33508
33492
33498
33488
33495
33486
33496
33492
33486
33480
33476
33473
33476
33474
33468
33472
33468
33464
33470
33464
33466
33461
33458
33448
33449
33460
33444
33444
33448
33444
33436
33428
33438
33436
33444
33432
33436
33433
33428
33429
33424
33420
33422
33425
33412
33422
33414
33406
33408
33401
33396
33392
33388
33390
33380
33378
33372
33362
33364
33352
33350
33345
33342
33333
33324
33316
33312
33308
33304
33285
33274
33264
33258
33250
33240
33225
33216
33212
33197
33186
33176
33166
33152
33132
33135
33124
33112
33096
33084
33074
33062
33046
33038
33021
33004
33004
32980
32964
32954
32942
32929
32924
32912
32890
32884
32868
32852
32836
32825
32808
32804
32782
32778
32761
32737
32728
32724
32708
32692
32678
32666
32652
32640
32624
32620
32604
32596
32575
32564
32558
32538
32526
32512
32502
32481
32476
32462
32450
32440
32424
32412
32398
32389
32372
32365
32354
32332
32326
32308
32300
32292
32278
32260
32252
32240
32233
32224
32210
32188
32177
32172
32160
32144
32136
32128
32121
32100
32098
32082
32076
32065
32048
32041
32028
32016
32016
31994
31988
31980
31968
31956
31941
31944
31925
31912
31911
31898
31896
31872
31872
31860
31840
31837
31836
31824
31812
31812
31792
31786
31788
31772
31764
31753
31748
31732
31736
31725
31720
31709
31704
31692
31682
31679
31672
31668
31668
31664
31648
31642
31632
31632
31628
31622
31611
31604
31599
31597
31595
31582
31578
31572
31569
31566
31561
31556
31557
31548
31546
31529
31530
31525
31520
31512
31502
31504
31509
31490
31492
31480
31484
31476
31464
31466
31460
31446
31436
31447
31435
31428
31416
31413
31416
31415
31402
31392
31396
31392
31388
31376
31370
31361
31361
31356
31350
31345
31341
31332
31324
31328
31320
31317
31312
31308
31308
31304
31298
31296
31300
31293
31288
31288
31284
31288
31288
31282
31284
31286
31280
31282
31273
31272
31276
31269
31268
31268
31268
31264
31249
31255
31249
31246
31238
31242
31236
31236
31232
31228
31213
31216
31212
31213
31206
31204
31204
31200
31200
31186
31182
31184
31181
31176
31181
31168
31161
31160
31159
31148
31156
31144
31140
31145
31144
31150
31137
31132
31135
31133
31137
31128
31134
31124
31124
31118
31120
31124
31126
31125
31116
31118
31116
31124
31114
31134
31116
31124
31112
31119
31122
31112
31124
31113
31121
31118
31114
31120
31125
31120
31124
31112
31117
31124
31121
31124
31121
31120
31120
31120
31127
31116
31124
31128
31127
31117
31125
31126
31129
31125
31128
31124
31120
31121
31121
31128
31122
31121
31125
31120
31124
31120
31120
31112
31112
31124
31116
31110
31114
31116
31111
31112
31108
31112
31108
31115
31112
31112
31108
31112
31105
31116
31109
31108
31104
31109
31110
31111
31113
31108
31102
31100
31097
31097
31098
31108
31090
31101
31096
31096
31093
31093
31094
31089
31081
31088
31084
31076
31076
31076
31076
31066
31064
31064
31060
31060
31052
31058
31048
31044
31048
31044
31048
31036
31028
31038
31024
31024
31030
31012
31012
31004
30992
30988
30982
30988
30976
30976
30978
30972
30954
30960
30948
30948
30944
30940
30930
30920
30924
30913
30911
30908
30901
30901
30884
30884
30876
30876
30872
30859
30851
30849
30840
30836
30828
30828
30822
30813
30801
30804
30792
30788
30786
30772
30768
30765
30756
30753
30756
30748
30734
30737
30721
30725
30716
30706
30704
30693
30692
30688
30670
30668
30670
30661
30660
30650
30649
30648
30639
30629
30622
30620
30608
30612
30600
30603
30588
30584
30580
30580
30576
30562
30552
30560
30548
30546
30540
30536
30528
30528
30516
30512
30510
30504
30500
30500
30488
30494
30482
30474
30472
30472
30462
30460
30445
30453
30446
30436
30441
30434
30426
30428
30422
30416
30410
30412
30399
30406
30401
30396
30393
30388
30376
30380
30381
30376
30369
30362
30358
30354
30348
30352
30340
30346
30334
30338
30330
30332
30327
30324
30312
30316
30312
30309
30308
30301
30308
30298
30292
30288
30286
30278
30276
30276
30272
30270
30264
30268
30260
30256
30261
30245
30247
30244
30236
30238
30239
30230
30222
30215
30212
30212
30208
30199
30202
30202
30194
30196
30192
30197
30184
30176
30172
30176
30167
30164
30156
30156
30146
30153
30145
30146
30138
30140
30128
30127
30126
30124
30122
30120
30118
30114
30120
30106
30102
30103
30096
30100
30092
30100
30093
30089
30084
30084
30084
30087
30084
30084
30080
30080
30076
30080
30073
30064
30069
30072
30060
30064
30060
30058
30065
30058
30056
30056
30056
30053
30056
30050
30056
30048
30054
30052
30044
30045
30038
30044
30044
30036
30044
30036
30036
30033
30030
30030
30032
30020
30024
30018
30020
30026
30014
30012
30014
30012
30010
30004
30005
30002
30004
29992
29996
29996
29985
29988
29982
29976
29976
29978
29964
29972
29964
29966
29960
29958
29964
29958
29949
29943
29944
29938
29936
29940
29944
29935
29932
29930
29928
29932
29920
29928
29929
29920
29928
29926
29925
29920
29924
29924
29928
29932
29921
29926
29920
29918
29916
29916
29909
29924
29908
29904
29910
29896
29900
29895
29898
29892
29884
29871
29872
29865
29864
29856
29844
29847
29836
29841
29832
29820
29814
29815
29796
29796
29788
29783
29772
29768
29756
29762
29744
29748
29744
29728
29728
29718
29716
29712
29704
29696
29691
29688
29668
29670
29661
29660
29653
29660
29646
29636
29630
29632
29624
29624
29616
29606
29604
29604
29596
29598
29598
29590
29592
29576
29576
29568
29580
29567
29578
29556
29560
29551
29552
29546
29541
29540
29543
29538
29536
29536
29533
29532
29524
29517
29512
29514
29510
29505
29512
29501
29501
29502
29492
29489
29486
29484
29482
29476
29472
29471
29470
29460
29465
29460
29460
29453
29446
29450
29441
29436
29436
29429
29428
29421
29412
29413
29412
29412
29396
29393
29380
29388
29378
29374
29377
29365
29368
29350
29356
29348
29343
29332
29326
29316
29316
29308
29303
29297
29292
29284
29280
29274
29271
29260
29253
29252
29245
29238
29232
29236
29230
29216
29205
29205
29204
29197
29184
29178
29169
29164
29164
29149
29152
29141
29144
29126
29134
29121
29108
29106
29104
29102
29096
29086
29084
29085
29076
29070
29058
29060
29058
29051
29039
29042
29038
29030
29028
29016
29020
29016
29016
29004
29000
29008
28991
28989
28988
28973
28973
28982
28976
28972
28962
28956
28954
28956
28948
28943
28937
28935
28936
28938
28930
28922
28916
28912
28908
28912
28906
28911
28903
28896
28896
28904
28889
28884
28892
28890
28888
28880
28874
28878
28876
28884
28873
28878
28869
28866
28872
28870
28868
28868
28864
28863
28864
28860
28865
28869
28860
28868
28863
28868
28861
28858
28870
28860
28866
28862
28868
28868
28869
28874
28864
28870
28876
28872
28874
28865
28868
28876
28872
28872
28876
28878
28880
28888
28894
28900
28895
28889
28896
28895
28898
28900
28908
28900
28909
28912
28912
28916
28924
28922
28914
28925
28918
28934
28932
28934
28934
28932
28935
28944
28943
28941
28946
28945
28952
28958
28965
28956
28960
28964
28968
28964
28968
28961
28980
28974
28978
28978
28980
28986
28990
28985
28980
28991
28992
28989
29000
28992
28996
28998
28996
28997
29000
29004
29005
29002
29008
29017
29020
29020
29020
29023
29033
29028
29036
29044
29038
29047
29054
29054
29056
29071
29073
29073
29078
29080
29092
29093
29092
29104
29108
29110
29114
29110
29124
29130
29128
29134
29134
29140
29140
29144
29141
29144
29151
29156
29152
29154
29160
29164
29156
29166
29156
29163
29156
29162
29161
29164
29168
29171
29167
29168
29164
29168
29168
29172
29172
29180
29170
29173
29172
29176
29180
29180
29184
29178
29188
29188
29185
29188
29191
29188
29193
29188
29201
29204
29199
29208
29209
29212
29220
29215
29218
29218
29220
29233
29232
29229
29241
29238
29240
29248
29248
29257
29262
29260
29272
29272
29268
29276
29274
29279
29284
29293
29293
29296
29300
29304
29308
29314
29316
29322
29322
29324
29333
29340
29339
29348
29348
29340
29352
29351
29356
29360
29370
29372
29368
29369
29382
29378
29382
29388
29384
29392
29400
29396
29400
29403
29405
29410
29408
29411
29412
29412
29416
29426
29428
29428
29424
29432
29444
29436
29442
29451
29441
29452
29450
29458
29463
29463
29466
29468
29466
29469
29474
29478
29482
29486
29485
29492
29496
29500
29496
29508
29500
29505
29500
29509
29511
29515
29516
29522
29521
29524
29527
29524
29536
29538
29534
29536
29534
29540
29539
29544
29544
29544
29548
29546
29546
29550
29544
29552
29552
29549
29560
29544
29557
29560
29554
29565
29560
29564
29564
29562
29559
29562
29556
29572
29557
29564
29562
29565
29562
29552
29557
29556
29562
29556
29564
29556
29548
29557
29555
29556
29556
29544
29548
29544
29552
29548
29543
29544
29540
29550
29548
29546
29542
29540
29538
29540
29540
29538
29534
29541
29540
29543
29544
29540
29540
29540
29537
29536
29541
29536
29548
29548
29542
29548
29551
29556
29552
29546
29550
29544
29548
29553
29550
29545
29548
29551
29540
29550
29537
29550
29549
29551
29551
29550
29564
29560
29556
29557
29556
29560
29556
29560
29570
29562
29562
29556
29566
29568
29564
29560
29564
29568
29564
29566
29568
29569
29565
29565
29572
29565
29572
29568
29573
29570
29574
29572
29580
29570
29582
29584
29576
29579
29584
29580
29587
29581
29590
29588
29588
29580
29588
29596
29584
29596
29594
29600
29598
29593
29598
29605
29599
29608
29596
29600
29604
29606
29600
29613
29604
29604
29614
29604
29610
29614
29616
29616
29616
29620
29626
29616
29622
29628
29630
29632
29636
29626
29632
29634
29632
29637
29632
29630
29636
29640
29641
29640
29640
29642
29640
29652
29644
29646
29635
29650
29640
29652
29648
29640
29652
29644
29647
29654
29646
29652
29650
29652
29647
29657
29653
29660
29654
29664
29658
29658
29661
29664
29668
29656
29665
29664
29664
29654
29668
29666
29668
29672
29672
29672
29672
29676
29676
29672
29668
29676
29676
29670
29675
29685
29680
29684
29684
29686
29687
29684
29690
29696
29700
29698
29700
29706
29702
29704
29704
29718
29714
29710
29725
29726
29732
29732
29732
29726
29740
29736
29748
29748
29748
29751
29752
29752
29760
29760
29760
29774
29775
29772
29796
29784
29792
29790
29792
29798
29797
29796
29808
29808
29808
29810
29813
29826
29817
29812
29822
29825
29829
29833
29820
29826
29832
29834
29844
29840
29842
29841
29844
29850
29848
29846
29852
29861
29860
29862
29860
29853
29865
29860
29860
29864
29870
29868
29878
29872
29870
29872
29879
29882
29892
29892
29892
29892
29896
29900
29905
29914
29922
29920
29926
29929
29932
29942
29945
29953
29956
29969
29959
29968
29972
29972
29972
29974
29969
29976
29982
29988
29986
29996
29984
29985
29981
29986
29993
29992
29990
29989
29990
29993
29988
29990
29998
29998
29992
29993
29996
29992
30000
29992
29992
30002
30000
30000
29996
30004
29995
30004
30008
30001
30002
29996
30000
29996
30002
29992
29996
29999
29996
29996
29999
29990
29990
29991
29988
29984
29988
29990
29986
29988
29986
29984
29982
29980
29980
29984
29986
29989
29994
29990
29988
29992
29999
29998
29988
29998
30000
29998
30006
30004
30006
30015
30012
30020
30016
30020
30026
30024
30030
30034
30031
30036
30039
30046
30048
30048
30052
30053
30061
30061
30054
30070
30067
30076
30069
30072
30080
30085
30078
30084
30084
30092
30100
30096
30098
30100
30108
30112
30112
30116
30112
30116
30116
30122
30124
30116
30116
30116
30120
30119
30132
30128
30124
30124
30128
30121
30140
30138
30132
30138
30139
30124
30136
30142
30136
30136
30140
30144
30136
30150
30145
30137
30144
30144
30144
30144
30150
30148
30150
30149
30148
30149
30156
30164
30156
30164
30172
30168
30168
30165
30178
30174
30169
30176
30181
30180
30188
30192
30196
30184
30196
30206
30202
30206
30201
30208
30210
30216
30228
30228
30224
30224
30236
30238
30252
30244
30246
30257
30262
30260
30263
30268
30266
30276
30276
30292
30294
30298
30300
30300
30308
30316
30315
30324
30329
30336
30340
30345
30352
30362
30369
30372
30381
30390
30404
30398
30408
30416
30420
30428
30436
30437
30448
30463
30460
30474
30486
30497
30502
30512
30521
30528
30542
30548
30553
30566
30569
30580
30601
30596
30614
30625
30632
30640
30648
30660
30672
30668
30688
30693
30710
30716
30732
30740
30754
30760
30772
30796
30800
30806
30818
30836
30844
30857
30871
30868
30885
30900
30920
30935
30936
30948
30952
30976
30990
30996
31010
31028
31033
31044
31062
31074
31088
31104
31112
31117
31133
31153
31170
31173
31191
31204
31222
31228
31244
31252
31277
31285
31296
31322
31324
31332
31348
31360
31372
31386
31405
31410
31425
31438
31448
31460
31476
31484
31493
31498
31520
31532
31536
31562
31572
31576
31598
31589
31612
31624
31636
31645
31664
31662
31684
31688
31704
31716
31724
31732
31746
31760
31764
31775
31788
31806
31807
31830
31836
31838
31848
31864
31884
31886
31900
31920
31928
31937
31940
31957
31972
31986
31992
32004
32008
32017
32037
32038
32052
32062
32069
32084
32088
32102
32108
32104
32121
32138
32140
32144
32160
32165
32178
32180
32188
32202
32206
32204
32212
32228
32233
32249
32248
32261
32260
32268
32278
32293
32292
32308
32313
32320
32328
32328
32344
32350
32352
32354
32368
32380
32384
32388
32402
32404
32404
32414
32420
32436
32441
32444
32454
32463
32468
32478
32480
32488
32501
32501
32516
32514
32521
32536
32540
32548
32556
32565
32572
32585
32588
32598
32597
32606
32609
32616
32628
32626
32632
32645
32648
32653
32666
32668
32672
32676
32688
32688
32702
32708
32716
32722
32730
32736
32729
32742
32748
32760
32757
32762
32772
32775
32786
32804
32801
32808
32814
32820
32832
32825
32832
32841
32838
32862
32865
32865
32868
32874
32884
32900
32904
32912
32913
32924
32920
32928
32938
32934
32936
32949
32953
32964
32968
32962
32980
32982
32984
32980
32994
33000
33008
33004
33017
33020
33016
33026
33028
33036
33038
33038
33037
33052
33052
33056
33062
33058
33060
33068
33062
33076
33072
33080
33083
33084
33084
33086
33080
33088
33097
33084
33092
33094
33092
33105
33098
33100
33101
33112
33102
33092
33104
33112
33113
33104
33110
33104
33114
33101
33108
33111
33098
33103
33101
33109
33113
33112
33098
33104
33101
33105
33102
33096
33100
33104
33100
33100
33096
33100
33103
33101
33104
33100
33102
33108
33104
33098
33104
33100
33110
33098
33108
33104
33104
33112
33112
33112
33109
33112
33116
33112
33117
33116
33124
33117
33121
33124
33128
33128
33131
33132
33132
33132
33144
33148
33132
33140
33143
33150
33140
33148
33156
33152
33148
33159
33156
33164
33161
33176
33158
33168
33172
33172
33178
33180
33178
33180
33180
33174
33184
33190
33188
33198
33189
33196
33208
33197
33201
33202
33209
33204
33211
33214
33216
33216
33224
33232
33229
33229
33237
33238
33236
33240
33242
33245
33253
33233
33248
33257
33255
33255
33258
33258
33260
33268
33276
33263
33286
33280
33280
33276
33281
33292
33293
33288
33297
33300
33304
33302
33312
33306
33312
33316
33324
33324
33335
33332
33332
33337
33338
33345
33348
33349
33349
33348
33364
33372
33364
33372
33376
33380
33380
33385
33377
33399
33387
33396
33400
33406
33401
33405
33412
33412
33423
33424
33428
33428
33429
33428
33436
33438
33441
33444
33449
33448
33450
33452
33454
33460
33452
33456
33466
33467
33468
33468
33473
33473
33476
33478
33476
33472
33484
33478
33482
33490
33490
33486
33487
33489
33490
33493
33498
33488
33496
33500
33496
33500
33494
33504
33508
33496
33504
33500
33504
33510
33511
33504
33512
33512
33512
33512
33516
33522
33522
33528
33524
33520
33524
33524
33520
33528
33540
33533
33536
33546
33532
33546
33541
33542
33538
33544
33548
33548
33551
33556
33548
33552
33548
33552
33556
33556
33562
33564
33564
33566
33561
33560
33556
33559
33560
33566
33560
33558
33564
33562
33564
33562
33560
33556
33557
33560
33564
33557
33560
33553
33560
33548
33559
33558
33553
33548
33556
33550
33548
33554
33548
33546
33544
33538
33544
33544
33535
33535
33544
33536
33544
33534
33534
33540
33532
33537
33537
33528
33526
33528
33526
33527
33530
33524
33520
33517
33520
33516
33517
33527
33516
33524
33516
33518
33525
33520
33524
33532
33520
33527
33526
33524
33535
33532
33532
33532
33536
33532
33528
33540
33536
33534
33540
33524
33528
33532
33524
33532
33524
33526
33526
33516
33511
33502
33508
33506
33500
33490
33489
33480
33484
33476
33474
33472
33460
33460
33452
33450
33444
33438
33428
33420
33420
33416
33409
33413
33407
33406
33390
33392
33388
33382
33384
33379
33368
33368
33364
33357
33353
33352
33348
33332
33336
33332
33334
33328
33320
33314
33316
33314
33308
33300
33286
33300
33294
33296
33290
33288
33290
33287
33277
33278
33284
33281
33276
33278
33284
33280
33268
33268
33272
33268
33261
33268
33258
33261
33253
33255
33260
33261
33260
33254
33256
33252
33256
33254
33252
33253
33252
33257
33252
33252
33245
33244
33256
33252
33248
33250
33246
33248
33246
33244
33246
33248
33241
33240
33238
33236
33236
33237
33232
33231
33221
33224
33220
33212
33201
33204
33196
33198
33197
33192
33181
33178
33170
33162
33161
33156
33156
33141
33143
33134
33117
33110
33104
33103
33092
33086
33084
33070
33064
33056
33044
33031
33016
33014
32992
32996
32982
32964
32964
32948
32946
32932
32920
32916
32904
32888
32881
32871
32854
32860
32844
32824
32822
32808
32794
32784
32782
32768
32768
32740
32736
32732
32712
32708
32704
32692
32672
32669
32660
32649
32640
32624
32614
32606
32604
32584
32578
32576
32564
32544
32548
32524
32524
32520
32501
32494
32488
32468
32468
32460
32449
32438
32430
32417
32407
32404
32400
32388
32377
32366
32360
32352
32344
32334
32320
32312
32320
32301
32292
32284
32272
32268
32254
32252
32242
32236
32225
32220
32202
32197
32194
32180
32168
32168
32164
32156
32148
32142
32134
32124
32111
32110
32101
32090
32087
32080
32076
32070
32063
32052
32044
32040
32036
32026
32021
32014
32009
31992
31997
31984
31981
31973
31976
31968
31954
31952
31950
31940
31940
31928
31920
31924
31921
31919
31908
31903
31902
31892
31892
31876
31882
31876
31876
31864
31860
31868
31849
31852
31841
31842
31840
31834
31826
31824
31812
31820
31816
31805
31802
31800
31792
31780
31788
31780
31772
31770
31767
31772
31756
31743
31744
31734
31732
31719
31717
31717
31718
31712
31702
31690
31686
31685
31678
31680
31663
31668
31664
31652
31654
31644
31642
31636
31638
31632
31620
31627
31613
31620
31616
31604
31604
31608
31608
31604
31600
31604
31588
31596
31592
31592
31597
31580
31585
31581
31584
31576
31576
31572
31564
31564
31569
31564
31552
31556
31548
31540
31544
31532
31532
31529
31525
31521
31516
31511
31506
31511
31496
31488
31493
31482
31487
31476
31468
31468
31470
31468
31456
31462
31453
31452
31444
31444
31450
31450
31436
31440
31436
31438
31439
31425
31436
31426
31430
31430
31432
31424
31430
31425
31432
31429
31425
31430
31433
31428
31430
31430
31430
31426
31440
31436
31429
31430
31432
31432
31436
31434
31446
31444
31440
31440
31437
31445
31444
31449
31439
31446
31445
31444
31446
31448
31444
31452
31450
31448
31452
31448
31456
31448
31454
31444
31448
31450
31448
31444
31444
31449
31448
31446
31450
31436
31444
31436
31432
31436
31432
31425
31429
31422
31416
31423
31416
31412
31414
31408
31416
31403
31396
31404
31396
31399
31394
31386
31388
31380
31376
31383
31377
31373
31366
31364
31365
31352
31351
31352
31356
31344
31349
31332
31328
31332
31322
31322
31324
31324
31312
31308
31304
31300
31294
31284
31285
31273
31276
31270
31266
31256
31254
31248
31248
31237
31228
31228
31222
31214
31222
31205
31198
31190
31196
31186
31172
31169
31168
31156
31156
31152
31140
31132
31130
31119
31109
31110
31106
31100
31092
31085
31076
31072
31060
31060
31048
31038
31036
31025
31022
31022
31012
31004
30997
30984
30980
30974
30960
30956
30950
30952
30942
30932
30918
30916
30914
30910
30901
30894
30888
30878
30876
30868
30864
30854
30856
30844
30836
30832
30820
30824
30816
30800
30800
30792
30788
30781
30772
30765
30759
30756
30751
30742
30744
30732
30726
30718
30717
30708
30696
30695
30693
30684
30682
30672
30668
30654
30654
30652
30640
30637
30628
30628
30614
30612
30612
30600
30596
30588
30582
30577
30569
30576
30566
30560
30552
30548
30534
30537
30532
30524
30520
30506
30506
30502
30496
30492
30486
30484
30474
30474
30474
30465
30454
30456
30450
30447
30438
30436
30428
30425
30424
30408
30408
30410
30408
30392
30385
30398
30376
30384
30372
30364
30364
30358
30345
30352
30340
30340
30337
30337
30325
30326
30324
30310
30304
30305
30300
30300
30296
30288
30288
30288
30278
30272
30270
30265
30260
30257
30253
30248
30242
30240
30234
30228
30218
30212
30215
30206
30220
30200
30200
30188
30184
30182
30180
30176
30176
30165
30172
30160
30153
30148
30144
30144
30145
30138
30134
30127
30116
30116
30108
30111
30105
30102
30098
30100
30086
30092
30088
30076
30080
30078
30064
30068
30072
30066
30055
30054
30052
30037
30038
30040
30037
30036
30030
30018
30016
30017
30017
30008
30022
30012
30008
30002
29992
29992
29991
29988
29988
29986
29984
29984
29975
29978
29967
29966
29968
29960
29964
29952
29960
29960
29950
29953
29942
29936
29940
29934
29932
29933
29920
29926
29913
29916
29908
29901
29904
29898
29896
29890
29886
29888
29882
29876
29866
29865
29860
29852
29846
29848
29842
29842
29832
29828
29821
29816
29817
29805
29806
29797
29791
29785
29784
29770
29776
29768
29768
29765
29760
29754
29748
29745
29743
29736
29733
29721
29712
29712
29713
29713
29712
29705
29700
29700
29700
29690
29692
29684
29684
29683
29681
29686
29679
29678
29677
29676
29668
29668
29668
29660
29660
29660
29652
29648
29640
29642
29636
29636
29622
29617
29616
29604
29601
29597
29598
29584
29580
29576
29566
29564
29554
29553
29540
29532
29534
29529
29521
29506
29505
29492
29494
29490
29474
29472
29455
29464
29457
29444
29444
29433
29428
29425
29414
29416
29404
29404
29390
29382
29377
29380
29369
29372
29356
29352
29348
29349
29341
29342
29336
29334
29329
29324
29321
29317
29312
29313
29302
29297
29300
29298
29292
29285
29284
29284
29278
29276
29276
29267
29273
29264
29263
29260
29257
29248
29252
29248
29241
29239
29241
29237
29233
29228
29228
29220
29220
29224
29224
29216
29216
29212
29204
29204
29204
29205
29204
29198
29194
29185
29184
29180
29172
29172
29164
29166
29164
29161
29158
29152
29149
29144
29138
29134
29128
29124
29110
29120
29114
29108
29100
29100
29096
29084
29079
29079
29077
29060
29062
29052
29048
29044
29041
29034
29028
29017
29016
29006
28997
29000
28994
28984
28970
28964
28966
28962
28964
28944
28937
28932
28928
28924
28909
28902
28898
28892
28884
28876
28868
28868
28868
28855
28848
28840
28838
28830
28832
28822
28820
28818
28808
28808
28798
28796
28778
28786
28780
28774
28764
28764
28760
28756
28753
28752
28737
28740
28744
28732
28730
28721
28729
28718
28714
28713
28715
28701
28700
28708
28697
28698
28690
28686
28684
28682
28676
28668
28665
28670
28668
28674
28658
28660
28661
28660
28650
28644
28644
28648
28644
28641
28644
28640
28639
28632
28629
28632
28632
28626
28624
28630
28624
28624
28620
28620
28620
28614
28617
28610
28609
28620
28616
28612
28612
28612
28612
28606
28607
28607
28606
28604
28600
28600
28606
28600
28601
28604
28600
28607
28602
28604
28604
28602
28604
28607
28606
28600
28602
28609
28612
28612
28606
28614
28615
28612
28624
28614
28624
28624
28625
28619
28623
28628
28624
28637
28634
28636
28636
28640
28644
28644
28644
28648
28648
28652
28656
28658
28656
28658
28661
28664
28670
28660
28666
28672
28673
28680
28676
28679
28687
28690
28692
28686
28684
28686
28694
28696
28693
28686
28693
28697
28704
28698
28700
28705
28697
28705
28688
28694
28702
28700
28700
28696
28704
28702
28704
28709
28708
28712
28709
28712
28723
28710
28728
28728
28724
28732
28736
28729
28736
28745
28744
28744
28746
28752
28754
28752
28752
28756
28752
28745
28764
28753
28760
28760
28758
28768
28764
28758
28769
28760
28765
28760
28760
28758
28758
28756
28761
28749
28743
28748
28745
28748
28740
28744
28733
28736
28734
28737
28736
28736
28734
28732
28728
28721
28729
28722
28718
28720
28721
28724
28722
28718
28716
28716
28718
28712
28718
28716
28716
28722
28712
28718
28720
28710
28717
28718
28724
28708
28726
28720
28716
28722
28714
28716
28724
28718
28728
28720
28721
28718
28722
28727
28726
28725
28716
28722
28728
28724
28726
28720
28730
28728
28728
28726
28736
28734
28730
28732
28740
28736
28730
28736
28736
28728
28740
28738
28740
28737
28741
28748
28744
28744
28744
28740
28748
28740
28756
28744
28751
28756
28756
28756
28748
28760
28764
28760
28764
28757
28767
28769
28772
28768
28772
28770
28769
28770
28776
28774
28780
28774
28785
28780
28780
28783
28790
28786
28788
28790
28800
28796
28804
28800
28800
28808
28798
28814
28816
28812
28820
28823
28822
28818
28820
28822
28824
28823
28831
28825
28832
28828
28838
28834
28836
28838
28844
28836
28842
28844
28854
28844
28856
28852
28856
28852
28852
28856
28856
28855
28854
28856
28856
28858
28852
28856
28862
28861
28852
28856
28853
28856
28848
28850
28852
28856
28849
28850
28852
28841
28838
28837
28840
28840
28836
28828
28830
28836
28828
28827
28835
28822
28816
28820
28821
28817
28804
28801
28801
28798
28804
28796
28786
28793
28786
28788
28780
28776
28774
28772
28769
28764
28763
28762
28766
28764
28760
28753
28748
28750
28747
28745
28744
28742
28738
28734
28734
28732
28730
28725
28727
28721
28720
28716
28709
28708
28714
28709
28700
28701
28704
28700
28696
28697
28692
28696
28688
28682
28690
28685
28685
28678
28684
28688
28676
28676
28676
28676
28676
28662
28669
28668
28668
28661
28665
28669
28665
28669
28655
28668
28658
28663
28663
28655
28667
28660
28660
28660
28657
28652
28661
28662
28657
28649
28657
28652
28660
28650
28657
28656
28654
28652
28650
28653
28652
28650
28655
28648
28650
28648
28652
28650
28656
28658
28647
28652
28652
28645
28644
28656
28650
28653
28658
28655
28652
28663
28656
28652
28655
28654
28648
28660
28656
28654
28660
28664
28665
28658
28660
28660
28660
28670
28672
28660
28670
28672
28664
28666
28672
28672
28677
28669
28680
28676
28678
28684
28680
28692
28684
28685
28688
28690
28684
28697
28696
28692
28696
28700
28706
28704
28702
28705
28706
28702
28708
28708
28712
28704
28710
28708
28708
28716
28714
28716
28716
28720
28704
28722
28712
28716
28720
28718
28721
28722
28718
28724
28724
28720
28721
28720
28724
28717
28717
28720
28713
28722
28718
28718
28721
28712
28716
28731
28724
28720
28714
28720
28720
28722
28717
28720
28724
28714
28712
28720
28718
28720
28709
28719
28716
28720
28716
28722
28716
28715
28726
28716
28717
28712
28716
28711
28712
28716
28724
28713
28716
28724
28721
28717
28724
28721
28719
28720
28724
28724
28722
28717
28724
28718
28720
28725
28726
28720
28724
28718
28716
28724
28718
28735
28724
28720
28720
28730
28732
28726
28716
28716
28716
28720
28724
28720
28716
28718
28712
28720
28718
28717
28716
28711
28710
28714
28708
28708
28705
28708
28704
28704
28704
28708
28706
28708
28700
28703
28699
28696
28692
28692
28689
28692
28686
28687
28687
28684
28692
28684
28682
28678
28684
28684
28684
28676
28684
28678
28681
28677
28684
28682
28678
28679
28689
28692
28692
28692
28693
28697
28700
28704
28708
28700
28698
28709
28712
28708
28710
28706
28713
28712
28709
28714
28717
28712
28719
28708
28716
28713
28708
28708
28710
28708
28716
28712
28712
28708
28708
28709
28702
28704
28708
28705
28705
28706
28704
28705
28702
28704
28704
28702
28704
28694
28694
28686
28696
28694
28688
28693
28685
28681
28672
28676
28670
28672
28664
28660
28656
28661
28653
28648
28654
28640
28644
28640
28638
28625
28628
28628
28624
28614
28619
28612
28614
28606
28612
28612
28610
28610
28608
28606
28600
28602
28598
28593
28600
28597
28590
28592
28588
28588
28584
28586
28588
28584
28586
28591
28581
28591
28576
28580
28577
28576
28568
28570
28566
28572
28564
28573
28560
28560
28556
28557
28552
28550
28556
28548
28553
28548
28548
28548
28540
28542
28540
28535
28534
28520
28518
28514
28512
28508
28514
28505
28504
28500
28504
28492
28489
28482
28480
28476
28472
28476
28463
28459
28450
28448
28450
28440
28435
28425
28418
28420
28413
28414
28404
28397
28398
28396
28384
28388
28372
28368
28360
28364
28362
28349
28350
28345
28338
28344
28334
28332
28326
28324
28321
28313
28309
28304
28305
28311
28302
28293
28294
28290
28283
28292
28288
28282
28281
28278
28276
28276
28264
28264
28260
28260
28264
28260
28250
28252
28256
28248
28252
28248
28248
28240
28252
28245
28233
28240
28236
28236
28236
28237
28240
28242
28240
28234
28241
28244
28241
28244
28250
28250
28248
28250
28251
28257
28256
28254
28254
28256
28260
28272
28270
28274
28281
28286
28294
28292
28292
28296
28308
28308
28324
28320
28328
28334
28338
28345
28348
28348
28360
28361
28373
28384
28384
28396
28403
28412
28420
28438
28437
28445
28452
28464
28472
28482
28492
28504
28512
28516
28526
28541
28550
28568
28576
28584
28593
28607
28615
28633
28645
28652
28664
28676
28684
28700
28716
28730
28748
28758
28772
28785
28801
28812
28820
28836
28852
28862
28872
28894
28904
28932
28942
28960
28978
28992
29000
29012
29018
29036
29060
29076
29082
29101
29112
29132
29146
29167
29174
29194
29207
29221
29240
29253
29264
29286
29300
29317
29320
29340
29350
29364
29385
29402
29412
29430
29434
29460
29464
29480
29500
29502
29520
29548
29556
29564
29589
29596
29604
29620
29642
29660
29677
29688
29696
29721
29732
29748
29760
29786
29800
29820
29838
29850
29868
29884
29892
29912
29928
29940
29960
29974
29988
30010
30024
30034
30048
30064
30084
30102
30115
30133
30141
30160
30168
30181
30192
30208
30226
30240
30253
30272
30276
30298
30301
30320
30332
30344
30366
30369
30388
30396
30420
30430
30440
30460
30464
30484
30485
30500
30508
30525
30546
30549
30557
30572
30586
30596
30613
30618
30644
30644
30662
30672
30680
30697
30708
30716
30730
30744
30756
30764
30780
30792
30807
30818
30828
30844
30854
30868
30876
30887
30900
30910
30925
30930
30940
30958
30969
30976
30992
31009
31008
31024
31046
31044
31056
31074
31082
31101
31101
31120
31130
31140
31148
31158
31167
31179
31188
31200
31214
31223
31232
31240
31245
31264
31269
31280
31280
31304
31312
31321
31326
31330
31340
31354
31364
31378
31381
31396
31408
31420
31412
31429
31437
31445
31458
31460
31468
31480
31498
31497
31512
31520
31525
31536
31536
31552
31556
31566
31576
31580
31588
31604
31608
31615
31623
31632
31640
31642
31657
31656
31669
31676
31681
31692
31696
31708
31712
31713
31722
31724
31728
31736
31752
31756
31758
31757
31764
31765
31774
31774
31780
31788
31790
31788
31793
31804
31802
31808
31812
31818
31817
31828
31814
31824
31828
31828
31836
31841
31841
31841
31846
31846
31848
31850
31848
31848
31855
31857
31856
31857
31857
31856
31857
31862
31865
31856
31863
31868
31872
31872
31876
31873
31871
31882
31880
31880
31878
31878
31882
31885
31887
31884
31896
31894
31900
31896
31909
31902
31908
31905
31908
31902
31912
31909
31928
31920
31924
31928
31928
31928
31932
31940
31943
31944
31944
31956
31952
31962
31958
31964
31966
31968
31974
31976
31980
31981
31988
31992
31992
31992
32004
32007
32013
32018
32012
32020
32020
32023
32030
32028
32028
32040
32037
32034
32052
32046
32046
32048
32048
32053
32057
32057
32064
32056
32060
32066
32064
32071
32073
32076
32077
32078
32080
32093
32086
32088
32092
32084
32088
32100
32100
32102
32100
32108
32108
32116
32116
32112
32126
32124
32120
32129
32132
32132
32150
32137
32136
32140
32142
32148
32148
32159
32161
32166
32156
32164
32164
32172
32180
32184
32186
32184
32192
32184
32190
32196
32198
32196
32206
32204
32207
32212
32216
32214
32213
32225
32224
32222
32223
32233
32236
32239
32245
32245
32240
32245
32250
32252
32248
32255
32266
32262
32264
32260
32264
32271
32262
32271
32268
32276
32284
32288
32282
32276
32284
32286
32288
32288
32284
32292
32290
32293
32292
32294
32292
32300
32294
32292
32298
32303
32299
32294
32304
32304
32306
32301
32302
32302
32300
32306
32309
32311
32301
32304
32300
32308
32308
32304
32312
32308
32302
32303
32303
32300
32303
32301
32300
32308
32300
32296
32304
32296
32310
32304
32297
32301
32297
32301
32292
32298
32300
32292
32294
32293
32296
32288
32298
32292
32290
32288
32292
32292
32298
32292
32296
32293
32296
32289
32292
32286
32289
32292
32292
32288
32276
32284
32295
32286
32296
32288
32288
32294
32292
32293
32292
32296
32296
32304
32296
32299
32306
32304
32308
32304
32303
32312
32318
32309
32324
32320
32320
32318
32326
32325
32324
32332
32328
32340
32336
32340
32334
32344
32346
32344
32352
32351
32351
32355
32356
32366
32360
32364
32368
32361
32361
32364
32367
32372
32365
32370
32368
32381
32380
32376
32376
32376
32372
32375
32376
32380
32381
32380
32388
32384
32389
32389
32384
32388
32388
32389
32396
32385
32386
32396
32396
32386
32390
32401
32395
32400
32396
32396
32392
32402
32398
32400
32408
32408
32412
32408
32414
32413
32424
32422
32420
32415
32421
32420
32417
32424
32432
32430
32430
32430
32448
32440
32446
32456
32452
32456
32468
32468
32471
32473
32488
32481
32489
32494
32496
32496
32500
32508
32512
32514
32516
32518
32520
32528
32534
32528
32528
32534
32534
32532
32533
32538
32540
32537
32533
32537
32542
32540
32545
32542
32545
32546
32554
32549
32545
32552
32552
32554
32550
32564
32556
32556
32557
32556
32556
32572
32564
32565
32568
32564
32568
32568
32580
32583
32580
32577
32580
32584
32577
32588
32584
32588
32588
32596
32590
32596
32607
32601
32609
32615
32615
32623
32620
32630
32632
32642
32644
32647
32647
32648
32657
32672
32676
32671
32678
32678
32690
32692
32700
32704
32719
32724
32726
32732
32737
32738
32748
32748
32765
32760
32774
32788
32788
32792
32802
32812
32812
32812
32822
32827
32840
32838
32850
32864
32869
32868
32870
32877
32887
32888
32890
32898
32900
32904
32908
32914
32908
32910
32916
32924
32926
32926
32924
32932
32935
32924
32932
32928
32928
32928
32928
32926
32917
32922
32924
32920
32919
32910
32918
32912
32906
32904
32898
32894
32892
32877
32879
32884
32871
32868
32862
32852
32852
32853
32848
32836
32828
32822
32820
32818
32814
32798
32793
32792
32778
32784
32778
32768
32765
32762
32756
32750
32742
32740
32734
32727
32727
32711
32712
32712
32700
32703
32686
32682
32685
32676
32668
32660
32668
32660
32656
32660
32656
32644
32652
32641
32640
32640
32628
32623
32624
32625
32624
32614
32617
32622
32608
32606
32608
32598
32598
32596
32591
32596
32590
32593
32596
32589
32588
32588
32588
32589
32586
32581
32592
32590
32576
32578
32580
32576
32570
32570
32572
32566
32573
32568
32569
32576
32572
32564
32562
32561
32570
32561
32568
32569
32564
32568
32556
32566
32569
32568
32564
32564
32559
32565
32566
32574
32561
32564
32568
32561
32573
32566
32564
32568
32574
32572
32570
32571
32570
32570
32572
32570
32576
32570
32574
32582
32580
32580
32584
32578
32574
32578
32584
32590
32578
32584
32580
32580
32580
32582
32588
32580
32580
32586
32576
32581
32581
32580
32576
32576
32580
32576
32580
32578
32575
32574
32566
32570
32568
32567
32564
32568
32568
32564
32552
32556
32552
32547
32545
32543
32538
32540
32536
32533
32524
32528
32524
32525
32521
32516
32514
32508
32504
32508
32503
32500
32496
32492
32488
32497
32492
32488
32496
32492
32488
32496
32488
32492
32500
32492
32493
32504
32504
32493
32500
32496
32496
32500
32495
32500
32505
32497
32501
32505
32498
32510
32500
32504
32512
32500
32508
32508
32501
32508
32514
32508
32513
32508
32516
32514
32516
32512
32514
32516
32520
32521
32526
32532
32524
32524
32532
32532
32536
32542
32540
32543
32544
32548
32549
32548
32548
32556
32562
32567
32572
32569
32577
32585
32584
32582
32591
32596
32592
32604
32608
32615
32613
32616
32612
32620
32630
32628
32638
32641
32638
32648
32650
32652
32650
32658
32669
32665
32670
32670
32672
32680
32681
32681
32694
32688
32692
32690
32692
32692
32694
32698
32696
32696
32700
32701
32702
32704
32704
32696
32702
32692
32688
32692
32688
32692
32689
32686
32679
32676
32677
32684
32676
32678
32664
32666
32664
32649
32660
32650
32652
32644
32646
32636
32638
32624
32631
32622
32632
32616
32612
32612
32604
32602
32592
32592
32588
32584
32582
32574
32570
32564
32564
32558
32552
32548
32540
32538
32534
32526
32524
32512
32511
32500
32494
32500
32490
32486
32480
32477
32470
32461
32457
32451
32445
32432
32428
32418
32424
32408
32408
32392
32388
32388
32380
32372
32366
32353
32353
32346
32336
32332
32328
32321
32312
32300
32296
32292
32287
32278
32275
32260
32255
32244
32240
32228
32224
32214
32210
32208
32200
32196
32180
32173
32172
32164
32162
32133
32136
32134
32124
32124
32116
32104
32109
32096
32088
32086
32073
32072
32056
32052
32049
32039
32036
32022
32016
32009
32004
32004
31992
31984
31972
31975
31962
31953
31944
31936
31934
31924
31912
31917
31902
31892
31887
31876
31865
31868
31850
31855
31842
31836
31824
31816
31810
31806
31796
31802
31780
31784
31768
31762
31748
31744
31740
31724
31719
31712
31708
31696
31684
31680
31672
31665
31654
31648
31637
31632
31620
31613
31608
31596
31580
31580
31566
31561
31552
31544
31536
31529
31512
31513
31500
31495
31482
31476
31468
31462
31456
31448
31436
31434
31423
31417
31401
31400
31386
31376
31367
31354
31349
31348
31332
31326
31306
31308
31296
31290
31278
31272
31252
31248
31239
31230
31228
31216
31204
31190
31184
31180
31169
31166
31156
31136
31132
31126
31116
31100
31096
31086
31077
31064
31060
31044
31044
31028
31020
31016
31000
30990
30984
30974
30960
30952
30946
30937
30922
30916
30909
30900
30892
30881
30881
30868
30860
30849
30838
30824
30824
30808
30802
30795
30780
30781
30761
30756
30738
30742
30729
30716
30703
30701
30692
30676
30684
30668
30648
30640
30644
30630
30625
30610
30594
30596
30582
30575
30568
30565
30554
30548
30540
30524
30522
30512
30492
30502
30484
30476
30464
30458
30452
30436
30436
30418
30414
30405
30399
30384
30377
30372
30366
30356
30342
30330
30318
30316
30305
30298
30288
30276
30268
30272
30244
30244
30225
30228
30210
30213
30190
30180
30175
30172
30158
30148
30134
30126
30114
30110
30096
30084
30072
30062
30048
30040
30038
30022
30012
30004
29996
29988
29982
29967
29962
29951
29934
29932
29914
29913
29892
29892
29875
29861
29858
29851
29844
29836
29812
29805
29797
29794
29776
29772
29765
29751
29754
29740
29726
29726
29712
29712
29690
29690
29673
29665
29656
29648
29643
29632
29616
29612
29604
29597
29580
29573
29564
29556
29540
29528
29524
29503
29500
29485
29469
29456
29444
29425
29412
29393
29384
29372
29356
29341
29324
29308
29290
29280
29253
29245
29224
29215
29200
29178
29167
29149
29134
29122
29106
29092
29077
29062
29052
29038
29020
29012
28993
28988
28972
28964
28944
28934
28918
28910
28892
28880
28869
28860
28852
28836
28824
28816
28805
28793
28777
28770
28765
28752
28742
28724
28718
28708
28701
28688
28684
28679
28658
28648
28650
28636
28628
28618
28613
28592
28592
28584
28576
28575
28561
28560
28556
28544
28534
28528
28517
28508
28496
28500
28492
28478
28472
28469
28466
28452
28452
28436
28436
28424
28420
28418
28410
28400
28398
28390
28379
28372
28368
28356
28352
28349
28336
28326
28321
28316
28311
28308
28298
28286
28279
28268
28268
28260
28256
28238
28234
28220
28210
28201
28200
28189
28177
28165
28160
28150
28136
28128
28121
28110
28102
28088
28081
28071
28054
28041
28039
28026
28012
28002
27986
27973
27964
27962
27942
27932
27934
27905
27900
27884
27876
27864
27853
27847
27836
27822
27814
27800
27785
27781
27766
27758
27753
27740
27730
27712
27705
27692
27680
27676
27664
27662
27646
27636
27625
27618
27604
27609
27592
27588
27572
27572
27557
27550
27552
27536
27534
27526
27511
27504
27498
27490
27484
27480
27474
27464
27456
27448
27448
27444
27438
27432
27424
27416
27404
27399
27392
27392
27380
27376
27372
27364
27357
27356
27355
27340
27334
27328
27320
27318
27308
27300
27294
27295
27281
27276
27268
27264
27252
27248
27242
27240
27232
27236
27222
27213
27214
27210
27196
27199
27189
27180
27175
27170
27172
27156
27161
27158
27148
27144
27146
27136
27128
27124
27126
27118
27120
27108
27106
27094
27094
27096
27088
27090
27084
27078
27076
27070
27070
27072
27062
27060
27062
27057
27062
27057
27052
27052
27044
27044
27038
27040
27044
27044
27036
27034
27040
27031
27030
27033
27029
27020
27024
27020
27025
27017
27016
27010
27013
27004
27012
27007
27009
27008
27001
27004
27001
27000
27004
26996
26996
26999
26999
26996
26988
26990
26981
26991
26980
26986
26980
26974
26973
26981
26980
26980
26978
26986
26986
26988
26988
26985
26988
27000
27002
26998
27007
27010
27012
27009
27020
27016
27020
27028
27030
27030
27036
27029
27036
27038
27043
27048
27052
27049
27050
27048
27056
27057
27056
27062
27072
27072
27072
27076
27070
27077
27078
27080
27084
27085
27092
27096
27095
27103
27108
27106
27110
27112
27116
27113
27116
27126
27127
27136
27133
27142
27138
27149
27156
27156
27166
27170
27181
27185
27190
27190
27192
27200
27205
27204
27215
27220
27224
27228
27236
27245
27244
27250
27262
27268
27268
27274
27276
27284
27294
27292
27304
27303
27330
27322
27324
27328
27352
27345
27360
27358
27364
27373
27384
27392
27400
27405
27414
27422
27428
27438
27444
27452
27453
27464
27472
27481
27484
27496
27503
27510
27517
27528
27528
27542
27552
27556
27561
27565
27578
27582
27595
27589
27604
27620
27620
27628
27634
27642
27645
27664
27668
27679
27688
27692
27708
27712
27720
27732
27734
27745
27752
27764
27772
27780
27793
27800
27808
27812
27828
27841
27844
27858
27862
27873
27892
27892
27900
27912
27920
27926
27942
27952
27964
27972
27968
27984
28004
28016
28024
28032
28045
28049
28052
28073
28082
28090
28094
28108
28121
28128
28132
28140
28152
28160
28176
28188
28192
28206
28216
28228
28236
28249
28261
28260
28277
28292
28302
28308
28322
28332
28336
28342
28360
28372
28384
28382
28404
28422
28428
28436
28444
28453
28456
28480
28491
28500
28514
28520
28540
28540
28549
28560
28576
28585
28592
28608
28616
28626
28636
28644
28664
28670
28684
28688
28700
28720
28722
28740
28754
28756
28766
28774
28789
28804
28808
28817
28828
28840
28852
28864
28878
28884
28900
28904
28924
28929
28946
28951
28972
28964
28984
28992
29005
29011
29029
29040
29047
29058
29064
29076
29084
29098
29103
29108
29122
29136
29141
29160
29166
29182
29192
29204
29212
29216
29228
29231
29244
29255
29258
29279
29276
29292
29300
29308
29308
29328
29336
29340
29342
29354
29358
29372
29381
29382
29391
29401
29413
29415
29428
29438
29448
29452
29460
29468
29482
29480
29492
29495
29504
29501
29511
29524
29528
29536
29540
29556
29556
29573
29581
29576
29589
29594
29598
29608
29612
29612
29628
29628
29648
29642
29649
29657
29664
29668
29668
29676
29696
29700
29706
29718
29714
29716
29724
29724
29734
29740
29742
29746
29752
29758
29764
29776
29770
29780
29780
29784
29792
29800
29801
29800
29800
29812
29814
29808
29821
29824
29828
29829
29836
29836
29838
29836
29844
29836
29848
29850
29852
29847
29845
29854
29860
29850
29854
29860
29868
29861
29860
29865
29864
29872
29871
29864
29868
29870
29872
29876
29880
29880
29884
29878
29882
29884
29892
29892
29884
29888
29888
29894
29886
29892
29892
29886
29876
29891
29884
29888
29892
29889
29890
29890
29886
29891
29890
29887
29888
29890
29884
29890
29884
29892
29892
29888
29889
29896
29892
29900
29893
29890
29897
29893
29904
29892
29898
29892
29904
29901
29908
29907
29908
29908
29908
29904
29905
29896
29900
29901
29894
29890
29893
29892
29882
29880
29874
29872
29860
29860
29853
29844
29836
29828
29828
29824
29802
29792
29784
29776
29764
29764
29745
29739
29726
29720
29710
29700
29694
29685
29678
29673
29662
29644
29640
29640
29630
29628
29617
29615
29606
29602
29598
29594
29580
29577
29570
29567
29564
29552
29554
29544
29536
29538
29525
29524
29512
29508
29505
29505
29496
29488
29486
29481
29472
29465
29463
29468
29448
29452
29448
29436
29438
29420
29425
29420
29422
29412
29405
29404
29400
29396
29390
29388
29378
29376
29374
29370
29372
29360
29360
29355
29352
29352
29349
29346
29337
29330
29330
29324
29324
29316
29309
29309
29304
29300
29294
29292
29284
29274
29280
29265
29264
29250
29252
29254
29244
29236
29238
29225
29220
29217
29212
29201
29199
29192
29172
29184
29176
29160
29156
29156
29144
29144
29124
29124
29119
29108
29112
29094
29095
29084
29080
29074
29058
29056
29044
29030
29028
29017
29006
29010
28994
28984
28973
28968
28957
28948
28937
28927
28928
28918
28906
28892
28888
28884
28878
28868
28857
28848
28842
28842
28832
28821
28812
28812
28799
28796
28796
28790
28781
28768
28768
28761
28750
28750
28744
28736
28732
28732
28721
28724
28716
28705
28705
28703
28694
28692
28688
28679
28680
28684
28672
28676
28676
28671
28668
28668
28652
28660
28657
28650
28654
28649
28650
28644
28644
28642
28638
28640
28634
28644
28632
28636
28624
28630
28624
28628
28630
28628
28626
28630
28624
28620
28618
28614
28625
28616
28620
28616
28616
28629
28620
28623
28628
28628
28609
28616
28621
28620
28624
28624
28628
28622
28616
28624
28616
28626
28620
28624
28624
28624
28620
28631
28629
28626
28628
28623
28631
28624
28626
28630
28632
28636
28626
28629
28638
28639
28641
28644
28644
28648
28644
28653
28658
28646
28654
28660
28668
28665
28671
28676
28676
28676
28676
28682
28689
28684
28696
28700
28700
28708
28708
28712
28713
28713
28716
28724
28725
28730
28728
28733
28736
28740
28748
28754
28756
28750
28764
28760
28768
28770
28762
28768
28773
28774
28776
28780
28775
28783
28782
28784
28794
28780
28786
28790
28789
28796
28800
28807
28806
28809
28816
28812
28818
28817
28825
28831
28829
28832
28842
28840
28846
28844
28860
28858
28866
28866
28868
28874
28868
28872
28876
28878
28874
28880
28872
28880
28884
28880
28876
28874
28888
28892
28883
28885
28884
28880
28881
28880
28878
28878
28876
28880
28884
28882
28880
28874
28880
28870
28868
28868
28865
28861
28856
28860
28856
28864
28861
28852
28851
28850
28846
28852
28844
28844
28846
28844
28846
28842
28848
28838
28838
28836
28836
28836
28836
28836
28836
28836
28837
28836
28830
28831
28834
28830
28836
28831
28836
28830
28828
28836
28828
28832
28824
28828
28826
28828
28826
28824
28830
28826
28828
28830
28826
28820
28824
28830
28826
28824
28828
28825
28825
28824
28825
28823
28820
28828
28820
28818
28808
28813
28812
28812
28810
28812
28808
28812
28808
28800
28806
28804
28801
28801
28800
28800
28794
28796
28788
28805
28798
28793
28796
28793
28785
28783
28789
28785
28784
28784
28784
28772
28774
28778
28772
28784
28770
28777
28769
28772
28776
28767
28772
28772
28773
28772
28764
28762
28770
28774
28758
28771
28760
28758
28760
28759
28752
28758
28766
28760
28760
28760
28757
28761
28752
28752
28756
28752
28744
28744
28746
28740
28732
28734
28732
28737
28724
28721
28728
28717
28720
28708
28706
28714
28702
28700
28692
28684
28684
28682
28678
28676
28670
28668
28664
28655
28653
28645
28640
28630
28632
28624
28622
28616
28608
28612
28604
28601
28596
28592
28582
28574
28572
28573
28562
28553
28548
28545
28540
28526
28527
28524
28520
28502
28506
28496
28488
28492
28486
28476
28466
28464
28456
28454
28454
28438
28436
28430
28420
28420
28417
28404
28400
28389
28377
28376
28368
28365
28364
28350
28344
28330
28330
28324
28318
28309
28302
28290
28290
28285
28276
28268
28262
28260
28252
28246
28244
28229
28226
28220
28217
28212
28188
28196
28178
28176
28177
28172
28164
28154
28148
28146
28141
28134
28126
28121
28127
28116
28111
28118
28110
28096
28090
28092
28079
