RESPIRATION
23648
23668
23692
23716
23740
23758
23780
23793
23816
23824
23855
23869
23890
23913
23928
23943
23964
23976
23988
24012
24025
24042
24060
24073
24086
24105
24124
24132
24143
24161
24172
24188
24202
24214
24220
24236
24252
24263
24276
24284
24304
24305
24322
24334
24342
24356
24364
24376
24393
24404
24407
24422
24436
24446
24460
24476
24478
24496
24508
24520
24524
24542
24558
24568
24590
24612
24612
24625
24652
24661
24684
24692
24708
24728
24756
24764
24786
24810
24826
24837
24861
24881
24900
24920
24950
24966
24990
25006
25031
25051
25070
25096
25118
25150
25175
25192
25220
25244
25264
25292
25312
25340
25366
25390
25420
25441
25460
25485
25524
25538
25572
25590
25622
25640
25662
25686
25704
25736
25749
25781
25793
25824
25840
25866
25871
25906
25917
25940
25950
25972
25991
25999
26009
26037
26045
26054
26068
26084
26090
26102
26120
26120
26133
26144
26149
26154
26160
26161
26169
26172
26184
26188
26187
26196
26200
26198
26204
26209
26209
26212
26210
26208
26216
26213
26212
26212
26216
26216
26216
26210
26206
26205
26201
26206
26200
26204
26204
26193
26189
26188
26177
26177
26172
26160
26161
26144
26132
26136
26120
26112
26105
26104
26088
26080
26066
26049
26028
26028
26025
26000
25994
25990
25976
25968
25958
25956
25941
25935
25921
25916
25912
25900
25896
25893
25880
25874
25862
25856
25850
25845
25841
25835
25831
25826
25816
25820
25808
25812
25800
25802
25794
25782
25785
25780
25785
25776
25762
25758
25756
25756
25744
25742
25732
25730
25729
25720
25720
25713
25701
25700
25700
25688
25688
25681
25672
25668
25670
25664
25661
25654
25656
25652
25640
25640
25633
25624
25618
25624
25617
25604
25604
25598
25584
25583
25572
25564
25556
25554
25542
25532
25529
25524
25516
25506
25500
25493
25488
25473
25472
25460
25449
25450
25446
25430
25425
25436
25423
25418
25420
25412
25413
25412
25416
25408
25408
25404
25405
25408
25412
25412
25412
25412
25418
25413
25418
25416
25428
25430
25438
25434
25439
25446
25444
25453
25448
25460
25464
25464
25473
25480
25487
25486
25492
25498
25500
25512
25516
25512
25516
25537
25538
25536
25548
25556
25556
25564
25572
25574
25578
25586
25598
25596
25604
25606
25620
25620
25628
25628
25641
25645
25652
25657
25670
25680
25674
25690
25689
25700
25707
25716
25726
25734
25749
25748
25762
25764
25772
25783
25788
25802
25798
25812
25816
25828
25826
25840
25844
25846
25856
25854
25868
25868
25875
25871
25880
25872
25876
25883
25888
25876
25884
25882
25876
25872
25881
25878
25868
25874
25866
25855
25862
25852
25841
25844
25842
25836
25834
25834
25820
25824
25810
25812
25802
25804
25800
25794
25790
25785
25784
25784
25780
25772
25784
25774
25774
25764
25772
25769
25764
25768
25766
25765
25766
25764
25761
25762
25764
25756
25768
25758
25758
25760
25761
25761
25764
25752
25750
25748
25748
25748
25742
25736
25740
25743
25737
25724
25723
25726
25719
25712
25709
25713
25710
25702
25692
25692
25689
25676
25672
25672
25666
25664
25660
25666
25644
25648
25644
25634
25630
25622
25617
25616
25600
25600
25593
25580
25574
25566
25556
25545
25541
25540
25524
25525
25513
25506
25493
25494
25480
25476
25462
25453
25450
25444
25430
25420
25408
25408
25393
25381
25380
25364
25360
25358
25346
25334
25319
25318
25302
25300
25284
25284
25272
25254
25246
25248
25222
25220
25206
25189
25188
25173
25156
25142
25136
25126
25108
25094
25082
25084
25062
25040
25036
25022
25008
24994
24980
24965
24959
24938
24924
24906
24902
24878
24863
24860
24828
24830
24804
24796
24782
24772
24752
24741
24724
24720
24702
24700
24681
24670
24657
24644
24637
24633
24614
24612
24600
24596
24580
24566
24562
24549
24548
24540
24536
24522
24516
24510
24500
24496
24485
24484
24472
24468
24476
24461
24462
24460
24454
24452
24449
24457
24454
24449
24452
24444
24442
24448
24448
24448
24448
24452
24452
24452
24448
24443
24437
24441
24444
24440
24438
24438
24436
24434
24424
24426
24420
24415
24406
24410
24390
24388
24386
24372
24369
24352
24334
24330
24316
24310
24296
24276
24277
24250
24238
24222
24202
24188
24174
24156
24130
24116
24100
24070
24057
24025
24010
23993
23968
23937
23913
23893
23879
23852
23817
23796
23772
23735
23716
23687
23654
23626
23600
23575
23544
23516
23489
23460
23428
23394
23366
23342
23310
23280
23242
23206
23178
23148
23110
23072
23044
23009
22981
22946
22910
22878
22849
22812
22772
22737
22707
22672
22641
22601
22558
22524
22486
22446
22412
22376
22340
22310
22276
22230
22200
22172
22124
22089
22057
22020
21984
21948
21916
21878
21839
21804
21766
21730
21704
21666
21636
21601
21566
21529
21498
21471
21442
21404
21372
21340
21302
21284
21244
21220
21193
21158
21128
21100
21062
21040
21015
20980
20953
20924
20902
20866
20830
20810
20785
20750
20732
20698
20672
20652
20613
20588
20560
20529
20500
20480
20453
20427
20392
20361
20336
20318
20286
20258
20237
20200
20173
20153
20116
20102
20070
20045
20021
20001
19970
19936
19920
19886
19865
19840
19816
19799
19768
19749
19721
19698
19680
19657
19639
19624
19595
19573
19553
19529
19516
19490
19480
19458
19432
19419
19397
19378
19364
19342
19327
19305
19293
19272
19260
19236
19219
19201
19180
19168
19150
19129
19120
19100
19084
19068
19042
19030
19012
18993
18984
18960
18951
18928
18914
18910
18888
18872
18860
18844
18842
18820
18810
18799
18786
18776
18765
18754
18758
18748
18737
18728
18732
18718
18720
18716
18706
18701
18700
18692
18692
18685
18692
18686
18694
18692
18691
18693
18700
18702
18698
18714
18708
18718
18729
18735
18737
18750
18756
18772
18772
18782
18785
18796
18813
18814
18830
18838
18849
18860
18868
18884
18888
18904
18917
18924
18928
18943
18950
18961
18976
18984
18996
19006
19014
19025
19035
19044
19058
19063
19079
19085
19093
19106
19118
19124
19137
19148
19156
19164
19176
19198
19189
19206
19224
19233
19244
19248
19257
19270
19276
19290
19306
19307
19324
19332
19334
19347
19369
19372
19376
19390
19398
19412
19412
19428
19437
19438
19454
19452
19460
19475
19476
19479
19486
19488
19486
19497
19498
19501
19506
19506
19510
19520
19516
19511
19516
19508
19506
19509
19508
19501
19492
19492
19492
19481
19483
19476
19464
19452
19446
19434
19430
19412
19400
19386
19376
19366
19353
19333
19311
19307
19292
19272
19256
19236
19220
19204
19180
19161
19142
19121
19093
19084
19061
19034
19016
19004
18976
18950
18932
18906
18880
18860
18844
18817
18800
18772
18736
18720
18692
18666
18635
18607
18578
18552
18520
18492
18464
18436
18408
18369
18344
18318
18288
18258
18228
18202
18167
18140
18107
18080
18054
18018
17994
17965
17940
17911
17884
17856
17832
17806
17786
17753
17724
17697
17671
17645
17619
17604
17572
17544
17530
17501
17470
17457
17431
17407
17386
17358
17333
17308
17289
17276
17256
17230
17204
17192
17172
17156
17134
17124
17108
17094
17084
17070
17048
17046
17034
17020
17015
17003
17000
16990
16980
16974
16972
16962
16960
16956
16950
16953
16942
16949
16948
16948
16948
16952
16944
16937
16942
16948
16947
16940
16948
16954
16956
16958
16950
16964
16964
16960
16966
16964
16975
16972
16983
16981
16990
16989
16992
16996
17004
17005
17006
17018
17016
17028
17032
17040
17032
17044
17048
17055
17061
17064
17074
17078
17088
17088
17089
17096
17108
17104
17113
17125
17128
17137
17148
17150
17152
17164
17168
17168
17174
17188
17188
17193
17200
17200
17213
17208
17208
17218
17218
17229
17224
17228
17230
17232
17230
17232
17234
17229
17233
17238
17237
17242
17234
17234
17240
17238
17240
17240
17237
17233
17244
17238
17239
17232
17232
17239
17230
17245
17232
17244
17240
17236
17237
17236
17242
17250
17238
17242
17245
17238
17244
17244
17248
17241
17247
17245
17252
17249
17248
17249
17257
17246
17253
17252
17254
17253
17260
17253
17264
17248
17255
17257
17255
17262
17264
17265
17267
17264
17266
17265
17276
17269
17278
17276
17278
17276
17284
17286
17286
17284
17288
17292
17292
17292
17295
17305
17295
17295
17304
17304
17302
17304
17308
17304
17314
17316
17313
17311
17324
17313
17316
17320
17316
17326
17326
17328
17334
17332
17340
17344
17342
17344
17349
17353
17359
17360
17364
17369
17369
17380
17380
17388
17388
17404
17401
17412
17418
17422
17419
17436
17440
17452
17447
17464
17473
17470
17476
17496
17497
17502
17508
17519
17531
17532
17548
17554
17562
17573
17576
17584
17603
17602
17615
17620
17638
17642
17654
17661
17670
17675
17689
17696
17708
17714
17726
17734
17735
17744
17752
17764
17774
17773
17785
17794
17800
17804
17818
17824
17829
17837
17844
17852
17852
17866
17866
17877
17885
17894
17902
17906
17913
17920
17916
17936
17938
17945
17952
17957
17964
17968
17972
17974
17990
17990
17998
18002
18006
18018
18024
18028
18038
18044
18046
18052
18057
18066
18076
18084
18088
18097
18097
18110
18122
18135
18135
18140
18154
18160
18180
18178
18192
18208
18212
18222
18246
18256
18267
18276
18286
18296
18308
18317
18332
18356
18360
18373
18382
18394
18406
18416
18425
18450
18452
18466
18475
18490
18498
18518
18524
18537
18546
18560
18580
18580
18600
18608
18619
18628
18648
18660
18668
18682
18697
18705
18720
18728
18740
18756
18767
18780
18796
18807
18816
18836
18845
18856
18871
18883
18888
18911
18916
18934
18940
18957
18970
18972
18996
19002
19012
19022
19042
19049
19057
19068
19082
19087
19093
19113
19122
19128
19140
19150
19156
19168
19166
19180
19190
19200
19215
19220
19231
19239
19242
19252
19251
19263
19274
19272
19280
19280
19286
19288
19292
19308
19300
19301
19315
19304
19309
19308
19305
19302
19309
19300
19309
19302
19300
19300
19297
19298
19297
19280
19281
19276
19272
19266
19258
19256
19236
19231
19232
19218
19216
19199
19200
19184
19172
19157
19146
19136
19128
19106
19104
19090
19068
19052
19036
19016
19004
18989
18964
18946
18933
18906
18880
18864
18838
18820
18796
18768
18743
18719
18694
18662
18638
18614
18582
18556
18528
18492
18460
18427
18398
18362
18321
18285
18249
18215
18172
18133
18095
18056
18012
17975
17924
17890
17847
17803
17765
17720
17672
17630
17593
17540
17492
17445
17412
17358
17310
17264
17223
17168
17124
17076
17028
16984
16944
16897
16850
16804
16762
16720
16668
16626
16580
16536
16497
16450
16405
16365
16320
16284
16244
16206
16164
16120
16082
16036
15995
15960
15925
15880
15840
15806
15764
15728
15690
15655
15616
15573
15540
15498
15464
15422
15390
15348
15320
15278
15248
15214
15177
15144
15108
15088
15044
15012
14980
14939
14912
14878
14849
14812
14780
14745
14721
14686
14658
14631
14602
14564
14536
14509
14478
14448
14417
14394
14360
14338
14301
14272
14248
14217
14186
14162
14137
14103
14076
14049
14024
13991
13970
13940
13911
13892
13862
13839
13811
13778
13762
13732
13704
13684
13660
13636
13610
13576
13565
13536
13509
13486
13472
13452
13420
13406
13384
13356
13337
13316
13294
13276
13254
13236
13218
13202
13186
13172
13153
13132
13120
13102
13085
13070
13052
13036
13030
13016
13000
12992
12980
12964
12963
12945
12932
12922
12909
12900
12887
12884
12868
12855
12846
12839
12828
12821
12816
12806
12796
12784
12780
12769
12760
12746
12748
12736
12724
12724
12714
12709
12700
12684
12677
12676
12666
12658
12646
12637
12637
12624
12616
12616
12606
12604
12592
12580
12574
12570
12559
12560
12549
12542
12536
12536
12530
12521
12517
12516
12508
12505
12504
12486
12490
12484
12476
12481
12473
12464
12470
12461
12456
12468
12460
12452
12454
12450
12450
12450
12451
12448
12446
12450
12447
12453
12453
12450
12453
12459
12458
12462
12461
12468
12473
12478
12480
12484
12488
12496
12502
12504
12508
12520
12528
12523
12529
12542
12548
12551
12556
12562
12572
12572
12578
12588
12587
12605
12602
12612
12622
12624
12636
12646
12652
12656
12670
12677
12690
12700
12718
12725
12729
12742
12764
12776
12782
12797
12816
12821
12832
12860
12857
12874
12884
12897
12913
12914
12926
12939
12948
12954
12951
12972
12969
12972
12976
12976
12984
12990
12990
12995
12990
12990
12996
12989
12996
12994
12996
13000
13000
12997
12996
13000
12994
13004
12998
12996
13006
13004
13004
13004
13008
13008
13009
13020
13021
13014
13019
13016
13024
13029
13028
13027
13034
13040
13046
13048
13056
13057
13072
13074
13082
13092
13106
13109
13130
13139
13145
13161
13181
13189
13201
13225
13240
13254
13280
13302
13321
13344
13356
13380
13405
13428
13446
13470
13499
13518
13534
13558
13582
13608
13628
13648
13676
13697
13716
13737
13764
13795
13813
13830
13858
13867
13901
13916
13936
13959
13982
14002
14018
14039
14055
14073
14104
14115
14143
14149
14168
14180
14196
14213
14236
14250
14254
14268
14281
14300
14312
14323
14330
14346
14358
14366
14372
14390
14393
14395
14404
14414
14418
14423
14432
14434
14436
14444
14446
14447
14450
14456
14456
14449
14447
14456
14460
14454
14454
14464
14458
14454
14456
14452
14448
14456
14444
14449
14438
14442
14442
14444
14437
14435
14428
14428
14429
14431
14428
14423
14428
14420
14428
14426
14416
14422
14421
14410
14414
14419
14418
14418
14416
14416
14422
14420
14420
14419
14416
14414
14424
14421
14417
14426
14424
14420
14424
14426
14428
14432
14432
14424
14428
14428
14429
14434
14436
14430
14436
14434
14434
14436
14427
14432
14424
14436
14426
14422
14425
14428
14427
14427
14418
14418
14417
14422
14413
14414
14406
14405
14404
14404
14400
14400
14397
14394
14396
14394
14391
14386
14381
14380
14377
14370
14372
14372
14365
14372
14362
14365
14358
14360
14356
14350
14346
14353
14352
14346
14354
14346
14349
14350
14354
14346
14350
14351
14349
14356
14357
14360
14365
14368
14371
14369
14366
14373
14379
14384
14384
14384
14388
14397
14389
14410
14402
14413
14420
14418
14432
14436
14436
14438
14454
14447
14452
14466
14469
14464
14476
14480
14482
14487
14498
14504
14502
14506
14513
14516
14522
14526
14532
14541
14542
14548
14550
14554
14561
14564
14575
14575
14576
14586
14588
14597
14606
14604
14604
14617
14624
14628
14636
14634
14641
14649
14650
14659
14665
14668
14674
14676
14682
14688
14692
14692
14696
14701
14696
14702
14705
14706
14711
14714
14714
14720
14716
14720
14724
14725
14721
14725
14724
14721
14724
14730
14728
14730
14728
14726
14724
14731
14732
14728
14727
14740
14731
14736
14741
14733
14744
14744
14742
14749
14749
14754
14756
14759
14760
14764
14761
14774
14775
14768
14785
14776
14788
14784
14784
14796
14802
14805
14809
14814
14814
14819
14824
14824
14834
14837
14833
14848
14849
14852
14853
14854
14860
14869
14865
14880
14884
14884
14890
14903
14896
14902
14913
14913
14920
14917
14930
14936
14945
14941
14949
14956
14960
14964
14970
14984
14980
14993
14989
15005
15009
15009
15021
15025
15029
15036
15040
15052
15059
15066
15068
15081
15085
15090
15096
15106
15106
15123
15126
15137
15146
15146
15154
15164
15164
15178
15184
15194
15202
15206
15213
15218
15229
15236
15244
15247
15250
15268
15268
15273
15278
15284
15287
15297
15307
15304
15309
15312
15318
15325
15328
15328
15340
15343
15344
15348
15352
15349
15354
15353
15366
15364
15366
15370
15365
15370
15370
15376
15377
15380
15382
15382
15386
15386
15388
15384
15382
15394
15400
15394
15400
15394
15399
15398
15404
15404
15412
15405
15412
15413
15418
15420
15421
15419
15424
15421
15426
15429
15430
15430
15433
15430
15432
15436
15436
15436
15440
15434
15442
15440
15447
15444
15445
15441
15432
15447
15442
15446
15446
15445
15446
15448
15450
15454
15454
15445
15461
15452
15452
15453
15454
15452
15460
15458
15461
15458
15460
15460
15462
15471
15462
15469
15472
15469
15472
15476
15475
15478
15481
15478
15488
15482
15484
15489
15487
15490
15489
15501
15496
15502
15495
15501
15504
15510
15517
15511
15518
15523
15521
15529
15529
15535
15543
15544
15546
15543
15552
15558
15566
15569
15580
15580
15584
15592
15588
15600
15600
15617
15626
15631
15634
15638
15648
15660
15662
15663
15680
15684
15696
15701
15709
15724
15725
15738
15748
15745
15768
15769
15784
15793
15798
15813
15817
15833
15844
15846
15858
15872
15883
15894
15908
15917
15926
15940
15946
15957
15966
15972
15992
16000
16017
16020
16029
16036
16052
16055
16070
16078
16092
16100
16113
16121
16135
16140
16156
16172
16171
16188
16189
16206
16212
16221
16244
16241
16256
16266
16276
16286
16295
16302
16312
16325
16331
16337
16348
16356
16368
16376
16388
16391
16408
16415
16420
16426
16436
16450
16459
16460
16469
16480
16481
16498
16492
16507
16520
16524
16533
16537
16545
16542
16561
16556
16569
16573
16582
16581
16601
16598
16612
16606
16607
16618
16620
16622
16640
16634
16640
16652
16652
16655
16661
16670
16676
16680
16684
16684
16690
16702
16703
16710
16717
16720
16721
16729
16736
16745
16746
16756
16764
16772
16776
16788
16790
16801
16807
16815
16820
16826
16836
16846
16849
16860
16872
16879
16890
16900
16908
16923
16929
16940
16949
16962
16972
16983
16986
16996
17006
17022
17030
17043
17055
17066
17071
17086
17093
17105
17112
17133
17136
17140
17158
17166
17180
17185
17201
17208
17220
17236
17244
17255
17264
17281
17298
17292
17306
17316
17322
17337
17358
17360
17372
17385
17396
17400
17408
17425
17432
17436
17453
17454
17458
17480
17484
17498
17496
17516
17524
17528
17540
17545
17561
17569
17572
17582
17598
17600
17614
17617
17636
17644
17654
17662
17676
17679
17700
17705
17719
17731
17734
17753
17754
17770
17789
17791
17800
17810
17813
17829
17830
17833
17839
17851
17845
17856
17858
17863
17866
17869
17876
17874
17874
17881
17882
17883
17888
17885
17892
17894
17901
17902
17908
17912
17908
17914
17921
17923
17932
17938
17940
17954
17943
17956
17961
17968
17961
17977
17986
17990
17993
17998
18000
18005
18022
18029
18030
18045
18052
18054
18064
18070
18082
18104
18104
18125
18140
18144
18160
18172
18191
18208
18234
18241
18258
18281
18300
18314
18330
18356
18378
18388
18413
18434
18450
18464
18485
18512
18532
18556
18570
18586
18609
18625
18640
18664
18684
18701
18723
18733
18754
18768
18790
18804
18820
18839
18852
18877
18893
18903
18926
18938
18952
18972
18980
19008
19018
19038
19052
19064
19084
19092
19112
19122
19138
19152
19168
19184
19196
19208
19216
19232
19254
19254
19272
19290
19301
19308
19322
19331
19343
19356
19366
19375
19390
19393
19409
19412
19425
19428
19437
19454
19456
19465
19472
19480
19492
19492
19497
19508
19513
19513
19521
19528
19532
19548
19549
19554
19556
19558
19568
19578
19580
19586
19590
19590
19600
19606
19609
19613
19620
19623
19632
19641
19644
19644
19656
19668
19664
19676
19688
19688
19694
19709
19706
19724
19741
19740
19745
19761
19764
19772
19784
19804
19812
19812
19821
19840
19844
19860
19876
19882
19890
19904
19920
19924
19934
19950
19966
19975
19992
20004
20014
20018
20028
20052
20065
20068
20084
20109
20112
20130
20140
20150
20160
20180
20184
20196
20216
20227
20238
20252
20264
20277
20290
20312
20311
20334
20344
20362
20376
20389
20400
20412
20428
20448
20460
20470
20488
20496
20512
20532
20544
20556
20567
20581
20601
20612
20623
20648
20658
20673
20682
20696
20714
20737
20749
20760
20776
20784
20804
20820
20834
20848
20864
20874
20889
20898
20917
20930
20944
20956
20972
20994
21001
21024
21034
21041
21061
21073
21076
21095
21114
21124
21143
21149
21172
21186
21197
21214
21222
21244
21256
21265
21284
21292
21312
21328
21341
21357
21369
21383
21398
21416
21432
21448
21460
21476
21496
21504
21524
21536
21549
21572
21596
21601
21629
21636
21656
21670
21682
21712
21712
21733
21752
21769
21776
21796
21814
21836
21846
21858
21868
21888
21902
21916
21934
21937
21966
21970
21983
21998
22006
22018
22039
22052
22068
22078
22092
22108
22124
22133
22144
22160
22180
22191
22196
22216
22227
22240
22258
22268
22288
22300
22324
22328
22344
22364
22378
22400
22412
22433
22441
22462
22480
22500
22513
22540
22549
22560
22588
22601
22616
22636
22648
22668
22688
22712
22728
22746
22764
22780
22805
22820
22839
22860
22876
22894
22924
22936
22948
22974
22995
23008
23025
23047
23080
23085
23113
23126
23143
23168
23200
23203
23230
23253
23262
23289
23308
23324
23346
23372
23396
23412
23436
23450
23469
23499
23516
23534
23564
23574
23598
23621
23648
23670
23688
23712
23729
23756
23780
23802
23824
23841
23872
23892
23917
23938
23964
23988
24010
24024
24061
24082
24106
24132
24152
24180
24212
24229
24248
24276
24295
24324
24352
24369
24393
24424
24436
24476
24492
24517
24547
24561
24592
24610
24633
24653
24687
24704
24736
24756
24772
24798
24823
24841
24865
24894
24911
24932
24958
24977
25002
25025
25044
25064
25076
25116
25135
25147
25171
25194
25216
25237
25256
25282
25302
25316
25340
25364
25384
25406
25424
25440
25468
25488
25505
25534
25556
25572
25585
25623
25640
25660
25688
25698
25716
25732
25764
25784
25798
25826
25842
25869
25890
25906
25928
25950
25972
25989
26014
26031
26046
26068
26091
26112
26135
26146
26174
26184
26212
26228
26246
26270
26282
26304
26326
26344
26364
26380
26398
26420
26444
26460
26480
26486
26516
26528
26548
26570
26585
26605
26617
26638
26660
26672
26692
26717
26726
26748
26757
26788
26799
26821
26836
26852
26870
26881
26901
26922
26936
26950
26965
26984
27005
27020
27040
27052
27068
27088
27106
27120
27141
27148
27164
27185
27192
27208
27230
27242
27263
27268
27288
27301
27312
27324
27346
27360
27370
27380
27398
27418
27428
27440
27454
27469
27484
27493
27504
27520
27532
27548
27552
27566
27586
27598
27604
27620
27623
27648
27656
27668
27673
27693
27692
27709
27722
27736
27742
27750
27764
27772
27776
27792
27804
27809
27828
27828
27841
27856
27864
27876
27882
27893
27900
27916
27916
27926
27936
27948
27954
27964
27984
27984
27988
28002
28012
28012
28028
28028
28036
28042
28049
28060
28073
28072
28080
28091
28096
28098
28105
28114
28116
28136
28128
28132
28144
28154
28156
28164
28160
28156
28176
28171
28176
28176
28189
28184
28196
28196
28200
28206
28208
28200
28204
28216
28209
28216
28221
28216
28224
28225
28224
28217
28226
28220
28221
28228
28224
28226
28220
28225
28221
28220
28221
28212
28212
28221
28222
28209
28208
28208
28204
28204
28204
28206
28202
28200
28196
28202
28200
28200
28196
28188
28196
28198
28186
28187
28188
28181
28188
28188
28181
28186
28197
28184
28184
28189
28184
28174
28186
28186
28172
28184
28188
28189
28184
28176
28176
28184
28181
28188
28187
28188
28190
28185
28192
28190
28190
28196
28200
28200
28202
28203
28205
28214
28204
28201
28199
28207
28212
28208
28206
28212
28208
28212
28220
28215
28214
28212
28212
28216
28216
28212
28210
28216
28215
28210
28207
28212
28214
28212
28207
28208
28204
28208
28198
28204
28208
28201
28192
28196
28192
28188
28183
28180
28174
28174
28176
28166
28160
28167
28152
28145
28146
28142
28133
28127
28118
28114
28108
28108
28092
28096
28086
28080
28076
28060
28064
28053
28046
28036
28036
28033
28016
28008
28000
28000
27982
27976
27972
27972
27950
27946
27944
27936
27936
27921
27912
27904
27896
27890
27887
27876
27876
27872
27864
27862
27848
27850
27843
27831
27836
27822
27817
27806
27800
27805
27783
27780
27764
27764
27748
27736
27732
27720
27703
27700
27690
27686
27657
27648
27637
27630
27616
27605
27601
27588
27578
27568
27562
27552
27536
27525
27516
27509
27497
27497
27488
27481
27468
27464
27452
27452
27446
27440
27428
27422
27417
27406
27396
27396
27390
27376
27372
27362
27360
27346
27342
27344
27329
27332
27322
27310
27312
27302
27304
27298
27296
27298
27300
27300
27296
27302
27287
27297
27296
27296
27296
27293
27300
27301
27295
27294
27297
27299
27297
27292
27294
27297
27289
27284
27296
27286
27280
27284
27276
27270
27268
27269
27272
27261
27252
27246
27248
27239
27232
27236
27222
27224
27214
27204
27190
27196
27190
27184
27172
27169
27160
27160
27148
27140
27132
27124
27116
27111
27100
27088
27078
27064
27060
27054
27044
27036
27028
27012
26996
26988
26976
26964
26954
26938
26924
26905
26892
26880
26864
26846
26836
26824
26800
26788
26780
26754
26740
26728
26703
26687
26671
26660
26632
26617
26600
26584
26564
26550
26532
26508
26497
26476
26456
26446
26422
26404
26382
26364
26346
26328
26316
26300
26273
26266
26238
26221
26207
26194
26172
26152
26144
26124
26105
26102
26072
26062
26049
26028
26021
26004
25984
25983
25967
25948
25936
25922
25912
25896
25884
25872
25865
25852
25840
25826
25810
25800
25784
25783
25768
25764
25741
25743
25726
25720
25708
25705
25686
25684
25678
25668
25658
25652
25645
25628
25620
25614
25604
25593
25590
25585
25570
25564
25560
25556
25541
25542
25530
25522
25514
25510
25508
25490
25486
25476
25476
25464
25456
25450
25445
25446
25433
25428
25416
25420
25414
25402
25399
25390
25380
25374
25372
25352
25356
25360
25344
25339
25335
25330
25320
25320
25312
25311
25300
25304
25296
25282
25280
25286
25276
25273
25271
25269
25260
25248
25248
25251
25240
25246
25240
25236
25228
25230
25222
25212
25220
25213
25214
25212
25205
25204
25198
25205
25196
25188
25188
25184
25186
25182
25180
25182
25175
25176
25166
25160
25166
25168
25156
25162
25166
25160
25156
25155
25157
25164
25164
25170
25160
25162
25166
25163
25173
25160
25165
25172
25169
25161
25173
25172
25172
25160
25170
25169
25172
25154
25165
25161
25154
25164
25154
25150
25147
25144
25152
25140
25136
25141
25129
25136
25126
25124
25124
25121
25117
25110
25114
25108
25103
25104
25101
25097
25092
25092
25084
25080
25076
25071
25072
25070
25076
25074
25058
25057
25060
25052
25056
25042
25040
25040
25042
25042
25033
25041
25042
25036
25033
25038
25025
25033
25031
25032
25028
25028
25026
25036
25028
25027
25030
25020
25029
25030
25034
25024
25026
25024
25024
25030
25028
25021
25029
25028
25024
25028
25026
25036
25024
25018
25030
25028
25029
25036
25028
25032
25029
25031
25032
25025
25032
25036
25026
25033
25033
25028
25036
25032
25028
25038
25038
25039
25028
25036
25034
25037
25033
25044
25036
25038
25045
25036
25032
25036
25046
25032
25040
25040
25032
25041
25044
25038
25041
25038
25032
25034
25040
25038
25034
25036
25030
25036
25029
25033
25028
25028
25022
25024
25017
25014
25025
25014
25018
25012
25000
25007
25001
24992
25002
24990
24986
24984
24974
24968
24970
24964
24948
24948
24950
24940
24932
24934
24926
24919
24922
24914
24898
24900
24893
24888
24884
24873
24870
24868
24862
24854
24844
24844
24840
24837
24825
24826
24815
24814
24812
24804
24804
24804
24796
24786
24784
24782
24784
24773
24766
24769
24764
24766
24766
24758
24753
24756
24746
24748
24748
24740
24740
24742
24732
24737
24732
24727
24723
24728
24732
24724
24713
24726
24717
24713
24710
24720
24709
24714
24709
24708
24698
24704
24701
24703
24695
24700
24692
24697
24694
24692
24696
24696
24688
24688
24695
24684
24687
24679
24686
24676
24679
24680
24676
24679
24680
24672
24672
24678
24676
24676
24676
24669
24672
24671
24672
24665
24674
24666
24664
24666
24660
24665
24664
24656
24657
24657
24655
24655
24652
24652
24650
24647
24644
24636
24641
24650
24643
24640
24644
24644
24634
24644
24634
24636
24637
24631
24631
24632
24628
24632
24628
24626
24620
24623
24614
24608
24612
24613
24613
24612
24612
24610
24606
24604
24608
24608
24596
24600
24606
24610
24605
24603
24600
24606
24598
24600
24600
24592
24600
24593
24604
24604
24602
24604
24606
24604
24598
24604
24600
24606
24610
24609
24612
24606
24612
24615
24612
24611
24614
24620
24612
24623
24617
24621
24618
24628
24622
24624
24632
24628
24632
24632
24623
24625
24637
24632
24636
24631
24632
24630
24640
24638
24641
24641
24638
24636
24644
24636
24634
24642
24644
24640
24644
24639
24642
24633
24637
24636
24636
24632
24635
24626
24632
24632
24632
24634
24628
24625
24623
24625
24616
24626
24616
24620
24623
24609
24614
24610
24612
24609
24608
24605
24604
24606
24596
24596
24596
24585
24588
24588
24580
24578
24582
24572
24570
24574
24578
24562
24565
24568
24564
24556
24560
24556
24548
24553
24557
24544
24540
24537
24544
24532
24536
24534
24527
24526
24526
24518
24525
24519
24520
24519
24522
24512
24512
24517
24520
24511
24513
24506
24504
24506
24508
24504
24500
24508
24500
24504
24512
24496
24501
24500
24502
24497
24511
24504
24504
24513
24504
24514
24508
24504
24511
24516
24516
24513
24516
24516
24514
24522
24518
24520
24520
24520
24525
24518
24529
24532
24530
24528
24536
24532
24532
24534
24536
24536
24542
24538
24538
24542
24541
24538
24543
24548
24541
24550
24546
24552
24546
24551
24548
24549
24550
24548
24552
24546
24543
24551
24555
24557
24549
24552
24561
24560
24561
24556
24556
24559
24557
24556
24556
24553
24550
24552
24548
24548
24558
24556
24551
24556
24548
24550
24556
24548
24548
24550
24544
24541
24544
24544
24542
24545
24549
24549
24544
24546
24548
24544
24540
24552
24541
24543
24546
24552
24544
24545
24554
24553
24550
24557
24562
24561
24568
24576
24582
24580
24588
24596
24599
24608
24612
24614
24618
24628
24636
24640
24637
24648
24645
24650
24652
24652
24660
24658
24662
24656
24663
24664
24661
24664
24662
24668
24666
24666
24669
24664
24664
24673
24672
24676
24684
24670
24682
24692
24680
24690
24692
24692
24701
24701
24695
24705
24705
24706
24709
24712
24703
24717
24708
24708
24713
24720
24716
24724
24712
24719
24717
24720
24719
24733
24724
24724
24734
24734
24744
24746
24742
24746
24754
24761
24764
24772
24773
24776
24784
24790
24796
24802
24809
24812
24825
24828
24842
24836
24849
24848
24861
24868
24870
24878
24881
24886
24896
24900
24906
24911
24914
24924
24929
24935
24935
24945
24960
24954
24968
24962
24960
24981
24980
24980
24990
24994
25000
25012
25015
25015
25022
25028
25030
25037
25042
25042
25038
25054
25061
25062
25070
25072
25086
25080
25080
25092
25096
25093
25100
25105
25102
25109
25113
25116
25120
25120
25124
25124
25124
25130
25126
25124
25137
25132
25126
25130
25124
25128
25128
25132
25124
25124
25118
25124
25124
25122
25112
25114
25115
25112
25114
25109
25102
25100
25105
25102
25096
25089
25095
25092
25084
25082
25088
25085
25078
25076
25080
25076
25072
25068
25066
25062
25069
25056
25058
25068
25064
25052
25060
25052
25056
25060
25052
25058
25053
25054
25052
25057
25052
25060
25049
25056
25058
25057
25060
25064
25061
25070
25072
25066
25073
25084
25072
25081
25082
25088
25101
25097
25102
25112
25116
25116
25116
25124
25129
25136
25140
25148
25153
25156
25156
25172
25172
25182
25190
25185
25192
25207
25218
25228
25220
25236
25240
25247
25256
25268
25256
25274
25288
25292
25292
25308
25308
25316
25320
25334
25337
25344
25348
25367
25360
25368
25380
25381
25391
25398
25409
25412
25416
25424
25430
25444
25441
25453
25462
25464
25476
25481
25492
25493
25500
25501
25520
25528
25538
25540
25544
25556
25554
25566
25574
25581
25594
25596
25600
25606
25608
25621
25628
25636
25642
25640
25648
25656
25660
25668
25676
25680
25683
25688
25692
25694
25702
25709
25712
25722
25729
25726
25728
25737
25745
25752
25748
25758
25778
25769
25776
25790
25796
25796
25800
25808
25820
25818
25826
25828
25838
25848
25844
25850
25860
25864
25861
25868
25865
25870
25878
25876
25885
25890
25882
25892
25892
25895
25892
25902
25900
25908
25904
25908
25902
25917
25912
25920
25917
25922
25922
25928
25936
25923
25941
25932
25932
25940
25952
25948
25956
25952
25957
25960
25970
25973
25972
25984
25990
25997
26002
26006
26005
26016
26018
26032
26040
26044
26055
26056
26068
26080
26092
26094
26100
26108
26120
26126
26136
26148
26158
26157
26180
26190
26195
26208
26216
26228
26244
26253
26257
26274
26288
26294
26312
26320
26329
26350
26356
26371
26380
26398
26404
26415
26424
26440
26461
26468
26476
26496
26501
26512
26535
26544
26556
26568
26586
26588
26608
26616
26637
26646
26661
26668
26680
26696
26700
26714
26729
26748
26760
26764
26788
26793
26809
26830
26840
26839
26870
26872
26894
26904
26920
26928
26949
26956
26988
26982
27004
27017
27029
27044
27060
27073
27085
27096
27116
27128
27137
27156
27176
27181
27199
27206
27224
27234
27238
27260
27278
27288
27297
27310
27324
27334
27352
27365
27375
27380
27400
27404
27420
27426
27436
27444
27461
27472
27482
27492
27500
27510
27521
27532
27537
27544
27562
27564
27584
27588
27598
27604
27616
27621
27630
27642
27651
27660
27658
27676
27680
27696
27700
27700
27712
27732
27733
27736
27748
27752
27768
27767
27776
27792
27784
27806
27810
27812
27820
27830
27840
27860
27853
27864
27872
27878
27892
27900
27910
27916
27926
27925
27940
27940
27948
27964
27972
27977
27985
27990
28004
28008
28014
28032
28045
28044
28052
28074
28076
28092
28104
28108
28128
28132
28146
28152
28161
28178
28196
28202
28216
28225
28244
28252
28268
28280
28292
28306
28324
28330
28352
28366
28372
28394
28400
28428
28436
28450
28462
28476
28484
28510
28524
28541
28557
28568
28582
28600
28612
28631
28644
28670
28676
28695
28710
28732
28740
28756
28769
28788
28808
28820
28833
28848
28860
28876
28890
28912
28926
28942
28956
28956
28976
28996
29008
29024
29032
29052
29060
29072
29089
29105
29105
29122
29137
29148
29160
29170
29190
29198
29208
29216
29232
29241
29253
29264
29276
29284
29300
29301
29316
29332
29336
29340
29349
29365
29370
29386
29398
29404
29413
29416
29424
29432
29450
29469
29465
29477
29494
29496
29512
29517
29517
29532
29550
29552
29557
29572
29582
29592
29601
29604
29620
29626
29652
29656
29652
29669
29684
29688
29708
29708
29726
29733
29748
29762
29766
29788
29790
29796
29810
29825
29834
29854
29868
29872
29884
29896
29911
29924
29933
29948
29961
29982
29990
30001
30012
30022
30038
30048
30058
30080
30085
30100
30112
30126
30132
30152
30153
30170
30184
30185
30210
30224
30230
30245
30250
30272
30276
30290
30308
30320
30328
30337
30350
30364
30372
30382
30400
30400
30416
30432
30440
30447
30466
30472
30484
30492
30500
30502
30518
30530
30540
30554
30556
30569
30578
30592
30596
30608
30616
30628
30638
30646
30654
30659
30664
30687
30684
30698
30708
30711
30729
30735
30745
30754
30766
30788
30796
30792
30801
30818
30825
30840
30848
30860
30872
30872
30890
30900
30916
30928
30932
30946
30953
30969
30988
30992
31012
31021
31025
31040
31060
31056
31076
31084
31092
31108
31119
31120
31140
31149
31153
31170
31172
31180
31200
31202
31224
31229
31228
31248
31256
31268
31278
31288
31290
31304
31312
31322
31332
31344
31357
31364
31368
31384
31388
31392
31398
31412
31420
31437
31440
31448
31460
31468
31472
31472
31496
31506
31508
31520
31525
31534
31548
31551
31564
31572
31588
31588
31599
31604
31624
31624
31628
31652
31654
31661
31676
31682
31689
31704
31707
31717
31728
31734
31746
31756
31767
31769
31772
31784
31806
31801
31810
31824
31826
31838
31852
31861
31874
31868
31884
31897
31894
31916
31918
31936
31940
31948
31967
31978
31968
31973
31996
31988
32004
32008
32004
32014
32018
32020
32022
32014
32032
32024
32039
32036
32032
32036
32040
32041
32052
32046
32040
32044
32048
32053
32050
32061
32062
32061
32068
32076
32072
32076
32084
32088
32102
32094
32105
32108
32108
32114
32126
32124
32132
32134
32142
32148
32151
32152
32152
32164
32162
32177
32173
32180
32190
32192
32208
32216
32222
32224
32240
32240
32260
32271
32268
32288
32296
32304
32316
32332
32354
32355
32377
32382
32400
32412
32428
32436
32455
32466
32478
32493
32514
32522
32526
32533
32556
32562
32580
32590
32597
32606
32612
32628
32636
32652
32660
32668
32684
32677
32691
32704
32705
32712
32724
32716
32738
32740
32750
32751
32757
32777
32770
32780
32792
32788
32796
32793
32812
32814
32816
32815
32821
32829
32828
32825
32836
32846
32836
32844
32840
32832
32842
32849
32836
32842
32844
32842
32848
32852
32848
32850
32848
32850
32846
32848
32844
32840
32845
32834
32837
32838
32837
32846
32839
32832
32836
32836
32836
32832
32836
32829
32824
32826
32833
32825
32830
32834
32833
32828
32838
32820
32828
32830
32826
32820
32828
32824
32832
32826
32833
32828
32822
32825
32833
32826
32830
32836
32840
32840
32844
32846
32849
32846
32848
32849
32864
32860
32856
32862
32862
32868
32866
32878
32882
32879
32884
32895
32894
32900
32896
32902
32908
32905
32920
32920
32918
32919
32932
32932
32934
32936
32944
32952
32961
32964
32972
32965
32972
32980
32988
32988
32992
32996
32996
33006
33008
33009
33024
33032
33030
33036
33052
33052
33064
33064
33074
33076
33080
33091
33097
33102
33104
33118
33122
33124
33136
33154
33145
33149
33175
33172
33178
33188
33196
33201
33212
33218
33224
33237
33240
33249
33260
33268
33270
33279
33290
33300
33303
33316
33320
33326
33340
33341
33344
33364
33365
33360
33376
33380
33391
33392
33404
33402
33412
33412
33424
33424
33431
33439
33442
33445
33448
33448
33452
33464
33460
33465
33464
33474
33476
33489
33486
33484
33492
33500
33500
33508
33508
33504
33519
33516
33515
33533
33532
33541
33542
33548
33554
33562
33560
33569
33572
33586
33588
33588
33596
33602
33602
33605
33609
33616
33613
33626
33622
33632
33644
33642
33636
33636
33657
33652
33654
33664
33656
33668
33676
33680
33670
33680
33692
33688
33693
33692
33693
33696
33701
33702
33714
33705
33712
33710
33728
33724
33725
33732
33727
33732
33738
33736
33741
33748
33745
33752
33756
33757
33774
33764
33765
33776
33790
33786
33788
33792
33800
33800
33805
33812
33815
33827
33824
33828
33832
33830
33850
33852
33847
33848
33860
33856
33860
33884
33876
33882
33892
33892
33893
33897
33906
33902
33909
33922
33916
33913
33921
33920
33937
33940
33936
33936
33946
33958
33956
33958
33970
33972
33973
33977
33984
33992
34000
33996
34004
34014
34012
34028
34028
34028
34030
34046
34048
34048
34062
34062
34064
34074
34076
34076
34072
34094
34095
34096
34102
34100
34108
34116
34108
34124
34120
34116
34120
34132
34133
34134
34140
34150
34148
34146
34156
34161
34161
34160
34168
34174
34160
34160
34165
34169
34164
34172
34176
34172
34176
34180
34182
34176
34175
34176
34193
34192
34184
34200
34193
34193
34196
34204
34204
34207
34204
34208
34216
34212
34208
34224
34216
34228
34225
34224
34225
34220
34232
34224
34225
34228
34225
34232
34232
34233
34229
34226
34228
34224
34230
34220
34223
34230
34222
34224
34220
34214
34213
34220
34213
34206
34196
34198
34188
34188
34181
34168
34164
34157
34144
34138
34132
34132
34126
34116
34113
34104
34092
34093
34085
34082
34080
34068
34072
34068
34072
34062
34068
34060
34060
34068
34062
34068
34056
34074
34068
34066
34068
34078
34064
34072
34078
34080
34079
34070
34078
34076
34080
34076
34084
34076
34072
34083
34084
34077
34070
34089
34068
34084
34079
34081
34076
34084
34078
34076
34079
34076
34082
34076
34068
34072
34069
34064
34066
34066
34076
34073
34068
34064
34059
34056
34052
34050
34056
34054
34040
34041
34040
34037
34030
34028
34026
34017
34025
34016
34016
34004
34008
33998
33996
33990
33984
33980
33972
33965
33960
33962
33960
33948
33932
33948
33936
33921
33923
33916
33920
33900
33894
33893
33892
33885
33868
33864
33860
33852
33842
33838
33837
33816
33808
33806
33805
33784
33774
33774
33772
33749
33742
33741
33732
33720
33708
33704
33689
33674
33668
33664
33658
33640
33632
33632
33612
33604
33595
33580
33576
33566
33556
33544
33528
33518
33512
33496
33487
33473
33465
33452
33435
33424
33409
33390
33388
33372
33356
33345
33338
33325
33296
33293
33280
33261
33241
33228
33218
33208
33176
33161
33150
33138
33108
33104
33082
33069
33048
33036
33014
33000
32984
32966
32948
32926
32912
32894
32884
32853
32840
32826
32801
32780
32770
32748
32740
32712
32697
32676
32654
32644
32621
32612
32584
32566
32548
32534
32516
32498
32477
32456
32441
32430
32406
32388
32376
32350
32336
32304
32288
32268
32250
32228
32217
32196
32173
32157
32144
32119
32100
32094
32076
32052
32034
32012
31994
31980
31968
31948
31929
31908
31892
31876
31852
31841
31828
31804
31781
31768
31752
31726
31713
31698
31686
31668
31648
31631
31624
31606
31580
31568
31549
31540
31521
31496
31484
31484
31463
31450
31424
31421
31404
31396
31376
31360
31349
31324
31324
31302
31290
31278
31253
31245
31233
31220
31204
31189
31177
31156
31150
31138
31129
31102
31096
31078
31063
31052
31044
31024
31006
30996
30992
30977
30954
30956
30928
30916
30916
30892
30879
30872
30849
30841
30820
30810
30804
30790
30776
30753
30743
30724
30712
30703
30698
30676
30656
30642
30622
30605
30595
30573
30558
30540
30530
30520
30500
30484
30456
30444
30433
30414
30398
30382
30358
30346
30332
30312
30293
30284
30256
30248
30224
30214
30189
30174
30149
30144
30121
30097
30082
30058
30060
30034
30007
29989
29976
29956
29944
29924
29905
29890
29876
29852
29839
29818
29796
29788
29760
29752
29736
29716
29704
29676
29662
29652
29632
29614
29601
29581
29569
29544
29533
29521
29492
29492
29464
29456
29440
29412
29399
29384
29372
29361
29348
29320
29308
29301
29280
29268
29252
29236
29221
29210
29200
29176
29175
29154
29138
29132
29116
29108
29089
29084
29072
29065
29054
29048
29020
29024
29012
28997
28993
28982
28965
28956
28950
28940
28936
28921
28914
28908
28896
28884
28880
28872
28856
28848
28844
28832
28832
28822
28806
28810
28792
28783
28773
28766
28760
28761
28749
28740
28737
28725
28722
28710
28698
28688
28678
28676
28661
28647
28644
28636
28621
28619
28612
28605
28594
28580
28564
28554
28548
28536
28525
28519
28490
28492
28480
28462
28452
28438
28422
28420
28404
28394
28380
28369
28346
28338
28324
28316
28305
28288
28272
28266
28239
28234
28226
28204
28192
28188
28164
28154
28140
28124
28120
28104
28090
28071
28065
28049
28038
28020
28016
28002
27985
27973
27965
27957
27940
27926
27916
27896
27886
27876
27868
27840
27847
27824
27808
27808
27785
27776
27757
27749
27736
27729
27716
27705
27692
27680
27668
27668
27650
27637
27621
27618
27606
27596
27580
27573
27552
27544
27547
27530
27508
27506
27492
27486
27474
27460
27464
27444
27432
27422
27412
27404
27392
27388
27382
27363
27352
27352
27337
27326
27326
27312
27297
27292
27284
27270
27257
27258
27253
27248
27232
27228
27216
27197
27192
27185
27180
27170
27156
27154
27144
27138
27118
27122
27116
27096
27086
27088
27076
27064
27060
27049
27044
27044
27020
27018
27008
26992
26989
26982
26974
26964
26961
26950
26940
26940
26922
26917
26916
26904
26908
26896
26888
26880
26876
26860
26857
26858
26856
26852
26840
26836
26836
26826
26825
26822
26817
26816
26808
26809
26801
26804
26804
26797
26796
26794
26793
26784
26791
26778
26780
26780
26776
26778
26773
26776
26772
26768
26776
26771
26764
26765
26770
26774
26762
26768
26767
26760
26762
26757
26761
26760
26756
26757
26757
26758
26761
26756
26757
26748
26756
26745
26746
26748
26741
26742
26744
26746
26737
26737
26732
26730
26734
26728
26728
26720
26724
26722
26709
26713
26708
26708
26702
26701
26692
26694
26688
26680
26685
26676
26666
26674
26670
26674
26657
26656
26660
26653
26656
26640
26638
26633
26637
26632
26620
26634
26620
26614
26610
26608
26604
26598
26598
26590
26588
26585
26577
26581
26573
26578
26570
26564
26570
26561
26556
26551
26549
26545
26540
26551
26540
26540
26537
26533
26532
26538
26532
26527
26526
26526
26524
26524
26519
26520
26529
26512
26512
26516
26508
26517
26510
26509
26516
26500
26504
26502
26502
26508
26500
26508
26513
26504
26505
26505
26496
26504
26500
26500
26496
26504
26500
26500
26506
26498
26497
26498
26493
26496
26500
26488
26488
26482
26492
26490
26493
26492
26485
26480
26480
26472
26472
26474
26468
26472
26473
26465
26460
26464
26462
26460
26456
26448
26456
26453
26444
26438
26446
26441
26432
26432
26429
26424
26416
26424
26416
26412
26414
26416
26404
26404
26402
26404
26392
26389
26397
26388
26385
26388
26384
26384
26382
26374
26372
26380
26380
26373
26370
26380
26374
26368
26372
26374
26372
26380
26376
26384
26382
26388
26380
26388
26392
26388
26390
26392
26400
26389
26404
26404
26404
26409
26410
26410
26420
26420
26426
26428
26434
26433
26440
26430
26446
26449
26452
26452
26454
26466
26466
26474
26471
26472
26478
26482
26482
26488
26494
26500
26500
26496
26505
26516
26504
26518
26517
26518
26525
26524
26528
26530
26530
26541
26546
26537
26541
26548
26540
26544
26552
26544
26552
26556
26562
26552
26561
26558
26561
26559
26557
26572
26560
26564
26568
26556
26565
26564
26572
26560
26564
26564
26568
26570
26570
26568
26572
26574
26566
26572
26572
26564
26564
26566
26572
26572
26568
26566
26580
26568
26572
26570
26572
26572
26568
26574
26572
26577
26576
26576
26576
26580
26582
26580
26583
26580
26576
26584
26582
26574
26580
26580
26582
26584
26589
26584
26592
26590
26584
26582
26584
26584
26586
26580
26584
26580
26576
26577
26576
26594
26584
26580
26580
26580
26580
26581
26580
26576
26577
26572
26570
26572
26576
26576
26572
26572
26557
26562
26566
26562
26560
26564
26548
26554
26552
26557
26542
26545
26540
26540
26534
26536
26526
26524
26530
26512
26517
26504
26509
26504
26500
26500
26490
26489
26481
26468
26468
26466
26453
26444
26452
26436
26434
26429
26420
26416
26409
26400
26398
26380
26382
26374
26360
26352
26352
26346
26340
26336
26330
26322
26316
26301
26302
26301
26288
26292
26280
26276
26276
26271
26262
26260
26248
26244
26246
26242
26233
26232
26228
26228
26216
26222
26212
26212
26212
26206
26202
26202
26192
26192
26200
26198
26185
26186
26189
26194
26190
26180
26192
26188
26176
26180
26184
26185
26180
26182
26181
26176
26178
26176
26181
26177
26168
26196
26176
26180
26180
26178
26180
26180
26174
26176
26185
26172
26182
26181
26184
26174
26170
26176
26176
26173
26184
26181
26176
26182
26181
26180
26187
26188
26184
26191
26200
26200
26200
26206
26211
26220
26226
26218
26228
26236
26228
26232
26237
26241
26240
26248
26242
26244
26244
26240
26244
26236
26236
26230
26236
26224
26226
26226
26216
26217
26212
26212
26209
26204
26202
26196
26200
26188
26192
26182
26193
26184
26188
26184
26185
26180
26183
26174
26184
26184
26182
26188
26190
26187
26188
26188
26184
26196
26200
26183
26194
26196
26202
26193
26196
26199
26204
26194
26198
26204
26202
26201
26192
26208
26200
26198
26202
26206
26214
26210
26214
26218
26222
26222
26223
26238
26236
26249
26242
26248
26255
26266
26264
26272
26274
26280
26284
26300
26296
26308
26302
26316
26330
26332
26340
26359
26358
26360
26380
26372
26384
26408
26404
26408
26418
26424
26432
26444
26453
26456
26472
26473
26480
26492
26494
26497
26508
26512
26526
26520
26527
26528
26536
26543
26549
26548
26560
26558
26564
26568
26576
26572
26572
26572
26580
26586
26582
26580
26587
26578
26588
26584
26582
26583
26584
26580
26580
26576
26576
26576
26580
26568
26572
26568
26580
26568
26568
26574
26572
26572
26566
26568
26564
26560
26565
26564
26565
26562
26564
26560
26560
26561
26558
26565
26562
26564
26572
26568
26566
26570
26568
26562
26574
26572
26576
26576
26574
26582
26586
26584
26592
26599
26596
26607
26604
26612
26614
26616
26628
26628
26632
26637
26636
26644
26652
26662
26663
26672
26677
26690
26700
26704
26704
26718
26720
26729
26748
26748
26753
26756
26768
26788
26793
26797
26808
26812
26828
26833
26844
26848
26854
26868
26876
26894
26904
26912
26922
26924
26948
26961
26960
26965
26984
26996
27007
27022
27032
27034
27047
27065
27073
27092
27094
27104
27124
27129
27138
27147
27164
27184
27188
27206
27206
27225
27232
27236
27253
27268
27272
27288
27302
27306
27316
27328
27330
27354
27360
27362
27381
27388
27388
27412
27418
27426
27428
27436
27452
27457
27464
27468
27474
27488
27492
27497
27508
27519
27517
27528
27532
27541
27558
27553
27566
27572
27576
27580
27597
27596
27606
27608
27621
27636
27630
27646
27642
27652
27662
27668
27668
27682
27676
27684
27686
27684
27700
27701
27704
27708
27712
27712
27716
27722
27720
27729
27733
27732
27728
27732
27740
27748
27736
27748
27756
27749
27742
27748
27752
27745
27748
27762
27760
27761
27760
27759
27768
27765
27760
27774
27780
27774
27768
27774
27781
27791
27790
27784
27797
27800
27796
27793
27798
27804
27804
27812
27812
27807
27828
27825
27826
27837
27836
27828
27844
27840
27848
27854
27854
27856
27866
27872
27873
27880
27884
27898
27891
27898
27904
27905
27914
27916
27916
27932
27933
27932
27945
27948
27944
27960
27960
27964
27966
27986
27988
27984
27988
27988
27997
28008
28010
28013
28015
28016
28021
28039
28034
28036
28048
28047
28052
28062
28068
28068
28068
28084
28080
28088
28092
28092
28108
28108
28114
28116
28124
28132
28132
28135
28141
28156
28164
28166
28181
28181
28177
28188
28196
28193
28196
28208
28217
28208
28220
28224
28229
28230
28248
28240
28248
28250
28260
28256
28260
28256
28272
28272
28276
28280
28285
28292
28288
28294
28292
28304
28310
28308
28309
28316
28318
28326
28321
28330
28332
28342
28333
28340
28340
28352
28358
28361
28356
28369
28372
28368
28388
28388
28397
28390
28399
28408
28405
28424
28418
28424
28424
28434
28436
28437
28441
28444
28441
28447
28449
28445
28454
28452
28448
28450
28444
28452
28454
28448
28448
28447
28444
28444
28436
28446
28439
28428
28432
28434
28420
28413
28406
28404
28406
28388
28378
28373
28369
28368
28356
28344
28344
28326
28318
28297
28285
28288
28276
28260
28252
28236
28233
28232
28216
28222
28200
28196
28193
28188
28194
28178
28172
28175
28174
28159
28160
28162
28154
28152
28150
28150
28146
28137
28145
28134
28125
28134
28126
28132
28128
28128
28116
28116
28114
28106
28108
28107
28100
28101
28096
28086
28088
28086
28080
28084
28084
28068
28062
28074
28060
28064
28064
28058
28057
28054
28058
28060
28052
28052
28049
28052
28053
28048
28046
28054
28045
28049
28053
28047
28048
28054
28044
28049
28048
28036
28042
28044
28038
28036
28036
28030
28028
28044
28032
28028
28032
28020
28016
28022
28008
28006
28004
28000
28001
28000
27986
27996
27996
27988
27988
27980
27978
27974
27972
27965
27964
27957
27956
27964
27948
27950
27943
27940
27928
27932
27940
27927
27920
27924
27912
27906
27908
27900
27896
27892
27888
27876
27881
27873
27864
27861
27860
27849
27860
27849
27840
27844
27832
27821
27820
27815
27820
27808
27790
27796
27784
27772
27774
27757
27754
27751
27750
27740
27740
27716
27712
27720
27704
27700
27696
27690
27680
27671
27668
27660
27645
27638
27639
27632
27631
27616
27605
27613
27596
27589
27588
27576
27569
27559
27554
27552
27544
27532
27530
27530
27511
27504
27498
27492
27488
27480
27471
27465
27460
27446
27438
27446
27440
27428
27425
27425
27413
27401
27402
27390
27390
27384
27372
27372
27360
27364
27356
27350
27352
27344
27342
27336
27328
27328
27314
27330
27322
27321
27316
27318
27306
27310
27308
27309
27302
27304
27298
27302
27304
27308
27310
27308
27306
27317
27313
27310
27321
27318
27326
27320
27332
27332
27342
27348
27349
27350
27360
27350
27364
27366
27368
27378
27391
27388
27389
27400
27401
27398
27412
27413
27424
27420
27431
27428
27436
27448
27444
27456
27456
27461
27462
27465
27474
27478
27476
27494
27490
27496
27504
27500
27512
27512
27520
27526
27524
27540
27544
27548
27556
27560
27568
27564
27585
27589
27592
27604
27610
27614
27620
27626
27633
27648
27661
27664
27669
27678
27688
27688
27711
27700
27717
27728
27738
27754
27760
27767
27774
27785
27790
27804
27813
27823
27828
27842
27852
27860
27862
27876
27892
27896
27900
27917
27924
27938
27943
27948
27965
27978
27984
27984
28004
28014
28022
28033
28033
28046
28056
28064
28072
28080
28087
28101
28106
28106
28112
28122
28136
28132
28150
28158
28164
28173
28183
28188
28192
28197
28208
28220
28222
28232
28232
28239
28252
28254
28260
28264
28260
28288
28284
28300
28294
28296
28303
28313
28313
28321
28320
28332
28336
28340
28340
28352
28346
28364
28362
28362
28372
28369
28376
28384
28376
28385
28393
28396
28414
28410
28412
28416
28420
28420
28440
28429
28450
28452
28449
28468
28470
28468
28478
28484
28490
28496
28508
28509
28520
28529
28532
28525
28545
28548
28568
28566
28570
28576
28590
28599
28600
28614
28620
28630
28634
28638
28646
28652
28664
28668
28680
28690
28697
28695
28708
28716
28727
28726
28743
28748
28756
28756
28768
28768
28782
28788
28801
28804
28800
28817
28820
28826
28830
28845
28854
28856
28866
28869
28876
28888
28893
28888
28898
28912
28916
28916
28932
28943
28938
28954
28964
28965
28976
28984
28994
28993
29004
29007
29020
29026
29038
29040
29048
29068
29060
29072
29084
29088
29091
29103
29111
29118
29128
29130
29142
29150
29154
29162
29168
29176
29188
29188
29200
29212
29212
29220
29237
29236
29240
29252
29260
29262
29271
29279
29284
29285
29301
29310
29313
29321
29332
29322
29337
29348
29356
29358
29368
29369
29372
29384
29386
29389
29404
29398
29408
29419
29430
29430
29441
29444
29448
29460
29468
29469
29480
29485
29488
29493
29508
29506
29514
29526
29540
29537
29542
29558
29564
29568
29569
29582
29604
29600
29597
29609
29622
29633
29640
29644
29660
29660
29672
29683
29682
29702
29708
29716
29728
29732
29744
29754
29764
29769
29785
29791
29792
29807
29812
29817
29832
29846
29846
29858
29872
29882
29886
29892
29910
29920
29924
29934
29944
29954
29960
29968
29981
29998
30008
30016
30024
30033
30042
30056
30060
30060
30082
30092
30104
30113
30124
30129
30142
30146
30152
30170
30170
30196
30196
30209
30224
30232
30246
30252
30258
30274
30284
30292
30311
30312
30327
30345
30352
30364
30376
30380
30396
30406
30425
30436
30444
30450
30478
30478
30496
30508
30520
30532
30537
30560
30572
30586
30594
30606
30621
30636
30647
30660
30670
30680
30703
30718
30719
30741
30750
30764
30776
30792
30797
30812
30832
30844
30854
30863
30877
30888
30904
30917
30926
30933
30948
30960
30972
30988
31000
31008
31028
31032
31042
31057
31062
31076
31089
31100
31108
31128
31136
31148
31168
31159
31180
31188
31196
31214
31220
31229
31239
31258
31264
31268
31287
31292
31300
31312
31313
31320
31336
31348
31356
31364
31373
31384
31392
31398
31408
31416
31424
31434
31436
31444
31454
31460
31463
31477
31482
31484
31492
31504
31520
31516
31524
31532
31540
31540
31548
31568
31568
31569
31580
31588
31592
31600
31606
31610
31620
31632
31634
31644
31657
31656
31664
31676
31684
31694
31704
31710
31716
31729
31733
31742
31744
31760
31768
31774
31785
31796
31805
31818
31822
31829
31836
31848
31848
31865
31877
31884
31880
31904
31900
31921
31932
31936
31938
31951
31964
31968
31976
31981
31996
31997
32008
32012
32012
32028
32034
32038
32046
32058
32063
32068
32078
32081
32090
32092
32102
32108
32118
32116
32124
32133
32135
32136
32149
32144
32164
32161
32164
32172
32187
32182
32194
32192
32184
32204
32206
32210
32220
32222
32228
32236
32232
32252
32244
32256
32268
32273
32266
32284
32284
32292
32296
32305
32309
32324
32324
32328
32324
32337
32344
32354
32356
32364
32364
32368
32384
32389
32399
32400
32405
32407
32420
32426
32425
32436
32444
32452
32445
32468
32468
32476
32476
32486
32490
32496
32500
32500
32508
32507
32525
32524
32537
32528
32547
32553
32564
32552
32564
32560
32572
32576
32577
32580
32585
32596
32592
32600
32608
32605
32612
32613
32629
32624
32624
32628
32636
32636
32640
32646
32649
32649
32654
32652
32665
32668
32664
32671
32676
32672
32695
32696
32694
32693
32704
32708
32714
32710
32712
32721
32724
32724
32737
32737
32744
32750
32754
32750
32756
32764
32768
32778
32772
32784
32792
32796
32798
32802
32810
32823
32821
32832
32832
32836
32848
32844
32856
32861
32876
32870
32887
32884
32888
32896
32903
32918
32933
32921
32928
32942
32940
32951
32956
32968
32965
32972
32982
32982
32993
33002
33012
33016
33028
33020
33031
33045
33044
33051
33056
33056
33074
33070
33078
33085
33087
33096
33095
33102
33104
33114
33116
33122
33132
33129
33134
33132
33137
33150
33150
33152
33150
33157
33168
33156
33168
33176
33164
33169
33174
33168
33172
33171
33174
33180
33190
33178
33182
33182
33190
33188
33182
33182
33182
33188
33181
33182
33190
33199
33194
33197
33204
33198
33198
33212
33200
33204
33217
33221
33220
33220
33217
33230
33224
33227
33236
33245
33250
33252
33264
33266
33268
33268
33280
33288
33294
33300
33300
33313
33312
33313
33328
33334
33348
33342
33356
33364
33373
33374
33388
33397
33401
33404
33412
33418
33432
33442
33447
33448
33464
33468
33472
33484
33492
33500
33504
33514
33515
33516
33528
33536
33548
33548
33556
33564
33564
33572
33581
33586
33593
33600
33604
33610
33608
33616
33620
33632
33632
33642
33646
33650
33656
33664
33670
33676
33685
33684
33692
33692
33695
33701
33706
33708
33716
33714
33713
33722
33722
33716
33724
33708
33700
33700
33692
33688
33688
33676
33662
33656
33644
33634
33624
33612
33592
33580
33564
33562
33533
33520
33516
33496
33494
33476
33456
33453
33428
33422
33416
33395
33388
33384
33375
33375
33360
33348
33346
33333
33329
33316
33310
33312
33304
33300
33284
33282
33278
33278
33264
33270
33260
33248
33260
33253
33255
33252
33248
33237
33244
33248
33241
33244
33244
33244
33249
33246
33248
33252
33252
33252
33256
33262
33258
33264
33252
33265
33266
33259
33264
33260
33268
33260
33266
33268
33272
33262
33266
33262
33260
33261
33268
33268
33260
33256
33260
33244
33253
33245
33241
33232
33236
33229
33212
33214
33214
33208
33193
33188
33176
33177
33170
33160
33150
33138
33124
33118
33112
33100
33088
33080
33068
33053
33048
33032
33030
33012
33000
32988
32980
32969
32952
32952
32928
32916
32904
32898
32870
32870
32852
32836
32824
32804
32804
32780
32764
32764
32736
32732
32706
32685
32688
32660
32644
32637
32634
32608
32588
32577
32561
32543
32530
32512
32498
32469
32460
32448
32440
32416
32404
32388
32372
32356
32345
32332
32312
32300
32286
32261
32261
32246
32230
32220
32210
32200
32182
32166
32148
32149
32144
32128
32120
32102
32092
32092
32076
32070
32052
32044
32030
32032
32028
32016
32000
31993
31976
31980
31966
31965
31956
31949
31938
31933
31922
31913
31912
31900
31896
31894
31892
31880
31869
31876
31862
31868
31849
31844
31838
31844
31844
31838
31826
31829
31824
31816
31822
31822
31816
31814
31808
31804
31810
31804
31800
31800
31792
31790
31784
31784
31784
31777
31774
31778
31772
31781
31772
31761
31759
31757
31748
31744
31751
31736
31738
31728
31729
31735
31720
31712
31710
31708
31708
31700
31692
31694
31690
31676
31676
31676
31665
31658
31657
31652
31641
31642
31636
31623
31620
31615
31616
31604
31609
31604
31588
31588
31584
31580
31564
31562
31564
31556
31543
31546
31540
31532
31530
31525
31506
31505
31513
31500
31489
31486
31479
31476
31472
31465
31457
31452
31446
31444
31434
31428
31424
31413
31418
31412
31408
31401
31398
31383
31388
31380
31380
31372
31370
31368
31366
31360
31361
31346
31351
31356
31348
31346
31342
31337
31332
31332
31333
31332
31329
31322
31329
31332
31332
31321
31328
31328
31326
31325
31328
31327
31326
31324
31332
31327
31332
31328
31320
31326
31322
31320
31333
31332
31330
31328
31333
31332
31328
31337
31340
31340
31334
31338
31344
31346
31351
31356
31356
31364
31365
31376
31376
31387
31389
31388
31389
31393
31405
31400
31412
31412
31414
31420
31434
31429
31436
31444
31446
31448
31456
31458
31456
31470
31468
31470
31484
31488
31490
31494
31500
31500
31508
31504
31512
31522
31524
31530
31530
31532
31536
31550
31536
31552
31552
31556
31560
31568
31580
31578
31583
31589
31588
31585
31586
31594
31592
31597
31598
31604
31596
31614
31609
31607
31613
31610
31616
31620
31618
31620
31618
31612
31609
31624
31620
31612
31620
31618
31623
31630
31620
31618
31624
31622
31630
31621
31626
31628
31632
31630
31636
31636
31630
31640
31644
31637
31643
31640
31646
31654
31648
31652
31657
31664
31660
31668
31672
31672
31684
31690
31688
31690
31696
31692
31700
31700
31713
31714
31712
31713
31704
31712
31712
31706
31708
31700
31700
31714
31696
31690
31696
31696
31690
31676
31669
31672
31668
31665
31655
31644
31634
31636
31630
31612
31600
31598
31586
31576
31572
31553
31538
31524
31502
31498
31478
31457
31454
31425
31409
31390
31366
31356
31340
31318
31300
31276
31262
31248
31228
31208
31196
31172
31169
31156
31136
31124
31116
31109
31085
31078
31062
31058
31044
31036
31026
31012
31000
30998
30993
30972
30961
30949
30936
30928
30929
30908
30902
30888
30876
30864
30850
30848
30828
30812
30810
30785
30788
30772
30760
30752
30732
30720
30713
30693
30680
30668
30652
30640
30625
30618
30601
30596
30585
30564
30561
30544
30540
30526
30504
30500
30488
30480
30470
30455
30436
30434
30420
30415
30401
30396
30372
30383
30365
30354
30340
30336
30324
30314
30300
30296
30273
30274
30265
30260
30248
30238
30238
30221
30210
30211
30194
30185
30178
30166
30158
30152
30144
30130
30129
30121
30116
30100
30090
30082
30072
30060
30058
30042
30038
30030
30016
30000
29998
29992
29986
29970
29964
29951
29946
29933
29924
29904
29900
29893
29886
29878
29861
29850
29840
29830
29831
29810
29804
29800
29782
29769
29770
29753
29738
29726
29729
29708
29696
29692
29673
29664
29654
29644
29640
29620
29616
29606
29589
29584
29576
29566
29556
29548
29533
29528
29521
29502
29498
29490
29480
29468
29466
29450
29442
29440
29423
29422
29409
29401
29400
29385
29368
29364
29366
29352
29344
29340
29329
29324
29312
29309
29297
29290
29284
29268
29277
29262
29260
29251
29242
29236
29228
29228
29217
29214
29215
29198
29192
29176
29177
29170
29168
29164
29160
29158
29140
29144
29138
29132
29124
29127
29116
29108
29114
29112
29100
29096
29090
29088
29086
29084
29068
29086
29076
29064
29057
29056
29050
29041
29042
29036
29024
29028
29036
29020
29014
29020
29010
29006
29004
29000
28996
28992
28983
28978
28973
28974
28972
28964
28972
28957
28948
28949
28952
28940
28934
28932
28927
28920
28924
28924
28919
28908
28913
28904
28892
28894
28896
28884
28882
28881
28876
28877
28868
28876
28864
28860
28856
28858
28860
28850
28848
28852
28850
28838
28848
28844
28842
28844
28841
28840
28836
28836
28826
28836
28826
28823
28831
28824
28822
28826
28816
28821
28820
28812
28817
28808
28818
28810
28810
28812
28812
28812
28804
28804
28796
28790
28790
28791
28788
28789
28784
28784
28776
28774
28770
28772
28768
28752
28755
28752
28744
28736
28732
28726
28723
28713
28716
28702
28693
28688
28692
28686
28669
28662
28656
28652
28640
28638
28629
28615
28616
28609
28600
28582
28580
28568
28558
28551
28545
28537
28520
28512
28508
28498
28489
28472
28464
28456
28449
28438
28428
28416
28405
28400
28381
28376
28372
28360
28344
28330
28322
28321
28313
28292
28288
28277
28270
28268
28260
28248
28234
28236
28228
28214
28208
28196
28189
28184
28186
28172
28172
28156
28162
28155
28150
28145
28140
28134
28132
28124
28126
28120
28110
28108
28106
28098
28104
28104
28094
28097
28082
28080
28082
28084
28079
28078
28086
28070
28068
28069
28074
28067
28069
28076
28068
28064
28062
28056
28062
28056
28060
28060
28058
28052
28052
28054
28051
28052
28052
28044
28044
28041
28039
28037
28026
28030
28028
28025
28024
28012
28014
28007
28004
28010
27998
27996
27982
27984
27988
27972
27964
27965
27961
27948
27944
27940
27936
27929
27920
27906
27906
27892
27884
27879
27870
27870
27856
27850
27840
27841
27828
27824
27813
27806
27804
27793
27788
27772
27766
27755
27752
27736
27743
27732
27712
27712
27706
27688
27693
27686
27676
27668
27656
27650
27648
27626
27636
27618
27616
27612
27608
27597
27588
27580
27572
27568
27568
27556
27552
27548
27541
27536
27529
27524
27520
27510
27516
27497
27492
27490
27482
27484
27476
27473
27468
27458
27458
27452
27452
27446
27441
27440
27433
27428
27433
27424
27412
27413
27415
27405
27406
27396
27396
27396
27396
27396
27391
27388
27389
27380
27384
27369
27372
27372
27366
27365
27368
27369
27363
27359
27369
27374
27360
27364
27364
27364
27358
27359
27364
27364
27362
27366
27365
27364
27365
27374
27370
27368
27380
27368
27382
27377
27380
27381
27389
27388
27393
27392
27392
27392
27404
27396
27398
27412
27412
27413
27422
27417
27420
27420
27428
27424
27424
27430
27432
27441
27436
27446
27452
27445
27456
27454
27452
27464
27463
27468
27464
27469
27474
27470
27476
27483
27473
27480
27495
27492
27492
27481
27496
27511
27510
27508
27508
27510
27512
27519
27520
27521
27524
27532
27532
27528
27532
27537
27548
27528
27540
27540
27548
27540
27546
27544
27560
27556
27552
27561
27560
27560
27565
27564
27572
27566
27572
27564
27566
27569
27581
27574
27578
27580
27584
27578
27580
27580
27580
27584
27586
27581
27585
27594
27594
27585
27592
27594
27592
27594
27596
27604
27596
27592
27596
27612
27609
27596
27608
27600
27600
27612
27616
27616
27616
27608
27617
27620
27628
27623
27628
27624
27625
27630
27634
27631
27644
27640
27630
27641
27646
27648
27644
27640
27648
27653
27650
27644
27654
27650
27659
27656
27660
27661
27656
27656
27668
27658
27668
27666
27663
27668
27668
27665
27665
27668
27660
27664
27667
27662
27660
27666
27660
27658
27656
27662
27656
27654
27649
27650
27644
27641
27641
27646
27646
27633
27642
27637
27632
27628
27628
27630
27628
27614
27620
27620
27616
27612
27603
27606
27604
27598
27588
27598
27587
27588
27576
27576
27576
27582
27572
27568
27560
27566
27560
27562
27561
27555
27560
27552
27552
27549
27548
27556
27553
27551
27544
27538
27536
27542
27534
27542
27536
27544
27536
27536
27537
27532
27528
27536
27526
27532
27532
27528
27526
27524
27533
27527
27526
27542
27528
27528
27528
27532
27528
27524
27529
27525
27532
27532
27526
27536
27527
27536
27524
27532
27540
27529
27536
27528
27526
27525
27531
27533
27529
27525
27536
27517
27525
27532
27525
27526
27521
27524
27524
27519
27519
27516
27516
27512
27521
27516
27508
27516
27514
27504
27513
27508
27500
27510
27500
27510
27510
27506
27501
27496
27510
27502
27510
27512
27496
27516
27508
27508
27516
27518
27511
27516
27524
27520
27526
27524
27535
27528
27530
27536
27548
27548
27546
27550
27555
27557
27556
27556
27570
27568
27574
27582
27582
27590
27584
27592
27588
27597
27612
27614
27616
27624
27620
27638
27628
27640
27642
27652
27660
27665
27663
27668
27678
27685
27682
27682
27694
27700
27700
27712
27716
27715
27720
27730
27737
27734
27740
27745
27749
27748
27757
27765
27769
27772
27780
27788
27796
27798
27810
27810
27815
27828
27840
27844
27856
27860
27868
27876
27877
27892
27903
27912
27917
27919
27926
27936
27934
27940
27941
27944
27944
27945
27948
27944
27943
27944
27944
27948
27940
27936
27945
27940
27928
27932
27934
27924
27922
27918
27920
27914
27923
27922
27918
27924
27922
27922
27920
27921
27924
27928
27930
27932
27944
27938
27929
27936
27952
27942
27948
27944
27950
27952
27953
27960
27962
27958
27957
27968
27963
27969
27972
27970
27977
27978
27980
27982
27988
27989
28000
28000
28007
28015
28028
28024
28030
28030
28038
28052
28056
28060
28066
28072
28080
28076
28084
28096
28100
28104
28116
28124
28132
28128
28141
28153
28152
28152
28169
28178
28176
28190
28196
28200
28204
28212
28216
28222
28228
28226
28236
28236
28245
28239
28254
28260
28268
28260
28264
28276
28269
28274
28277
28265
28268
28284
28284
28276
28271
28276
28277
28270
28264
28268
28270
28261
28265
28260
28260
28248
28253
28249
28246
28229
28228
28217
28225
28204
28206
28201
28202
28189
28184
28174
28175
28164
28160
28152
28148
28138
28136
28124
28126
28113
28108
28096
28096
28096
28076
28076
28076
28062
28056
28053
28056
28050
28042
28038
28030
28032
28020
28015
28015
28020
28013
28012
28008
28006
28000
28004
27996
28001
27996
28004
27999
28000
28008
28000
28012
27996
28008
27998
27997
28010
28006
28013
28018
28021
28020
28033
28022
28034
28036
28044
28042
28057
28056
28060
28060
28068
28072
28084
28084
28082
28094
28100
28106
28114
28124
28120
28132
28132
28138
28148
28154
28164
28162
28180
28185
28184
28188
28197
28204
28210
28220
28236
28232
28248
28250
28248
28260
28268
28264
28280
28278
28294
28304
28312
28314
28324
28341
28333
28343
28347
28356
28368
28378
28376
28386
28396
28396
28404
28412
28416
28424
28432
28429
28448
28454
28452
28452
28469
28465
28469
28476
28480
28488
28484
28496
28493
28500
28506
28508
28516
28512
28516
28516
28520
28525
28516
28532
28534
28538
28542
28540
28537
28546
28551
28556
28548
28556
28560
28563
28560
28564
28568
28572
28572
28564
28578
28578
28581
28580
28580
28576
28573
28586
28580
28576
28578
28581
28568
28578
28565
28572
28576
28565
28558
28556
28556
28552
28537
28544
28540
28545
28540
28536
28537
28534
28530
28526
28526
28525
28521
28509
28516
28516
28512
28509
28517
28508
28509
28513
28504
28502
28502
28498
28500
28494
28498
28496
28498
28486
28488
28496
28496
28494
28493
28500
28500
28492
28500
28510
28503
28504
28508
28516
28510
28513
28512
28516
28516
28520
28524
28528
28533
28532
28538
28540
28546
28544
28549
28548
28554
28560
28562
28571
28568
28565
28576
28572
28580
28582
28582
28584
28596
28597
28592
28604
28596
28605
28608
28608
28612
28612
28609
28616
28632
28624
28632
28636
28640
28644
28636
28654
28650
28654
28661
28672
28668
28673
28672
28676
28680
28684
28684
28700
28696
28708
28707
28716
28716
28716
28728
28728
28740
28749
28754
28744
28760
28768
28768
28770
28782
28780
28792
28796
28796
28812
28814
28824
28825
28828
28838
28847
28852
28858
28864
28868
28878
28880
28892
28898
28900
28906
28918
28916
28930
28934
28948
28942
28948
28950
28967
28968
28974
28980
28988
28992
29004
29006
29012
29009
29022
29034
29032
29040
29044
29054
29052
29068
29070
29079
29072
29088
29093
29100
29096
29104
29120
29113
29119
29132
29136
29136
29136
29154
29154
29160
29167
29161
29172
29180
29184
29186
29196
29204
29201
29204
29216
29214
29222
29221
29228
29233
29244
29234
29237
29256
29248
29256
29269
29265
29262
29264
29272
29268
29286
29280
29282
29287
29295
29290
29294
29292
29300
29302
29304
29303
29311
29319
29309
29319
29317
29316
29322
29319
29320
29320
29318
29332
29332
29322
29330
29336
29334
29333
29344
29338
29345
29345
29349
29346
29348
29348
29356
29356
29357
29360
29369
29369
29375
29370
29375
29385
29378
29388
29393
29392
29399
29404
29406
29404
29413
29425
29415
29433
29428
29440
29444
29450
29449
29454
29461
29465
29468
29473
29481
29484
29481
29496
29502
29506
29508
29510
29524
29524
29526
29526
29540
29532
29540
29546
29556
29551
29560
29570
29574
29580
29572
29585
29576
29600
29600
29596
29608
29612
29617
29617
29628
29632
29630
29652
29644
29650
29656
29664
29670
29676
29681
29688
29684
29684
29692
29704
29708
29712
29716
29728
29726
29733
29736
29742
29754
29756
29758
29761
29773
29770
29780
29782
29794
29796
29806
29806
29818
29820
29820
29836
29840
29849
29856
29864
29861
29868
29879
29876
29890
29904
29904
29914
29916
29934
29940
29946
29946
29962
29968
29974
29980
29992
29996
30004
30013
30020
30020
30048
30048
30056
30064
30074
30082
30100
30097
30108
30112
30126
30134
30148
30145
30164
30176
30177
30199
30208
30215
30228
30242
30248
30264
30268
30276
30300
30305
30316
30332
30343
30358
30368
30378
30381
30385
30408
30408
30408
30432
30430
30440
30445
30454
30460
30460
30464
30476
30478
30484
30492
30500
30512
30508
30500
30514
30518
30520
30521
30532
30541
30549
30552
30556
30559
30572
30576
30580
30584
30600
30604
30600
30615
30618
30612
30624
30628
30628
30633
30640
30644
30640
30645
30656
30660
30662
30672
30677
30671
30682
30688
30694
30700
30704
30718
30728
30736
30743
30760
30770
30785
30788
30812
30818
30834
30844
30856
30871
30892
30904
30916
30928
30942
30964
30970
30990
31000
31012
31020
31040
31053
31060
31077
31086
31100
31111
31120
31125
31144
31156
31170
31172
31180
31196
31204
31215
31223
31231
31252
31246
31264
31271
31292
31296
31304
31304
31324
31331
31340
31348
31360
31366
31368
31372
31384
31394
31412
31415
31422
31424
31428
31437
31449
31460
31460
31468
31470
31492
31489
31493
31488
31516
31509
31518
31514
31526
31528
31544
31532
31544
31540
31543
31548
31552
31556
31556
31556
31552
31556
31554
31564
31564
31561
31564
31558
31562
31560
31566
31556
31556
31564
31562
31560
31553
31561
31557
31552
31556
31561
31546
31548
31556
31548
31538
31536
31540
31540
31546
31530
31532
31532
31534
31524
31524
31522
31522
31528
31524
31517
31524
31522
31518
31508
31504
31512
31524
31511
31517
31512
31511
31511
31508
31511
31509
31508
31508
31516
31511
31516
31509
31516
31516
31520
31516
31524
31521
31524
31524
31529
31524
31528
31524
31536
31536
31545
31548
31550
31554
31553
31556
31564
31564
31564
31580
31580
31581
31590
31586
31596
31586
31604
31594
31610
31604
31620
31622
31624
31621
31624
31639
31642
31638
31640
31642
31652
31653
31656
31664
31660
31670
31678
31672
31676
31682
31685
31692
31696
31698
31704
31709
31713
31716
31720
31724
31724
31726
31732
31739
31744
31742
31742
31756
31756
31750
31756
31762
31774
31766
31761
31772
31781
31784
31782
31780
31784
31789
31786
31782
31784
31782
31788
31790
31791
31788
31802
31788
31792
31788
31799
31796
31796
31802
31808
31796
31802
31801
31806
31822
31812
31816
31816
31812
31826
31822
31834
31828
31832
31838
31838
31841
31844
31845
31845
31844
31854
31856
31856
31853
31862
31862
31852
31860
31860
31858
31860
31866
31868
31868
31860
31868
31869
31864
31873
31868
31868
31864
31876
31880
31886
31892
31882
31892
31885
31896
31897
31896
31900
31913
31913
31924
31914
31916
31928
31940
31936
31940
31954
31952
31956
31966
31974
31978
31980
31989
31994
32000
32012
32004
32012
32025
32032
32042
32036
32049
32054
32060
32065
32068
32076
32080
32084
32107
32103
32112
32116
32118
32127
32118
32140
32151
32148
32160
32166
32158
32174
32172
32180
32183
32192
32202
32204
32208
32216
32224
32213
32233
32236
32242
32250
32260
32252
32268
32264
32278
32285
32284
32286
32292
32298
32305
32312
32319
32324
32328
32334
32344
32344
32357
32364
32367
32376
32388
32388
32393
32396
32404
32418
32422
32433
32432
32428
32448
32452
32452
32472
32474
32481
32497
32502
32504
32506
32521
32516
32532
32545
32540
32548
32552
32561
32559
32572
32576
32576
32583
32585
32600
32598
32606
32608
32614
32624
32624
32628
32629
32648
32645
32642
32648
32652
32660
32662
32668
32664
32678
32687
32688
32692
32696
32707
32704
32704
32714
32724
32720
32728
32733
32730
32736
32740
32757
32752
32764
32768
32780
32776
32776
32788
32796
32800
32804
32820
32812
32820
32820
32824
32824
32836
32844
32849
32848
32860
32860
32856
32864
32870
32872
32874
32881
32884
32889
32886
32898
32900
32894
32904
32910
32914
32916
32904
32926
32928
32920
32932
32934
32938
32940
32932
32954
32958
32952
32964
32964
32967
32972
32978
32984
32992
32986
32994
33000
32996
33004
33006
33016
33012
33022
33026
33020
33021
33039
33041
33044
33040
33041
33044
33044
33056
33054
33062
33063
33072
33062
33064
33076
33076
33068
33073
33082
33076
33076
33084
33080
33082
33084
33086
33076
33090
33092
33088
33084
33089
33093
33092
33084
33093
33097
33090
33092
33100
33095
33094
33088
33092
33094
33100
33096
33100
33099
33104
33096
33101
33096
33100
33103
33094
33098
33110
33100
33105
33112
33108
33116
33117
33120
33122
33120
33124
33130
33133
33133
33136
33140
33132
33149
33140
33136
33152
33148
33138
33150
33153
33157
33168
33156
33166
33170
33176
33161
33172
33180
33184
33182
33189
33188
33188
33199
33192
33208
33208
33208
33212
33216
33216
33222
33225
33233
33236
33233
33237
33242
33245
33252
33252
33260
33262
33256
33276
33274
33284
33292
33284
33300
33302
33308
33310
33316
33316
33316
33324
33324
33336
33342
33341
33348
33352
33352
33368
33358
33364
33368
33368
33378
33380
33380
33392
33398
33400
33412
33410
33421
33429
33436
33438
33430
33440
33450
33454
33448
33453
33460
33465
33470
33460
33464
33468
33472
33460
33462
33466
33460
33448
33448
33444
33432
33428
33432
33423
33407
33404
33404
33396
33396
33384
33373
33374
33370
33365
33356
33348
33340
33345
33340
33336
33320
33326
33316
33320
33318
33313
33308
33308
33304
33296
33292
33278
33280
33280
33265
33268
33260
33260
33248
33250
33248
33250
33252
33253
33258
33268
33268
33268
33276
33284
33292
33292
33304
33324
33332
33345
33353
33361
33377
33388
33392
33413
33422
33438
33444
33456
33472
33478
33488
33494
33512
33527
33534
33548
33553
33572
33566
33580
33596
33602
33604
33608
33624
33636
33640
33644
33654
33653
33668
33664
33672
33688
33682
33684
33695
33702
33701
33704
33713
33716
33722
33724
33726
33728
33724
33738
33729
33733
33732
33729
33732
33736
33737
33732
33728
33729
33727
33732
33720
33712
33724
33712
33716
33708
33700
33700
33700
33688
33697
33688
33678
33669
33662
33664
33654
33653
33641
33640
33632
33622
33624
33612
33606
33600
33591
33592
33582
33584
33568
33572
33568
33548
33556
33548
33540
33540
33537
33522
33524
33524
33504
33506
33504
33504
33497
33493
33488
33480
33488
33476
33468
33468
33472
33464
33457
33460
33454
33454
33456
33448
33453
33448
33449
33441
33444
33444
33436
33440
33445
33436
33429
33428
33422
33436
33433
33433
33436
33429
33430
33438
33428
33428
33428
33428
33432
33432
33424
33423
33428
33429
33422
33428
33428
33430
33432
33426
33424
33422
33425
33424
33433
33428
33430
33429
33428
33432
33422
33424
33424
33428
33424
33432
33429
33432
33428
33428
33440
33420
33436
33433
33429
33441
33432
33438
33436
33448
33452
33440
33444
33448
33440
33448
33448
33452
33444
33448
33457
33452
33445
33448
33454
33457
33457
33461
33464
33464
33460
33464
33457
33461
33456
33460
33464
33460
33462
33451
33452
33456
33444
33450
33441
33440
33452
33437
33438
33436
33432
33426
33421
33423
33414
33420
33413
33409
33396
33396
33391
33400
33376
33385
33367
33366
33364
33352
33356
33356
33345
33342
33334
33334
33324
33325
33324
33318
33311
33316
33304
33296
33306
33292
33300
33288
33292
33285
33297
33284
33276
33272
33284
33276
33264
33271
33268
33265
33264
33254
33263
33255
33244
33252
33240
33242
33236
33240
33228
33232
33224
33232
33221
33219
33226
33216
33221
33220
33220
33218
33214
33225
33218
33226
33216
33210
33222
33218
33221
33218
33223
33225
33218
33233
33227
33245
33228
33238
33236
33238
33240
33234
33244
33252
33247
33248
33254
33253
33252
33252
33253
33260
33252
33255
33260
33260
33264
33264
33265
33262
33260
33253
33260
33257
33264
33252
33260
33252
33248
33253
33244
33252
33252
33252
33246
33242
33241
33236
33239
33228
33232
33237
33224
33220
33220
33204
33208
33216
33206
33196
33188
33197
33196
33182
33182
33173
33168
33167
33153
33144
33152
33141
33132
33135
33125
33115
33109
33098
33101
33089
33084
33073
33068
33066
33060
33052
33055
33038
33032
33025
33013
33000
33004
33000
32988
32976
32968
32961
32952
32944
32936
32928
32918
32916
32904
32898
32892
32879
32860
32858
32850
32840
32832
32822
32812
32799
32790
32780
32774
32764
32750
32750
32722
32716
32704
32696
32692
32676
32664
32644
32649
32636
32626
32616
32596
32590
32580
32564
32556
32548
32542
32516
32514
32504
32487
32480
32468
32454
32438
32428
32432
32408
32394
32384
32380
32364
32346
32340
32326
32308
32292
32280
32270
32260
32236
32229
32224
32202
32189
32170
32160
32145
32132
32117
32100
32094
32056
32070
32040
32032
32016
32004
31981
31971
31960
31932
31924
31908
31888
31881
31855
31844
31826
31814
31797
31780
31767
31745
31736
31708
31700
31685
31672
31648
31632
31620
31608
31584
31578
31564
31543
31525
31516
31504
31478
31470
31450
31440
31429
31409
31396
31382
31373
31352
31338
31324
31311
31288
31282
31268
31248
31244
31226
31206
31192
31184
31173
31159
31156
31133
31125
31110
31101
31080
31067
31052
31048
31024
31015
30999
30984
30968
30952
30945
30936
30918
30908
30888
30872
30864
30852
30836
30820
30805
30792
30780
30760
30740
30741
30722
30697
30690
30680
30660
30649
30628
30621
30612
30592
30574
30564
30544
30528
30524
30505
30484
30472
30460
30440
30430
30413
30392
30388
30372
30350
30336
30326
30312
30299
30292
30268
30266
30246
30234
30220
30215
30188
30174
30168
30148
30136
30128
30116
30104
30084
30086
30078
30060
30044
30042
30026
30008
29996
29988
29988
29966
29960
29944
29940
29920
29910
29908
29893
29882
29868
29863
29854
29844
29839
29828
29810
29801
29804
29791
29776
29768
29764
29754
29748
29736
29732
29720
29716
29697
29692
29678
29679
29660
29652
29648
29636
29628
29618
29609
29600
29596
29588
29574
29572
29562
29549
29550
29535
29534
29524
29516
29507
29506
29488
29489
29482
29476
29476
29476
29458
29452
29456
29450
29445
29444
29436
29429
29433
29421
29422
29414
29408
29402
29396
29384
29377
29364
29360
29350
29350
29342
29322
29308
29316
29300
29286
29282
29276
29256
29250
29236
29237
29221
29216
29200
29194
29177
29182
29172
29156
29148
29148
29129
29120
29122
29105
29096
29090
29076
29063
29063
29049
29048
29028
29020
29016
29004
28986
28978
28972
28958
28956
28944
28924
28928
28919
28909
28900
28894
28888
28884
28880
28877
28864
28876
28872
28874
28868
28878
28864
28872
28885
28880
28884
28884
28884
28896
28892
28896
28904
28904
28908
28916
28916
28912
28918
28908
28924
28929
28924
28924
28931
28932
28930
28938
28935
28936
28938
28929
28940
28946
28936
28948
28938
28950
28952
28954
28948
28948
28949
28946
28949
28954
28957
28949
28944
28956
28952
28948
28949
28950
28956
28948
28950
28948
28944
28948
28944
28942
28937
28940
28940
28934
28938
28925
28917
28920
28915
28914
28916
28898
28900
28889
28880
28880
28868
28862
28863
28856
28844
28842
28834
28821
28816
28812
28800
28794
28788
28776
28768
28768
28756
28741
28732
28725
28724
28710
28710
28702
28688
28688
28673
28676
28665
28656
28644
28652
28629
28628
28614
28609
28602
28596
28588
28580
28575
28561
28556
28550
28545
28536
28530
28517
28524
28510
28500
28505
28496
28485
28480
28476
28472
28468
28460
28460
28449
28440
28448
28440
28424
28426
28428
28426
28416
28415
28409
28396
28400
28396
28391
28400
28384
28385
28381
28388
28382
28385
28374
28378
28378
28373
28377
28372
28376
28366
28372
28372
28367
28372
28364
28372
28362
28366
28362
28364
28364
28364
28367
28372
28364
28366
28376
28376
28373
28378
28378
28378
28368
28388
28380
28388
28390
28388
28391
28402
28400
28394
28402
28404
28412
28414
28412
28417
28420
28428
28428
28429
28436
28440
28442
28448
28444
28460
28448
28462
28462
28470
28472
28470
28468
28480
28482
28482
28485
28484
28488
28500
28496
28494
28508
28505
28516
28508
28513
28512
28518
28520
28532
28521
28529
28537
28536
28540
28542
28542
28550
28548
28552
28550
28548
28548
28556
28564
28561
28564
28565
28561
28560
28572
28564
28566
28580
28580
28584
28592
28584
28596
28589
28590
28602
28600
28596
28606
28605
28610
28604
28607
28612
28614
28620
28606
28609
28608
28604
28601
28604
28600
28607
28604
28596
28591
28590
28590
28584
28581
28580
28578
28580
28574
28566
28574
28568
28567
28568
28564
28562
28564
28563
28558
28558
28560
28564
28556
28560
28559
28556
28564
28570
28570
28569
28572
28576
28576
28581
28585
28586
28593
28598
28604
28602
28608
28616
28624
28628
28636
28638
28645
28648
28664
28668
28670
28678
28681
28688
28692
28693
28708
28708
28721
28729
28728
28732
28748
28748
28758
28764
28765
28768
28778
28784
28792
28800
28804
28812
28824
28822
28832
28836
28842
28849
28857
28854
28863
28872
28874
28886
28892
28896
28904
28916
28913
28924
28934
28937
28936
28948
28956
28961
28966
28977
28984
28988
28995
29004
29014
29016
29034
29032
29048
29044
29045
29058
29066
29083
29086
29082
29102
29104
29117
29121
29130
29141
29146
29152
29156
29160
29177
29177
29186
29190
29197
29212
29212
29216
29222
29230
29247
29244
29244
29254
29260
29274
29272
29282
29286
29292
29296
29304
29306
29310
29316
29328
29328
29340
29340
29345
29344
29356
29357
29360
29368
29378
29377
29386
29384
29384
29399
29406
29392
29408
29412
29415
29418
29428
29424
29440
29440
29441
29442
29442
29448
29451
29454
29452
29460
29465
29463
29472
29468
29464
29468
29476
29465
29478
29476
29472
29480
29476
29476
29476
29476
29476
29476
29480
29482
29477
29476
29473
29472
29470
29476
29470
29478
29468
29476
29476
29472
29476
29470
29468
29472
29472
29468
29462
29462
29468
29470
29464
29465
29463
29454
29464
29464
29464
29460
29460
29466
29461
29458
29457
29465
29462
29458
29463
29468
29470
29467
29464
29468
29468
29474
29472
29476
29476
29478
29484
29485
29488
29489
29489
29495
29492
29494
29503
29500
29500
29514
29504
29511
29509
29519
29522
29526
29522
29528
29534
29543
29532
29540
29538
29542
29542
29558
29552
29552
29562
29564
29560
29576
29576
29577
29582
29576
29582
29584
29596
29590
29602
29608
29601
29612
29620
29616
29624
29628
29632
29630
29636
29642
29640
29640
29648
29650
29657
29652
29657
29656
29660
29666
29668
29672
29668
29677
29674
29680
29676
29688
29692
29686
29692
29688
29694
29697
29702
29702
29700
29716
29712
29714
29712
29713
29714
29732
29724
29724
29726
29728
29732
29735
29736
29738
29738
29736
29740
29752
29739
29748
29740
29745
29754
29753
29756
29758
29764
29754
29757
29764
29760
29761
29768
29772
29764
29774
29769
29774
29773
29780
29768
29774
29772
29780
29776
29772
29784
29788
29784
29788
29796
29793
29788
29797
29792
29804
29797
29812
29807
29812
29817
29808
29816
29812
29821
29816
29822
29820
29814
29824
29820
29820
29836
29833
29836
29836
29840
29838
29844
29838
29840
29846
29848
29852
29853
29856
29856
29856
29856
29868
29862
29865
29867
29872
29864
29868
29863
29868
29869
29872
29870
29872
29868
29871
29870
29868
29868
29860
29877
29860
29868
29862
29862
29869
29864
29868
29863
29860
29864
29864
29858
29864
29868
29861
29874
29862
29872
29876
29880
29878
29888
29882
29892
29900
29906
29912
29924
29916
29930
29932
29936
29948
29954
29958
29964
29958
29960
29962
29977
29984
29980
29988
29988
29988
29988
29998
29990
30004
30008
30001
30008
30001
30016
30016
30018
30020
30018
30028
30026
30032
30040
30044
30050
30052
30052
30057
30064
30068
30065
30073
30072
30078
30086
30084
30079
30080
30090
30088
30088
30096
30096
30094
30100
30096
30098
30103
30096
30108
30108
30110
30118
30122
30122
30132
30128
30134
30148
30154
30164
30168
30178
30192
30198
30206
30224
30230
30248
30260
30268
30284
30292
30302
30317
30324
30342
30353
30362
30372
30380
30402
30412
30416
30436
30436
30463
30460
30470
30480
30476
30496
30504
30508
30521
30536
30528
30532
30554
30554
30569
30576
30578
30596
30596
30596
30609
30613
30612
30628
30637
30632
30645
30657
30657
30666
30673
30672
30688
30696
30698
30702
30708
30709
30722
30720
30726
30726
30737
30743
30740
30742
30752
30754
30756
30750
30757
30756
30760
30760
30756
30760
30756
30752
30753
30750
30752
30748
30752
30744
30748
30740
30736
30740
30734
30728
30727
30720
30724
30709
30712
30702
30716
30700
30694
30692
30687
30690
30679
30676
30672
30664
30665
30660
30658
30644
30644
30642
30639
30629
30625
30636
30625
30620
30617
30606
30608
30612
30607
30601
30596
30601
30596
30584
30592
30592
30597
30584
30586
30592
30584
30588
30586
30588
30582
30586
30597
30592
30588
30592
30604
30599
30596
30604
30608
30612
30614
30612
30616
30624
30620
30626
30625
30636
30636
30633
30642
30644
30644
30656
30656
30656
30668
30666
30678
30676
30687
30689
30694
30690
30703
30709
30706
30716
30720
30729
30737
30730
30740
30752
30756
30758
30766
30772
30776
30788
30789
30808
30812
30809
30818
30830
30818
30836
30849
30854
30860
30864
30868
30876
30878
30884
30888
30892
30901
30906
30908
30914
30918
30928
30936
30929
30932
30942
30948
30948
30952
30958
30960
30974
30962
30968
30968
30972
30988
30986
30992
30988
30996
30988
30993
30996
30996
31007
31002
31001
31008
31010
31009
31008
31017
31013
31020
31018
31017
31020
31024
31016
31016
31028
31028
31028
31021
31025
31036
31036
31037
31026
31040
31032
31034
31037
31036
31040
31042
31044
31044
31054
31057
31045
31058
31065
31065
31071
31068
31068
31070
31076
31080
31078
31084
31086
31092
31084
31088
31100
31100
31106
31100
31105
31102
31118
31120
31132
31133
31132
31138
31143
31156
31164
31169
31164
31180
31185
31193
31206
31206
31213
31228
31236
31238
31249
31260
31268
31276
31284
31295
31309
31320
31332
31332
31338
31364
31362
31380
31396
31397
31412
31418
31424
31436
31448
31460
31468
31481
31492
31504
31514
31522
31536
31540
31556
31568
31564
31590
31596
31600
31612
31612
31630
31637
31644
31662
31678
31684
31692
31700
31712
31720
31732
31740
31754
31761
31780
31784
31792
31800
31816
31812
31833
31844
31858
31858
31870
31880
31888
31904
31912
31924
31930
31948
31954
31964
31972
31974
31994
32002
32012
32016
32031
32044
32047
32048
32060
32073
32090
32092
32086
32114
32119
32120
32132
32138
32148
32156
32160
32157
32168
32183
32192
32188
32196
32203
32202
32212
32214
32222
32230
32238
32244
32242
32248
32254
32264
32264
32270
32276
32282
32290
32292
32297
32300
32308
32318
32320
32320
32320
32336
32337
32346
32352
32353
32358
32361
32370
32382
32381
32386
32397
32404
32400
32409
32418
32420
32437
32444
32444
32456
32452
32457
32468
32484
32484
32488
32496
32492
32500
32513
32510
32517
32520
32532
32542
32539
32542
32546
32558
32564
32559
32568
32576
32577
32585
32581
32592
32596
32604
32608
32614
32612
32618
32629
32628
32628
32636
32644
32653
32655
32656
32664
32663
32676
32682
32684
32693
32688
32698
32704
32708
32708
32721
32718
32720
32737
32740
32744
32748
32752
32756
32760
32772
32766
32772
32783
32788
32785
32784
32796
32813
32804
32801
32804
32816
32811
32816
32825
32834
32828
32834
32836
32840
32847
32848
32849
32849
32852
32860
32854
32860
32860
32860
32868
32869
32870
32872
32878
32872
32872
32872
32871
32876
32874
32875
32876
32876
32878
32882
32876
32884
32876
32878
32884
32877
32883
32876
32880
32881
32879
32876
32876
32881
32876
32880
32876
32871
32884
32876
32873
32880
32878
32877
32870
32876
32881
32880
32874
32866
32876
32874
32868
32870
32874
32876
32880
32876
32869
32876
32864
32868
32874
32872
32868
32856
32866
32876
32868
32864
32866
32866
32868
32868
32860
32868
32869
32877
32868
32876
32872
32868
32865
32876
32864
32864
32866
32872
32868
32868
32870
32866
32868
32868
32871
32877
32878
32868
32864
32870
32877
32876
32880
32866
32871
32881
32878
32869
32878
32879
32884
32879
32876
32876
32878
32876
32868
32877
32872
32876
32878
32874
32872
32872
32868
32869
32876
32860
32860
32864
32865
32860
32856
32849
32849
32855
32862
32838
32845
32840
32837
32844
32834
32830
32826
32823
32818
32816
32817
32804
32806
32801
32796
32784
32780
32780
32772
32774
32759
32761
32760
32751
32741
32732
32736
32728
32729
32712
32708
32698
32703
32694
32688
32678
32672
32660
32668
32660
32660
32648
32638
32639
32636
32623
32612
32606
32606
32600
32596
32589
32586
32580
32572
32568
32572
32561
32564
32547
32546
32546
32536
32522
32524
32526
32512
32513
32508
32492
32498
32500
32484
32482
32469
32476
32470
32462
32460
32452
32448
32450
32436
32436
32436
32420
32424
32414
32420
32414
32416
32405
32404
32402
32408
32392
32389
32390
32382
32384
32374
32385
32378
32367
32368
32362
32360
32362
32353
32346
32348
32343
32348
32350
32328
32331
32332
32319
32324
32324
32314
32311
32316
32300
32301
32292
32292
32294
32290
32296
32286
32286
32276
32290
32278
32283
32286
32296
32276
32276
32288
32293
32286
32285
32299
32288
32292
32293
32304
32301
32293
32300
32302
32300
32296
32293
32300
32288
32292
32292
32288
32272
32288
32268
32280
32263
32264
32255
32253
32240
32239
32228
32226
32228
32224
32215
32213
32213
32205
32201
32188
32194
32188
32177
32174
32180
32180
32174
32164
32164
32156
32145
32152
32152
32136
32140
32132
32121
32128
32112
32112
32100
32100
32096
32100
32088
32090
32082
32088
32082
32078
32092
32084
32081
32100
32088
32095
32108
32092
32117
32116
32128
32134
32148
32156
32166
32181
32182
32186
32202
32216
32217
32237
32244
32264
32266
32276
32284
32286
32296
32316
32312
32324
32332
32341
32350
32352
32364
32364
32374
32377
32384
32389
32396
32398
32400
32404
32412
32416
32412
32430
32428
32428
32438
32429
32439
32450
32444
32449
32448
32455
32466
32454
32465
32461
32468
32484
32482
32484
32484
32480
32484
32488
32484
32492
32492
32486
32492
32487
32487
32492
32493
32488
32480
32494
32484
32472
32478
32468
32472
32470
32464
32460
32458
32452
32452
32442
32451
32428
32429
32428
32420
32420
32412
32412
32398
32384
32386
32386
32372
32366
32364
32350
32348
32336
32338
32330
32328
32314
32302
32311
32292
32290
32276
32274
32268
32256
32250
32244
32231
32231
32217
32213
32204
32192
32196
32176
32180
32175
32161
32160
32148
32144
32127
32135
32124
32118
32124
32112
32100
32101
32093
32084
32081
32072
32066
32066
32058
32060
32053
32056
32038
32041
32037
32036
32036
32026
32020
32014
32012
32000
31997
32004
31992
31996
31989
31982
31982
31977
31980
31967
31965
31968
31960
31964
31956
31956
31956
31956
31948
31956
31953
31948
31950
31948
31940
31942
31940
31940
31940
31932
31940
31935
31932
31926
31928
31924
31928
31928
31918
31933
31917
31924
31932
31928
31916
31920
31916
31912
31916
31916
31912
31908
31912
31912
31900
31904
31908
31902
31896
31897
31893
31900
31888
31900
31900
31892
31880
31888
31878
31880
31866
31878
31878
31878
31876
31868
31864
31856
31856
31854
31852
31844
31847
31847
31836
31840
31828
31828
31828
31822
31822
31812
31813
31809
31798
31802
31800
31790
31784
31789
31784
31788
31776
31764
31770
31774
31760
31758
31767
31750
31758
31748
31745
31744
31740
31744
31740
31728
31727
31730
31720
31716
31724
31722
31710
31712
31709
31708
31701
31705
31688
31688
31686
31681
31670
31669
31668
31654
31652
31652
31654
31644
31643
31636
31633
31633
31632
31624
31624
31621
31612
31610
31614
31612
31600
31612
31604
31604
31612
31602
31604
31616
31600
31612
31608
31620
31608
31620
31624
31628
31628
31644
31642
31634
31634
31649
31648
31653
31652
31660
31662
31669
31673
31676
31680
31676
31676
31681
31694
31689
31694
31694
31700
31696
31705
31716
31706
31714
31714
31717
31713
31727
31724
31730
31729
31727
31734
31735
31735
31748
31746
31746
31744
31744
31760
31752
31759
31760
31766
31768
31767
31777
31776
31780
31784
31784
31793
31799
31790
31802
31810
31808
31816
31816
31816
31829
31830
31830
31844
31846
31854
31860
31868
31870
31872
31879
31879
31884
31892
31900
31894
31908
31904
31914
31926
31926
31928
31936
31936
31943
31956
31949
31960
31964
31969
31972
31972
31980
31984
31980
31986
31988
32002
32002
32004
32004
32016
32013
32024
32020
32022
32025
32028
32036
32037
32031
32037
32049
32042
32058
32056
32056
32060
32060
32072
32066
32064
32068
32077
32078
32078
32092
32084
32084
32088
32092
32088
32096
32091
32093
32096
32100
32106
32096
32100
32100
32100
32093
32100
32094
32100
32092
32094
32089
32092
32084
32092
32088
32084
32076
32084
32069
32070
32074
32067
32068
32060
32053
32052
32057
32045
32036
32021
32030
32034
32025
32017
32014
32000
31996
31988
31989
31972
31974
31972
31968
31960
31956
31936
31938
31936
31926
31925
31919
31908
31908
31900
31900
31892
31884
31868
31868
31864
31857
31850
31844
31844
31828
31832
31823
31812
31813
31792
31805
31796
31788
31772
31780
31768
31752
31748
31737
31736
31736
31732
31716
31710
31716
31704
31692
31693
31688
31673
31668
31668
31647
31648
31644
31633
31617
31622
31609
31602
31605
31588
31586
31572
31564
31556
31552
31540
31532
31524
31512
31510
31492
31484
31476
31464
31453
31446
31436
31428
31424
31410
31399
31390
31380
31359
31348
31346
31333
31328
31321
31302
31295
31287
31276
31258
31252
31237
31230
31230
31208
31196
31193
31172
31166
31160
31148
31135
31116
31114
31106
31093
31092
31072
31065
31044
31042
31032
31024
31014
31004
30992
30983
30964
30964
30949
30948
30936
30916
30912
30903
30884
30885
30878
30864
30846
30846
30832
30828
30824
30807
30808
30792
30790
30778
30765
30756
30749
30748
30736
30727
30718
30712
30701
30692
30690
30673
30666
30661
30655
30658
30636
30638
30632
30626
30616
30608
30612
30600
30598
30592
30574
30569
30566
30554
30556
30554
30536
30537
30540
30532
30520
30520
30516
30504
30496
30506
30490
30488
30481
30482
30472
30460
30464
30452
30452
30444
30441
30426
30426
30424
30422
30417
30409
30401
30404
30394
30392
30392
30380
30372
30368
30360
30356
30361
30343
30343
30339
30320
30326
30324
30309
30308
30308
30296
30292
30287
30284
30263
30276
30257
30260
30252
30244
30235
30228
30228
30220
30214
30204
30196
30197
30188
30182
30174
30168
30164
30150
30150
30144
30136
30116
30122
30118
30108
30104
30104
30088
30084
30076
30068
30063
30052
30052
30038
30031
30028
30024
30012
30012
30001
29994
29993
29985
29976
29965
29952
29954
29944
29940
29934
29924
29919
29914
29912
29904
29892
29892
29892
29880
29872
29874
29864
29861
29849
29840
29838
29832
29826
29824
29817
29812
29800
29796
29794
29794
29796
29780
29788
29766
29765
29768
29756
29764
29752
29752
29748
29730
29732
29734
29725
29729
29724
29716
29716
29703
29708
29690
29702
29694
29692
29692
29680
29668
29665
29672
29669
29652
29662
29652
29648
29636
29646
29629
29624
29620
29620
29612
29608
29604
29608
29593
29589
29580
29581
29580
29572
29564
29572
29564
29557
29562
29562
29552
29548
29551
29542
29543
29542
29552
29544
29548
29544
29548
29552
29553
29549
29552
29548
29562
29549
29544
29552
29550
29541
29540
29547
29540
29537
29540
29532
29524
29520
29518
29512
29518
29509
29504
29506
29504
29492
29488
29494
29492
29486
29486
29478
29482
29476
29480
29473
29469
29468
29474
29468
29466
29462
29472
29462
29464
29452
29462
29453
29440
29445
29442
29438
29436
29438
29430
29428
29428
29422
29422
29414
29412
29422
29415
29412
29416
29417
29418
29420
29420
29422
29434
29442
29440
29440
29448
29455
29465
29468
29468
29484
29480
29488
29495
29506
29508
29508
29516
29520
29532
29540
29538
29548
29548
29553
29560
29560
29564
29570
29573
29572
29573
29568
29573
29585
29585
29580
29590
29588
29588
29592
29586
29600
29594
29596
29601
29597
29608
29604
29608
29604
29600
29608
29608
29614
29608
29607
29612
29616
29620
29612
29616
29616
29616
29620
29616
29624
29620
29624
29607
29624
29620
29620
29620
29620
29610
29616
29620
29609
29607
29604
29610
29606
29602
29593
29596
29596
29593
29590
29588
29580
29576
29568
29565
29553
29562
29544
29548
29538
29542
29528
29525
29524
29517
29515
29508
29500
29504
29494
29495
29481
29484
29466
29466
29456
29457
29454
29452
29444
29448
29428
29421
29429
29415
29412
29404
29396
29394
29392
29392
29388
29380
29376
29380
29378
29366
29370
29372
29364
29362
29364
29356
29356
29356
29353
29348
29353
29356
29356
29345
29356
29350
29345
29348
29360
29357
29358
29352
29360
29364
29361
29365
29366
29370
29374
29370
29376
29372
29380
29378
29387
29384
29382
29393
29402
29396
29390
29412
29412
29413
29418
29420
29422
29426
29428
29428
29444
29442
29448
29444
29460
29461
29464
29465
29476
29484
29484
29486
29488
29498
29496
29492
29512
29510
29512
29524
29532
29536
29538
29540
29548
29546
29546
29550
29568
29562
29566
29570
29564
29576
29586
29582
29582
29584
29598
29596
29592
29601
29600
29608
29612
29612
29612
29616
29628
29622
29630
29629
29640
29636
29646
29642
29648
29664
29664
29664
29661
29666
29672
29681
29680
29692
29684
29696
29700
29702
29706
29712
29724
29720
29729
29736
29738
29748
29744
29752
29756
29759
29772
29769
29780
29787
29791
29793
29796
29796
29812
29818
29825
29828
29836
29852
29852
29854
29866
29868
29884
29888
29892
29904
29918
29905
29921
29924
29929
29932
29942
29944
29950
29948
29960
29964
29968
29968
29968
29969
29980
29976
29978
29972
29984
29984
29984
29988
29984
29984
29982
29986
29989
29986
29989
29988
29988
29989
29993
29992
29992
29994
30004
29996
30004
30004
30016
30010
30009
30012
30018
30008
30028
30029
30038
30026
30032
30045
30048
30049
30048
30053
30060
30060
30069
30076
30072
30080
30076
30082
30097
30092
30100
30101
30113
30108
30116
30117
30116
30136
30127
30132
30140
30129
30138
30145
30150
30152
30159
30164
30164
30169
30173
30181
30182
30180
30192
30200
30194
30201
30202
30216
30215
30218
30224
30230
30241
30241
30236
30242
30248
30248
30244
30252
30262
30261
30262
30271
30276
30280
30280
30284
30288
30293
30292
30292
30308
30304
30308
30313
30322
30326
30316
30321
30325
30336
30345
30336
30341
30345
30348
30352
30353
30357
30356
30364
30362
30364
30368
30376
30372
30380
30377
30378
30388
30391
30388
30380
30397
30394
30392
30395
30396
30401
30394
30402
30399
30410
30404
30412
30412
30410
30412
30416
30412
30421
30420
30422
30432
30428
30434
30428
30436
30432
30439
30444
30444
30442
30449
30449
30437
30437
30452
30452
30448
30444
30441
30452
30444
30444
30445
30442
30444
30444
30437
30442
30445
30436
30432
30428
30418
30422
30424
30420
30420
30412
30412
30406
30414
30402
30400
30398
30396
30388
30389
30396
30388
30384
30380
30376
30374
30377
30373
30365
30367
30362
30359
30358
30348
30349
30344
30344
30348
30345
30340
30340
30332
30340
30332
30336
30329
30324
30320
30325
30329
30317
30325
30330
30329
30316
30312
30325
30321
30320
30318
30321
30320
30328
30322
30322
30320
30333
30326
30316
30324
30329
30324
30332
30330
30332
30340
30332
30334
30338
30345
30336
30340
30344
30338
30342
30336
30341
30349
30342
30343
30345
30336
30344
30351
30348
30341
30336
30356
30353
30346
30348
30352
30344
30340
30342
30350
30352
30340
30346
30350
30346
30338
30346
30338
30349
30344
30344
30352
30348
30344
30351
30340
30345
30342
30346
30340
30344
30346
30344
30348
30344
30342
30344
30344
30338
30346
30344
30348
30344
30351
30348
30344
30345
30348
30353
30356
30344
30359
30352
30358
30349
30348
30352
30360
30350
30364
30360
30366
30358
30358
30360
30364
30356
30368
30366
30356
30368
30370
30372
30372
30376
30375
30384
30375
30381
30384
30388
30393
30392
30383
30390
30397
30392
30404
30394
30404
30404
30400
30398
30404
30404
30408
30412
30408
30413
30420
30416
30420
30417
30414
30422
30432
30426
30429
30424
30418
30417
30428
30415
30424
30421
30424
30420
30420
30420
30420
30413
30424
30424
30412
30415
30419
30412
30416
30416
30416
30412
30410
30409
30420
30406
30405
30412
30409
30401
30406
30410
30402
30404
30400
30392
30405
30392
30389
30397
30388
30384
30394
30388
30380
30382
30381
30380
30380
30372
30375
30376
30361
30370
30372
30364
30368
30364
30357
30360
30360
30357
30348
30358
30349
30340
30344
30342
30345
30338
30337
30337
30336
30329
30332
30332
30324
30322
30325
30325
30310
30324
30316
30317
30312
30314
30310
30308
30308
30310
30308
30308
30305
30306
30306
30296
30304
30294
30298
30294
30296
30293
30296
30296
30293
30286
30287
30295
30293
30284
30288
30290
30282
30272
30276
30283
30280
30272
30276
30271
30280
30272
30272
30278
30272
30264
30268
30273
30266
30269
30268
30260
30262
30277
30266
30269
30264
30270
30264
30260
30266
30261
30257
30270
30260
30268
30266
30264
30264
30266
30262
30260
30267
30268
30270
30276
30270
30276
30260
30268
30272
30268
30276
30277
30268
30277
30280
30272
30276
30276
30276
30280
30279
30275
30280
30286
30285
30285
30288
30284
30280
30284
30288
30284
30284
30292
30282
30281
30290
30292
30284
30284
30297
30288
30292
30288
30292
30296
30306
30300
30296
30302
30310
30300
30305
30304
30308
30310
30308
30320
30324
30310
30318
30316
30326
30324
30332
30324
30328
30329
30326
30328
30332
30328
30332
30336
30332
30340
30340
30342
30336
30340
30342
30340
30340
30340
30336
30348
30341
30340
30338
30337
30337
30340
30342
30337
30332
30340
30334
30333
30332
30334
30320
30328
30332
30327
30324
30328
30325
30316
30325
30328
30324
30316
30306
30324
30324
30316
30313
30319
30316
30317
30318
30324
30324
30320
30318
30320
30326
30326
30330
30332
30336
30337
30342
30344
30345
30350
30356
30352
30368
30368
30370
30372
30376
30369
30368
30372
30376
30377
30374
30380
30375
30376
30382
30372
30388
30376
30386
30398
30389
30390
30387
30384
30392
30396
30400
30392
30400
30396
30405
30400
30400
30402
30412
30420
30412
30410
30412
30408
30403
30412
30412
30406
30408
30404
30396
30404
30404
30399
30396
30396
30396
30388
30388
30393
30389
30380
30383
30377
30388
30382
30382
30384
30394
30392
30393
30400
30404
30401
30407
30420
30428
30436
30449
30448
30456
30470
30472
30478
30492
30496
30512
30500
30518
30532
30540
30535
30557
30558
30560
30568
30583
30596
30592
30596
30606
30618
30623
30625
30632
30644
30652
30654
30662
30667
30677
30686
30697
30696
30704
30716
30716
30721
30734
30736
30746
30748
30754
30764
30768
30780
30784
30788
30786
30796
30813
30814
30808
30817
30817
30820
30833
30832
30828
30832
30840
30836
30828
30831
30841
30844
30828
30830
30828
30832
30823
30820
30820
30812
30820
30808
30804
30794
30795
30784
30781
30783
30770
30762
30758
30758
30744
30740
30727
30728
30716
30709
30704
30700
30687
30692
30678
30668
30662
30650
30648
30640
30636
30628
30620
30618
30605
30598
30600
30584
30580
30572
30562
30556
30560
30548
30540
30544
30533
30526
30517
30509
30513
30502
30496
30494
30492
30480
30471
30464
30464
30458
30462
30448
30440
30437
30428
30429
30417
30426
30420
30412
30413
30408
30401
30398
30393
30392
30388
30385
30385
30378
30382
30374
30372
30372
30370
30368
30375
30359
30366
30360
30356
30362
30358
30352
30348
30359
30356
30355
30356
30348
30352
30351
30346
30352
30356
30349
30348
30354
30359
30353
30348
30359
30352
30364
30362
30353
30358
30364
30372
30360
30358
30372
30366
30370
30367
30372
30377
30372
30376
30373
30375
30376
30378
30386
30384
30384
30391
30390
30396
30386
30388
30394
30392
30392
30396
30392
30393
30393
30396
30396
30397
30384
30396
30396
30392
30400
30396
30390
30396
30400
30392
30392
30394
30394
30394
30388
30389
30392
30388
30388
30382
30382
30380
30374
30385
30384
30373
30376
30370
30362
30365
30372
30352
30356
30356
30356
30350
30349
30338
30352
30342
30328
30334
30328
30324
30328
30328
30320
30326
30313
30316
30318
30308
30312
30312
30314
30304
30308
30305
30308
30306
30304
30304
30303
30296
30302
30300
30296
30288
30281
30294
30280
30288
30276
30273
30272
30265
30276
30265
30273
30272
30270
30258
30266
30263
30256
30256
30268
30254
30245
30256
30251
30252
30268
30256
30260
30260
30266
30262
30260
30263
30266
30265
30272
30270
30272
30280
30276
30278
30281
30292
30284
30292
30298
30296
30300
30310
30304
30304
30308
30320
30314
30324
30326
30324
30312
30332
30332
30328
30324
30336
30335
30336
30338
30344
30340
30344
30340
30346
30344
30344
30344
30348
30342
30352
30344
30348
30351
30353
30350
30357
30349
30344
30348
30349
30361
30352
30356
30357
30352
30356
30351
30352
30356
30348
30353
30352
30356
30352
30348
30359
30354
30352
30349
30358
30364
30360
30356
30362
30353
30368
30364
30368
30365
30360
30376
30372
30368
30372
30376
30372
30371
30377
30378
30380
30388
30385
30382
30381
30388
30389
30388
30396
30392
30396
30400
30386
30392
30396
30401
30390
30404
30402
30390
30404
30408
30401
30405
30404
30398
30397
30400
30398
30406
30393
30404
30409
30401
30400
30404
30400
30404
30404
30412
30404
30400
30404
30412
30408
30407
30410
30414
30404
30412
30416
30410
30415
30416
30413
30400
30420
30423
30420
30417
30416
30416
30418
30421
30424
30412
30414
30420
30414
30412
30418
30414
30417
30422
30412
30422
30418
30410
30408
30413
30420
30412
30404
30404
30414
30404
30406
30408
30396
30392
30392
30396
30393
30385
30380
30376
30385
30370
30380
30380
30364
30364
30369
30368
30360
30354
30358
30349
30352
30340
30348
30350
30334
30341
30340
30341
30332
30328
30327
30324
30320
30328
30325
30316
30324
30320
30320
30306
30312
30316
30308
30305
30312
30304
30304
30297
30305
30304
30296
30297
30298
30294
30295
30298
30300
30292
30296
30294
30284
30278
30284
30289
30289
30288
30292
30286
30280
30284
30286
30294
30282
30290
30284
30284
30284
30288
30289
30288
30286
30286
30280
30286
30290
30288
30292
30287
30290
30298
30294
30287
30288
30289
30290
30286
30292
30296
30289
30295
30284
30292
30292
30296
30292
30289
30296
30296
30292
30292
30292
30296
30296
30294
30295
30294
30296
30303
30288
30292
30300
30298
30296
30288
30296
30301
30289
30292
30300
30297
30284
30296
30300
30296
30296
30293
30299
30296
30292
30298
30294
30292
30292
30296
30292
30286
30299
30296
30300
30302
30297
30296
30300
30287
30293
30304
30304
30292
30293
30308
30292
30300
30300
30302
30296
30293
30302
30303
30294
30304
30300
30300
30300
30304
30297
30305
30298
30306
30301
30304
30305
30298
30308
30302
30306
30316
30304
30308
30308
30308
30317
30312
30313
30314
30311
30306
30308
30309
30310
30312
30312
30309
30308
30314
30311
30311
30312
30309
30316
30311
30312
30308
30316
30308
30309
30300
30309
30312
30304
30305
30319
30300
30302
30304
30297
30304
30308
30302
30296
30306
30294
30296
30287
30292
30290
30284
30277
30292
30284
30280
30280
30287
30288
30279
30269
30276
30270
30270
30276
30260
30272
30260
30258
30260
30254
30249
30250
30260
30244
30248
30242
30245
30238
30224
30238
30236
30228
30228
30228
30236
30224
30223
30222
30208
30214
30220
30221
30208
30208
30208
30209
30200
30196
30196
30208
30204
30200
30193
30201
30200
30192
30189
30188
30201
30190
30196
30186
30190
30182
30190
30196
30192
30182
30191
30189
30188
30180
30188
30190
30188
30185
30176
30180
30196
30181
30180
30184
30180
30185
30181
30188
30180
30194
30184
30180
30184
30188
30180
30176
30188
30182
30178
30174
30184
30182
30172
30173
30174
30176
30176
30176
30168
30165
30172
30168
30164
30160
30170
30162
30160
30168
30156
30156
30156
30156
30149
30158
30149
30154
30146
30142
30147
30129
30149
30140
30134
30141
30130
30124
30124
30124
30116
30122
30120
30113
30114
30116
30113
30100
30106
30104
30100
30090
30087
30098
30089
30088
30088
30080
30083
30080
30084
30065
30072
30070
30072
30076
30072
30060
30064
30052
30061
30052
30060
30052
30057
30050
30052
30048
30062
30045
30048
30048
30049
30047
30049
30060
30056
30053
30054
30057
30050
30056
30060
30058
30056
30062
30061
30060
30065
30068
30068
30064
30068
30070
30073
30072
30077
30092
30081
30088
30090
30088
30089
30088
30096
30097
30105
30100
30098
30104
30102
30109
30105
30108
30104
30110
30112
30108
30112
30113
30114
30116
30108
30112
30122
30107
30112
30116
30124
30118
30113
30114
30112
30108
30108
30112
30108
30106
30096
30100
30100
30092
30088
30088
30090
30088
30084
30076
30076
30074
30075
30072
30062
30066
30068
30076
30060
30052
30052
30052
30054
30044
30052
30048
30052
30032
30038
30042
30036
30036
30038
30035
30040
30040
30042
30046
30041
30044
30050
30049
30050
30048
30048
30049
30057
30052
30046
30048
30048
30052
30046
30044
30044
30045
30044
30038
30037
30038
30034
30036
30020
30036
30031
30028
30028
30024
30033
30028
30026
30020
30024
30022
30017
30020
30027
30028
30020
30026
30026
30021
30023
30020
30022
30028
30028
30017
30018
30020
30022
30020
30014
30014
30010
30016
30008
30012
30008
30010
30005
30012
30008
30008
30012
30022
30017
30028
30028
30040
30042
30053
30056
30066
30064
30084
30089
30096
30110
30120
30122
30138
30138
30154
30153
30170
30174
30178
30186
30192
30196
30204
30206
30213
30228
30221
30223
30232
30240
30244
30240
30253
30252
30244
30248
30255
30258
30260
30260
30260
30262
30264
30264
30264
30276
30272
30268
30276
30268
30274
30274
30273
30279
30276
30276
30278
30280
30278
30284
30279
30281
30288
30285
30277
30286
30280
30284
30288
30280
30272
30280
30277
30272
30277
30269
30272
30258
30268
30256
30258
30253
30248
30246
30232
30233
30229
30224
30221
30220
30209
30198
30200
30202
30192
30180
30182
30172
30172
30170
30157
30157
30152
30148
30140
30134
30136
30124
30116
30119
30113
30114
30104
30100
30088
30092
30088
30076
30076
30076
30073
30073
30073
30062
30062
30055
30057
30052
30050
30052
30048
30042
30036
30044
30036
30033
30036
30028
30033
30026
30030
30025
30020
30026
30036
30024
30028
30032
30032
30029
30032
30031
30034
30036
30029
30036
30035
30044
30033
30042
30048
30044
30041
30048
30049
30048
30056
30062
30064
30066
30066
30076
30081
30078
30080
30086
30080
30094
30095
30100
30102
30108
30110
30116
30118
30120
30129
30125
30132
30138
30151
30152
30151
30148
30161
30164
30176
30176
30180
30186
30200
30190
30202
30208
30212
30213
30224
30222
30238
30240
30242
30244
30252
30252
30257
30260
30266
30276
30276
30272
30284
30292
30292
30297
30292
30300
30302
30304
30308
30312
30306
30320
30321
30324
30328
30325
30328
30328
30328
30332
30328
30340
30336
30335
30334
30336
30341
30336
30333
30335
30330
30334
30332
30335
30328
30328
30328
30329
30328
30328
30328
30324
30324
30319
30318
30310
30324
30309
30311
30312
30300
30308
30300
30308
30306
30293
30292
30298
30284
30294
30285
30284
30289
30285
30280
30280
30288
30280
30284
30288
30282
30280
30294
30284
30287
30280
30277
30284
30274
30277
30274
30271
30276
30261
30264
30260
30264
30266
30252
30244
30248
30248
30242
30237
30228
30224
30216
30222
30224
30216
30209
30206
30204
30204
30200
30200
30198
30202
30188
30193
30198
30188
30192
30189
30196
30188
30192
30192
30199
30192
30198
30193
30200
30201
30204
30202
30208
30212
30206
30216
30212
30212
30225
30222
30222
30228
30225
30230
30236
30238
30236
30244
30233
30244
30244
30249
30244
30252
30252
30256
30252
30252
30264
30252
30252
30264
30268
30266
30261
30272
30268
30268
30271
30270
30280
30276
30281
30276
30292
30294
30284
30276
30296
30292
30294
30293
30300
30301
30294
30308
30308
30304
30308
30308
30318
30313
30312
30316
30317
30324
30324
30318
30324
30332
30328
30328
30340
30341
30342
30343
30344
30340
30346
30340
30362
30352
30359
30352
30362
30361
30364
30356
30364
30360
30360
30370
30366
30359
30364
30370
30372
30372
30368
30361
30361
30374
30365
30368
30368
30364
30372
30368
30368
30364
30364
30365
30364
30356
30361
30365
30364
30359
30364
30361
30358
30364
30348
30364
30353
30350
30359
30352
30356
30354
30352
30344
30348
30356
30347
30342
30348
30344
30351
30350
30344
30346
30349
30336
30344
30332
30344
30340
30340
30340
30334
30332
30340
30334
30340
30325
30334
30337
30337
30326
30338
30336
30332
30333
30328
30330
30328
30320
30330
30332
30328
30328
30316
30316
30328
30325
30317
30316
30319
30326
30318
30309
30312
30316
30306
30312
30308
30303
30296
30296
30295
30308
30289
30290
30292
30284
30288
30280
30276
30280
30272
30264
30263
30264
30256
30257
30260
30244
30242
30246
30248
30234
30233
30231
30236
30222
30229
30220
30215
30216
30216
30212
30208
30206
30201
30200
30201
30196
30185
30196
30188
30188
30182
30188
30181
30182
30177
30182
30176
30178
30182
30170
30176
30161
30168
30170
30164
30164
30164
30168
30159
30162
30158
30160
30152
30156
30160
30156
30140
30152
30152
30150
30152
30152
30154
30141
30144
30143
30140
30142
30137
30130
30136
30133
30124
30132
30132
30124
30120
30124
30113
30124
30116
30109
30108
30116
30106
30105
30105
30112
30096
30100
30100
30092
30089
30090
30089
30088
30089
30089
30090
30076
30073
30076
30068
30069
30068
30070
30064
30068
30052
30064
30060
30053
30056
30052
30053
30044
30044
30033
30040
30040
30050
30032
30031
30032
30032
30033
30026
30021
30022
30012
30018
30018
30018
30016
30016
30016
30004
29998
30009
30016
30000
29999
29994
30008
29998
29996
29996
29996
29990
29996
29988
29982
29992
29982
29978
29978
29984
29991
29984
29983
29984
29978
29988
29981
29981
29984
29988
29989
29982
29986
29982
29984
29980
29975
29980
29988
29991
29984
29985
29984
29988
29978
29986
29984
29988
29988
29988
29990
29989
29994
29985
29991
29989
29996
29992
29996
29992
29992
29988
29991
30004
29991
29994
29988
29990
29996
29997
29992
29996
29996
29992
29996
30001
29998
29997
29998
29996
29996
30004
30002
30004
30001
30004
29994
30004
30008
30006
30000
30000
29996
30004
30008
30012
30012
30008
30011
30010
30010
30008
30000
30012
30020
30012
30010
30010
30017
30009
30014
30020
30016
30012
30014
30015
30022
30021
30014
30016
30016
30016
30012
30016
30014
30008
30020
30028
30018
30012
30024
30016
30017
30016
30018
30020
30024
30024
30016
30028
30022
30026
30020
30024
30026
30032
30028
30028
30032
30033
30034
30034
30042
30033
30036
30036
30042
30048
30040
30046
30044
30043
30049
30053
30052
30052
30058
30068
30070
30058
30064
30060
30057
30064
30064
30074
30072
30072
30073
30064
30078
30084
30084
30084
30084
30081
30085
30086
30088
30088
30090
30089
30086
30098
30092
30095
30096
30108
30104
30104
30100
30101
30100
30104
30102
30105
30106
30106
30116
30110
30104
30108
30114
30114
30108
30116
30116
30118
30115
30116
30120
30125
30120
30122
30124
30117
30124
30122
30116
30116
30120
30124
30120
30116
30115
30116
30125
30124
30112
30122
30124
30116
30110
30118
30112
30116
30114
30117
30118
30112
30126
30120
30108
30113
30116
30116
30116
30111
30120
30114
30116
30116
30122
30108
30111
30116
30114
30120
30125
30115
30116
30117
30116
30116
30112
30116
30116
30116
30116
30122
30122
30125
30132
30120
30124
30124
30128
30136
30132
30136
30142
30133
30136
30138
30144
30148
30141
30144
30148
30156
30152
30152
30151
30164
30148
30148
30156
30156
30158
30162
30168
30168
30167
30176
30174
30164
30168
30180
30180
30176
30174
30172
30174
30180
30172
30178
30176
30173
30172
30186
30177
30176
30176
30177
30171
30170
30177
30172
30172
30168
30171
30165
30164
30160
30153
30160
30157
30156
30150
30152
30154
30148
30148
30152
30144
30154
30150
30152
30148
30148
30150
30156
30157
30156
30160
30160
30166
30176
30173
30184
30177
30183
30188
30180
30190
30189
30186
30198
30196
30193
30196
30193
30192
30180
30194
30192
30185
30183
30188
30180
30180
30180
30181
30180
30176
30168
30173
30168
30168
30170
30172
30160
30169
30172
30164
30170
30172
30169
30168
30164
30165
30168
30172
30176
30168
30176
30165
30172
30172
30164
30167
30156
30160
30160
30156
30154
30150
30152
30152
30148
30156
30152
30152
30148
30146
30161
30148
30158
30164
30166
30170
30178
30177
30184
30199
30208
30212
30214
30222
30236
30244
30248
30256
30272
30276
30284
30290
30293
30306
30308
30321
30324
30332
30340
30340
30337
30348
30348
30353
30356
30368
30366
30369
30372
30376
30381
30375
30385
30380
30392
30396
30398
30396
30401
30397
30405
30414
30408
30412
30416
30420
30420
30424
30424
30436
30434
30428
30430
30432
30432
30440
30438
30432
30444
30444
30440
30444
30442
30438
30440
30444
30440
30436
30436
30436
30436
30424
30432
30420
30412
30424
30420
30408
30400
30401
30394
30388
30388
30372
30376
30370
30360
30356
30348
30346
30340
30334
30317
30316
30316
30308
30300
30294
30287
30280
30276
30276
30260
30257
30261
30247
30244
30237
30232
30234
30220
30222
30214
30216
30205
30212
30194
30197
30192
30200
30192
30184
30188
30180
30174
30172
30172
30173
30173
30168
30167
30168
30162
30178
30168
30168
30174
30176
30169
30168
30172
30172
30168
30176
30180
30176
30172
30181
30189
30180
30184
30190
30192
30193
30194
30201
30204
30201
30204
30210
30214
30222
30214
30222
30225
30230
30242
30232
30238
30244
30248
30254
30252
30262
30256
30256
30266
30276
30270
30280
30280
30284
30292
30297
30300
30300
30304
30312
30320
30320
30320
30316
30324
30336
30336
30340
30344
30345
30342
30340
30350
30356
30359
30360
30367
30368
30372
30376
30373
30378
30376
30384
30379
30384
30386
30396
30395
30399
30398
30402
30392
30401
30404
30404
30407
30400
30404
30414
30410
30412
30412
30418
30412
30422
30418
30424
30416
30424
30424
30421
30430
30420
30420
30422
30426
30430
30428
30432
30428
30430
30432
30432
30432
30429
30432
30426
30430
30432
30418
30424
30432
30414
30424
30426
30422
30417
30424
30424
30424
30421
30416
30418
30420
30416
30422
30424
30420
30430
30428
30424
30436
30434
30447
30444
30445
30445
30444
30453
30456
30448
30460
30452
30466
30468
30465
30468
30469
30473
30472
30468
30474
30468
30472
30472
30480
30478
30477
30488
30468
30484
30480
30472
30480
30479
30473
30484
30482
30476
30484
30484
30482
30476
30484
30494
30500
30492
30497
30496
30492
30496
30496
30511
30497
30512
30512
30508
30513
30518
30509
30520
30524
30520
30532
30529
30530
30534
30530
30532
30538
30540
30544
30542
30544
30536
30552
30554
30545
30540
30550
30550
30552
30552
30550
30546
30556
30550
30552
30550
30553
30550
30556
30558
30542
30549
30556
30540
30550
30548
30548
30546
30553
30548
30548
30548
30548
30544
30544
30544
30538
30532
30548
30548
30537
30550
30544
30544
30544
30540
30542
30552
30536
30548
30546
30548
30544
30546
30548
30544
30540
30548
30534
30544
30544
30544
30537
30541
30540
30537
30548
30540
30532
30540
30540
30534
30533
30528
30520
30530
30532
30524
30518
30516
30510
30514
30508
30505
30506
30508
30496
30504
30492
30494
30488
30488
30478
30476
30484
30472
30473
30460
30466
30456
30460
30462
30454
30448
30448
30445
30441
30444
30440
30432
30440
30440
30428
30428
30433
30426
30428
30428
30428
30432
30421
30421
30428
30420
30420
30424
30418
30424
30420
30417
30424
30424
30429
30422
30421
30422
30425
30424
30416
30418
30423
30416
30420
30418
30422
30421
30420
30414
30426
30420
30417
30420
30420
30420
30422
30428
30418
30424
30422
30414
30428
30418
30424
30422
30421
30422
30430
30423
30423
30421
30416
30424
30420
30424
30421
30420
30428
30420
30421
30417
30410
30424
30416
30421
30420
30418
30412
30420
30416
30412
30414
30414
30414
30408
30412
30412
30412
30417
30414
30410
30410
30402
30409
30404
30408
30404
30396
30406
30408
30400
30404
30400
30396
30400
30404
30392
30390
30393
30400
30396
30404
30388
30388
30392
30388
30386
30392
30382
30373
30388
30378
30372
30373
30372
30360
30368
30368
30360
30367
30357
30356
30360
30356
30353
30344
30346
30340
30338
30336
30336
30337
30334
30324
30330
30316
30324
30321
30314
30313
30311
30308
30302
30305
30308
30300
30301
30304
30300
30292
30292
30292
30281
30289
30278
30276
30288
30279
30276
30277
30272
30272
30271
30266
30268
30272
30266
30262
30263
30265
30263
30268
30254
30262
30254
30252
30258
30247
30254
30253
30252
30240
30257
30252
30238
30252
30256
30246
30250
30244
30244
30244
30244
30240
30246
30239
30244
30250
30248
30240
30240
30244
30238
30240
30238
30238
30236
30242
30244
30240
30234
30240
30244
30233
30228
30232
30242
30228
30236
30233
30229
30228
30224
30230
30228
30222
30220
30230
30222
30216
30218
30216
30213
30204
30208
30214
30212
30196
30197
30209
30198
30197
30192
30184
30182
30176
30178
30182
30180
30172
30160
30167
30162
30149
30152
30156
30144
30136
30137
30144
30132
30125
30127
30128
30124
30122
30120
30116
30108
30106
30108
30092
30096
30086
30078
30082
30077
30076
30068
30068
30060
30064
30050
30054
30050
30047
30040
30040
30036
30038
30026
30024
30016
30020
30020
30012
30008
30000
29998
29996
29989
29992
29980
29974
29969
29970
29970
29956
29956
29954
29950
29945
29944
29936
29936
29932
29932
29922
29917
29920
29912
29908
29912
29908
29906
29896
29896
29892
29886
29892
29892
29888
29880
29890
29880
29878
29876
29880
29876
29868
29871
29876
29865
29866
29866
29866
29864
29868
29864
29869
29868
29870
29869
29866
29860
29868
29864
29864
29862
29863
29862
29866
29872
29862
29860
29860
29872
29868
29858
29864
29872
29864
29876
29868
29863
29866
29864
29868
29869
29867
29867
29872
29868
29865
29868
29868
29860
29870
29870
29858
29864
29868
29860
29871
29860
29860
29861
29858
29856
29861
29856
29860
29852
29854
29856
29856
29856
29852
29852
29852
29845
29852
29848
29848
29839
29844
29842
29836
29836
29829
29833
29832
29828
29825
29828
29820
29816
29816
29824
29808
29808
29812
29812
29804
29809
29806
29796
29804
29793
29798
29796
29796
29794
29789
29792
29784
29792
29788
29786
29784
29788
29784
29780
29788
29785
29772
29781
29782
29782
29776
29784
29777
29776
29778
29776
29788
29788
29784
29781
29784
29790
29781
29796
29796
29790
29798
29796
29796
29800
29800
29800
29799
29807
29804
29808
29816
29809
29810
29822
29822
29824
29824
29832
29828
29832
29836
29844
29844
29841
29846
29847
29857
29854
29861
29858
29849
29862
29870
29868
29872
29870
29866
29865
29877
29870
29876
29874
29889
29881
29882
29881
29884
29884
29881
29890
29892
29884
29888
29886
29886
29880
29892
29878
29892
29881
29880
29889
29895
29884
29886
29886
29886
29889
29898
29895
29898
29900
29909
29905
29910
29905
29914
29927
29916
29919
29921
29936
29927
29934
29940
29930
29926
29938
29933
29940
29928
29938
29932
29930
29940
29928
