RESPIRATION
22850
22857
22870
22885
22896
22908
22918
22948
22972
22986
23001
23005
23024
23040
23060
23080
23104
23120
23136
23160
23176
23188
23204
23212
23233
23248
23262
23280
23292
23306
23332
23340
23358
23366
23392
23412
23424
23439
23449
23464
23472
23492
23516
23521
23540
23549
23568
23578
23593
23598
23610
23620
23624
23647
23664
23677
23685
23700
23708
23713
23728
23749
23770
23780
23788
23801
23807
23812
23836
23845
23865
23876
23886
23892
23910
23909
23928
23934
23949
23964
23986
23994
24010
24020
24036
24056
24054
24068
24076
24084
24104
24120
24134
24146
24156
24161
24165
24174
24199
24216
24236
24242
24261
24265
24281
24292
24300
24312
24318
24325
24337
24349
24356
24372
24380
24390
24410
24416
24434
24440
24442
24445
24460
24464
24478
24492
24492
24512
24519
24520
24532
24544
24560
24574
24580
24588
24592
24601
24612
24620
24626
24650
24662
24672
24684
24692
24689
24708
24716
24741
24752
24768
24776
24788
24791
24794
24810
24824
24848
24864
24884
24894
24909
24922
24932
24960
24960
24984
24990
25007
25020
25034
25048
25067
25078
25100
25124
25148
25164
25169
25196
25212
25236
25246
25270
25282
25302
25318
25333
25349
25362
25376
25392
25411
25432
25460
25476
25487
25512
25527
25540
25552
25566
25588
25596
25608
25629
25646
25650
25669
25684
25702
25721
25734
25752
25764
25784
25797
25816
25828
25844
25852
25864
25872
25880
25900
25894
25909
25929
25938
25950
25958
25964
25976
25990
26005
26016
26032
26045
26072
26062
26081
26087
26088
26112
26121
26142
26145
26164
26170
26164
26174
26182
26190
26204
26216
26230
26241
26242
26244
26256
26273
26280
26286
26306
26308
26324
26330
26340
26345
26360
26372
26388
26397
26412
26420
26430
26436
26450
26466
26485
26499
26516
26524
26538
26542
26552
26576
26593
26615
26620
26628
26648
26668
26680
26700
26710
26732
26741
26756
26774
26784
26798
26810
26824
26828
26854
26861
26876
26896
26915
26928
26946
26956
26972
26982
26996
27000
27010
27020
27036
27038
27052
27060
27072
27086
27093
27100
27101
27109
27118
27110
27128
27140
27140
27141
27137
27156
27164
27180
27177
27170
27173
27178
27185
27198
27198
27204
27196
27198
27198
27208
27222
27215
27217
27205
27208
27201
27204
27200
27204
27196
27200
27192
27192
27192
27172
27154
27151
27142
27141
27136
27128
27112
27096
27080
27072
27061
27056
27046
27020
27009
26994
26983
26978
26954
26936
26910
26890
26882
26872
26850
26840
26815
26791
26762
26740
26722
26706
26684
26662
26640
26600
26583
26550
26533
26504
26484
26452
26420
26402
26384
26350
26322
26280
26255
26224
26194
26162
26140
26112
26066
26036
25998
25967
25934
25892
25852
25818
25792
25756
25714
25670
25630
25586
25550
25504
25468
25432
25396
25352
25313
25262
25218
25188
25138
25085
25038
24988
24946
24900
24854
24812
24768
24717
24676
24622
24573
24524
24475
24432
24392
24348
24298
24258
24206
24170
24120
24068
24014
23972
23934
23895
23857
23817
23776
23730
23690
23632
23601
23568
23521
23492
23444
23416
23372
23336
23295
23261
23234
23184
23148
23108
23072
23038
22996
22970
22940
22908
22868
22831
22791
22756
22724
22692
22664
22637
22612
22580
22545
22504
22474
22449
22416
22390
22366
22336
22296
22272
22233
22216
22199
22159
22142
22102
22072
22052
22028
21998
21968
21940
21912
21884
21860
21844
21822
21786
21762
21730
21708
21692
21670
21648
21628
21596
21564
21548
21537
21512
21492
21457
21438
21412
21396
21380
21364
21345
21319
21304
21272
21252
21236
21219
21217
21196
21174
21150
21132
21121
21103
21088
21070
21068
21041
21017
21006
20978
20974
20961
20948
20943
20917
20900
20888
20872
20847
20836
20829
20804
20794
20784
20773
20754
20747
20737
20721
20701
20697
20672
20652
20644
20626
20616
20608
20590
20572
20568
20540
20526
20508
20489
20478
20460
20440
20445
20420
20400
20379
20364
20358
20340
20326
20311
20293
20274
20252
20236
20212
20200
20190
20172
20156
20136
20122
20106
20082
20060
20036
20027
20004
19982
19972
19953
19932
19904
19878
19858
19850
19828
19804
19778
19760
19746
19726
19705
19676
19652
19634
19620
19596
19568
19550
19527
19510
19497
19484
19452
19423
19404
19395
19376
19360
19340
19316
19300
19288
19270
19262
19238
19220
19200
19186
19180
19162
19152
19129
19112
19102
19080
19084
19066
19044
19036
19017
19010
19008
18980
18972
18964
18956
18948
18917
18916
18894
18880
18865
18856
18848
18828
18816
18796
18770
18757
18749
18733
18720
18707
18688
18666
18646
18630
18620
18598
18589
18580
18558
18539
18521
18512
18494
18476
18454
18442
18428
18425
18408
18394
18366
18360
18340
18329
18317
18302
18276
18270
18251
18240
18240
18216
18201
18184
18170
18158
18153
18130
18116
18106
18100
18084
18067
18052
18049
18032
18024
18002
17993
17981
17974
17969
17952
17936
17930
17916
17910
17894
17892
17869
17860
17850
17836
17826
17817
17808
17797
17785
17774
17760
17740
17724
17714
17708
17692
17672
17662
17650
17642
17628
17606
17593
17572
17569
17562
17540
17522
17505
17505
17489
17474
17456
17436
17421
17412
17400
17384
17370
17354
17334
17320
17316
17309
17284
17274
17254
17240
17230
17220
17216
17198
17188
17164
17159
17137
17137
17132
17116
17104
17092
17086
17080
17060
17054
17046
17030
17028
17021
17013
17000
16996
16983
16964
16964
16966
16960
16945
16932
16926
16924
16918
16900
16900
16897
16898
16878
16870
16860
16861
16857
16840
16835
16834
16821
16813
16804
16788
16784
16784
16776
16766
16754
16747
16736
16716
16720
16711
16698
16694
16675
16670
16656
16640
16633
16620
16622
16610
16600
16586
16578
16568
16554
16536
16525
16516
16513
16502
16486
16464
16466
16456
16448
16428
16411
16400
16400
16389
16370
16360
16354
16343
16332
16312
16305
16298
16284
16280
16256
16244
16234
16233
16222
16204
16194
16184
16173
16168
16161
16149
16136
16120
16106
16102
16101
16080
16084
16074
16062
16058
16050
16033
16036
16018
16016
16017
16012
16005
15990
15968
15969
15960
15957
15952
15942
15940
15926
15910
15900
15892
15893
15888
15878
15856
15848
15842
15840
15829
15824
15804
15792
15780
15780
15776
15758
15750
15744
15728
15720
15706
15696
15694
15680
15665
15653
15638
15637
15618
15612
15598
15586
15581
15564
15557
15546
15544
15530
15520
15508
15492
15476
15466
15465
15444
15432
15419
15420
15408
15392
15372
15356
15356
15344
15340
15329
15310
15296
15280
15268
15257
15252
15228
15216
15200
15184
15178
15162
15154
15135
15117
15100
15078
15066
15052
15032
15028
15008
14980
14958
14944
14921
14903
14883
14854
14836
14821
14797
14780
14754
14724
14695
14679
14658
14628
14594
14568
14538
14506
14478
14454
14420
14392
14354
14312
14292
14250
14220
14179
14134
14088
14054
14020
13978
13935
13890
13841
13793
13756
13705
13660
13608
13558
13498
13446
13404
13348
13283
13221
13184
13124
13061
13000
12933
12870
12812
12753
12690
12621
12552
12477
12425
12356
12286
12217
12141
12067
12002
11931
11866
11797
11721
11641
11568
11497
11422
11354
11279
11197
11124
11055
10999
10924
10851
10788
10716
10646
10572
10505
10438
10368
10308
10253
10184
10121
10053
9982
9920
9860
9804
9738
9670
9614
9542
9485
9432
9372
9318
9251
9193
9138
9076
9025
8958
8909
8847
8796
8742
8686
8627
8572
8520
8472
8416
8360
8306
8247
8209
8160
8109
8053
7999
7945
7906
7851
7801
7743
7695
7652
7609
7563
7510
7461
7414
7368
7320
7278
7237
7190
7141
7098
7054
7007
6968
6912
6874
6833
6786
6750
6704
6668
6623
6581
6536
6497
6464
6420
6379
6337
6293
6252
6217
6180
6140
6097
6067
6037
5990
5961
5921
5882
5842
5805
5767
5731
5697
5657
5628
5591
5558
5526
5485
5459
5419
5392
5355
5320
5289
5252
5220
5189
5148
5128
5096
5059
5031
5001
4972
4940
4902
4874
4835
4808
4780
4752
4721
4688
4662
4640
4609
4581
4554
4527
4495
4469
4434
4413
4389
4362
4328
4302
4273
4259
4227
4201
4173
4146
4121
4093
4064
4050
4023
3995
3967
3946
3921
3901
3877
3840
3820
3806
3777
3758
3724
3708
3691
3662
3633
3614
3599
3568
3551
3530
3515
3483
3460
3445
3420
3402
3384
3360
3333
3315
3301
3278
3266
3240
3213
3193
3174
3158
3141
3123
3104
3078
3052
3042
3028
3008
2985
2969
2945
2930
2915
2898
2880
2869
2850
2828
2807
2785
2775
2763
2743
2725
2712
2690
2673
2663
2648
2630
2610
2598
2578
2565
2554
2535
2516
2495
2488
2471
2465
2440
2421
2411
2393
2389
2373
2358
2346
2323
2316
2294
2292
2278
2257
2244
2226
2215
2205
2186
2174
2164
2150
2137
2124
2105
2097
2088
2083
2054
2046
2039
2027
2021
1999
1984
1970
1958
1957
1936
1928
1921
1898
1892
1884
1870
1858
1851
1839
1830
1819
1801
1796
1782
1778
1766
1750
1741
1726
1727
1716
1708
1698
1681
1671
1668
1648
1641
1637
1622
1617
1597
1598
1583
1578
1568
1554
1544
1540
1534
1525
1507
1506
1492
1490
1481
1466
1457
1446
1447
1438
1426
1417
1407
1402
1390
1384
1375
1368
1361
1353
1344
1333
1329
1323
1314
1308
1307
1295
1283
1272
1269
1259
1255
1252
1242
1228
1226
1217
1204
1208
1195
1187
1180
1174
1169
1160
1157
1157
1148
1144
1131
1124
1118
1112
1102
1097
1098
1089
1084
1076
1065
1061
1058
1060
1050
1037
1027
1023
1025
1014
1007
1004
997
994
990
979
972
969
965
964
954
952
946
941
938
929
923
921
914
914
900
898
885
888
885
882
873
871
868
860
855
851
844
840
833
827
828
822
824
822
808
802
799
796
789
782
785
783
772
769
767
763
758
747
751
746
742
741
732
730
726
724
718
710
709
709
706
703
694
690
686
677
679
678
675
674
667
664
659
657
654
651
646
644
634
639
636
632
628
629
617
613
609
611
611
601
597
603
595
593
589
583
582
584
574
572
567
560
566
565
560
559
555
551
544
545
542
543
534
534
526
529
530
523
524
517
516
510
509
506
510
501
497
495
490
495
489
488
489
480
480
474
477
478
474
464
462
464
459
460
454
457
453
451
448
445
440
441
440
437
436
432
431
431
431
423
421
421
420
414
415
405
411
411
407
405
400
403
400
397
394
395
391
390
389
388
386
385
382
381
380
376
373
373
371
369
369
367
364
363
359
357
359
355
355
353
349
351
351
348
345
346
342
342
340
337
334
335
331
332
333
329
331
326
324
323
324
324
319
317
316
314
316
313
309
309
308
310
307
302
303
298
299
298
296
299
297
293
292
291
290
292
287
286
284
287
284
283
280
278
274
277
276
273
277
274
271
269
267
266
267
267
269
264
265
258
260
259
259
258
258
255
256
253
251
249
250
249
246
245
247
249
242
243
242
240
240
241
241
238
237
235
235
234
232
231
231
231
229
222
227
227
227
225
223
224
227
220
220
220
218
217
220
214
211
215
216
212
212
210
212
209
208
207
206
206
207
204
206
203
205
201
201
200
200
200
196
196
196
197
195
198
192
193
195
195
193
190
191
188
190
190
188
187
186
186
186
186
182
185
181
182
183
180
181
183
179
177
178
173
176
175
174
174
174
174
173
173
173
174
180
180
179
180
184
190
192
196
199
203
212
223
227
231
242
249
258
269
278
290
301
317
325
344
353
370
383
394
410
430
448
468
480
499
518
538
558
581
603
620
640
662
686
715
740
762
785
812
837
868
898
926
954
988
1010
1049
1074
1111
1138
1167
1196
1230
1261
1303
1332
1365
1399
1431
1471
1508
1545
1576
1609
1643
1682
1717
1759
1799
1836
1869
1904
1940
1978
2012
2062
2098
2139
2170
2212
2252
2289
2337
2376
2414
2457
2495
2533
2592
2631
2678
2715
2757
2803
2841
2889
2940
2976
3026
3065
3116
3159
3212
3261
3308
3356
3392
3449
3492
3545
3590
3634
3684
3733
3783
3825
3883
3931
3977
4020
4070
4128
4166
4221
4269
4325
4375
4422
4480
4531
4578
4626
4680
4733
4784
4838
4900
4951
5000
5049
5105
5166
5221
5278
5328
5396
5446
5502
5559
5624
5681
5728
5796
5860
5918
5978
6041
6099
6162
6225
6282
6352
6410
6466
6534
6600
6660
6718
6784
6857
6916
6984
7054
7118
7176
7245
7316
7373
7442
7512
7588
7656
7720
7789
7850
7934
8001
8070
8140
8209
8281
8355
8422
8502
8569
8634
8699
8772
8852
8924
8995
9066
9137
9221
9290
9368
9439
9512
9586
9663
9738
9813
9894
9968
10047
10120
10197
10280
10359
10432
10519
10598
10673
10757
10829
10909
10985
11075
11162
11238
11312
11394
11471
11555
11626
11715
11802
11878
11953
12033
12121
12203
12279
12364
12450
12536
12605
12686
12777
12858
12948
13014
13097
13187
13274
13358
13432
13514
13604
13695
13776
13856
13940
14025
14113
14205
14285
14368
14454
14541
14636
14718
14793
14879
14976
15068
15152
15234
15321
15413
15498
15588
15662
15761
15852
15928
16014
16108
16188
16279
16366
16460
16537
16624
16712
16796
16890
16972
17062
17138
17240
17312
17401
17490
17582
17666
17745
17834
17930
18012
18092
18180
18276
18372
18452
18538
18626
18727
18824
18908
19012
19100
19197
19291
19376
19480
19583
19684
19773
19874
19976
20085
20190
20298
20392
20500
20606
20706
20832
20934
21052
21141
21252
21360
21469
21590
21700
21805
21916
22028
22148
22260
22375
22480
22596
22712
22838
22948
23073
23182
23297
23422
23538
23665
23776
23888
24005
24136
24260
24380
24503
24624
24742
24856
24967
25095
25220
25356
25480
25578
25696
25830
25961
26084
26196
26314
26438
26572
26693
26800
26914
27046
27172
27297
27413
27526
27646
27776
27895
28009
28121
28238
28366
28489
28600
28720
28825
28956
29074
29188
29303
29412
29538
29656
29780
29882
29991
30104
30217
30334
30460
30564
30682
30786
30896
31012
31121
31234
31356
31452
31566
31670
31792
31900
32006
32109
32228
32332
32452
32552
32660
32776
32884
32996
33100
33212
33332
33442
33550
33649
33770
33887
34004
34124
34224
34340
34460
34574
34684
34799
34920
35044
35159
35264
35391
35508
35624
35744
35860
35980
36094
36222
36336
36456
36576
36696
36816
36944
37074
37184
37296
37422
37556
37669
37796
37904
38044
38170
38288
38408
38520
38660
38782
38916
39028
39150
39278
39396
39516
39648
39760
39890
40020
40136
40256
40388
40508
40628
40744
40856
41001
41112
41244
41361
41479
41606
41728
41852
41972
42102
42222
42340
42468
42604
42728
42863
42972
43104
43217
43352
43480
43614
43724
43856
43976
44112
44238
44356
44480
44608
44728
44861
45000
45112
45232
45354
45468
45601
45724
45848
45972
46088
46208
46324
46452
46556
46687
46812
46932
47038
47168
47276
47376
47500
47612
47725
47868
47968
48068
48176
48288
48384
48503
48613
48718
48816
48932
49034
49140
49232
49344
49444
49535
49644
49736
49848
49948
50044
50128
50245
50329
50409
50528
50599
50716
50804
50904
50969
51070
51164
51264
51336
51436
51520
51609
51688
51772
51856
51944
52040
52132
52199
52290
52372
52452
52540
52613
52694
52782
52854
52934
53006
53088
53172
53240
53318
53400
53476
53548
53628
53700
53768
53852
53924
53980
54064
54148
54206
54268
54336
54420
54480
54556
54628
54676
54752
54836
54884
54953
55008
55095
55164
55236
55300
55342
55408
55465
55542
55601
55668
55720
55789
55839
55912
55960
56020
56080
56140
56213
56260
56310
56368
56428
56484
56552
56597
56664
56716
56772
56824
56884
56932
56996
57044
57092
57153
57196
57248
57308
57356
57420
57452
57502
57560
57616
57665
57709
57758
57796
57860
57904
57956
57996
58044
58084
58140
58183
58226
58272
58324
58368
58408
58454
58508
58554
58580
58629
58680
58732
58759
58804
58852
58884
58924
58960
59026
59052
59103
59136
59172
59208
59256
59288
59328
59358
59420
59444
59492
59524
59560
59604
59640
59670
59700
59748
59784
59832
59853
59888
59929
59958
60004
60036
60077
60104
60128
60160
60221
60228
60270
60292
60340
60364
60396
60444
60456
60502
60521
60552
60608
60612
60662
60684
60724
60748
60774
60812
60821
60868
60888
60912
60950
60988
61008
61028
61072
61096
61124
61146
61176
61206
61236
61256
61284
61316
61328
61356
61396
61420
61432
61464
61492
61525
61540
61572
61608
61618
61640
61656
61692
61716
61756
61782
61796
61796
61829
61860
61886
61908
61932
61932
61980
61988
62018
62032
62060
62080
62100
62124
62152
62172
62196
62214
62220
62272
62270
62300
62308
62332
62352
62374
62410
62420
62416
62444
62476
62489
62509
62532
62542
62556
62573
62592
62624
62624
62644
62660
62688
62718
62724
62742
62768
62780
62789
62811
62831
62860
62872
62876
62904
62916
62928
62960
62975
62983
62996
63032
63036
63037
63060
63087
63088
63096
63130
63119
63156
63176
63168
63197
63220
63236
63232
63246
63253
63284
63300
63316
63326
63344
63348
63367
63384
63388
63400
63412
63422
63440
63456
63460
63472
63492
63516
63516
63540
63552
63543
63580
63584
63588
63616
63636
63636
63656
63668
63684
63681
63684
63696
63724
63732
63748
63750
63756
63785
63758
63788
63812
63824
63832
63831
63852
63852
63886
63876
63893
63908
63916
63908
63929
63928
63936
63956
63964
63976
63996
63998
64007
64000
64020
64044
64044
64060
64060
64087
64076
64084
64092
64104
64116
64120
64118
64124
64148
64132
64164
64180
64180
64192
64200
64212
64208
64230
64216
64219
64264
64263
64268
64276
64276
64288
64292
64296
64322
64316
64336
64320
64337
64356
64364
64364
64372
64388
64380
64388
64406
64400
64424
64424
64424
64444
64440
64448
64472
64460
64450
64470
64480
64484
64480
64500
64518
64511
64532
64526
64516
64544
64537
64548
64564
64556
64564
64572
64584
64580
64592
64588
64608
64596
64622
64612
64620
64629
64636
64636
64644
64644
64652
64660
64672
64676
64678
64680
64706
64692
64700
64716
64704
64716
64720
64725
64720
64736
64740
64748
64741
64740
64756
64759
64764
64781
64772
64778
64776
64796
64792
64806
64804
64814
64804
64832
64828
64828
64824
64840
64846
64852
64852
64852
64868
64872
64860
64862
64868
64868
64886
64880
64896
64876
64892
64892
64900
64905
64916
64920
64910
64916
64928
64932
64942
64928
64942
64940
64948
64943
64956
64964
64956
64954
64964
64972
64972
64964
64976
64980
64992
64992
65020
64992
65000
64999
64996
64999
65004
65012
65020
65012
65030
65032
65047
65028
65024
65052
65056
65046
65056
65044
65056
65052
65064
65068
65072
65076
65073
65076
65084
65088
65076
65092
65080
65094
65100
65088
65108
65100
65100
65108
65108
65112
65120
65126
65128
65124
65128
65126
65127
65143
65128
65120
65141
65156
65148
65156
65144
65158
65159
65166
65168
65168
65168
65164
65173
65184
65164
65160
65173
65168
65180
65192
65196
65182
65188
65188
65188
65198
65198
65204
65204
65192
65204
65204
65200
65204
65212
65198
65208
65216
65224
65228
65237
65232
65236
65232
65216
65240
65228
65240
65254
65244
65248
65236
65230
65256
65252
65247
65248
65256
65268
65256
65263
65270
65269
65268
65260
65280
65278
65268
65281
65279
65272
65278
65284
65284
65284
65280
65296
65286
65300
65286
65301
65308
65284
65300
65308
65304
65296
65301
65296
65316
65292
65300
65304
65316
65318
65320
65321
65312
65320
65317
65316
65316
65316
65328
65317
65320
65326
65337
65324
65340
65312
65340
65332
65332
65336
65340
65332
65340
65344
65344
65348
65344
65356
65356
65353
65332
65356
65348
65353
65359
65356
65352
65364
65361
65352
65356
65356
65364
65364
65360
65373
65356
65380
65372
65368
65376
65376
65377
65372
65368
65380
65376
65372
65372
65364
65372
65376
65380
65388
65382
65384
65396
65384
65396
65392
65397
65384
65388
65392
65388
65390
65384
65388
65396
65400
65400
65398
65388
65412
65404
65392
65408
65408
65389
65404
65392
65404
65400
65404
65408
65404
65404
65413
65414
65415
65415
65404
65404
65420
65416
65408
65428
65428
65416
65416
65425
65428
65428
65416
65428
65413
65424
65422
65420
65429
65412
65412
65420
65432
65420
65428
65428
65436
65428
65437
65428
65431
65445
65432
65436
65452
65436
65455
65430
65447
65436
65444
65445
65444
65436
65440
65436
65444
65444
65444
65444
65444
65438
65444
65444
65452
65452
65448
65448
65436
65448
65460
65444
65448
65444
65445
65463
65464
65445
65460
65452
65446
65461
65460
65460
65464
65468
65460
65460
65468
65456
65455
65468
65447
65474
65452
65476
65460
65469
65468
65456
65468
65480
65468
65460
65476
65468
65468
65472
65472
65472
65472
65472
65472
65464
65468
65468
65468
65476
65470
65476
65468
65472
65479
65480
65480
65468
65460
65480
65472
65472
65480
65464
65498
65472
65480
65478
65468
65480
65468
65476
65480
65496
65484
65488
65484
65480
65496
65484
65468
65480
65484
65492
65488
65478
65476
65486
65492
65500
65484
65484
65484
65484
65488
65496
65500
65500
65492
65504
65502
65496
65510
65496
65488
65493
65492
65486
65488
65496
65500
65492
65492
65496
65500
65502
65489
65492
65492
65500
65508
65492
65504
65500
65496
65492
65494
65504
65501
65500
65492
65508
65504
65500
65500
65500
65488
65509
65496
65504
65503
65500
65500
65496
65516
65508
65504
65503
65500
65496
65500
65501
65509
65500
65508
65502
65508
65496
65511
65504
65517
65504
65516
65518
65516
65511
65500
65504
65519
65516
65522
65508
65516
65512
65508
65524
65516
65526
65516
65504
65516
65508
65508
65510
65512
65512
65512
65516
65524
65519
65516
65518
65528
65516
65524
65508
65512
65524
65516
65512
65518
65516
65526
65524
65535
65508
65516
65508
65535
65520
65508
65524
65516
65524
65524
65511
65532
65528
65532
65527
65526
65516
65508
65524
65508
65526
65524
65528
65525
65516
65512
65528
65532
65532
65534
65524
65516
65528
65535
65524
65532
65512
65535
65512
65524
65524
65532
65532
65516
65530
65535
65532
65532
65532
65524
65535
65526
65533
65535
65535
65528
65532
65524
65532
65535
65532
65532
65532
65524
65535
65532
65520
65535
65528
65512
65534
65524
65524
65526
65520
65525
65500
65502
65508
65510
65502
65488
65480
65472
65476
65472
65471
65444
65452
65444
65436
65430
65416
65412
65408
65380
65388
65376
65372
65360
65360
65348
65340
65314
65300
65297
65288
65272
65262
65244
65236
65226
65208
65196
65176
65164
65160
65140
65124
65096
65086
65064
65048
65024
65004
64999
64964
64948
64924
64912
64876
64855
64832
64806
64788
64772
64748
64716
64689
64676
64662
64624
64592
64576
64560
64528
64500
64460
64428
64428
64388
64372
64352
64308
64280
64254
64228
64191
64156
64143
64120
64077
64052
64020
64000
63964
63917
63908
63864
63852
63808
63782
63740
63696
63680
63652
63606
63588
63548
63516
63468
63436
63392
63356
63332
63300
63254
63228
63188
63140
63102
63062
63020
62980
62958
62908
62852
62820
62780
62721
62696
62648
62614
62568
62520
62468
62416
62380
62324
62280
62242
62174
62135
62093
62032
62006
61940
61900
61840
61800
61760
61706
61664
61604
61548
61504
61447
61409
61340
61300
61260
61200
61136
61084
61046
61012
60953
60908
60852
60799
60742
60698
60648
60592
60541
60496
60444
60388
60340
60284
60245
60196
60140
60092
60052
60004
59936
59877
59852
59792
59748
59686
59652
59608
59541
59508
59444
59388
59365
59300
59245
59200
59148
59098
59040
58992
58952
58910
58849
58800
58724
58695
58628
58604
58540
58492
58437
58376
58332
58276
58221
58172
58108
58062
58000
57948
57884
57812
57761
57704
57646
57596
57544
57460
57404
57356
57284
57216
57158
57100
57028
56972
56910
56828
56764
56696
56644
56576
56504
56440
56360
56300
56228
56167
56104
56020
55962
55888
55812
55740
55668
55604
55536
55448
55388
55308
55232
55169
55092
55008
54940
54856
54783
54703
54644
54568
54484
54404
54336
54252
54164
54108
54028
53952
53866
53792
53718
53636
53544
53465
53392
53326
53252
53172
53092
53030
52924
52856
52788
52704
52640
52550
52470
52398
52317
52264
52188
52108
52020
51956
51872
51808
51736
51656
51595
51512
51448
51372
51308
51233
51164
51082
51020
50952
50868
50804
50732
50664
50596
50528
50452
50376
50308
50240
50169
50096
50032
49958
49878
49812
49750
49668
49588
49524
49444
49376
49312
49238
49156
49080
49022
48950
48854
48792
48704
48628
48564
48484
48400
48320
48236
48164
48088
48020
47936
47848
47767
47692
47614
47528
47449
47360
47281
47204
47132
47038
46958
46874
46777
46696
46612
46540
46447
46360
46272
46188
46108
46008
45932
45844
45759
45664
45576
45495
45408
45324
45221
45153
45060
44964
44884
44788
44704
44622
44516
44439
44356
44270
44172
44086
44000
43918
43830
43740
43645
43552
43472
43382
43308
43204
43116
43022
42948
42860
42772
42676
42608
42529
42422
42338
42253
42160
42092
42004
41910
41813
41737
41652
41572
41492
41401
41314
41228
41160
41060
40980
40893
40820
40732
40644
40548
40463
40392
40300
40224
40140
40056
39960
39864
39781
39704
39608
39520
39428
39340
39260
39173
39076
38974
38886
38812
38712
38614
38526
38440
38354
38260
38164
38072
37984
37900
37796
37700
37607
37516
37420
37327
37230
37143
37046
36943
36842
36748
36652
36550
36461
36354
36250
36144
36048
35948
35844
35744
35649
35532
35427
35332
35233
35132
35008
34916
34804
34688
34596
34494
34382
34256
34148
34040
33936
33824
33710
33596
33496
33384
33262
33146
33036
32927
32812
32692
32576
32460
32356
32231
32118
31999
31888
31778
31656
31533
31418
31296
31184
31072
30956
30841
30704
30588
30476
30360
30236
30107
29980
29876
29753
29636
29506
29372
29263
29140
29029
28898
28772
28649
28528
28421
28288
28174
28041
27916
27792
27674
27552
27430
27308
27188
27073
26948
26806
26687
26564
26430
26320
26204
26071
25940
25814
25680
25548
25426
25308
25174
25028
24910
24783
24655
24526
24379
24244
24110
23978
23844
23709
23568
23425
23282
23144
23004
22866
22726
22588
22434
22292
22148
22009
21860
21730
21585
21444
21306
21164
21020
20893
20764
20626
20492
20352
20217
20093
19976
19840
19722
19590
19454
19337
19205
19096
18966
18847
18720
18602
18486
18378
18255
18140
18023
17900
17796
17684
17572
17462
17344
17237
17124
17013
16916
16806
16698
16588
16480
16386
16286
16180
16081
15968
15864
15770
15684
15575
15484
15382
15276
15188
15092
15001
14906
14816
14714
14624
14530
14441
14364
14261
14180
14084
13994
13910
13830
13737
13650
13566
13478
13397
13317
13233
13143
13061
12980
12902
12822
12733
12655
12580
12502
12424
12346
12273
12205
12118
12047
11970
11896
11826
11752
11670
11598
11536
11458
11383
11309
11254
11181
11108
11039
10964
10906
10838
10771
10692
10630
10571
10499
10436
10368
10305
10244
10180
10109
10052
9997
9933
9872
9807
9747
9686
9628
9564
9504
9442
9387
9332
9272
9211
9152
9098
9050
8988
8931
8869
8820
8768
8708
8657
8608
8556
8496
8442
8381
8333
8293
8240
8184
8127
8080
8039
7984
7932
7882
7836
7792
7747
7700
7650
7594
7544
7504
7460
7415
7371
7324
7270
7233
7181
7140
7102
7054
7004
6962
6926
6880
6836
6795
6761
6715
6664
6628
6586
6545
6507
6468
6428
6386
6349
6307
6276
6232
6197
6152
6110
6084
6037
6012
5965
5928
5885
5856
5829
5793
5753
5712
5671
5644
5608
5578
5539
5507
5476
5432
5411
5374
5340
5302
5272
5241
5207
5180
5148
5112
5081
5056
5020
4989
4953
4928
4902
4869
4833
4804
4775
4746
4722
4693
4660
4631
4600
4583
4540
4526
4488
4464
4434
4410
4381
4357
4333
4302
4281
4254
4220
4197
4172
4150
4118
4087
4070
4048
4019
3994
3972
3950
3923
3899
3885
3866
3839
3816
3800
3786
3778
3755
3733
3725
3715
3690
3687
3665
3656
3654
3633
3621
3605
3600
3582
3565
3546
3536
3519
3506
3490
3469
3455
3435
3426
3411
3389
3363
3344
3321
3301
3286
3267
3243
3229
3200
3175
3157
3140
3119
3104
3086
3065
3046
3024
3002
2989
2969
2950
2932
2915
2897
2883
2851
2843
2835
2812
2780
2771
2756
2742
2724
2701
2686
2669
2661
2643
2623
2607
2597
2583
2563
2542
2527
2513
2503
2484
2465
2453
2439
2428
2406
2391
2381
2367
2355
2343
2313
2308
2294
2282
2268
2252
2236
2223
2215
2202
2184
2177
2157
2152
2139
2125
2109
2097
2085
2075
2065
2048
2028
2020
2018
2002
1992
1977
1959
1946
1940
1929
1922
1900
1894
1886
1885
1867
1848
1832
1821
1821
1810
1803
1786
1766
1759
1758
1744
1738
1726
1715
1700
1690
1682
1677
1662
1649
1636
1636
1626
1612
1601
1596
1584
1581
1567
1561
1545
1529
1534
1521
1511
1507
1492
1477
1483
1467
1461
1446
1442
1436
1431
1421
1411
1399
1391
1383
1380
1374
1365
1351
1344
1343
1331
1324
1316
1303
1297
1297
1284
1276
1261
1259
1263
1253
1242
1233
1223
1217
1216
1212
1198
1192
1189
1185
1169
1169
1153
1146
1143
1142
1134
1124
1120
1115
1110
1102
1094
1091
1080
1078
1075
1066
1053
1048
1043
1040
1037
1027
1019
1011
1010
1010
1005
998
984
982
969
974
967
966
961
952
941
941
935
932
923
916
915
911
906
894
894
888
885
879
879
868
866
858
855
859
849
847
835
828
831
823
821
815
815
807
799
798
796
790
780
778
774
773
768
771
760
750
750
742
743
740
738
730
723
721
721
717
711
708
706
700
694
687
688
688
682
680
675
667
664
665
659
655
660
653
646
642
640
635
633
628
628
625
621
617
612
612
611
606
602
600
594
596
590
590
582
578
578
573
568
566
567
563
556
557
552
551
547
548
544
545
540
535
532
531
530
521
515
515
513
513
512
504
505
504
499
493
496
492
490
485
485
481
482
479
480
473
471
468
466
464
466
464
454
451
450
449
452
446
443
442
440
439
439
438
431
431
430
428
420
421
422
419
420
412
411
408
409
409
409
404
399
403
396
392
390
389
392
386
386
384
382
382
383
375
374
374
374
372
370
366
362
365
363
363
359
357
356
354
355
354
350
346
348
345
344
339
338
338
339
333
335
332
332
328
328
327
325
323
322
319
318
319
317
316
321
316
309
311
306
307
307
305
304
298
300
301
302
297
296
293
293
292
292
291
287
289
284
286
284
281
281
280
282
279
277
274
278
273
274
273
269
265
266
265
264
265
263
260
260
258
260
256
255
254
254
253
252
251
251
248
248
249
246
244
245
241
242
244
239
238
238
237
237
235
229
233
232
235
229
231
231
229
229
227
226
224
226
223
224
223
219
221
220
219
222
217
215
213
216
215
215
213
212
209
210
206
210
208
206
209
205
204
205
203
201
200
198
202
198
199
198
196
198
196
196
195
192
193
194
192
192
190
190
189
189
189
189
187
187
185
186
183
184
183
184
184
181
181
178
179
180
178
178
178
175
176
175
174
174
174
175
172
172
170
172
168
169
170
170
167
167
165
168
166
167
166
165
164
165
163
165
162
163
162
160
160
159
161
159
161
159
156
157
157
156
154
153
154
153
154
149
152
155
153
151
151
150
151
149
148
148
145
147
148
146
145
146
143
145
146
147
144
142
143
143
142
142
140
142
139
140
141
139
139
140
140
138
137
138
136
136
137
133
135
135
134
135
132
133
133
133
133
132
132
129
131
133
133
132
131
130
128
130
130
128
126
127
124
126
127
126
128
126
125
125
125
124
125
124
124
121
122
122
121
121
122
120
120
118
120
118
121
118
118
119
118
118
116
117
119
117
117
114
116
115
111
115
115
114
115
115
114
114
116
113
114
113
111
111
111
111
108
112
111
110
111
111
109
110
110
108
108
109
106
109
106
106
106
107
106
104
105
104
106
104
105
105
104
103
104
102
105
101
103
104
102
103
102
101
101
100
101
104
100
100
99
100
100
100
99
99
101
101
97
98
99
98
98
98
99
97
99
99
97
96
97
96
98
96
98
97
97
97
96
96
94
96
94
94
96
94
93
94
96
93
93
93
93
93
94
92
92
92
94
91
92
93
89
91
91
90
91
90
89
90
89
90
89
88
88
91
87
87
89
87
88
88
88
86
87
87
85
89
87
88
88
85
87
87
85
84
85
86
85
85
84
85
84
86
84
84
84
84
83
83
82
84
81
81
80
82
83
82
82
81
82
81
82
82
83
80
81
82
82
81
80
80
81
80
81
80
81
78
78
80
79
79
80
79
78
78
79
78
81
79
78
77
78
76
78
76
77
77
77
77
76
79
77
75
75
78
74
75
76
78
80
80
85
84
87
91
94
100
102
107
114
121
129
135
142
150
162
168
179
195
204
215
229
240
257
272
286
299
321
335
356
372
386
408
425
454
470
494
516
541
557
585
615
633
661
683
714
741
774
799
826
858
892
918
953
983
1016
1055
1086
1120
1159
1196
1230
1274
1310
1352
1394
1432
1470
1515
1565
1601
1642
1694
1734
1781
1826
1876
1922
1963
2007
2052
2106
2161
2213
2260
2304
2356
2404
2457
2503
2554
2609
2654
2701
2758
2801
2860
2904
2955
2999
3048
3103
3151
3206
3249
3300
3346
3397
3451
3498
3536
3585
3640
3684
3730
3778
3821
3872
3920
3972
4015
4054
4097
4147
4196
4224
4276
4316
4373
4408
4456
4500
4544
4591
4632
4672
4709
4760
4802
4850
4894
4933
4972
5021
5064
5110
5150
5202
5236
5282
5324
5377
5422
5458
5500
5546
5596
5643
5692
5727
5782
5825
5879
5932
5980
6035
6080
6131
6178
6229
6288
6336
6409
6458
6505
6565
6609
6666
6724
6779
6828
6886
6948
7004
7057
7109
7162
7222
7279
7323
7381
7436
7498
7550
7600
7652
7703
7764
7813
7870
7928
7974
8032
8088
8136
8186
8244
8294
8357
8402
8455
8508
8560
8614
8660
8723
8783
8830
8882
8932
8981
9036
9088
9141
9198
9254
9292
9349
9404
9460
9512
9563
9611
9664
9714
9772
9824
9881
9932
9985
10033
10083
10144
10188
10250
10302
10361
10414
10464
10516
10565
10628
10684
10734
10784
10839
10903
10952
11008
11056
11114
11174
11236
11300
11346
11400
11464
11534
11589
11648
11712
11778
11845
11908
11961
12032
12100
12172
12229
12299
12377
12450
12522
12586
12665
12728
12816
12894
12964
13030
13116
13198
13276
13350
13424
13507
13586
13662
13740
13817
13900
13976
14061
14149
14226
14298
14384
14466
14541
14633
14708
14787
14872
14960
15038
15120
15197
15278
15366
15450
15532
15613
15694
15777
15858
15952
16048
16122
16212
16296
16376
16460
16550
16644
16730
16812
16906
16996
17094
17182
17265
17355
17445
17552
17632
17726
17815
17902
17997
18100
18202
18292
18385
18482
18566
18668
18762
18860
18952
19050
19148
19256
19352
19440
19530
19632
19728
19830
19934
20029
20116
20220
20327
20428
20532
20628
20728
20826
20924
21038
21138
21237
21335
21441
21544
21657
21766
21863
21956
22072
22184
22294
22398
22495
22598
22704
22810
22912
23004
23112
23214
23304
23413
23509
23622
23732
23832
23930
24036
24142
24244
24356
24463
24580
24676
24784
24886
24992
25104
25206
25310
25413
25519
25623
25732
25836
25944
26045
26152
26254
26356
26466
26576
26684
26788
26892
26988
27086
27192
27303
27406
27512
27621
27725
27822
27926
28028
28132
28225
28340
28444
28548
28632
28724
28844
28950
29036
29128
29228
29329
29428
29524
29612
29716
29804
29909
30012
30104
30188
30285
30380
30476
30565
30660
30750
30839
30938
31012
31118
31226
31304
31394
31470
31570
31665
31764
31849
31936
32024
32102
32192
32292
32385
32484
32570
32656
32742
32828
32920
33004
33102
33192
33276
33374
33468
33540
33636
33724
33816
33912
33988
34074
34164
34256
34348
34436
34528
34612
34694
34790
34864
34952
35044
35150
35244
35326
35414
35503
35588
35672
35772
35866
35953
36052
36132
36215
36316
36399
36500
36597
36684
36772
36854
36942
37036
37136
37225
37306
37396
37488
37568
37668
37764
37852
37936
38024
38112
38206
38284
38372
38465
38554
38624
38718
38789
38884
38982
39060
39156
39234
39317
39398
39473
39564
39652
39744
39828
39916
39996
40089
40172
40244
40325
40404
40486
40564
40644
40741
40815
40892
40980
41043
41116
41189
41284
41360
41434
41510
41591
41668
41737
41804
41880
41964
42044
42116
42184
42256
42328
42396
42480
42536
42608
42678
42760
42838
42908
42988
43052
43124
43196
43262
43336
43408
43464
43545
43620
43692
43760
43839
43912
43998
44062
44142
44213
44300
44375
44432
44517
44598
44673
44752
44829
44916
44994
45060
45148
45228
45300
45396
45470
45549
45632
45708
45796
45868
45948
46036
46110
46191
46280
46366
46436
46526
46606
46688
46760
46836
46908
46992
47089
47164
47236
47308
47392
47464
47540
47628
47710
47784
47864
47928
48012
48076
48164
48244
48328
48386
48462
48534
48608
48684
48768
48848
48909
48994
49064
49136
49204
49280
49360
49446
49504
49583
49668
49737
49824
49896
49980
50044
50128
50204
50277
50368
50444
50516
50608
50688
50780
50848
50924
51008
51088
51172
51264
51348
51428
51508
51596
51688
51764
51864
51948
52028
52104
52192
52272
52359
52444
52534
52612
52696
52773
52847
52920
53008
53092
53172
53246
53308
53384
53472
53537
53612
53680
53784
53844
53910
53996
54056
54133
54204
54276
54348
54420
54472
54554
54620
54684
54773
54836
54900
54948
55016
55092
55160
55232
55292
55349
55420
55486
55536
55604
55660
55716
55788
55846
55918
55972
56060
56100
56164
56224
56278
56324
56368
56436
56502
56560
56616
56648
56732
56788
56844
56880
56934
56992
57050
57095
57156
57208
57261
57308
57356
57424
57473
57524
57572
57608
57664
57716
57759
57812
57860
57904
57952
58004
58046
58112
58144
58192
58236
58292
58340
58375
58420
58476
58516
58564
58592
58636
58672
58734
58776
58800
58860
58900
58932
58960
59020
59052
59108
59148
59192
59220
59264
59308
59343
59376
59414
59444
59492
59532
59556
59614
59652
59684
59708
59748
59804
59840
59872
59904
59940
59968
60013
60040
60084
60124
60148
60173
60212
60248
60272
60302
60349
60384
60406
60436
60466
60519
60532
60564
60604
60628
60664
60686
60720
60740
60796
60804
60836
60870
60900
60912
60956
60988
61008
61054
61080
61100
61128
61148
61184
61212
61240
61268
61297
61316
61348
61364
61392
61428
61452
61476
61488
61524
61548
61588
61612
61632
61656
61673
61697
61736
61757
61766
61804
61812
61848
61856
61888
61904
61944
61968
61973
62000
62030
62061
62060
62096
62129
62116
62156
62172
62192
62224
62238
62264
62276
62318
62309
62336
62360
62374
62396
62416
62436
62444
62468
62497
62516
62536
62580
62580
62604
62613
62628
62664
62676
62684
62708
62712
62748
62756
62772
62788
62808
62833
62840
62848
62868
62884
62900
62929
62945
62972
62982
62988
63012
63032
63028
63064
63068
63080
63100
63116
63128
63160
63162
63180
63198
63200
63221
63238
63244
63264
63284
63304
63300
63320
63348
63364
63356
63380
63396
63404
63412
63428
63444
63460
63462
63469
63476
63492
63526
63532
63540
63544
63552
63588
63596
63606
63624
63620
63640
63652
63668
63672
63696
63688
63712
63736
63740
63732
63756
63758
63776
63810
63808
63828
63828
63840
63844
63836
63857
63860
63884
63912
63904
63917
63932
63950
63958
63944
63980
63968
63992
64004
64000
64012
64036
64036
64052
64056
64052
64066
64080
64080
64102
64100
64116
64128
64136
64148
64148
64168
64176
64176
64190
64199
64204
64204
64216
64236
64248
64252
64257
64268
64256
64269
64277
64302
64284
64302
64304
64324
64334
64340
64332
64348
64356
64364
64356
64372
64390
64390
64400
64396
64412
64429
64436
64432
64448
64452
64452
64468
64460
64476
64484
64484
64492
64500
64518
64508
64519
64520
64535
64524
64548
64556
64565
64564
64564
64572
64576
64585
64592
64588
64604
64612
64608
64620
64636
64641
64646
64636
64666
64656
64639
64656
64676
64680
64684
64684
64688
64696
64708
64700
64684
64720
64729
64724
64720
64736
64736
64748
64750
64758
64764
64756
64774
64769
64780
64790
64788
64800
64808
64792
64804
64796
64816
64808
64812
64828
64820
64831
64844
64836
64848
64844
64860
64860
64868
64872
64880
64878
64872
64892
64897
64888
64894
64900
64904
64908
64912
64916
64920
64932
64933
64927
64928
64932
64932
64948
64956
64960
64960
64961
64984
64968
64968
64976
64984
64980
64981
64992
64988
64992
65004
65001
65009
65016
64996
65020
65012
65020
65031
65032
65026
65044
65037
65024
65044
65044
65060
65056
65044
65060
65060
65058
65076
65064
65068
65063
65084
65078
65084
65090
65088
65084
65088
65100
65096
65108
65110
65114
65116
65108
65116
65124
65116
65132
65112
65132
65132
65140
65140
65132
65142
65140
65148
65148
65143
65148
65158
65160
65164
65166
65158
65168
65164
65168
65172
65164
65184
65182
65185
65188
65176
65180
65189
65196
65204
65194
65192
65206
65198
65208
65196
65208
65206
65212
65224
65224
65214
65228
65216
65218
65232
65224
65236
65232
65246
65236
65246
65240
65240
65232
65236
65242
65253
65244
65240
65260
65248
65248
65240
65252
65248
65248
65248
65252
65256
65256
65252
65264
65256
65276
65256
65266
65272
65268
65261
65262
65270
65274
65280
65276
65280
65280
65298
65268
65272
65276
65276
65284
65280
65278
65280
65286
65286
65272
65272
65284
65278
65280
65276
65268
65272
65280
65268
65268
65268
65260
65276
65255
65260
65244
65238
65240
65232
65238
65224
65214
65208
65208
65204
65191
65186
65184
65172
65151
65151
65148
65138
65132
65134
65108
65108
65100
65080
65080
65076
65052
65036
65028
65013
65006
64992
64980
64964
64944
64940
64916
64908
64898
64876
64844
64844
64820
64800
64784
64772
64748
64740
64708
64700
64670
64670
64624
64612
64582
64568
64548
64516
64504
64470
64452
64444
64396
64368
64356
64328
64300
64276
64244
64206
64196
64180
64148
64126
64104
64068
64045
64032
64007
63972
63936
63932
63912
63872
63828
63812
63780
63756
63735
63712
63692
63672
63620
63604
63582
63556
63527
63500
63476
63452
63418
63380
63356
63332
63316
63292
63244
63236
63205
63172
63143
63106
63084
63049
63016
62996
62948
62912
62894
62884
62820
62798
62776
62732
62692
62660
62641
62593
62564
62544
62496
62460
62416
62404
62340
62316
62284
62244
62212
62168
62132
62128
62064
62047
61996
61948
61924
61888
61858
61820
61790
61734
61709
61684
61636
61630
61580
61544
61520
61480
61444
61408
61388
61348
61301
61280
61236
61222
61180
61150
61108
61080
61056
61016
60984
60952
60935
60888
60852
60816
60804
60772
60740
60696
60668
60656
60620
60596
60564
60542
60496
60484
60444
60420
60392
60372
60325
60308
60284
60268
60236
60192
60172
60132
60110
60086
60048
60039
59994
59980
59944
59908
59892
59865
59830
59804
59776
59748
59732
59680
59661
59644
59604
59588
59548
59512
59492
59470
59424
59396
59372
59348
59304
59270
59252
59216
59180
59136
59124
59076
59068
59012
58981
58948
58908
58884
58844
58832
58780
58748
58712
58660
58636
58604
58564
58528
58484
58446
58420
58372
58335
58296
58260
58220
58164
58128
58096
58052
58012
57972
57936
57892
57853
57796
57776
57716
57680
57644
57600
57564
57524
57476
57429
57391
57336
57296
57248
57204
57156
57116
57072
57012
56986
56927
56884
56840
56796
56744
56696
56657
56612
56568
56516
56456
56412
56368
56324
56268
56220
56181
56136
56078
56032
55988
55940
55904
55852
55800
55756
55710
55660
55604
55557
55520
55484
55420
55372
55336
55292
55244
55188
55148
55100
55052
55012
54965
54924
54884
54828
54780
54738
54696
54648
54616
54565
54536
54478
54454
54389
54356
54312
54262
54220
54170
54128
54094
54036
53988
53936
53896
53844
53796
53748
53712
53652
53604
53540
53508
53448
53400
53352
53286
53236
53184
53132
53072
53016
52968
52914
52848
52800
52728
52673
52612
52568
52503
52446
52388
52316
52252
52192
52132
52060
52000
51940
51880
51820
51740
51686
51624
51561
51492
51428
51356
51301
51236
51157
51100
51036
50972
50908
50840
50760
50704
50652
50584
50504
50444
50376
50313
50248
50188
50113
50048
49976
49912
49844
49774
49711
49647
49588
49512
49444
49364
49316
49238
49176
49120
49040
48972
48903
48821
48768
48688
48614
48556
48476
48416
48334
48270
48196
48128
48052
47988
47912
47868
47780
47710
47632
47564
47489
47424
47348
47288
47208
47136
47060
46996
46908
46820
46756
46692
46608
46533
46452
46381
46318
46232
46148
46080
45998
45924
45830
45756
45688
45612
45524
45441
45358
45284
45200
45124
45044
44968
44884
44810
44728
44644
44565
44484
44404
44320
44232
44156
44069
43996
43924
43844
43768
43677
43597
43509
43430
43344
43268
43190
43120
43040
42949
42876
42796
42708
42624
42548
42472
42392
42312
42228
42144
42056
41990
41908
41828
41748
41668
41580
41504
41416
41328
41252
41165
41086
41008
40932
40846
40757
40684
40588
40500
40412
40324
40250
40165
40084
40000
39908
39818
39732
39636
39540
39462
39374
39284
39190
39100
39000
38908
38823
38730
38645
38543
38448
38352
38242
38154
38065
37960
37868
37769
37660
37556
37464
37359
37260
37144
37056
36938
36824
36713
36604
36484
36358
36256
36148
36020
35902
35783
35652
35524
35396
35256
35129
35007
34864
34729
34588
34440
34294
34135
33992
33844
33689
33542
33380
33208
33049
32888
32716
32548
32383
32218
32036
31856
31662
31484
31306
31118
30936
30736
30548
30340
30136
29940
29752
29562
29368
29188
28992
28798
28608
28416
28228
28044
27860
27686
27500
27324
27145
26950
26792
26620
26439
26264
26084
25920
25758
25592
25418
25252
25079
24920
24760
24606
24452
24274
24109
23954
23804
23653
23496
23332
23197
23054
22892
22736
22582
22452
22314
22168
22012
21880
21730
21604
21461
21313
21173
21046
20916
20772
20655
20506
20376
20246
20116
19989
19862
19742
19607
19476
19360
19238
19116
18988
18868
18752
18634
18518
18389
18269
18164
18046
17932
17814
17700
17600
17484
17362
17256
17157
17042
16935
16826
16716
16616
16521
16414
16307
16200
16096
16002
15906
15798
15709
15596
15498
15402
15312
15228
15128
15027
14938
14832
14736
14653
14556
14472
14384
14293
14199
14108
14020
13935
13856
13766
13681
13591
13500
13416
13346
13253
13176
13089
13000
12932
12850
12772
12693
12614
12532
12452
12372
12300
12215
12147
12068
12004
11924
11846
11768
11700
11619
11556
11490
11417
11346
11273
11198
11122
11056
10981
10917
10857
10790
10715
10642
10585
10526
10458
10386
10329
10260
10200
10144
10081
10010
9944
9882
9832
9758
9703
9634
9581
9525
9471
9415
9346
9289
9224
9167
9118
9056
9001
8945
8890
8839
8785
8737
8672
8615
8560
8510
8468
8412
8353
8301
8253
8206
8154
8100
8053
8001
7946
7904
7852
7806
7753
7699
7658
7615
7567
7516
7466
7424
7374
7337
7292
7249
7203
7161
7108
7062
7020
6978
6938
6894
6850
6810
6770
6721
6677
6638
6602
6551
6517
6475
6438
6393
6354
6320
6282
6244
6207
6164
6120
6080
6050
6012
5978
5940
5908
5859
5825
5792
5752
5729
5697
5653
5613
5573
5549
5512
5486
5444
5406
5370
5347
5312
5285
5239
5220
5182
5153
5113
5085
5060
5028
4984
4965
4929
4911
4873
4842
4808
4782
4756
4719
4692
4657
4634
4608
4582
4544
4519
4489
4471
4432
4410
4384
4354
4330
4305
4271
4246
4224
4204
4176
4148
4120
4095
4068
4049
4019
3993
3968
3940
3929
3903
3876
3847
3825
3807
3782
3758
3737
3713
3686
3658
3646
3624
3604
3578
3558
3527
3509
3492
3470
3454
3430
3406
3378
3363
3338
3326
3306
3280
3259
3236
3218
3202
3176
3165
3136
3127
3102
3080
3065
3049
3033
3012
2996
2970
2951
2940
2921
2906
2882
2861
2848
2830
2817
2805
2785
2763
2744
2733
2715
2708
2680
2662
2648
2634
2613
2607
2585
2572
2544
2541
2518
2510
2493
2475
2467
2451
2434
2419
2409
2395
2375
2364
2346
2337
2313
2298
2285
2276
2264
2236
2237
2221
2211
2198
2177
2169
2152
2144
2132
2114
2098
2088
2075
2062
2055
2045
2030
2015
2004
1993
1986
1973
1950
1938
1934
1924
1911
1897
1882
1871
1867
1853
1842
1836
1819
1809
1794
1789
1779
1769
1755
1741
1735
1731
1725
1709
1697
1689
1671
1661
1653
1650
1636
1622
1613
1608
1603
1593
1577
1567
1562
1546
1541
1530
1522
1515
1499
1498
1490
1482
1474
1463
1455
1449
1433
1427
1420
1413
1401
1400
1386
1380
1376
1357
1355
1344
1342
1333
1322
1310
1312
1304
1300
1282
1274
1267
1260
1253
1243
1246
1233
1233
1220
1209
1208
1200
1191
1185
1173
1170
1160
1159
1149
1144
1135
1133
1119
1118
1115
1113
1104
1094
1091
1081
1073
1072
1070
1058
1048
1042
1036
1037
1024
1022
1013
1007
1006
1001
995
987
975
974
968
966
963
955
950
943
934
931
926
921
919
914
904
898
897
896
888
883
876
869
864
862
860
853
845
840
843
835
828
820
820
819
810
808
801
798
793
786
785
783
784
774
772
764
757
756
746
744
748
739
736
732
729
724
719
720
713
709
705
700
700
696
695
686
679
673
676
671
670
665
660
651
650
650
649
649
636
635
630
627
626
624
623
621
613
611
601
604
599
599
594
592
589
581
582
579
578
575
568
564
563
564
556
554
553
558
550
540
541
538
536
538
531
532
522
518
515
513
510
510
512
506
503
498
498
496
493
495
491
490
485
480
475
473
475
470
467
469
464
469
462
460
455
452
452
450
446
447
443
440
436
431
433
433
432
429
422
420
422
419
416
416
412
411
413
409
405
408
402
399
396
394
393
390
389
386
387
387
384
379
380
376
376
372
372
371
370
365
366
361
363
359
360
357
356
356
355
350
345
348
346
348
345
339
339
337
338
338
331
331
333
328
327
325
325
319
322
323
323
315
317
315
315
313
310
305
304
307
305
304
304
300
298
297
294
297
294
293
291
292
294
289
287
285
286
282
282
281
281
281
280
278
275
271
273
273
270
270
265
266
267
267
264
261
259
263
262
259
258
253
255
253
253
252
252
250
252
245
247
248
245
243
242
241
243
239
239
239
236
237
235
236
231
231
230
230
230
230
228
228
225
227
225
223
224
221
221
217
217
220
219
215
216
213
215
212
211
210
212
209
211
209
207
206
206
204
204
206
202
203
199
200
200
199
197
197
197
196
198
197
196
197
194
195
192
191
190
189
189
189
188
188
184
185
187
183
184
183
180
184
181
182
181
178
179
175
176
175
176
177
175
173
173
173
172
170
169
172
171
169
166
170
167
168
165
166
167
165
165
165
164
162
163
161
162
161
160
162
161
161
162
158
159
155
157
157
154
156
155
153
156
153
152
152
151
153
153
150
151
149
149
151
148
147
148
147
146
146
143
144
144
143
144
143
141
143
142
141
141
139
138
138
139
140
140
137
138
138
136
139
135
136
135
133
134
133
133
132
133
132
135
133
131
132
133
131
131
133
131
129
130
128
128
129
126
126
126
126
127
126
124
125
125
124
124
123
123
121
121
123
121
122
123
121
120
120
122
121
118
118
117
118
119
117
115
118
115
117
116
117
117
115
115
115
114
113
112
115
115
113
112
114
111
114
111
112
111
110
109
110
108
109
111
109
109
106
109
107
111
106
106
106
106
106
106
106
106
105
105
102
106
105
104
104
104
104
102
103
101
101
101
102
102
101
101
101
101
102
99
100
101
99
99
101
99
98
99
99
99
99
97
98
97
96
99
98
97
97
98
97
96
96
97
97
95
96
96
95
96
96
94
93
94
93
92
92
94
94
93
92
92
92
92
91
93
91
92
92
92
91
90
90
90
91
89
89
89
89
90
88
87
88
88
89
88
88
88
86
87
87
87
89
86
88
87
86
85
88
86
87
86
87
85
86
85
84
85
85
85
85
85
83
83
83
82
85
83
83
80
81
82
82
83
82
82
83
79
81
80
81
83
81
80
80
80
82
80
79
81
78
80
79
79
81
80
78
79
80
79
77
78
79
77
78
78
78
77
76
79
78
77
77
76
75
77
76
76
75
76
76
75
77
74
75
75
76
75
75
76
74
74
75
74
74
74
73
71
73
73
74
75
73
75
72
73
74
73
72
73
71
71
70
71
72
72
71
71
71
72
71
70
70
69
73
71
71
71
71
70
69
71
68
68
69
69
69
70
69
69
70
68
68
69
69
69
69
69
68
69
69
68
69
68
68
69
68
67
68
69
67
67
67
67
67
67
68
68
67
67
68
68
65
66
69
66
65
67
68
65
66
64
65
66
66
65
64
64
65
64
65
66
64
64
64
64
64
64
64
65
64
64
64
63
63
63
64
62
63
63
64
63
63
64
63
64
61
63
62
63
63
63
62
62
63
65
62
62
63
62
62
63
62
62
60
61
63
60
61
62
62
60
61
62
59
61
60
60
60
61
60
59
61
59
61
60
59
60
60
59
59
61
60
60
59
59
59
58
62
59
59
59
59
60
60
57
58
59
59
58
58
58
58
58
58
60
57
56
59
58
57
57
56
57
56
60
58
57
56
58
58
56
58
57
57
57
56
57
58
55
57
57
55
57
58
55
55
55
57
56
55
56
55
55
56
57
56
57
55
55
55
57
56
53
55
53
55
54
54
54
54
55
54
54
56
55
55
53
55
55
54
55
54
54
52
53
54
55
54
54
54
54
56
59
59
60
62
64
66
69
71
76
78
81
87
91
97
100
106
112
119
126
133
140
147
159
167
175
186
198
203
217
229
240
257
269
278
292
299
316
332
345
364
378
389
403
423
441
458
475
489
507
520
543
559
580
594
610
623
652
668
682
706
714
738
765
780
798
816
839
851
874
888
912
927
947
966
984
998
1017
1034
1048
1063
1079
1097
1118
1129
1151
1165
1189
1199
1210
1227
1242
1255
1273
1292
1302
1322
1327
1344
1352
1368
1381
1396
1413
1424
1433
1442
1452
1459
1476
1486
1496
1503
1516
1520
1522
1534
1547
1556
1562
1568
1569
1573
1576
1578
1580
1592
1594
1598
1597
1601
1598
1603
1597
1609
1612
1605
1602
1605
1610
1608
1606
1610
1605
1616
1607
1606
1611
1614
1623
1624
1632
1627
1633
1636
1644
1651
1649
1657
1661
1659
1661
1672
1676
1689
1698
1695
1706
1711
1715
1725
1727
1731
1741
1749
1762
1761
1767
1775
1770
1785
1794
1804
1806
1808
1814
1821
1829
1830
1825
1836
1838
1843
1845
1854
1856
1867
1865
1873
1874
1876
1877
1887
1893
1898
1896
1901
1902
1910
1916
1924
1922
1934
1933
1941
1943
1946
1953
1960
1973
1980
1982
1985
1995
1992
1997
2011
2013
2025
2025
2028
2034
2034
2045
2053
2054
2065
2068
2070
2078
2085
2084
2094
2089
2097
2099
2110
2108
2113
2115
2115
2124
2120
2127
2127
2124
2140
2140
2143
2145
2142
2148
2156
2160
2163
2164
2163
2172
2174
2175
2188
2182
2185
2193
2195
2198
2194
2203
2209
2213
2223
2227
2229
2238
2234
2248
2250
2255
2264
2266
2274
2286
2291
2307
2305
2301
2317
2320
2329
2344
2355
2346
2360
2369
2376
2385
2397
2402
2405
2419
2430
2430
2443
2450
2461
2467
2476
2481
2500
2501
2508
2521
2525
2536
2545
2557
2566
2577
2586
2602
2606
2615
2628
2636
2648
2657
2676
2685
2695
2706
2715
2730
2736
2757
2771
2785
2792
2804
2828
2838
2852
2862
2870
2898
2910
2920
2936
2952
2967
2993
3008
3023
3034
3055
3079
3096
3112
3127
3143
3159
3182
3207
3220
3237
3259
3277
3301
3324
3342
3366
3374
3397
3416
3448
3472
3481
3502
3535
3556
3573
3594
3612
3648
3657
3685
3700
3726
3759
3776
3792
3818
3847
3871
3892
3910
3938
3966
3991
4014
4033
4062
4090
4114
4139
4168
4185
4208
4240
4262
4288
4313
4341
4372
4400
4419
4448
4472
4509
4527
4553
4578
4602
4632
4662
4694
4722
4743
4768
4801
4825
4858
4883
4914
4940
4958
5000
5026
5047
5075
5102
5136
5164
5194
5225
5242
5274
5298
5318
5353
5381
5412
5430
5457
5486
5506
5540
5562
5576
5606
5633
5668
5679
5709
5730
5750
5764
5798
5815
5840
5862
5884
5905
5926
5940
5965
5989
6008
6024
6037
6061
6076
6101
6109
6133
6150
6172
6193
6203
6217
6233
6249
6268
6284
6299
6320
6333
6340
6365
6373
6386
6401
6412
6429
6437
6467
6473
6483
6494
6505
6524
6536
6551
6560
6568
6582
6598
6614
6628
6645
6644
6661
6677
6690
6696
6713
6724
6726
6741
6753
6765
6771
6784
6805
6817
6823
6838
6835
6854
6865
6882
6886
6903
6910
6918
6933
6946
6956
6965
6974
6992
7000
7010
7020
7026
7042
7046
7064
7077
7081
7080
7102
7118
7128
7132
7142
7141
7165
7166
7176
7188
7193
7198
7207
7220
7229
7236
7248
7261
7264
7274
7292
7285
7301
7314
7316
7327
7334
7347
7346
7357
7366
7383
7387
7396
7399
7408
7416
7426
7444
7452
7456
7453
7472
7478
7496
7499
7506
7521
7525
7535
7541
7553
7564
7575
7585
7589
7600
7605
7618
7636
7640
7648
7662
7672
7676
7690
7698
7712
7710
7726
7729
7739
7754
7769
7774
7792
7793
7800
7813
7818
7832
7831
7851
7855
7865
7876
7880
7884
7899
7910
7930
7927
7938
7936
7952
7956
7963
7973
7991
8000
8004
8008
8013
8020
8032
8041
8054
8061
8064
8069
8079
8084
8092
8101
8113
8128
8130
8129
8139
8147
8157
8168
8169
8180
8186
8196
8208
8212
8220
8223
8230
8239
8251
8251
8262
8260
8277
8288
8292
8302
8305
8308
8314
8324
8325
8331
8336
8348
8352
8354
8362
8369
8384
8383
8386
8388
8395
8391
8392
8403
8411
8420
8420
8418
8428
8421
8426
8432
8428
8433
8440
8439
8440
8441
8450
8452
8454
8456
8454
8453
8458
8462
8466
8466
8464
8465
8468
8471
8465
8482
8475
8484
8484
8489
8488
8484
8491
8496
8494
8494
8500
8502
8487
8496
8503
8500
8504
8509
8516
8512
8516
8516
8520
8531
8527
8520
8529
8528
8532
8526
8532
8543
8544
8547
8539
8540
8533
8553
8547
8547
8543
8553
8553
8558
8550
8549
8556
8561
8562
8554
8554
8564
8574
8564
8572
8566
8567
8564
8577
8575
8576
8573
8580
8588
8586
8596
8594
8604
8600
8616
8611
8613
8625
8627
8640
8645
8649
8652
8660
8672
8682
8680
8686
8700
8718
8733
8734
8741
8751
8762
8782
8796
8802
8814
8820
8837
8856
8865
8882
8900
8912
8928
8937
8958
8974
8990
9001
9024
9035
9059
9068
9090
9101
9125
9136
9156
9178
9188
9203
9227
9241
9258
9276
9286
9307
9321
9344
9355
9375
9386
9416
9415
9436
9460
9470
9484
9506
9518
9537
9559
9570
9573
9592
9617
9636
9656
9668
9680
9700
9720
9745
9744
9766
9780
9797
9813
9833
9845
9870
9884
9908
9920
9933
9948
9957
9980
9994
10014
10027
10048
10052
10076
10083
10108
10124
10136
10152
10162
10176
10181
10208
10221
10226
10246
10253
10273
10281
10298
10300
10310
10314
10339
10348
10356
10351
10370
10374
10388
10392
10400
10400
10405
10412
10416
10426
10433
10444
10444
10442
10447
10460
10457
10455
10461
10464
10472
10474
10470
10473
10480
10487
10482
10482
10488
10484
10490
10500
10492
10492
10496
10484
10494
10484
10492
10485
10492
10484
10484
10480
10484
10483
10482
10474
10482
10479
10489
10480
10470
10474
10479
10482
10473
10472
10474
10478
10484
10483
10476
10474
10484
10492
10490
10494
10491
10492
10502
10513
10517
10516
10520
10524
10536
10542
10541
10548
10550
10560
10572
10580
10586
10589
10595
10612
10620
10629
10632
10646
10656
10661
10676
10673
10696
10696
10713
10726
10724
10734
10756
10764
10765
10779
10789
10807
10816
10832
10831
10838
10859
10872
10880
10889
10900
10898
10916
10932
10947
10950
10968
10967
10972
10982
11002
11017
11024
11031
11032
11042
11053
11056
11068
11078
11088
11092
11100
11105
11118
11129
11134
11136
11149
11144
11154
11158
11157
11167
11172
11188
11178
11188
11200
11201
11204
11210
11210
11210
11221
11223
11234
11225
11232
11233
11237
11246
11251
11248
11248
11252
11262
11260
11270
11262
11268
11283
11270
11270
11276
11286
11290
11282
11284
11281
11299
11295
11297
11301
11304
11305
11317
11312
11319
11317
11316
11324
11326
11333
11335
11344
11348
11350
11347
11354
11357
11358
11367
11383
11390
11389
11392
11404
11415
11422
11430
11438
11446
11454
11464
11472
11492
11502
11519
11530
11540
11551
11566
11581
11602
11610
11620
11632
11648
11656
11673
11687
11708
11717
11734
11749
11758
11782
11800
11808
11818
11834
11854
11874
11883
11896
11912
11940
11955
11972
11982
11996
12016
12040
12057
12068
12085
12100
12121
12141
12156
12172
12196
12212
12230
12258
12268
12291
12310
12340
12360
12387
12398
12418
12446
12467
12484
12500
12526
12556
12581
12598
12616
12646
12674
12697
12719
12745
12764
12786
12822
12840
12870
12890
12908
12938
12969
12988
13001
13029
13064
13093
13114
13132
13158
13192
13217
13236
13260
13286
13320
13345
13369
13384
13416
13448
13478
13502
13522
13545
13570
13607
13635
13648
13678
13708
13746
13774
13796
13828
13851
13878
13908
13945
13967
14004
14036
14057
14082
14120
14157
14190
14209
14244
14278
14318
14334
14369
14400
14432
14468
14495
14526
14554
14582
14617
14654
14693
14720
14738
14777
14815
14830
14862
14892
14930
14964
14992
15017
15048
15070
15107
15142
15170
15188
15217
15249
15278
15314
15350
15383
15398
15424
15454
15484
15513
15545
15568
15595
15620
15650
15680
15702
15730
15768
15786
15820
15841
15860
15891
15920
15952
15972
15997
16020
16048
16080
16104
16119
16148
16174
16210
16237
16257
16278
16304
16326
16357
16383
16399
16421
16452
16482
16508
16522
16540
16574
16594
16628
16653
16667
16696
16722
16741
16776
16796
16821
16845
16869
16898
16922
16942
16967
16996
17010
17038
17058
17086
17116
17142
17156
17178
17192
17224
17252
17264
17289
17300
17324
17344
17365
17389
17402
17420
17436
17447
17461
17486
17498
17513
17527
17536
17548
17560
17573
17588
17604
17616
17625
17642
17652
17660
17661
17670
17680
17693
17710
17720
17728
17732
17737
17740
17750
17764
17775
17782
17790
17796
17797
17816
17816
17828
17836
17842
17858
17873
17878
17890
17897
17904
17918
17919
17928
17946
17957
17962
17964
17987
17992
18012
18023
18036
18040
18052
18063
18070
18082
18104
18116
18134
18144
18154
18168
18180
18205
18218
18232
18236
18254
18269
18294
18308
18322
18332
18344
18373
18382
18403
18424
18436
18448
18467
18482
18502
18516
18546
18562
18579
18600
18618
18624
18645
18664
18682
18707
18721
18732
18749
18761
18781
18798
18818
18840
18850
18868
18876
18893
18902
18918
18948
18950
18965
18980
18986
19004
19014
19029
19033
19040
19050
19052
19076
19080
19092
19102
19104
19102
19108
19108
19128
19132
19142
19149
19148
19151
19148
19158
19162
19166
19166
19167
19161
19162
19165
19166
19166
19164
19152
19153
19154
19152
19144
19140
19138
19124
19132
19124
19124
19108
19101
19094
19089
19084
19070
19060
19053
19048
19044
19036
19017
19009
19006
18996
18988
18980
18966
18948
18941
18930
18929
18920
18898
18882
18880
18870
18870
18852
18847
18833
18822
18812
18800
18804
18792
18784
18764
18760
18756
18752
18747
18731
18724
18720
18718
18714
18708
18698
18684
18692
18690
18678
18670
18670
18670
18669
18662
18660
18660
18660
18650
18655
18651
18663
18658
18660
18654
18654
18657
18672
18668
18661
18660
18672
18673
18663
18665
18677
18684
18688
18681
18690
18700
18698
18692
18708
18717
18714
18716
18726
18732
18728
18748
18754
18760
18761
18766
18780
18790
18788
18794
18808
18824
18824
18826
18839
18854
18861
18865
18876
18888
18904
18916
18916
18928
18948
18960
18964
18972
18990
19010
19010
19030
19032
19044
19060
19064
19088
19104
19115
19124
19132
19150
19172
19190
19195
19225
19234
19252
19260
19278
19300
19316
19326
19338
19372
19382
19389
19413
19444
19453
19466
19497
19514
19520
19552
19573
19580
19607
19638
19652
19668
19692
19719
19743
19760
19782
19806
19836
19864
19885
19916
19932
19961
19995
20015
20047
20064
20090
20116
20137
20167
20194
20226
20258
20267
20296
20327
20368
20384
20420
20444
20476
20488
20520
20544
20584
20621
20652
20664
20697
20724
20756
20784
20819
20844
20876
20902
20929
20962
20998
21024
21055
21080
21116
21148
21185
21208
21234
21276
21310
21336
21368
21391
21424
21457
21487
21519
21564
21588
21623
21644
21682
21720
21756
21799
21825
21867
21889
21920
21946
21996
22022
22048
22092
22128
22166
22188
22220
22256
22300
22336
22357
22382
22428
22468
22498
22528
22554
22600
22639
22670
22690
22724
22768
22797
22842
22870
22900
22932
22973
23011
23040
23064
23100
23136
23173
23206
23232
23262
23305
23343
23380
23412
23438
23471
23504
23552
23580
23605
23649
23687
23714
23742
23792
23821
23858
23882
23920
23959
23998
24018
24064
24104
24130
24162
24197
24232
24262
24296
24340
24380
24410
24445
24490
24514
24550
24603
24632
24660
24704
24744
24781
24817
24860
24894
24924
24980
25016
25036
25080
25125
25162
25192
25225
25272
25308
25348
25388
25426
25452
25496
25536
25580
25602
25656
25676
25724
25754
25788
25837
25874
25900
25934
25974
26020
26056
26098
26117
26154
26196
26218
26254
26300
26336
26358
26400
26432
26468
26496
26528
26558
26584
26620
26672
26698
26734
26756
26786
26820
26868
26889
26922
26948
26976
27004
27033
27074
27108
27132
27157
27183
27221
27246
27280
27302
27316
27355
27380
27413
27444
27476
27508
27520
27544
27564
27596
27618
27645
27676
27686
27714
27741
27768
27804
27816
27840
27852
27876
27892
27928
27952
27979
27986
28005
28021
28053
28069
28096
28127
28128
28146
28173
28196
28218
28241
28246
28260
28276
28303
28310
28340
28356
28372
28376
28390
28409
28426
28444
28464
28480
28480
28485
28496
28512
28526
28542
28543
28558
28556
28565
28566
28576
28582
28596
28598
28596
28592
28592
28593
28594
28602
28602
28600
28592
28581
28580
28584
28576
28565
28548
28540
28532
28518
28524
28510
28492
28480
28464
28449
28428
28404
28380
28361
28336
28316
28292
28265
28246
28208
28174
28133
28104
28066
28038
28005
27972
27942
27912
27872
27830
27796
27757
27724
27684
27657
27620
27580
27540
27495
27452
27417
27384
27344
27298
27255
27202
27152
27104
27050
27000
26964
26910
26854
26796
26740
26684
26636
26585
26526
26464
26400
26336
26282
26223
26154
26092
26014
25966
25900
25842
25772
25698
25628
25561
25508
25437
25364
25294
25224
25160
25081
24996
24932
24870
24792
24713
24644
24570
24500
24420
24348
24266
24212
24140
24068
23984
23908
23844
23774
23704
23630
23549
23485
23423
23352
23289
23216
23153
23084
23020
22964
22916
22849
22788
22725
22678
22628
22582
22524
22464
22417
22363
22329
22281
22236
22210
22151
22107
22067
22021
21986
21956
21924
21888
21849
21812
21780
21756
21726
21698
21662
21637
21598
21581
21564
21542
21520
21488
21473
21462
21456
21440
21424
21399
21396
21374
21377
21378
21370
21356
21345
21356
21346
21346
21361
21348
21365
21360
21372
21372
21378
21392
21406
21412
21430
21446
21447
21470
21496
21510
21532
21544
21570
21578
21603
21620
21641
21676
21704
21726
21760
21784
21800
21825
21860
21882
21911
21952
21988
22016
22049
22076
22106
22132
22176
22217
22257
22292
22340
22368
22402
22440
22484
22528
22571
22618
22661
22708
22738
22784
22844
22893
22932
22976
23039
23093
23146
23189
23244
23300
23356
23420
23470
23524
23581
23638
23711
23766
23837
23882
23936
23996
24072
24138
24202
24262
24318
24386
24456
24522
24592
24666
24728
24788
24860
24932
25006
25084
25156
25224
25288
25357
25434
25516
25588
25652
25720
25800
25879
25956
26033
26104
26180
26244
26312
26404
26476
26551
26628
26704
26782
26853
26921
26994
27076
27156
27236
27313
27386
27456
27537
27624
27692
27773
27838
27902
27988
28072
28142
28215
28282
28352
28436
28504
28580
28641
28708
28780
28855
28928
28996
29062
29121
29188
29266
29334
29398
29455
29532
29592
29662
29716
29796
29844
29924
29972
30045
30102
30180
30240
30294
30369
30416
30493
30540
30615
30668
30736
30791
30848
30920
30972
31032
31092
31150
31221
31268
31340
31389
31452
31506
31576
31628
31700
31748
31802
31868
31916
31992
32040
32096
32156
32224
32273
32332
32388
32449
32500
32556
32620
32682
32724
32793
32856
32903
32950
33013
33081
33137
33184
33246
33280
33357
33409
33457
33516
33570
33628
33685
33740
33792
33833
33893
33949
34000
34064
34108
34149
34212
34260
34328
34376
34414
34480
34534
34586
34638
34688
34728
34784
34849
34900
34948
34992
35054
35101
35156
35204
35244
35300
35376
35416
35452
35508
35559
35621
35674
35720
35768
35812
35876
35920
35972
36024
36076
36124
36176
36212
36280
36324
36374
36416
36479
36532
36576
36624
36680
36727
36776
36820
36878
36924
36976
37020
37068
37124
37180
37222
37280
37330
37383
37428
37472
37536
37594
37644
37697
37732
37788
37852
37904
37952
38004
38068
38116
38180
38220
38276
38336
38372
38440
38484
38546
38588
38644
38695
38748
38804
38848
38901
38964
39013
39049
39112
39152
39201
39253
39300
39348
39384
39444
39480
39540
39588
39628
39664
39712
39759
39800
39848
39884
39928
39976
40016
40056
40088
40144
40175
40216
40242
40294
40328
40364
40404
40433
40476
40516
40548
40580
40620
40648
40690
40728
40762
40790
40806
40852
40896
40920
40948
40970
41016
41047
41073
41110
41132
41160
41196
41224
41256
41276
41308
41348
41372
41392
41425
41460
41488
41508
41524
41568
41592
41620
41644
41656
41672
41708
41740
41764
41772
41796
41816
41838
41868
41888
41900
41928
41940
41953
41968
41972
42004
42020
42042
42048
42056
42078
42084
42096
42114
42116
42122
42148
42160
42164
42180
42172
42192
42200
42212
42216
42228
42242
42245
42254
42255
42274
42288
42290
42284
42296
42305
42306
42332
42340
42344
42356
42349
42369
42382
42390
42393
42396
42412
42421
42428
42437
42440
42446
42460
42468
42476
42488
42508
42500
42503
42521
42536
42556
42560
42564
42583
42599
42605
42622
42620
42648
42674
42678
42688
42700
42720
42734
42760
42776
42788
42804
42839
42848
42864
42880
42908
42940
42951
42962
42998
43020
43044
43072
43084
43105
43137
43166
43192
43204
43232
43244
43264
43288
43328
43340
43377
43392
43404
43436
43458
43488
43498
43512
43532
43556
43568
43588
43604
43624
43652
43655
43676
43700
43709
43740
43744
43756
43780
43800
43816
43840
43864
43860
43896
43911
43936
43944
43953
43972
43988
44012
44028
44048
44060
44068
44097
44112
44124
44148
44164
44172
44190
44196
44216
44229
44242
44266
44272
44292
44307
44303
44332
44353
44360
44364
44374
44392
44404
44412
44436
44442
44446
44440
44453
44476
44484
44494
44490
44496
44508
44512
44510
44520
44536
44540
44527
44540
44524
44536
44548
44541
44536
44552
44550
44556
44548
44549
44537
44534
44536
44548
44544
44545
44536
44520
44536
44532
44529
44512
44522
44512
44500
44502
44496
44488
44486
44480
44472
44458
44465
44452
44440
44430
44420
44417
44420
44404
44383
44373
44368
44370
44348
44336
44316
44308
44294
44307
44280
44254
44240
44228
44213
44204
44200
44164
44167
44156
44137
44128
44108
44092
44084
44064
44044
44021
44024
44008
43982
43970
43972
43952
43928
43916
43908
43889
43872
43863
43836
43824
43812
43796
43784
43757
43750
43740
43721
43700
43700
43684
43660
43640
43638
43636
43620
43612
43576
43564
43560
43550
43536
43511
43516
43493
43484
43488
43456
43430
43439
43436
43416
43408
43399
43386
43364
43364
43350
43340
43320
43313
43294
43288
43288
43264
43252
43248
43238
43232
43212
43208
43194
43180
43176
43166
43160
43150
43124
43112
43118
43092
43093
43086
43064
43056
43038
43032
43020
43028
43013
43000
42972
42962
42966
42948
42928
42916
42902
42889
42880
42868
42844
42841
42824
42815
42804
42792
42768
42764
42740
42730
42705
42720
42696
42684
42660
42628
42628
42613
42612
42580
42561
42552
42537
42518
42500
42476
42461
42453
42448
42436
42420
42396
42364
42368
42340
42336
42328
42309
42288
42268
42260
42256
42240
42208
42208
42209
42188
42180
42156
42151
42148
42132
42120
42110
42105
42112
42088
42068
42068
42068
42056
42034
42036
42038
42024
42020
42000
41999
41980
41984
41964
41964
41948
41932
41928
41924
41916
41908
41910
41892
41880
41872
41860
41854
41844
41836
41832
41817
41808
41804
41806
41792
41772
41772
41772
41765
41752
41744
41740
41734
41734
41724
41724
41708
41712
41700
41696
41688
41680
41674
41676
41680
41672
41664
41646
41639
41656
41653
41634
41622
41620
41621
41636
41623
41610
41608
41598
41604
41606
41604
41604
41592
41591
41590
41592
41584
41580
41574
41588
41584
41566
41572
41572
41568
41560
41570
41572
41572
41564
41565
41556
41556
41564
41544
41552
41540
41548
41543
41537
41534
41534
41544
41532
41528
41518
41514
41528
41520
41510
41510
41508
41489
41508
41480
41480
41464
41460
41462
41454
41444
41438
41421
41406
41409
41404
41392
41376
41372
41348
41357
41340
41337
41320
41316
41301
41292
41262
41276
41252
41236
41232
41226
41208
41205
41188
41176
41172
41160
41134
41119
41112
41116
41119
41096
41088
41056
41052
41060
41038
41038
41016
41008
41008
41000
40996
40983
40968
40961
40952
40960
40964
40941
40937
40932
40928
40916
40936
40914
40922
40921
40920
40913
40902
40908
40912
40900
40912
40908
40904
40904
40922
40920
40917
40912
40916
40930
40934
40948
40952
40934
40956
40956
40959
40980
40976
40980
40988
41012
41006
41008
41020
41016
41024
41028
41039
41052
41062
41065
41060
41080
41071
41088
41100
41108
41120
41110
41104
41132
41132
41148
41140
41152
41152
41160
41164
41168
41168
41172
41173
41180
41198
41188
41206
41204
41204
41204
41220
41220
41228
41228
41240
41242
41256
41260
41262
41262
41280
41284
41293
41288
41300
41304
41312
41317
41326
41336
41343
41348
41360
41378
41372
41384
41384
41396
41400
41421
41420
41422
41436
41440
41448
41474
41477
41472
41484
41496
41508
41510
41504
41508
41524
41532
41548
41552
41554
41556
41553
41549
41564
41568
41588
41598
41592
41590
41600
41601
41614
41612
41628
41628
41644
41648
41637
41660
41656
41670
41680
41683
41692
41702
41697
41708
41718
41734
41732
41756
41764
41768
41768
41774
41780
41785
41804
41806
41828
41820
41828
41829
41832
41844
41850
41868
41889
41870
41880
41876
41888
41876
41886
41880
41900
41896
41908
41900
41892
41896
41893
41900
41894
41895
41884
41880
41886
41884
41888
41880
41872
41872
41852
41856
41852
41846
41844
41852
41840
41828
41828
41820
41822
41824
41818
41804
41804
41788
41789
41791
41788
41788
41764
41780
41772
41768
41761
41765
41748
41750
41752
41758
41752
41758
41761
41744
41760
41756
41754
41752
41754
41764
41756
41764
41760
41772
41786
41793
41792
41794
41804
41808
41824
41847
41848
41848
41860
41879
41900
41914
41924
41928
41936
41956
41974
41984
42008
42036
42040
42048
42068
42078
42084
42101
42129
42148
42162
42173
42188
42206
42224
42230
42252
42263
42276
42300
42312
42334
42353
42372
42380
42394
42412
42428
42440
42469
42478
42500
42528
42537
42562
42564
42588
42598
42616
42636
42646
42672
42700
42724
42737
42748
42764
42772
42788
42821
42828
42854
42876
42892
42908
42910
42948
42952
42969
42992
42996
43020
43038
43054
43076
43094
43105
43121
43140
43156
43180
43188
43200
43220
43241
43264
43276
43296
43310
43328
43342
43358
43372
43384
43404
43428
43436
43444
43456
43470
43488
43503
43508
43528
43536
43548
43560
43572
43585
43584
43592
43602
43617
43628
43642
43644
43655
43662
43670
43684
43684
43700
43713
43712
43716
43712
43710
43712
43729
43712
43730
43733
43732
43740
43736
43732
43736
43736
43744
43740
43756
43740
43736
43744
43734
43724
43732
43722
43725
43720
43716
43700
43700
43692
43696
43688
43680
43680
43668
43672
43664
43660
43652
43654
43648
43633
43626
43620
43608
43596
43596
43590
43596
43582
43568
43568
43560
43564
43553
43552
43537
43533
43540
43533
43522
43524
43510
43516
43504
43498
43487
43484
43482
43477
43488
43468
43462
43460
43468
43456
43456
43448
43452
43441
43448
43438
43432
43432
43428
43429
43428
43436
43431
43436
43420
43428
43428
43416
43428
43416
43422
43420
43422
43420
43414
43420
43422
43432
43412
43404
43421
43428
43409
43405
43416
43431
43420
43413
43409
43420
43429
43424
43425
43418
43416
43424
43444
43438
43432
43424
43428
43438
43434
43440
43428
43446
43428
43448
43448
43448
43456
43460
43456
43454
43468
43469
43486
43476
43485
43476
43476
43482
43492
43504
43504
43501
43508
43510
43516
43534
43536
43537
43544
43556
43552
43560
43578
43580
43578
43584
43596
43606
43616
43624
43612
43626
43628
43653
43668
43684
43671
43680
43688
43700
43696
43704
43712
43728
43748
43750
43749
43757
43780
43790
43792
43796
43796
43818
43824
43824
43834
43848
43864
43870
43864
43868
43895
43892
43900
43908
43902
43916
43928
43930
43933
43940
43941
43948
43964
43953
43975
43968
43976
43972
43985
43976
43992
44006
43992
44000
44000
44006
44006
44016
44020
44030
44048
44036
44048
44046
44048
44048
44061
44084
44082
44092
44094
44112
44114
44124
44136
44126
44148
44159
44168
44168
44182
44204
44210
44228
44240
44260
44254
44268
44276
44308
44308
44324
44336
44348
44372
44376
44381
44404
44412
44420
44437
44448
44470
44492
44502
44516
44528
44533
44556
44556
44564
44580
44592
44608
44620
44633
44646
44668
44668
44679
44686
44700
44700
44720
44732
44752
44768
44768
44776
44788
44798
44804
44820
44832
44852
44860
44864
44885
44896
44908
44919
44936
44940
44952
44972
44992
45000
45012
45032
45052
45068
45080
45100
45116
45127
45152
45175
45185
45204
45224
45234
45264
45284
45297
45316
45333
45358
45366
45409
45445
45437
45468
45478
45524
45522
45560
45576
45600
45633
45652
45664
45694
45708
45740
45780
45798
45806
45828
45864
45908
45928
45936
45972
45998
46032
46052
46084
46106
46132
46152
46196
46216
46240
46282
46312
46336
46366
46396
46439
46452
46472
46524
46552
46591
46618
46644
46676
46719
46748
46772
46796
46833
46862
46894
46906
46966
47008
47032
47056
47094
47110
47156
47180
47212
47244
47270
47300
47344
47376
47396
47437
47469
47496
47534
47552
47588
47608
47647
47692
47716
47751
47768
47796
47825
47853
47888
47916
47944
47972
47989
48028
48040
48072
48112
48140
48148
48164
48192
48238
48273
48284
48292
48334
48351
48382
48388
48428
48458
48484
48501
48522
48542
48574
48596
48604
48640
48671
48688
48708
48735
48764
48782
48820
48838
48852
48884
48928
48937
48972
48976
48996
49041
49061
49103
49116
49136
49164
49188
49223
49247
49264
49284
49312
49340
49372
49376
49408
49416
49444
49444
49472
49486
49508
49518
49532
49540
49560
49548
49572
49596
49584
49596
49596
49601
49596
49600
49598
49598
49588
49582
49568
49540
49540
49528
49500
49488
49460
49444
49392
49376
49350
49320
49288
49256
49206
49180
49120
49086
49052
48996
48944
48900
48826
48781
48728
48660
48606
48556
48476
48444
48352
48288
48222
48156
48096
48016
47944
47876
47800
47734
47660
47580
47508
47440
47360
47285
47206
47132
47068
46976
46910
46836
46756
46680
46596
46532
46437
46364
46296
46208
46128
46052
45956
45888
45814
45720
45638
45559
45480
45400
45304
45215
45136
45054
44968
44868
44784
44694
44604
44520
44426
44342
44246
44164
44058
43964
43876
43776
43673
43564
43476
43374
43284
43175
43070
42976
42862
42758
42660
42544
42444
42332
42222
42117
42008
41919
41792
41684
41564
41452
41353
41236
41124
40996
40896
40784
40672
40570
40444
40326
40212
40108
39996
39880
39776
39663
39544
39436
39316
39216
39100
38992
38879
38766
38653
38548
38428
38314
38210
38108
37993
37884
37780
37668
37558
37433
37332
37232
37114
37000
36884
36780
36676
36564
36444
36325
36212
36104
35993
35880
35765
35644
35534
35425
35308
35196
35076
34968
34854
34740
34616
34500
34384
34270
34158
34036
33912
33796
33700
33574
33462
33328
33209
33094
32979
32858
32721
32620
32504
32384
32258
32136
32013
31908
31776
31652
31544
31424
31296
31170
31060
30946
30819
30700
30580
30457
30348
30224
30114
29996
29876
29758
29632
29530
29417
29302
29181
29068
28958
28837
28726
28609
28500
28382
28260
28156
28044
27924
27804
27708
27593
27474
27366
27240
27132
27025
26911
26806
26684
26565
26456
26350
26224
26116
25996
25884
25769
25660
25524
25423
25292
25186
25054
24944
24820
24708
24594
24460
24357
24226
24114
23990
23863
23750
23620
23494
23374
23252
23136
23017
22900
22776
22648
22525
22418
22308
22178
22052
21936
21812
21710
21596
21487
21372
21256
21138
21034
20932
20828
20721
20610
20506
20412
20316
20232
20124
20032
19940
19854
19764
19684
19594
19508
19428
19357
19277
19207
19126
19052
18985
18925
18858
18789
18716
18667
18596
18546
18484
18434
18368
18310
18260
18219
18158
18088
18046
18004
17957
17908
17856
17798
17756
17698
17648
17597
17540
17492
17442
17384
17334
17277
17218
17171
17120
17060
16999
16942
16890
16836
16772
16716
16661
16610
16543
16481
16428
16368
16308
16255
16195
16124
16070
16016
15960
15892
15836
15780
15726
15676
15618
15556
15492
15436
15381
15326
15281
15228
15172
15114
15062
15012
14970
14916
14864
14812
14762
14701
14660
14617
14565
14513
14473
14422
14375
14314
14278
14238
14194
14140
14092
14048
13998
13957
13920
13866
13831
13774
13732
13688
13660
13609
13560
13513
13462
13424
13382
13348
13294
13252
13198
13153
13111
13065
13018
12978
12924
12882
12836
12796
12748
12707
12644
12608
12560
12520
12473
12428
12383
12344
12302
12260
12216
12173
12132
12101
12068
12029
11982
11948
11908
11876
11844
11803
11766
11739
11708
11672
11632
11602
11566
11545
11517
11487
11456
11435
11409
11380
11360
11336
11308
11283
11252
11227
11200
11172
11156
11130
11102
11084
11046
11020
11006
10982
10955
10928
10905
10872
10862
10836
10804
10773
10750
10728
10716
10682
10660
10634
10608
10577
10550
10533
10512
10484
10456
10428
10404
10388
10361
10334
10300
10284
10256
10236
10208
10188
10169
10138
10110
10083
10057
10026
10008
9985
9956
9928
9892
9863
9838
9818
9796
9761
9736
9705
9680
9653
9617
9596
9572
9548
9521
9500
9477
9457
9432
9411
9384
9360
9339
9328
9313
9292
9280
9261
9242
9230
9229
9219
9209
9196
9190
9185
9180
9176
9172
9177
9178
9191
9192
9201
9208
9212
9230
9236
9260
9264
9284
9293
9304
9334
9350
9376
9400
9420
9434
9462
9492
9513
9540
9563
9582
9612
9630
9669
9691
9716
9744
9767
9790
9817
9847
9868
9893
9912
9932
9958
9977
10001
10028
10050
10070
10098
10114
10141
10172
10190
10208
10239
10256
10276
10300
10314
10340
10368
10389
10420
10430
10454
10489
10512
10537
10558
10574
10601
10625
10652
10674
10692
10720
10741
10776
10804
10826
10841
10871
10893
10924
10948
10972
10990
11016
11044
11060
11094
11113
11140
11159
11175
11198
11220
11242
11275
11288
11310
11328
11342
11366
11396
11421
11436
11448
11466
11485
11504
11533
11557
11564
11582
11597
11621
11644
11657
11672
11686
11706
11722
11749
11761
11778
11794
11811
11836
11855
11876
11896
11909
11925
11956
11974
11992
12014
12034
12058
12082
12107
12130
12159
12176
12208
12231
12262
12284
12308
12343
12372
12408
12426
12466
12502
12520
12550
12581
12630
12660
12682
12712
12761
12794
12825
12865
12901
12943
12964
12996
13048
13088
13122
13158
13196
13240
13282
13306
13345
13390
13432
13472
13508
13544
13585
13621
13669
13710
13744
13780
13817
13868
13914
13938
13976
14017
14061
14102
14140
14172
14220
14257
14292
14322
14369
14396
14444
14476
14518
14551
14586
14626
14668
14692
14730
14766
14806
14823
14875
14900
14921
14974
14997
15020
15071
15097
15128
15160
15190
15226
15261
15284
15313
15353
15365
15408
15425
15466
15492
15516
15545
15580
15602
15624
15660
15686
15714
15741
15764
15790
15815
15846
15872
15894
15924
15940
15972
16002
16026
16052
16074
16097
16124
16156
16179
16197
16213
16244
16278
16301
16334
16344
16362
16402
16430
16458
16476
16500
16531
16556
16582
16604
16634
16668
16696
16720
16736
16770
16797
16828
16858
16877
16896
16930
16968
16991
17013
17029
17055
17079
17116
17138
17153
17184
17214
17242
17260
17276
17310
17334
17348
17371
17397
17420
17430
17462
17474
17500
17517
17532
17548
17580
17586
17604
17616
17644
17668
17670
17693
17710
17730
17752
17754
17778
17800
17821
17822
17837
17859
17883
17892
17900
17927
17940
17956
17966
17995
18004
18008
18026
18050
18062
18072
18092
18101
18120
18136
18149
18160
18183
18196
18197
18212
18234
18248
18242
18249
18277
18288
18288
18291
18300
18316
18314
18319
18316
18332
18332
18331
18328
18328
18340
18340
18344
18340
18335
18333
18338
18336
18329
18324
18318
18324
18313
18302
18296
18308
18302
18277
18282
18284
18276
18263
18250
18251
18247
18242
18232
18216
18212
18221
18212
18199
18185
18180
18174
18160
18162
18152
18146
18130
18123
18120
18119
18108
18110
18100
18088
18092
18072
18074
18076
18070
18052
18056
18050
18044
18041
18044
18043
18044
18028
18032
18038
18041
18026
18036
18037
18040
18036
18048
18054
18046
18052
18053
18064
18060
18076
18084
18090
18096
18096
18114
18129
18124
18140
18160
18176
18181
18180
18198
18204
18225
18242
18258
18262
18289
18308
18320
18322
18349
18374
18384
18392
18413
18436
18444
18460
18490
18509
18526
18533
18556
18576
18593
18604
18615
18633
18657
18676
18697
18710
18724
18742
18762
18780
18794
18809
18820
18848
18867
18878
18887
18904
18920
18942
18954
18965
18973
19004
19017
19026
19030
19041
19064
19080
19092
19104
19108
19118
19132
19149
19161
19168
19170
19182
19196
19204
19205
19212
19226
19236
19234
19238
19254
19264
19254
19268
19276
19264
19270
19282
19280
19276
19272
19285
19292
19274
19281
19284
19277
19268
19276
19270
19264
19256
19254
19246
19240
19226
19228
19220
19210
19196
19180
19182
19174
19158
19140
19130
19127
19118
19093
19072
19052
19044
19026
19008
18986
18966
18957
18938
18910
18884
18865
18852
18820
18795
18769
18750
18728
18695
18654
18644
18612
18579
18552
18524
18498
18451
18422
18390
18356
18333
18294
18252
18213
18184
18153
18110
18072
18037
18006
17969
17935
17899
17867
17828
17785
17751
17732
17694
17664
17620
17596
17565
17536
17503
17457
17441
17420
17380
17354
17325
17302
17268
17232
17222
17193
17162
17124
17104
17084
17057
17024
16996
16977
16960
16933
16902
16884
16868
16832
16816
16792
16773
16748
16724
16708
16680
16664
16633
16624
16597
16583
16557
16542
16514
16500
16470
16460
16431
16415
16396
16380
16356
16330
16307
16305
16276
16249
16230
16209
16193
16168
16138
16122
16110
16091
16065
16036
16017
15990
15976
15949
15926
15902
15878
15861
15836
15808
15780
15754
15740
15716
15686
15658
15628
15602
15579
15550
15519
15498
15470
15434
15408
15372
15356
15323
15292
15253
15220
15196
15161
15128
15084
15056
15038
14989
14959
14918
14886
14849
14815
14765
14737
14702
14670
14624
14582
14545
14519
14473
14432
14388
14355
14317
14270
14228
14188
14156
14106
14072
14030
13993
13948
13909
13869
13831
13781
13736
13708
13668
13620
13576
13548
13494
13456
13420
13381
13340
13294
13250
13218
13173
13128
13089
13064
13018
12968
12935
12897
12860
12812
12783
12737
12705
12658
12615
12580
12548
12503
12468
12421
12382
12360
12312
12268
12237
12190
12160
12104
12081
12040
12007
11968
11922
11892
11840
11817
11771
11738
11711
11658
11629
11596
11556
11517
11499
11454
11440
11396
11362
11336
11312
11278
11260
11232
11194
11183
11159
11138
11124
11100
11088
11066
11052
11040
11028
11022
11007
10997
10988
10980
10973
10978
10965
10972
10956
10962
10954
10972
10956
10964
10967
10965
10973
10972
10986
10991
10986
11000
11006
11017
11009
11023
11033
11043
11050
11059
11056
11076
11077
11084
11097
11097
11112
11114
11120
11134
11126
11147
11148
11156
11161
11162
11168
11176
11181
11190
11185
11197
11198
11208
11196
11210
11205
11214
11220
11220
11233
11221
11232
11235
11236
11246
11260
11245
11260
11254
11264
11259
11266
11260
11275
11272
11280
11280
11280
11290
11286
11293
11300
11297
11309
11311
11323
11316
11324
11324
11332
11338
11338
11348
11358
11358
11362
11373
11381
11379
11396
11400
11404
11417
11432
11433
11440
11448
11473
11476
11491
11496
11506
11525
11540
11546
11566
11569
11585
11601
11620
11631
11644
11664
11678
11689
11708
11720
11744
11770
11782
11795
11812
11840
11850
11871
11888
11903
11921
11944
11968
11978
11996
12026
12036
12050
12076
12095
12110
12132
12151
12167
12183
12196
12224
12240
12249
12264
12287
12307
12305
12323
12340
12350
12362
12380
12388
12394
12410
12429
12419
12434
12452
12452
12458
12474
12477
12477
12484
12484
12482
12491
12496
12490
12487
12498
12493
12487
12492
12496
12480
12480
12481
12474
12464
12466
12458
12451
12452
12442
12424
12426
12420
12404
12394
12388
12378
12362
12364
12348
12347
12336
12320
12308
12301
12288
12280
12268
12261
12250
12240
12221
12228
12204
12198
12186
12175
12177
12158
12156
12141
12130
12127
12117
12101
12103
12087
12082
12080
12068
12064
12055
12048
12048
12034
12033
12016
12018
12014
12012
12013
12000
12000
11996
11992
11996
11992
11994
11988
11988
11991
11982
11990
11986
11994
11990
12005
11994
12002
12014
12017
12020
12019
12032
12046
12038
12050
12062
12069
12069
12087
12096
12100
12109
12117
12131
12147
12153
12152
12160
12183
12191
12199
12213
12224
12238
12240
12260
12278
12276
12296
12308
12315
12316
12326
12337
12344
12356
12380
12384
12393
12388
12403
12412
12434
12444
12450
12463
12472
12469
12480
12492
12494
12509
12521
12522
12526
12534
12546
12542
12551
12562
12568
12564
12570
12574
12576
12585
12580
12581
12579
12578
12577
12574
12572
12564
12566
12558
12556
12548
12548
12528
12519
12508
12504
12485
12472
12445
12437
12422
12406
12382
12361
12342
12328
12292
12276
12260
12239
12199
12188
12157
12128
12108
12086
12052
12029
11998
11968
11956
11908
11896
11854
11842
11817
11774
11752
11726
11685
11666
11637
11598
11575
11544
11518
11495
11456
11432
11413
11372
11356
11320
11287
11260
11238
11205
11184
11150
11126
11100
11074
11040
11021
10996
10973
10954
10931
10902
10886
10859
10842
10820
10794
10788
10767
10752
10736
10716
10705
10680
10676
10653
10651
10631
10617
10609
10612
10592
10582
10576
10569
10556
10564
10555
10539
10545
10533
10548
10532
10541
10537
10535
10537
10550
10540
10546
10558
10552
10568
10569
10582
10584
10592
10605
10610
10620
10638
10646
10654
10674
10685
10702
10715
10740
10750
10766
10789
10808
10828
10856
10877
10901
10920
10952
10979
10994
11034
11059
11088
11127
11146
11186
11229
11246
11288
11317
11361
11392
11433
11466
11505
11556
11587
11629
11665
11714
11752
11800
11841
11884
11930
11972
12021
12063
12112
12154
12194
12250
12286
12348
12388
12440
12484
12528
12575
12618
12674
12713
12769
12819
12860
12908
12948
13001
13038
13093
13143
13184
13234
13276
13324
13376
13412
13470
13503
13554
13590
13652
13680
13735
13779
13828
13865
13916
13960
14006
14048
14092
14145
14184
14232
14280
14324
14372
14412
14458
14501
14552
14593
14638
14690
14740
14790
14824
14872
14922
14966
15016
15072
15109
15156
15204
15249
15310
15345
15402
15446
15492
15538
15588
15636
15686
15727
15782
15816
15875
15918
15954
16008
16046
16097
16140
16196
16220
16276
16312
16374
16405
16453
16492
16543
16577
16626
16674
16725
16750
16801
16851
16889
16932
16978
17014
17064
17109
17152
17188
17232
17283
17333
17376
17420
17460
17498
17552
17600
17636
17679
17722
17767
17816
17854
17898
17953
17986
18026
18065
18128
18161
18204
18244
18296
18332
18376
18413
18464
18496
18536
18594
18634
18662
18720
18752
18788
18839
18873
18917
18949
19005
19043
19074
19124
19158
19201
19238
19283
19335
19359
19408
19442
19477
19524
19556
19603
19636
19680
19712
19756
19796
19824
19860
19912
19942
20000
20016
20060
20105
20134
20186
20208
20256
20292
20333
20366
20412
20436
20484
20517
20548
20591
20629
20673
20700
20751
20773
20824
20846
20900
20928
20966
21004
21043
21084
21110
21160
21188
21236
21272
21308
21356
21381
21429
21470
21516
21540
21589
21626
21666
21708
21752
21800
21828
21878
21914
21957
22010
22040
22096
22133
22174
22226
22268
22320
22356
22404
22450
22493
22544
22585
22620
22667
22716
22756
22802
22865
22902
22946
22982
23020
23084
23136
23181
23220
23256
23302
23354
23404
23449
23496
23544
23577
23612
23660
23709
23756
23800
23839
23877
23910
23950
24002
24054
24078
24120
24156
24202
24232
24285
24308
24345
24390
24428
24467
24504
24528
24562
24606
24640
24680
24709
24738
24768
24803
24836
24874
24903
24934
24956
24988
25020
25046
25084
25112
25132
25165
25188
25226
25252
25276
25292
25326
25371
25392
25412
25438
25465
25496
25521
25535
25564
25602
25630
25644
25670
25704
25724
25760
25775
25792
25829
25852
25884
25916
25946
25965
25990
26007
26044
26084
26110
26124
26153
26200
26220
26242
26270
26294
26337
26368
26396
26409
26440
26470
26506
26537
26561
26584
26608
26637
26664
26702
26732
26756
26780
26808
26841
26868
26890
26924
26952
26982
27004
27031
27052
27093
27114
27132
27162
27190
27212
27242
27263
27296
27314
27332
27366
27398
27404
27432
27472
27480
27498
27524
27556
27584
27597
27614
27636
27664
27686
27704
27721
27738
27748
27777
27804
27830
27852
27854
27872
27892
27906
27940
27954
27974
27986
28006
28008
28036
28054
28072
28086
28100
28108
28121
28148
28150
28170
28191
28196
28209
28216
28226
28236
28254
28272
28280
28302
28308
28308
28322
28326
28324
28343
28356
28369
28382
28386
28382
28388
28404
28412
28413
28421
28428
28426
28430
28442
28456
28464
28458
28449
28466
28476
28472
28480
28472
28484
28495
28494
28495
28491
28488
28497
28504
28514
28501
28501
28493
28506
28509
28512
28512
28504
28500
28506
28508
28508
28498
28500
28500
28504
28506
28487
28480
28482
28486
28493
28488
28482
28474
28466
28478
28476
28477
28457
28452
28449
28442
28450
28448
28442
28440
28424
28408
28405
28396
28394
28388
28390
28384
28388
28372
28361
28353
28346
28332
28324
28320
28310
28305
28300
28284
28268
28254
28252
28244
28232
28224
28212
28196
28176
28164
28144
28128
28116
28106
28090
28068
28048
28040
28031
28004
27980
27969
27948
27928
27907
27881
27856
27848
27820
27791
27776
27753
27726
27710
27676
27664
27633
27604
27584
27552
27537
27508
27492
27453
27429
27396
27380
27348
27308
27302
27260
27236
27206
27176
27156
27122
27098
27058
27044
27014
26981
26960
26930
26897
26868
26840
26808
26792
26752
26738
26692
26680
26638
26618
26586
26572
26541
26505
26492
26457
26432
26412
26372
26356
26330
26302
26281
26248
26236
26204
26178
26142
26129
26102
26080
26064
26039
26009
25990
25972
25943
25920
25902
25874
25848
25831
25810
25774
25752
25744
25714
25680
25665
25654
25616
25592
25578
25556
25532
25512
25498
25466
25441
25434
25406
25372
25352
25344
25316
25282
25270
25252
25217
25191
25184
25160
25120
25092
25081
25052
25020
24999
24982
24943
24916
24886
24866
24841
24808
24772
24738
24720
24687
24653
24616
24597
24558
24524
24485
24455
24428
24388
24343
24316
24280
24244
24210
24164
24132
24100
24043
24010
23978
23932
23890
23852
23820
23767
23716
23693
23632
23605
23548
23512
23460
23420
23370
23322
23276
23220
23164
23120
23076
23026
22988
22924
22871
22842
22776
22734
22684
22634
22572
22519
22468
22428
22367
22312
22272
22208
22158
22082
22048
21988
21928
21890
21844
21772
21712
21666
21609
21548
21490
21428
21384
21317
21258
21208
21156
21086
21026
20982
20922
20853
20801
20740
20680
20620
20568
20519
20448
20398
20341
20277
20212
20168
20114
20052
19993
19927
19866
19821
19758
19708
19651
19588
19544
19480
19425
19369
19330
19266
19206
19160
19105
19052
18998
18952
18891
18836
18787
18746
18700
18645
18588
18545
18494
18448
18400
18353
18312
18256
18212
18176
18125
18081
18039
18000
17948
17904
17870
17826
17780
17749
17701
17657
17628
17583
17542
17510
17476
17430
17400
17364
17313
17284
17256
17210
17173
17146
17102
17072
17037
17009
16974
16936
16907
16877
16836
16804
16773
16748
16723
16686
16649
16624
16596
16565
16530
16492
16478
16447
16408
16379
16351
16324
16296
16262
16243
16213
16172
16157
16134
16100
16068
16053
16016
15990
15960
15940
15914
15878
15852
15830
15812
15780
15753
15738
15704
15678
15652
15632
15601
15580
15558
15537
15504
15485
15456
15437
15426
15390
15368
15357
15332
15305
15279
15264
15248
15224
15200
15190
15163
15140
15132
15108
15086
15076
15064
15037
15033
15010
14994
14983
14973
14946
14952
14934
14920
14916
14903
14886
14884
14868
14872
14860
14846
14850
14826
14836
14826
14812
14810
14809
14806
14798
14782
14792
14780
14784
14767
14770
14765
14752
14756
14745
14750
14744
14740
14728
14732
14733
14728
14724
14718
14725
14724
14718
14715
14718
14717
14714
14708
14723
14719
14711
14722
14724
14718
14736
14716
14740
14729
14744
14742
14738
14751
14742
14763
14764
14773
14776
14784
14794
14800
14817
14814
14823
14838
14842
14854
14859
14872
14888
14894
14909
14914
14930
14943
14946
14967
14981
14992
15000
15014
15034
15036
15060
15064
15084
15096
15106
15120
15147
15158
15166
15173
15196
15212
15222
15228
15248
15267
15276
15280
15302
15316
15327
15334
15348
15373
15383
15388
15400
15422
15433
15434
15448
15462
15467
15481
15502
15514
15520
15517
15527
15548
15554
15556
15570
15576
15596
15606
15596
15615
15614
15638
15636
15641
15656
15665
15675
15668
15678
15700
15703
15708
15716
15732
15736
15744
15750
15764
15764
15776
15796
15788
15805
15813
15827
15827
15844
15856
15848
15867
15886
15892
15898
15911
15927
15934
15934
15943
15960
15972
15976
15992
16006
16007
16016
16040
16060
16058
16066
16092
16101
16103
16116
16130
16140
16156
16167
16180
16183
16208
16210
16220
16241
16247
16258
16270
16287
16287
16300
16324
16335
16338
16356
16360
16368
16392
16406
16405
16429
16432
16442
16452
16464
16476
16484
16492
16511
16514
16521
16538
16545
16564
16560
16580
16592
16592
16608
16617
16626
16628
16642
16648
16660
16672
16676
16692
16692
16710
16710
16723
16738
16734
16748
16754
16770
16767
16778
16801
16789
16808
16821
16822
16839
16836
16846
16850
16868
16869
16882
16886
16892
16904
16906
16919
16930
16925
16948
16946
16964
16958
16962
16986
16984
16989
17004
16998
17015
17017
17031
17028
17040
17049
17048
17060
17060
17068
17066
17076
17084
17082
17092
17086
17101
17097
17101
17106
17102
17116
17104
17116
17108
17118
17111
17114
17104
17116
17107
17121
17100
17105
17100
17098
17089
17088
17088
17089
17078
17084
17075
17066
17068
17064
17056
17046
17045
17036
17029
17025
17022
17002
16998
16999
16982
16974
16972
16962
16944
16949
16932
16912
16912
16900
16878
16878
16873
16849
16850
16830
16816
16812
16794
16777
16767
16757
16743
16728
16716
16708
16684
16680
16668
16646
16626
16612
16606
16581
16568
16558
16545
16522
16512
16505
16479
16464
16441
16432
16420
16400
16373
16356
16350
16328
16312
16289
16279
16264
16248
16217
16204
16194
16165
16162
16136
16113
16104
16076
16058
16036
16025
15994
15978
15956
15936
15914
15893
15870
15842
15827
15800
15788
15752
15729
15712
15688
15668
15638
15626
15588
15568
15542
15514
15498
15473
15441
15413
15400
15380
15338
15318
15300
15268
15241
15224
15200
15168
15152
15133
15096
15076
15057
15036
15012
14986
14964
14943
14922
14901
14874
14857
14848
14830
14797
14786
14762
14751
14735
14714
14698
14684
14669
14657
14636
14621
14606
14590
14582
14573
14546
14542
14536
14522
14507
14502
14493
14480
14468
14462
14452
14436
14436
14436
14426
14407
14400
14408
14392
14386
14381
14384
14379
14357
14365
14364
14360
14356
14346
14350
14350
14340
14346
14340
14336
14338
14335
14336
14332
14332
14336
14337
14340
14348
14340
14346
14347
14347
14362
14358
14368
14362
14372
14376
14386
14382
14404
14400
14406
14416
14428
14432
14444
14457
14462
14468
14483
14497
14506
14512
14532
14545
14554
14568
14588
14605
14616
14632
14658
14664
14685
14698
14730
14750
14762
14788
14808
14827
14838
14864
14888
14924
14934
14950
14980
14996
15016
15040
15068
15093
15108
15135
15164
15184
15198
15226
15262
15284
15296
15325
15354
15381
15400
15422
15446
15476
15501
15526
15550
15589
15609
15627
15653
15688
15716
15729
15762
15793
15820
15842
15870
15900
15932
15957
15983
16004
16032
16064
16082
16110
16140
16169
16190
16218
16247
16264
16284
16320
16344
16368
16377
16405
16436
16457
16484
16484
16518
16536
16566
16588
16598
16614
16639
16660
16678
16682
16708
16722
16736
16754
16757
16772
16793
16804
16804
16817
16830
16838
16843
16856
16859
16874
16879
16884
16888
16893
16902
16900
16909
16916
16913
16912
16914
16926
16915
16924
16929
16920
16916
16916
16914
16922
16924
16911
16916
16905
16908
16897
16889
16892
16882
16874
16861
16864
16861
16842
16840
16837
16831
16822
16816
16802
16796
16789
16768
16772
16764
16749
16740
16732
16719
16712
16698
16692
16690
16677
16668
16660
16657
16646
16621
16617
16620
16607
16592
16593
16589
16582
16567
16560
16548
16559
16546
16541
16520
16522
16520
16520
16512
16508
16500
16490
16485
16491
16484
16481
16479
16475
16478
16470
16457
16462
16462
16468
16458
16454
16449
16453
16454
16445
16448
16454
16446
16446
16455
16453
16449
16452
16453
16460
16454
16453
16454
16468
16464
16457
16464
16472
16472
16468
16468
16478
16484
16484
16481
16480
16486
16506
16500
16494
16505
16510
16516
16511
16516
16520
16529
16533
16524
16533
16550
16540
16543
16548
16554
16550
16550
16565
16567
16570
16558
16580
16576
16572
16574
16588
16592
16588
16588
16592
16598
16601
16599
16593
16603
16594
16606
16613
16612
16611
16602
16612
16613
16612
16608
16616
16612
16613
16610
16608
16613
16612
16610
16604
16610
16612
16608
16604
16606
16596
16604
16601
16600
16587
16589
16592
16588
16587
16574
16572
16578
16576
16569
16566
16578
16568
16557
16564
16556
16552
16562
16563
16560
16564
16566
16556
16566
16560
16566
16560
16578
16572
16566
16570
16580
16577
16577
16582
16582
16595
16586
16582
16581
16591
16593
16581
16592
16599
16593
16588
16596
16597
16602
16596
16605
16598
16600
16607
16607
16606
16608
16616
16620
16622
16628
16636
16638
16641
16645
16658
16655
16674
16676
16682
16700
16708
16721
16724
16742
16742
16761
16772
16794
16804
16817
16834
16838
16854
16868
16896
16904
16924
16936
16959
16966
16992
16998
17024
17041
17056
17070
17094
17108
17120
17146
17156
17170
17196
17212
17228
17244
17264
17268
17289
17318
17328
17338
17360
17376
17380
17399
17422
17426
17444
17468
17486
17484
17496
17528
17534
17539
17561
17578
17588
17598
17608
17629
17644
17650
17658
17684
17696
17693
17704
17728
17732
17744
17764
17772
17780
17786
17797
17812
17828
17829
17838
17849
17867
17872
17882
17886
17892
17909
17926
17924
17932
17938
17956
17960
17970
17988
17997
17993
18008
18018
18024
18030
18034
18053
18068
18068
18084
18092
18098
18105
18119
18131
18136
18148
18152
18164
18180
18188
18201
18200
18220
18229
18244
18242
18255
18273
18280
18291
18300
18305
18325
18330
18348
18345
18362
18378
18377
18399
18413
18404
18424
18429
18452
18446
18476
18476
18478
18500
18500
18518
18520
18532
18544
18538
18570
18565
18577
18589
18596
18616
18613
18624
18636
18642
18655
18669
18666
18690
18698
18692
18714
18712
18728
18746
18744
18758
18752
18777
18789
18790
18807
18815
18820
18835
18852
18854
18860
18876
18874
18893
18916
18917
18920
18940
18952
18966
18964
18995
19000
19006
19014
19045
19048
19054
19072
19084
19100
19111
19130
19140
19153
19178
19192
19193
19216
19236
19248
19258
19282
19294
19304
19328
19348
19352
19364
19400
19405
19420
19440
19469
19478
19496
19510
19527
19534
19569
19586
19600
19620
19642
19654
19665
19692
19701
19726
19734
19756
19775
19786
19802
19812
19828
19857
19864
19879
19898
19900
19924
19944
19948
19969
19976
20006
20005
20024
20041
20049
20066
20074
20092
20101
20125
20124
20138
20145
20174
20169
20194
20200
20210
20217
20239
20249
20256
20284
20278
20304
20301
20316
20340
20343
20360
20356
20374
20386
20397
20410
20414
20432
20450
20449
20475
20466
20496
20500
20506
20521
20530
20548
20544
20571
20568
20588
20594
20613
20613
20633
20633
20652
20668
20676
20692
20689
20708
20708
20726
20744
20744
20765
20760
20780
20797
20798
20824
20824
20835
20844
20858
20868
20878
20890
20888
20912
20916
20932
20930
20948
20952
20974
20972
20996
21000
21012
21018
21038
21042
21055
21060
21077
21077
21092
21105
21114
21127
21130
21143
21156
21170
21186
21176
21196
21204
21210
21217
21234
21239
21242
21260
21264
21282
21290
21305
21309
21325
21323
21324
21348
21358
21360
21364
21382
21392
21392
21396
21412
21429
21424
21430
21446
21452
21448
21464
21468
21482
21474
21484
21497
21501
21497
21516
21522
21514
21525
21531
21540
21534
21534
21544
21553
21540
21556
21556
21559
21556
21568
21572
21565
21572
21588
21591
21590
21592
21592
21592
21604
21598
21601
21605
21618
21616
21616
21624
21637
21637
21637
21662
21656
21660
21668
21680
21680
21692
21699
21700
21720
21720
21728
21742
21734
21752
21750
21772
21778
21784
21806
21804
21808
21813
21824
21842
21840
21860
21859
21872
21871
21886
21892
21897
21910
21911
21927
21929
21944
21948
21954
21966
21961
21972
21980
21991
21992
21992
22004
22018
22030
22023
22026
22040
22041
22052
22052
22055
22052
22066
22072
22081
22092
22088
22084
22100
22108
22116
22114
22108
22122
22137
22136
22132
22136
22144
22156
22164
22160
22164
22178
22184
22188
22188
22194
22205
22222
22216
22220
22236
22236
22248
22252
22263
22266
22266
22284
22301
22309
22314
22316
22340
22348
22353
22362
22384
22382
22390
22416
22428
22424
22436
22452
22468
22471
22488
22510
22513
22517
22544
22554
22559
22576
22596
22602
22608
22631
22629
22656
22654
22676
22684
22692
22708
22711
22732
22738
22756
22757
22772
22778
22792
22812
22816
22820
22840
22858
22860
22870
22888
22897
22900
22913
22932
22948
22942
22959
22974
22976
22972
22996
23008
23004
23017
23032
23034
23037
23038
23067
23064
23066
23073
23084
23080
23080
23089
23101
23094
23100
23111
23110
23106
23116
23125
23121
23112
23120
23124
23116
23112
23108
23122
23112
23094
23108
23108
23092
23086
23091
23081
23074
23064
23076
23052
23038
23038
23028
23006
23008
23000
22992
22970
22958
22959
22944
22925
22922
22908
22890
22873
22864
22849
22826
22820
22800
22778
22772
22756
22728
22714
22694
22680
22652
22640
22620
22596
22568
22559
22527
22508
22494
22472
22444
22433
22404
22377
22366
22344
22317
22299
22282
22248
22232
22218
22196
22162
22148
22133
22111
22084
22069
22061
22026
22018
22000
21974
21960
21944
21925
21905
21896
21876
21861
21846
21833
21821
21812
21782
21793
21768
21755
21746
21732
21727
21716
21700
21690
21685
21666
21655
21661
21642
21630
21622
21616
21600
21600
21604
21584
21570
21582
21564
21562
21551
21540
21546
21538
21538
21526
21513
21520
21504
21510
21498
21501
21496
21484
21493
21476
21486
21481
21471
21481
21461
21472
21460
21470
21460
21465
21453
21453
21448
21446
21452
21454
21446
21444
21445
21433
21434
21444
21438
21440
21424
21428
21413
21426
21431
21417
21408
21425
21420
21405
21410
21412
21410
21404
21398
21409
21401
21397
21406
21400
21392
21396
21400
21384
21386
21396
21384
21376
21378
21383
21371
21366
21373
21368
21372
21360
21377
21367
21365
21360
21368
21353
21356
21356
21354
21360
21352
21342
21348
21339
21344
21336
21332
21340
21332
21339
21326
21322
21333
21317
21336
21314
21318
21316
21324
21312
21317
21313
21316
21324
21316
21326
21321
21326
21317
21344
21332
21340
21347
21337
21350
21350
21366
21358
21381
21371
21382
21388
21390
21401
21404
21418
21412
21430
21422
21440
21440
21448
21448
21460
21458
21470
21476
21480
21498
21486
21510
21500
21516
21512
21520
21537
21544
21550
21558
21557
21576
21588
21589
21608
21610
21628
21636
21655
21656
21678
21673
21692
21701
21716
21736
21740
21772
21778
21796
21804
21832
21836
21852
21870
21884
21908
21913
21952
21956
21983
21980
22014
22021
22044
22063
22072
22094
22105
22124
22135
22164
22168
22188
22212
22236
22236
22268
22276
22289
22312
22322
22341
22348
22373
22376
22401
22415
22430
22448
22455
22472
22486
22506
22508
22532
22542
22560
22572
22584
22589
22617
22620
22651
22646
22673
22676
22697
22692
22720
22724
22748
22752
22780
22776
22802
22799
22820
22828
22836
22861
22852
22876
22878
22893
22908
22912
22934
22933
22948
22948
22972
22972
22998
22992
23007
23020
23028
23042
23040
23056
23081
23068
23080
23100
23110
23112
23114
23134
23144
23148
23158
23172
23184
23184
23194
23207
23228
23214
23237
23254
23249
23270
23276
23282
23286
23310
23316
23312
23333
23341
23344
23356
23376
23378
23384
23401
23404
23416
23428
23444
23436
23452
23462
23468
23472
23486
23496
23494
23512
23518
23518
23530
23535
23546
23561
23566
23568
23568
23588
23591
23584
23598
23610
23605
23616
23636
23644
23644
23636
23652
23659
23676
23672
23672
23692
23697
23690
23695
23714
23720
23718
23730
23742
23748
23750
23759
23767
23780
23778
23794
23796
23812
23814
23828
23840
23850
23848
23854
23878
23881
23889
23908
23920
23917
23932
23946
23962
23956
23974
23992
24001
24012
24028
24029
24041
24060
24073
24084
24084
24110
24122
24135
24140
24164
24172
24178
24198
24204
24213
24237
24253
24263
24284
24294
24300
24316
24336
24336
24352
24372
24382
24389
24410
24418
24426
24442
24465
24461
24476
24497
24502
24506
24532
24540
24540
24560
24584
24588
24584
24600
24606
24616
24636
24636
24644
24656
24673
24692
24686
24688
24712
24716
24713
24736
24750
24744
24750
24764
24782
24780
24788
24802
24820
24816
24825
24840
24855
24856
24864
24878
24884
24880
24900
24920
24916
24932
24944
24948
24954
24968
24988
24992
24997
25014
25024
25024
25032
25049
25058
25060
25078
25094
25098
25102
25116
25129
25132
25137
25153
25166
25162
25180
25189
25188
25214
25221
25221
25234
25244
25252
25263
25282
25272
25286
25292
25288
25316
25318
25322
25334
25348
25356
25353
25380
25380
25391
25400
25401
25416
25414
25433
25436
25446
25452
25463
25474
25480
25493
25482
25513
25508
25522
25540
25538
25556
25561
25566
25588
25586
25606
25607
25616
25638
25640
25653
25664
25672
25686
25686
25720
25712
25720
25749
25756
25768
25776
25782
25804
25817
25834
25830
25856
25860
25878
25892
25900
25920
25922
25945
25950
25972
25981
25997
26010
26020
26036
26041
26068
26084
26088
26108
26120
26134
26140
26160
26173
26178
26206
26210
26243
26236
26260
26264
26273
26292
26303
26320
26320
26342
26346
26368
26390
26388
26413
26419
26420
26445
26444
26468
26472
26481
26508
26508
26520
26534
26535
26565
26563
26578
26576
26588
26605
26616
26625
26636
26648
26644
26673
26669
26688
26696
26702
26710
26716
26740
26740
26756
26752
26765
26772
26774
26794
26792
26812
26815
26813
26840
26834
26840
26860
26853
26868
26860
26880
26888
26889
26900
26902
26916
26913
26937
26924
26930
26942
26945
26952
26952
26952
26968
26972
26972
26984
26986
26980
27004
26988
27012
27006
27014
27020
27025
27034
27024
27052
27038
27060
27060
27068
27064
27069
27078
27088
27096
27095
27113
27120
27116
27120
27133
27150
27148
27154
27168
27184
27172
27182
27196
27212
27216
27208
27224
27236
27238
27236
27256
27266
27257
27260
27289
27280
27289
27304
27312
27316
27320
27332
27324
27332
27360
27358
27346
27364
27364
27368
27374
27392
27396
27388
27405
27398
27412
27409
27428
27418
27424
27430
27438
27440
27448
27456
27446
27466
27458
27468
27472
27472
27486
27470
27492
27492
27493
27508
27504
27514
27504
27520
27520
27524
27536
27540
27539
27548
27552
27548
27569
27568
27568
27588
27594
27592
27604
27608
27616
27626
27624
27640
27630
27658
27660
27657
27676
27672
27690
27692
27706
27728
27718
27745
27726
27764
27766
27764
27782
27777
27800
27800
27814
27826
27820
27842
27844
27860
27852
27873
27868
27889
27894
27906
27912
27936
27922
27948
27936
27961
27957
27976
27984
27988
28001
28004
28022
28026
28032
28048
28052
28076
28068
28100
28108
28111
28128
28132
28156
28148
28172
28174
28189
28200
28210
28233
28232
28234
28256
28260
28276
28276
28297
28300
28316
28318
28330
28336
28346
28356
28364
28374
28376
28390
28384
28404
28400
28416
28416
28420
28424
28424
28438
28437
28439
28444
28452
28438
28456
28456
28444
28451
28448
28428
28444
28436
28420
28422
28413
28416
28401
28392
28385
28370
28358
28348
28349
28327
28308
28304
28292
28292
28260
28246
28237
28198
28198
28184
28154
28140
28120
28105
28078
28063
28044
28022
27990
27970
27956
27924
27892
27868
27852
27832
27800
27767
27752
27736
27703
27672
27646
27626
27612
27584
27550
27532
27508
27482
27448
27432
27418
27392
27360
27345
27333
27294
27266
27246
27234
27220
27190
27158
27149
27142
27108
27092
27084
27053
27040
27020
27014
26988
26970
26952
26946
26938
26905
26892
26884
26876
26848
26829
26820
26812
26784
26780
26764
26741
26725
26725
26714
26690
26682
26668
26653
26641
26636
26617
26598
26596
26592
26564
26552
26554
26534
26514
26524
26496
26481
26482
26478
26458
26440
26436
26432
26404
26396
26400
26396
26370
26368
26362
26344
26336
26334
26315
26302
26308
26288
26282
26285
26276
26262
26252
26248
26236
26233
26224
26205
26192
26198
26194
26172
26168
26164
26164
26148
26128
26124
26122
26119
26092
26101
26092
26084
26068
26068
26060
26044
26033
26032
26022
26017
26009
25992
26004
25982
25966
25961
25965
25956
25936
25928
25918
25918
25917
25896
25881
25876
25872
25870
25856
25836
25832
25836
25816
25808
25783
25790
25786
25771
25756
25748
25752
25740
25716
25704
25700
25702
25688
25669
25668
25668
25658
25635
25628
25624
25624
25610
25596
25597
25586
25588
25576
25570
25568
25566
25566
25556
25552
25540
25548
25540
25528
25540
25536
25530
25526
25524
25517
25520
25524
25517
25508
25498
25506
25505
25498
25490
25500
25506
25485
25481
25484
25484
25482
25476
25476
25476
25484
25472
25468
25474
25476
25476
25469
25484
25485
25470
25477
25486
25496
25485
25490
25495
25506
25506
25508
25512
25530
25537
25528
25536
25554
25564
25565
25572
25576
25590
25607
25612
25614
25630
25636
25636
25660
25676
25668
25680
25693
25708
25714
25716
25732
25748
25752
25756
25764
25778
25784
25802
25804
25806
25832
25829
25836
25852
25872
25866
25887
25894
25888
25896
25914
25926
25932
25934
25941
25960
25953
25950
25973
25992
25984
25996
26012
26024
26019
26020
26034
26048
26047
26052
26052
26073
26073
26070
26096
26106
26103
26094
26116
26128
26123
26122
26134
26145
26142
26138
26164
26162
26160
26152
26172
26172
26172
26178
26188
26178
26189
26181
26192
26200
26184
26207
26204
26201
26210
26201
26218
26216
26212
26228
26215
26228
26225
26224
26234
26230
26240
26246
26237
26254
26241
26252
26264
26266
26264
26263
26280
26284
26278
26279
26290
26296
26289
26303
26305
26302
26304
26320
26326
26322
26324
26334
26328
26344
26325
26348
26348
26353
26356
26346
26372
26350
26369
26364
26370
26378
26374
26394
26384
26394
26380
26396
26392
26404
26396
26400
26400
26409
26402
26412
26408
26413
26419
26420
26422
26427
26431
26416
26433
26430
26420
26432
26421
26438
26432
26434
26442
26426
26448
26436
26442
26456
26448
26440
26452
26452
26454
26458
26453
26462
26472
26464
26467
26478
26472
26474
26484
26492
26484
26494
26493
26500
26500
26511
26512
26524
26517
26525
26527
26536
26544
26532
26562
26556
26564
26566
26561
26588
26568
26596
26592
26601
26606
26612
26622
26629
26638
26620
26656
26650
26660
26670
26661
26684
26692
26686
26700
26706
26703
26727
26732
26728
26737
26736
26748
26756
26752
26777
26770
26772
26796
26792
26788
26812
26798
26808
26820
26808
26824
26830
26832
26852
26844
26858
26860
26868
26876
26888
26880
26897
26892
26908
26903
26918
26927
26918
26932
26934
26939
26944
26962
26952
26953
26972
26977
26976
26985
26986
27009
27008
27012
27013
27012
27032
27024
27049
27036
27056
27040
27062
27060
27072
27076
27077
27084
27092
27097
27101
27115
27104
27120
27124
27126
27135
27152
27148
27161
27158
27166
27180
27177
27186
27201
27198
27200
27228
27216
27222
27232
27236
27242
27260
27265
27264
27269
27289
27296
27293
27304
27310
27312
27324
27352
27336
27351
27361
27364
27374
27388
27388
27412
27412
27412
27436
27432
27450
27456
27456
27489
27482
27497
27512
27516
27532
27536
27557
27556
27572
27588
27589
27625
27626
27637
27655
27657
27684
27684
27709
27720
27724
27748
27756
27770
27789
27798
27832
27838
27856
27856
27896
27902
27938
27934
27957
27976
27996
28020
28032
28056
28058
28092
28105
28128
28144
28166
28190
28213
28215
28249
28260
28284
28308
28316
28348
28368
28390
28405
28435
28456
28478
28496
28522
28534
28575
28569
28605
28624
28641
28674
28698
28709
28722
28744
28774
28798
28808
28840
28864
28884
28897
28924
28956
28968
28983
29010
29028
29048
29072
29108
29104
29132
29166
29176
29190
29224
29246
29256
29286
29305
29324
29343
29368
29389
29402
29416
29452
29469
29492
29497
29532
29556
29560
29588
29613
29632
29640
29666
29692
29716
29728
29752
29772
29782
29806
29834
29844
29856
29893
29912
29924
29949
29966
29980
29992
30028
30044
30056
30080
30099
30116
30138
30148
30176
30180
30196
30232
30255
30268
30288
30318
30330
30350
30368
30380
30412
30434
30440
30456
30484
30512
30533
30541
30573
30592
30604
30625
30657
30669
30690
30713
30734
30751
30783
30801
30817
30848
30860
30894
30906
30948
30964
30980
31008
31032
31046
31076
31104
31124
31140
31166
31192
31205
31240
31260
31276
31314
31328
31344
31380
31397
31412
31436
31457
31479
31508
31524
31552
31573
31584
31610
31628
31657
31672
31696
31720
31732
31754
31783
31802
31812
31829
31870
31876
31889
31924
31940
31959
31990
32018
32016
32045
32074
32086
32108
32148
32162
32164
32200
32228
32241
32278
32302
32322
32348
32381
32406
32414
32448
32484
32492
32524
32552
32584
32612
32644
32678
32692
32740
32754
32796
32825
32858
32885
32924
32944
32988
33014
33057
33084
33126
33167
33196
33221
33268
33312
33344
33388
33424
33462
33508
33524
33566
33616
33662
33686
33742
33774
33816
33860
33908
33952
33980
34031
34081
34116
34158
34208
34258
34305
34344
34382
34439
34492
34532
34572
34624
34673
34713
34762
34820
34861
34902
34958
35016
35044
35092
35146
35184
35228
35284
35320
35365
35397
35456
35500
35544
35576
35632
35676
35716
35748
35790
35840
35888
35913
35948
35998
36042
36080
36118
36160
36194
36244
36264
36308
36348
36384
36424
36444
36500
36526
36576
36600
36636
36665
36696
36730
36764
36790
36832
36845
36882
36908
36942
36974
36988
37028
37040
37078
37089
37128
37142
37176
37180
37216
37242
37266
37272
37303
37311
37340
37359
37380
37388
37413
37428
37452
37468
37484
37504
37514
37524
37550
37564
37568
37592
37588
37622
37612
37636
37636
37664
37664
37681
37684
37720
37712
37740
37746
37750
37776
37784
37788
37798
37820
37840
37844
37848
37874
37880
37884
37924
37940
37959
37967
37982
38007
38016
38025
38042
38070
38092
38102
38120
38140
38172
38186
38200
38218
38240
38272
38286
38308
38329
38348
38380
38406
38410
38444
38470
38492
38520
38530
38551
38578
38602
38628
38656
38672
38700
38732
38752
38776
38798
38836
38850
38884
38896
38922
38960
38980
39000
39032
39054
39084
39118
39136
39160
39177
39216
39232
39257
39286
39314
39348
39359
39386
39416
39437
39457
39489
39522
39552
39560
39585
39614
39636
39661
39678
39718
39748
39756
39784
39812
39842
39844
39890
39908
39932
39961
39960
39988
40030
40032
40066
40086
40100
40128
40158
40168
40200
40212
40234
40266
40284
40308
40324
40348
40373
40390
40417
40444
40460
40492
40506
40524
40556
40566
40607
40617
40656
40668
40697
40724
40727
40772
40772
40812
40832
40862
40877
40894
40917
40948
40964
40992
41001
41036
41052
41084
41097
41116
41144
41160
41176
41192
41220
41244
41260
41282
41312
41324
41358
41376
41388
41416
41441
41456
41480
41502
41520
41544
41572
41600
41631
41640
41664
41701
41712
41740
41764
41788
41820
41836
41857
41880
41900
41940
41956
41976
41988
42021
42046
42072
42084
42113
42130
42148
42175
42200
42224
42238
42266
42276
42296
42312
42344
42364
42384
42412
42424
42452
42474
42497
42516
42532
42556
42588
42608
42622
42644
42685
42688
42710
42740
42764
42780
42792
42832
42852
42868
42892
42913
42935
42956
42980
43000
43032
43052
43060
43092
43112
43120
43140
43180
43200
43216
43239
43272
43280
43300
43324
43341
43357
43375
43390
43412
43436
43457
43468
43492
43516
43532
43536
43564
43573
43588
43612
43624
43638
43660
43680
43703
43722
43725
43760
43766
43792
43813
43828
43830
43852
43868
43900
43900
43913
43940
43952
43964
43988
43998
44016
44015
44036
44061
44066
44078
44092
44112
44116
44132
44141
44158
44180
44181
44200
44207
44228
44240
44242
44256
44270
44280
44288
44316
44324
44324
44336
44346
44361
44364
44372
44388
44404
44416
44432
44421
44436
44448
44456
44460
44477
44484
44504
44504
44505
44520
44524
44548
44543
44542
44561
44574
44583
44580
44584
44608
44598
44620
44620
44628
44636
44630
44648
44650
44668
44662
44660
44670
44688
44697
44700
44684
44696
44696
44704
44712
44710
44716
44724
44724
44719
44726
44744
44752
44744
44753
44762
44764
44744
44754
44756
44772
44772
44780
44767
44768
44768
44772
44790
44780
44788
44788
44784
44784
44782
44804
44788
44796
44781
44797
44796
44804
44798
44802
44806
44812
44806
44810
44816
44820
44816
44802
44820
44828
44824
44832
44836
44842
44836
44840
44848
44848
44854
44856
44872
44880
44884
44884
44879
44893
44897
44900
44920
44906
44924
44942
44940
44956
44944
44968
44964
44980
44981
45008
45008
45020
45039
45052
45050
45072
45084
45088
45100
45110
45132
45135
45152
45172
45180
45204
45213
45224
45242
45260
45276
45280
45310
45324
45333
45346
45364
45384
45408
45404
45428
45457
45480
45480
45487
45504
45532
45540
45556
45586
45597
45612
45642
45653
45656
45672
45693
45724
45732
45736
45756
45768
45772
45792
45820
45828
45854
45866
45888
45896
45924
45924
45944
45952
45982
45988
46004
46016
46028
46062
46057
46072
46088
46096
46112
46122
46136
46152
46180
46172
46188
46208
46220
46222
46252
46248
46268
46270
46286
46312
46313
46320
46344
46346
46348
46360
46391
46377
46400
46404
46412
46424
46430
46436
46452
46464
46472
46480
46480
46496
46502
46508
46512
46524
46532
46532
46544
46540
46553
46572
46574
46564
46574
46582
46580
46594
46604
46598
46592
46604
46616
46600
46620
46628
46622
46624
46636
46628
46652
46644
46662
46652
46666
46668
46664
46680
46676
46678
46692
46688
46692
46708
46712
46716
46708
46720
46734
46724
46732
46744
46748
46764
46760
46760
46774
46772
46792
46790
46808
46796
46813
46812
46820
46833
46841
46836
46860
46844
46864
46868
46884
46874
46877
46892
46890
46908
46920
46916
46916
46921
46926
46932
46936
46940
46944
46948
46940
46958
46957
46950
46964
46972
46956
46972
46960
46976
46968
46964
46974
46956
46968
46964
46968
46952
46964
46954
46960
46953
46941
46952
46948
46950
46940
46940
46940
46932
46925
46921
46928
46916
46900
46904
46906
46892
46888
46890
46882
46864
46864
46860
46856
46838
46840
46832
46828
46818
46816
46830
46804
46797
46784
46790
46784
46776
46768
46756
46765
46748
46753
46732
46724
46730
46712
46701
46696
46700
46700
46680
46656
46665
46668
46664
46648
46648
46636
46628
46612
46628
46616
46604
46606
46584
46592
46576
46569
46564
46560
46546
46538
46540
46519
46516
46512
46496
46488
46496
46484
46476
46470
46460
46453
46440
46434
46436
46428
46404
46404
46408
46390
46372
46376
46368
46370
46350
46342
46336
46328
46326
46304
46308
46302
46296
46288
46276
46272
46256
46244
46253
46236
46222
46220
46212
46204
46184
46192
46180
46168
46156
46152
46148
46140
46140
46120
46103
46100
46100
46093
46069
46064
46060
46048
46040
46046
46044
46020
46012
46008
46004
46005
45988
45972
45988
45980
45968
45952
45959
45958
45944
45942
45942
45940
45928
45920
45926
45924
45912
45918
45908
45905
45916
45904
45912
45900
45888
45902
45900
45897
45888
45892
45892
45892
45897
45888
45900
45908
45895
45897
45892
45896
45900
45904
45904
45909
45912
45916
45904
45910
45890
45896
45900
45908
45898
45916
45908
45894
45896
45892
45892
45894
45886
45890
45876
45869
45869
45861
45864
45852
45834
45820
45808
45812
45792
45780
45776
45760
45749
45735
45727
45704
45708
45676
45666
45648
45660
45632
45608
45600
45584
45574
45558
45540
45530
45512
45496
45484
45476
45456
45428
45416
45400
45380
45372
45348
45334
45300
45288
45270
45252
45228
45198
45196
45159
45124
45116
45094
45076
45036
45016
44988
44965
44944
44900
44876
44858
44828
44800
44778
44744
44716
44680
44660
44622
44587
44564
44542
44500
44464
44436
44408
44365
44332
44305
44272
44232
44196
44168
44133
44096
44060
44022
43988
43956
43910
43894
43844
43828
43782
43750
43718
43678
43646
43612
43591
43552
43508
43476
43456
43414
43388
43356
43324
43296
43278
43238
43204
43192
43149
43128
43092
43084
43048
43029
42998
42964
42942
42920
42892
42864
42848
42813
42794
42770
42768
42716
42712
42692
42654
42628
42620
42597
42580
42554
42528
42519
42496
42456
42449
42436
42404
42388
42380
42356
42332
42312
42308
42286
42262
42252
42228
42212
42180
42172
42167
42148
42124
42096
42096
42068
42056
42036
42024
42004
42004
41968
41960
41950
41924
41916
41892
41869
41845
41847
41812
41803
41780
41772
41748
41737
41712
41698
41672
41656
41640
41620
41593
41588
41568
41540
41524
41500
41478
41460
41444
41424
41396
41380
41357
41337
41321
41292
41271
41248
41216
41198
41186
41164
41142
41120
41076
41076
41046
41032
40996
40982
40964
40926
40908
40876
40868
40828
40818
40786
40766
40732
40704
40676
40662
40628
40596
40596
40551
40532
40502
40470
40457
40436
40394
40380
40356
40332
40304
40282
40258
40244
40204
40196
40160
40132
40124
40088
40072
40045
40036
40000
39983
39964
39936
39924
39900
39880
39860
39840
39828
39793
39792
39772
39748
39740
39695
39692
39661
39660
39638
39614
39609
39578
39556
39536
39527
39498
39489
39468
39448
39424
39413
39389
39380
39356
39336
39316
39302
39288
39265
39254
39236
39228
39204
39182
39170
39172
39148
39124
39118
39108
39092
39072
39064
39060
39038
39034
39020
39008
38996
38990
38972
38968
38964
38940
38945
38924
38928
38913
38912
38908
38888
38876
38870
38876
38854
38852
38844
38830
38828
38818
38812
38806
38782
38788
38772
38757
38764
38752
38748
38729
38728
38720
38697
38698
38688
38677
38672
38652
38645
38636
38621
38614
38608
38583
38583
38576
38548
38540
38534
38513
38504
38504
38484
38468
38468
38438
38416
38424
38404
38383
38378
38368
38347
38332
38308
38300
38298
38270
38252
38240
38228
38226
38204
38180
38188
38152
38144
38128
38113
38110
38088
38065
38044
38054
38021
38013
37994
37989
37960
37956
37944
37928
37914
37889
37892
37868
37856
37834
37827
37820
37793
37780
37780
37782
37752
37725
37724
37712
37678
37676
37670
37656
37644
37628
37612
37599
37584
37580
37556
37549
37536
37524
37502
37488
37484
37471
37448
37437
37432
37416
37408
37378
37388
37364
37348
37321
37318
37326
37298
37272
37273
37270
37252
37229
37220
37214
37190
37188
37168
37156
37152
37138
37124
37110
37088
37084
37066
37060
37044
37030
37020
37000
36992
36982
36964
36960
36943
36925
36924
36896
36903
36878
36870
36846
36848
36820
36816
36804
36784
36782
36756
36760
36732
36734
36718
36708
36698
36681
36668
36668
36644
36625
36628
36599
36588
36582
36566
36560
36544
36544
36524
36508
36494
36484
36479
36460
36452
36438
36428
36424
36397
36401
36368
36372
36342
36344
36316
36328
36300
36295
36273
36264
36256
36232
36232
36224
36198
36194
36172
36185
36148
36146
36126
36116
36108
36104
36072
36066
36060
36044
36028
36024
36020
35997
35990
35983
35964
35956
35940
35928
35908
35908
35896
35886
35876
35868
35844
35840
35836
35828
35821
35800
35798
35782
35784
35780
35764
35753
35736
35738
35736
35720
35712
35708
35695
35692
35684
35664
35649
35650
35642
35638
35632
35620
35600
35596
35584
35585
35577
35574
35561
35546
35536
35528
35528
35524
35516
35494
35478
35472
35464
35462
35456
35444
35440
35436
35421
35396
35380
35372
35368
35360
35346
35341
35332
35308
35300
35292
35276
35260
35252
35240
35236
35223
35206
35197
35182
35165
35152
35135
35129
35124
35121
35104
35088
35074
35060
35048
35045
35024
35016
35005
34997
34984
34965
34964
34956
34945
34932
34924
34908
34916
34896
34888
34882
34864
34868
34849
34836
34842
34837
34820
34810
34814
34801
34789
34788
34786
34776
34768
34765
34761
34745
34736
34740
34740
34734
34725
34722
34720
34709
34703
34709
34686
34692
34680
34684
34664
34668
34668
34660
34663
34666
34640
34652
34636
34628
34632
34632
34632
34612
34612
34602
34604
34591
34599
34596
34577
34572
34570
34575
34553
34546
34553
