EGG
20756
20601
20589
20610
20597
20610
20633
20692
20655
20642
20648
20667
20807
20681
20673
20692
20680
20716
20709
20747
20725
20763
20756
20804
20779
20844
20791
20992
20812
21031
20809
20806
20834
20825
20847
20845
20871
20869
20896
20879
20899
20901
20950
20934
20999
20946
21072
20958
20938
20966
20968
21026
21008
21203
20999
20991
21020
21020
21074
21053
21238
21052
21040
21076
21070
21090
21092
21163
21125
21262
21117
21109
21150
21159
21145
21163
21158
21209
21196
21183
21198
21190
21215
21212
21222
21218
21255
21297
21255
21298
21273
21363
21297
21439
21311
21313
21319
21316
21333
21329
21340
21342
21359
21355
21372
21368
21380
21373
21402
21400
21423
21341
21434
21426
21443
21438
21465
21445
21463
21673
21483
21479
21497
21508
21511
21505
21537
21508
21534
21529
21540
21540
21560
21565
21580
21576
21602
21582
21612
21610
21642
21628
21642
21631
21651
21626
21652
21650
21663
21659
21675
21668
21685
21676
21695
21694
21713
21708
21727
21724
21735
21733
21746
21739
21759
21761
21774
21764
21780
21774
21797
21786
21805
21799
21826
21820
21839
21833
21855
21844
21891
21856
21921
21869
21918
21879
22005
21895
21871
21903
22097
21913
21947
21916
21932
21919
21940
21924
21941
21935
21952
21931
21958
21951
21975
21965
21977
21968
22002
21981
22012
22172
22020
22052
22008
22094
22036
22077
22040
22019
22034
22032
22039
22039
22054
22038
22063
22289
22082
22258
22076
22066
22079
22071
22160
22103
22213
22119
22318
22127
22106
22124
22111
22125
22121
22137
22133
22141
22138
22148
22148
22162
22157
22158
22160
22197
22179
22201
22187
22204
22182
22374
22191
22182
22204
22191
22212
22204
22215
22206
22223
22204
22221
22219
22227
22218
22244
22229
22250
22247
22242
22249
22274
22263
22360
22275
22257
22279
22257
22271
22268
22308
22302
22384
22322
22492
22316
22516
22314
22303
22311
22315
22320
22312
22314
22315
22344
22327
22342
22333
22346
22349
22391
22369
22353
22359
22364
22407
22385
22483
22383
22367
22409
22391
22494
22398
22389
22399
22411
22620
22415
22422
22524
22422
22412
22417
22431
22469
22463
22417
22433
22437
22447
22451
22477
22462
22583
22485
22676
22469
22470
22488
22481
22557
22499
22471
22515
22502
22607
22517
22730
22510
22504
22530
22517
22531
22527
22583
22559
22524
22535
22531
22565
22550
22613
22570
22731
22561
22550
22563
22561
22573
22566
22585
22574
22590
22579
22592
22587
22619
22600
22743
22616
22598
22614
22596
22614
22605
22626
22621
22644
22631
22777
22636
22625
22639
22642
22651
22644
22674
22662
22729
22687
22848
22680
22663
22682
22664
22692
22671
22686
22677
22690
22679
22698
22924
22708
22687
22711
22694
22713
22727
22757
22732
22735
22721
22765
22749
22879
22751
22906
22762
22929
22742
22729
22758
22763
22830
22765
22758
22766
22757
22775
22769
22809
22790
22827
22802
22833
22804
22834
22817
22891
22807
22999
22818
22993
22817
22799
22837
22812
22829
22817
22824
22828
22834
22828
22853
22829
22846
23045
22865
23047
22863
22852
22917
22865
22855
22936
22879
22869
22907
22875
22865
22956
22887
22879
22895
22903
22894
22895
22909
22903
22927
22895
22934
22913
22927
22910
22927
22921
22948
22949
23012
22945
23128
22943
22927
22943
22934
22972
22954
23063
22971
23115
22964
22944
22961
22966
23090
22970
22966
22990
22991
23047
23001
23175
22996
22987
22986
22993
22993
22991
23017
23006
23015
23015
23068
23025
23098
23025
23182
23026
23015
23036
23211
23047
23103
23045
23143
23047
23167
23054
23100
23047
23047
23039
23054
23044
23063
23054
23066
23053
23069
23050
23075
23072
23125
23074
23110
23087
23105
23089
23163
23098
23271
23090
23074
23090
23077
23101
23240
23100
23089
23108
23110
23191
23109
23101
23108
23114
23156
23121
23159
23121
23144
23126
23172
23127
23231
23143
23262
23136
23191
23138
23195
23157
23231
23156
23060
23149
23135
23145
23137
23174
23146
23205
23164
23197
23172
23260
23165
23354
23164
23156
23161
23166
23201
23177
23351
23175
23151
23166
23153
23179
23170
23185
23169
23198
23181
23201
23180
23197
23183
23223
23199
23317
23198
23178
23195
23186
23198
23132
23207
23383
23208
23354
23224
23292
23213
23301
23218
23381
23220
23311
23210
23344
23223
23196
23210
23206
23215
23203
23236
23221
23356
23196
23200
23207
23204
23244
23226
23203
23213
23212
23226
23229
23326
23237
23204
23231
23220
23232
23218
23233
23236
23332
23254
23233
23244
23238
23252
23239
23279
23263
23381
23270
23435
23265
23392
23268
23265
23281
23275
23280
23263
23298
23285
23327
23295
23349
23303
23404
23332
23310
23303
23295
23310
23309
23368
23342
23319
23329
23308
23335
23330
23362
23332
23341
23335
23355
23332
23343
23347
23356
23339
23372
23351
23387
23375
23406
23375
23450
23380
23396
23381
23398
23387
23434
23393
23439
23387
23453
23395
23447
23397
23457
23402
23453
23415
23484
23415
23585
23404
23396
23402
23399
23414
23405
23425
23415
23461
23422
23508
23431
23542
23422
23401
23425
23408
23489
23420
23409
23446
23423
23589
23423
23420
23439
23420
23426
23431
23468
23429
23468
23439
23569
23437
23414
23436
23420
23431
23412
23439
23422
23437
23423
23445
23420
23437
23428
23432
23426
23437
23424
23432
23423
23442
23421
23443
23426
23514
23449
23439
23422
23471
23434
23419
23439
23418
23429
23420
23431
23430
23430
23415
23429
23417
23429
23425
23431
23427
23428
23407
23420
23594
23436
23551
23427
23462
23423
23423
23410
23424
23396
23415
23391
23417
23400
23406
23399
23407
23401
23412
23396
23394
23389
23410
23412
23586
23401
23375
23382
23377
23388
23519
23396
23477
23385
23401
23375
23376
23364
23365
23350
23367
23342
23358
23343
23356
23342
23348
23341
23347
23340
23415
23343
23327
23334
23489
23333
23500
23327
23371
23319
23340
23306
23306
23300
23302
23284
23286
23221
23292
23414
23294
23453
23291
23439
23282
23308
23261
23293
23257
23263
23242
23251
23236
23238
23287
23230
23223
23220
23223
23223
23214
23388
23214
23335
23207
23280
23205
23229
23197
23220
23198
23165
23180
23159
23185
23178
23292
23167
23140
23152
23151
23205
23152
23133
23137
23136
23120
23130
23113
23199
23117
23099
23181
23100
23102
23247
23095
23082
23167
23081
23073
23213
23071
23082
23058
23090
23063
23039
23088
23053
23036
23036
23043
23021
23062
23025
23002
23046
23006
23008
23181
23003
23014
22979
23015
22996
22965
23006
22967
22956
22996
22972
22948
22964
22951
23100
22945
22937
22983
22951
22921
22983
22919
22909
22957
22932
22889
22900
22909
22887
22900
22900
22875
22885
22881
22863
22872
22878
22839
22869
22883
22844
22879
22857
22823
22842
22849
22811
22835
22830
22952
22809
22810
22866
22812
22780
22799
22794
22937
22782
22775
22901
22773
22766
22751
22770
22756
22743
22799
22740
22725
22924
22732
22731
22708
22714
22717
22891
22705
22709
22816
22698
22679
22727
22692
22663
22715
22662
22658
22694
22677
22641
22671
22648
22630
22823
22630
22630
22818
22622
22617
22727
22611
22607
22595
22632
22597
22586
22792
22606
22587
22570
22727
22573
22577
22535
22562
22558
22639
22559
22711
22547
22525
22526
22507
22522
22504
22521
22693
22518
22663
22513
22627
22494
22508
22481
22480
22458
22462
22449
22452
22637
22466
22483
22437
22446
22412
22441
22525
22438
22455
22405
22409
22394
22400
22610
22391
22378
22447
22395
22374
22402
22383
22358
22374
22383
22345
22367
22359
22497
22335
22318
22335
22334
22396
22329
22304
22316
22305
22482
22298
22280
22294
22274
22290
22423
22270
22271
22249
22262
22247
22257
22237
22257
22372
22252
22240
22222
22230
22205
22220
22199
22218
22399
22209
22230
22191
22202
22175
22183
22333
22186
22249
22164
22182
22148
22165
22138
22159
22134
22143
22375
22142
22162
22119
22119
22104
22109
22099
22111
22083
22116
22286
22107
22182
22099
22133
22062
22071
22055
22061
22300
22074
22109
22055
22066
22022
22036
22017
22044
22058
22018
22014
21991
22010
22118
22012
22004
21987
21994
21983
21988
21979
21966
21957
21966
21943
21975
22074
21956
21983
21932
21945
21924
21946
22005
21925
21938
21904
21909
21892
21898
22127
21917
21989
21889
21884
21871
21878
21860
21867
21852
21862
21853
21863
21841
21852
21831
21845
21830
21831
22060
21847
21894
21824
21869
21807
21812
21791
21788
21783
21784
21778
21788
21744
21766
21754
21766
21743
21773
21881
21754
21811
21746
21807
21735
21968
21704
21696
21710
21690
21732
21698
21685
21726
21703
21923
21676
21675
21753
21667
21661
21674
21680
21646
21703
21655
21652
21898
21653
21647
21630
21660
21652
21627
21639
21653
21614
21628
21639
21881
21623
21629
21612
21851
21676
21619
21612
21638
21604
21726
21606
21593
21619
21617
21799
21602
21592
21727
21598
21583
21599
21612
21840
21576
21574
21642
21582
21573
21758
21579
21594
21560
21615
21567
21559
21627
21566
21552
21682
21553
21552
21533
21587
21563
21536
21548
21566
21724
21532
21537
21733
21527
21511
21537
21525
21643
21518
21507
21521
21527
21654
21499
21509
21541
21516
21531
21487
21489
21484
21511
21486
21694
21479
21467
21486
21470
21544
21476
21447
21457
21447
21462
21438
21446
21431
21443
21431
21451
21423
21434
21429
21456
21430
21474
21431
21535
21422
21421
21401
21415
21383
21398
21581
21405
21398
21371
21380
21496
21386
21404
21355
21369
21357
21360
21492
21370
21391
21352
21369
21324
21338
21323
21329
21324
21321
21333
21313
21319
21547
21308
21287
21313
21293
21300
21521
21312
21334
21270
21270
21255
21268
21470
21285
21304
21249
21261
21231
21246
21494
21257
21411
21242
21456
21231
21266
21227
21264
21214
21255
21190
21199
21182
21190
21159
21162
21397
21178
21305
21166
21203
21146
21159
21124
21126
21375
21141
21108
21113
21122
21129
21086
21098
21078
21087
21068
21068
21266
21091
21228
21079
21087
21054
21087
21032
21031
21010
21023
21013
21011
20997
21015
21069
21008
21031
20982
20972
20966
20976
20961
20942
20960
21058
20940
20941
20913
20928
20982
20902
20915
20894
20919
20953
20884
20877
20855
20871
20846
20855
20965
20860
20845
20832
20839
20807
20818
21081
20826
20903
20807
20791
20780
20785
21027
20778
20780
20754
20772
20768
20731
20734
20716
20734
20972
20738
20817
20726
20734
20688
20692
20685
20682
20668
20687
20779
20679
20748
20659
20663
20631
20643
20635
20633
20614
20615
20596
20618
20696
20600
20591
20567
20573
20559
20574
20807
20577
20663
20568
20590
20541
20543
20511
20524
20735
20535
20732
20517
20691
20512
20474
20479
20468
20484
20575
20475
20553
20470
20562
20460
20417
20427
20410
20423
20393
20420
20394
20395
20596
20401
20404
20369
20385
20362
20367
20347
20359
20345
20359
20335
20335
20327
20343
20485
20335
20396
20317
20316
20292
20303
20278
20287
20273
20285
20273
20356
20278
20546
20268
20463
20271
20347
20240
20289
20238
20254
20229
20231
20198
20206
20185
20189
20178
20181
20164
20194
20345
20175
20152
20141
20145
20331
20167
20293
20151
20139
20110
20124
20100
20102
20092
20103
20083
20101
20295
20095
20229
20091
20114
20081
20136
20077
20348
20062
20071
20045
20033
20014
20022
20308
20023
20058
20007
20011
19982
19985
20274
19996
20086
19973
19967
19953
19964
20149
19970
19959
19932
19941
19916
19940
20025
19927
19908
19897
19932
20010
19900
19893
19887
19883
19870
20071
19883
19863
20056
19854
19839
19853
19859
19978
19844
19814
19830
19813
19895
19823
19804
19818
19825
19789
19793
19806
20055
19791
19763
19935
19779
19767
19889
19766
19753
20054
19750
19762
19717
19728
19717
19830
19719
19710
19822
19708
19697
19760
19706
19671
19688
19701
19940
19681
19679
19903
19655
19665
19628
19649
19643
19908
19647
19624
19689
19642
19613
19643
19633
19596
19602
19606
19882
19599
19562
19591
19591
19562
19570
19589
19880
19564
19548
19560
19531
19567
19557
19792
19540
19514
19531
19530
19813
19507
19494
19599
19510
19483
19482
19495
19588
19474
19479
19463
19460
19478
19767
19457
19438
19547
19451
19422
19462
19425
19411
19509
19416
19412
19485
19421
19381
19564
19391
19397
19693
19386
19382
19353
19375
19367
19359
19343
19436
19349
19339
19495
19335
19343
19646
19316
19327
19546
19319
19300
19548
19302
19307
19290
19604
19280
19295
19268
19271
19284
19588
19258
19255
19303
19273
19231
19455
19232
19245
19204
19218
19225
19211
19207
19220
19186
19201
19213
19173
19231
19184
19167
19263
19175
19144
19203
19157
19142
19200
19153
19132
19218
19139
19116
19127
19145
19105
19118
19122
19405
19106
19085
19127
19125
19082
19099
19107
19073
19125
19108
19073
19108
19089
19079
19068
19188
19080
19086
19063
19062
19093
19051
19142
19066
19063
19393
19060
19055
19408
19049
19073
19050
19060
19071
19031
19075
19068
19038
19195
19039
19057
19026
19034
19050
19018
19034
19028
19029
19085
19021
19042
18996
19018
19031
19013
19050
19012
19003
19266
18998
19023
18987
19053
19002
18982
19081
18983
18991
18978
18977
18983
19263
18979
18958
19195
18967
18983
18951
18964
18980
18943
18962
18972
18940
18940
18941
19000
18959
19300
18927
18918
19025
18933
18914
18933
18924
19098
18919
18898
18963
18930
18885
18892
18895
18988
18912
18876
18891
18864
18877
18874
18979
18900
18853
18857
18868
19009
18869
18833
18847
18841
18899
18871
18822
18828
18837
18820
18828
18814
18879
18835
18797
18810
18837
18778
18798
18776
18793
18788
18897
18794
18763
19105
18771
18765
19079
18760
18746
18842
18743
18726
18744
18761
18994
18722
18716
18808
18709
18706
18887
18717
18689
18702
18703
18892
18687
18654
18694
18692
18712
18661
18646
18686
18671
18633
18635
18638
18725
18644
18602
18624
18598
18631
18635
18967
18596
18564
18588
18599
18970
18564
18565
18913
18548
18542
18647
18548
18533
18633
18523
18523
18839
18507
18509
18731
18497
18479
18493
18495
18823
18460
18463
18683
18448
18428
18526
18437
18416
18420
18420
18583
18422
18380
18421
18410
18375
18376
18386
18349
18356
18356
18397
18367
18329
18335
18342
18658
18316
18306
18324
18302
18337
18297
18599
18275
18249
18252
18249
18306
18240
18217
18237
18242
18576
18214
18194
18194
18201
18343
18196
18151
18228
18175
18150
18146
18151
18495
18140
18132
18494
18115
18140
18097
18126
18122
18077
18081
18103
18060
18100
18074
18045
18119
18053
18031
18106
18034
18015
18023
18031
17989
18063
18017
17975
18325
17970
18005
17954
17954
17975
18242
17935
17959
17924
17983
17935
17908
18173
17897
17913
18218
17895
17881
17876
17861
17890
17877
18085
17862
17845
17855
17860
18245
17826
17828
18058
17807
17816
17787
17792
17803
18173
17777
17782
17900
17759
17756
18062
17745
17733
17801
17740
17719
17793
17721
17708
17769
17727
17678
17719
17716
17678
17674
17675
17746
17695
18018
17660
17633
17640
17638
17650
17655
17969
17620
17607
17618
17632
17592
17604
17591
17627
17613
17913
17578
17562
17564
17595
17549
17550
17575
17537
17534
17538
17652
17551
17508
17508
17537
17486
17501
17482
17497
17510
17472
17477
17464
17535
17479
17457
17465
17472
17801
17452
17435
17460
17458
17420
17423
17423
17580
17404
17426
17397
17409
17414
17384
17706
17386
17399
17366
17432
17371
17348
17386
17388
17348
17335
17320
17382
17347
17319
17335
17335
17415
17343
17717
17313
17297
17350
17323
17685
17300
17287
17375
17312
17265
17277
17260
17262
17264
17402
17285
17241
17239
17239
17311
17254
17220
17222
17230
17330
17228
17213
17216
17220
17443
17205
17186
17258
17220
17174
17215
17201
17175
17340
17185
17162
17259
17177
17191
17161
17318
17155
17159
17543
17144
17156
17132
17146
17153
17116
17158
17123
17106
17132
17136
17090
17114
17094
17127
17125
17083
17101
17076
17145
17107
17079
17079
17090
17438
17069
17081
17385
17060
17072
17052
17046
17041
17091
17077
17033
17037
17031
17123
17047
17020
17028
17039
17407
17013
17010
17105
17019
17002
17010
16996
17035
17029
16987
17006
17023
16972
16987
16995
16980
16972
16988
17244
16977
16967
17037
16981
16962
16966
16969
17036
16973
16950
16951
16961
16939
16948
16946
17174
16943
16936
17097
16927
16929
16941
17221
16926
16930
17072
16925
16906
16964
16936
16903
16967
16934
16894
16901
16923
16886
16898
16904
17183
16877
16882
17140
16890
16875
16919
16911
16867
16874
16865
16945
16897
16858
16854
16886
16848
16863
16879
16837
16895
16879
16846
16910
16879
16839
16881
16840
16828
16935
16849
16836
16932
16846
16868
16835
16893
16846
16831
17005
16845
16839
16876
16870
16838
16958
16842
16851
17111
16854
16878
16841
16863
16877
16843
16862
16895
16848
16856
16887
16863
16870
16887
16865
16917
16905
16871
16885
16887
16975
16903
16871
16905
16919
16890
16907
16919
16884
16894
16913
17239
16903
16911
17239
16903
16913
16976
16926
16892
16940
16944
16906
16923
16940
17223
16921
16941
17254
16922
16948
16919
17012
16927
16954
16921
17029
16945
16940
17087
16949
16945
17213
16958
16945
16996
16975
16941
17025
16972
16949
16995
16982
16959
16959
16985
17281
16969
16953
16987
16997
16966
17003
16986
16959
16998
17002
16966
16973
16973
16989
17002
16978
16990
17004
16986
17002
17025
16986
17007
17015
16988
16992
17010
17254
17002
16998
17052
17020
17005
16999
17025
17297
17022
17011
17044
17048
17003
17013
17030
17242
17025
17017
17099
17044
17005
17030
17023
17124
17050
17329
17025
17023
17025
17039
17025
17025
17030
17153
17036
17031
17055
17062
17031
17034
17043
17280
17043
17041
17258
17045
17030
17068
17062
17029
17047
17047
17042
17040
17070
17035
17051
17061
17316
17055
17082
17296
17053
17077
17302
17055
17047
17163
17061
17058
17187
17071
17049
17057
17047
17089
17077
17038
17045
17069
17038
17054
17079
17039
17071
17066
17032
17078
17062
17043
17050
17039
17104
17079
17292
17051
17033
17046
17061
17117
17073
17327
17051
17039
17046
17044
17238
17048
17034
17056
17066
17032
17051
17030
17040
17048
17322
17036
17027
17039
17054
17120
17056
17021
17031
17031
17060
17043
17317
17036
17020
17029
17020
17087
17026
17020
17032
17021
17037
17038
17183
17028
17044
16984
17022
17015
17015
17007
17018
17020
17049
17046
17014
17053
17025
17015
17023
17024
17038
17007
17015
17014
17046
17031
17292
17015
16997
17032
17026
17002
17009
17014
16997
17007
17021
17227
17023
17017
17111
17027
17002
17076
17012
17012
17074
17031
17001
17013
17007
17019
17044
17231
17023
17012
17023
17019
17087
17027
17012
17013
17014
17031
17040
17021
17038
17039
17278
17025
17023
17071
17030
17023
17030
17033
17199
17031
17023
17151
17040
17023
17065
17031
17029
17085
17044
17037
17217
17037
17057
17029
17055
17063
17031
17055
17070
17026
17055
17077
17046
17053
17079
17048
17087
17077
17044
17057
17075
17044
17065
17079
17051
17126
17078
17060
17103
17084
17066
17084
17087
17064
17090
17097
17337
17100
17070
17089
17111
17292
17089
17104
17191
17122
17086
17109
17120
17369
17109
17109
17173
17120
17122
17362
17116
17140
17113
17167
17120
17135
17124
17141
17153
17129
17242
17151
17156
17398
17153
17155
17140
17151
17174
17150
17193
17169
17164
17222
17178
17176
17410
17176
17177
17315
17189
17173
17195
17207
17183
17201
17216
17191
17223
17213
17197
17257
17231
17213
17222
17236
17217
17217
17217
17263
17251
17452
17241
17242
17351
17247
17237
17279
17277
17255
17317
17282
17267
17326
17279
17290
17487
17284
17303
17287
17297
17306
17537
17309
17301
17331
17332
17523
17330
17316
17343
17351
17540
17345
17333
17343
17345
17406
17346
17349
17364
17361
17383
17374
17374
17390
17374
17462
17374
17403
17385
17399
17622
17401
17425
17423
17411
17433
17423
17605
17425
17444
17425
17444
17466
17661
17450
17436
17455
17463
17497
17484
17677
17482
17473
17620
17487
17483
17567
17503
17487
17532
17532
17496
17515
17524
17747
17535
17540
17612
17550
17542
17605
17562
17552
17703
17563
17583
17566
17605
17593
17578
17604
17609
17757
17601
17607
17746
17613
17623
17830
17629
17628
17647
17660
17636
17709
17657
17662
17673
17697
17666
17714
17702
17677
17690
17710
17925
17711
17700
17735
17729
17662
17736
17736
17731
17742
17766
17744
17766
17774
17765
17799
17775
17770
17781
17797
17859
17794
17797
17845
17825
17815
18026
17900
17829
17849
17854
18026
17854
17855
17895
17887
17855
17876
17891
18094
17882
17886
17931
17921
18119
17918
17918
17934
17949
18139
17936
17933
17954
17973
17958
17964
17983
17970
17986
17999
17978
18015
18004
18006
17999
18018
18034
17959
18031
18047
18031
18047
18061
18055
18066
18086
18193
18101
18092
18103
18110
18241
18130
18139
18285
18159
18167
18285
18172
18173
18229
18217
18201
18266
18244
18236
18270
18269
18245
18268
18284
18274
18300
18300
18293
18326
18333
18511
18343
18345
18475
18363
18365
18426
18402
18389
18399
18419
18615
18422
18439
18478
18471
18436
18479
18472
18670
18491
18488
18565
18535
18508
18537
18554
18528
18557
18572
18623
18594
18582
18589
18599
18774
18620
18637
18702
18642
18662
18847
18669
18659
18687
18695
18854
18708
18700
18724
18747
18924
18745
18739
18766
18766
18798
18786
18776
18813
18812
18988
18831
18845
18833
18852
18859
18853
18860
18885
19004
18899
18876
18913
18919
18918
18943
18943
18980
18969
19137
18969
18958
18986
18988
19029
19023
19173
19020
19019
19033
19029
19047
19060
19079
19069
19069
19091
19086
19103
19162
19202
19258
19321
19125
19133
19166
19165
19175
19174
19191
19334
19185
19194
19206
19229
19240
19237
19241
19248
19286
19317
19404
19364
19358
19452
19358
19289
19294
19305
19310
19340
19333
19337
19354
19355
19366
19486
19368
19368
19393
19401
19390
19406
19438
19423
19426
19442
19469
19535
19430
19447
19454
19473
19489
19484
19492
19527
19543
19623
19665
19514
19525
19543
19535
19542
19571
19654
19553
19559
19570
19573
19587
19582
19597
19596
19617
19594
19616
19610
19628
19627
19639
19636
19654
19644
19674
19758
19676
19692
19684
19691
19694
19705
19692
19727
19805
19724
19848
19751
19760
19768
19896
19751
19753
19775
19787
19774
19793
19804
19839
19940
19785
19811
19823
19821
19834
19983
19831
19840
19847
19852
19879
19887
19922
20009
19860
19877
19876
19879
19885
19900
19915
19922
19919
19927
19929
19933
19951
19967
20078
19950
19964
19973
19970
19975
19991
19998
20021
20080
19995
19997
20010
20019
20021
20031
20046
20049
20047
20052
20063
20073
20076
20076
20091
20093
20122
20133
20211
20238
20231
20239
20126
20124
20129
20135
20151
20183
20167
20168
20182
20202
20230
20287
20316
20332
20355
20211
20207
20229
20231
20259
20262
20257
20267
20266
20286
20279
20296
20327
20349
20388
20295
20313
20334
20339
20349
20387
20340
20359
20357
20364
20372
20398
20391
20379
20404
20403
20439
20424
20419
20444
20452
20568
20462
20457
20516
20469
20571
20481
20487
20509
20513
20596
20526
20503
20533
20535
20567
20552
20611
20570
20551
20577
20581
20603
20606
20681
20615
20679
20636
20746
20639
20757
20660
20648
20660
20661
20690
20682
20690
20696
20714
20706
20740
20739
20845
20742
20746
20754
20775
20884
20775
20777
20851
20804
20801
20839
20826
20807
20837
20831
20866
20863
20935
20874
20871
20900
20903
20889
20919
20923
20922
20943
20942
20937
20988
20969
20952
21034
20994
21001
20988
21013
20999
21005
21079
21026
21039
21140
21060
21061
21165
21092
21092
21202
21103
21111
21111
21149
21141
21143
21199
21162
21170
21158
21186
21188
21180
21220
21214
21173
21243
21241
21329
21249
21255
21284
21282
21372
21292
21293
21312
21329
21309
21331
21334
21344
21357
21391
21377
21469
21390
21387
21492
21410
21407
21445
21447
21524
21452
21459
21519
21484
21477
21498
21508
21547
21511
21514
21549
21542
21572
21564
21650
21575
21574
21611
21607
21695
21623
21610
21642
21629
21677
21662
21570
21683
21678
21710
21706
21797
21718
21810
21736
21749
21764
21751
21782
21787
21863
21797
21797
21813
21815
21847
21831
21868
21861
21922
21874
21869
21901
21895
21917
21916
21925
21926
21966
21941
21962
21974
22033
21991
21989
22001
22013
22048
22031
22064
22062
22135
22062
22069
22090
22102
22094
22115
22114
22111
22175
22152
22151
22170
22178
22175
22183
22239
22206
22202
22244
22235
22239
22278
22267
22267
22287
22284
22296
22303
22313
22344
22331
22324
22349
22358
22414
22372
22372
22396
22394
22418
22420
22447
22446
22524
22457
22466
22485
22492
22557
22506
22508
22524
22519
22552
22550
22599
22569
22620
22585
22582
22604
22606
22631
22628
22652
22644
22660
22663
22725
22684
22678
22721
22711
22708
22737
22738
22754
22756
22785
22769
22798
22791
22790
22830
22823
22863
22844
22834
22852
22855
22875
22886
22932
22891
22903
22916
22938
22917
22937
22951
22950
22968
22990
23023
22980
23009
23014
23018
23058
23036
23046
23087
23065
23075
23096
23099
23087
23110
23118
23151
23146
23173
23164
23169
23176
23188
23217
23209
23237
23238
23236
23268
23269
23286
23298
23332
23324
23308
23334
23354
23381
23364
23377
23395
23398
23424
23431
23468
23456
23458
23475
23487
23531
23506
23543
23526
23449
23556
23559
23583
23585
23612
23602
23639
23637
23655
23653
23664
23682
23687
23699
23703
23732
23727
23759
23762
23751
23782
23791
23813
23812
23842
23847
23828
23851
23877
23879
23901
23904
23891
23920
23919
23943
23953
23967
23972
24002
23995
24006
24013
24027
24036
24059
24068
24078
24085
24111
24097
24112
24129
24136
24158
24156
24166
24174
24185
24203
24218
24226
24230
24245
24259
24255
24276
24293
24297
24303
24320
24319
24335
24334
24352
24372
24383
24382
24395
24390
24413
24422
24434
24444
24468
24481
24474
24485
24499
24514
24522
24527
24531
24553
24567
24567
24583
24583
24593
24604
24621
24629
24638
24643
24671
24674
24679
24694
24701
24706
24710
24710
24746
24750
24757
24754
24780
24780
24796
24805
24814
24820
24825
24843
24850
24865
24874
24876
24878
24896
24900
24923
24913
24935
24935
24946
24956
24964
24971
24967
24996
24991
25020
25015
25031
25031
25052
25057
25050
25071
25047
25094
25092
25108
25116
25120
25132
25134
25146
25076
25172
25162
25168
25188
25188
25204
25217
25204
25226
25236
25246
25244
25261
25268
25283
25282
25293
25300
25300
25314
25327
25323
25338
25348
25363
25351
25376
25367
25380
25390
25404
25393
25415
25417
25440
25438
25442
25450
25447
25469
25415
25489
25483
25497
25500
25508
25513
25521
25531
25528
25530
25544
25552
25567
25567
25572
25596
25580
25591
25594
25612
25503
25635
25623
25623
25654
25601
25667
25666
25681
25679
25692
25693
25696
25707
25682
25729
25726
25742
25738
25755
25748
25764
25772
25775
25782
25781
25796
25798
25824
25816
25841
25839
25847
25839
25860
25860
25868
25879
25887
25892
25895
25917
25908
25922
25927
25919
25940
25940
25938
25965
25964
25980
25983
25966
26012
25996
26015
26028
25971
26044
26039
26055
26057
26037
26080
26082
26074
26095
26076
26111
26111
26124
26119
26130
26148
26147
26161
26165
26157
26175
26175
26202
26201
26215
26214
26231
26222
26239
26239
26255
26262
26271
26284
26274
26294
26269
26302
26234
26314
26331
26344
26350
26354
26355
26351
26370
26375
26378
26386
26399
26414
26407
26414
26422
26441
26437
26461
26456
26473
26470
26492
26483
26488
26500
26492
26525
26502
26525
26532
26535
26519
26555
26567
26577
26572
26593
26589
26605
26606
26594
26621
26606
26641
26641
26663
26657
26655
26680
26631
26700
26695
26703
26721
26715
26735
26714
26741
26729
26753
26650
26794
26790
26805
26799
26813
26804
26831
26820
26812
26844
26805
26862
26863
26884
26877
26856
26900
26851
26924
26919
26931
26921
26921
26953
26900
26970
26974
26979
26983
26988
27003
26919
27020
27016
27022
27048
26976
27060
27069
27058
27077
27070
27089
27031
27117
27111
27084
27127
27060
27161
27157
27163
27171
27103
27194
27196
27198
27207
27198
27223
27174
27237
27242
27264
27259
27271
27274
27260
27284
27246
27303
27311
27327
27333
27337
27338
27343
27359
27304
27379
27381
27381
27394
27309
27426
27418
27434
27439
27436
27445
27429
27462
27397
27492
27489
27508
27496
27488
27519
27483
27527
27476
27566
27559
27567
27573
27571
27590
27580
27594
27590
27611
27626
27639
27633
27594
27649
27660
27677
27686
27684
27696
27616
27710
27716
27735
27740
27738
27725
27748
27721
27765
27706
27767
27679
27791
27708
27813
27815
27830
27835
27825
27847
27863
27824
27876
27888
27845
27903
27908
27828
27932
27920
27863
27964
27954
27855
27966
27965
27911
28001
28007
27978
28007
28010
28012
28039
27994
28042
27922
28087
28076
28077
28085
28097
28103
28117
28106
28130
28132
28137
28143
28165
28158
28167
28148
28188
28199
28143
28210
28223
28132
28228
28193
28243
28225
28263
28273
28138
28269
28260
28290
28310
28195
28317
28310
28327
28342
28338
28220
28358
28378
28234
28377
28388
28388
28392
28396
28414
28434
28394
28438
28455
28444
28471
28379
28484
28466
28493
28510
28396
28522
28518
28533
28543
28480
28558
28565
28472
28567
28581
28436
28594
28576
28604
28604
28593
28623
28631
28615
28645
28652
28677
28622
28682
28705
28644
28703
28715
28703
28732
28738
28750
28748
28762
28780
28783
28792
28804
28692
28822
28834
28717
28855
28858
28709
28871
28897
28896
28902
28902
28924
28879
28935
28908
28964
28975
28863
28984
29007
28903
29021
29013
29031
29037
28996
29063
29076
28994
29087
29109
29032
29111
29133
28995
29140
29138
29151
29164
29164
29079
29191
29191
29230
29202
29087
29237
29271
29227
29260
29274
29281
29279
29138
29212
29271
29316
29342
29351
29354
29367
29363
29216
29293
29360
29385
29415
29415
29420
29440
29310
29430
29463
29467
29477
29494
29358
29477
29511
29502
29522
29540
29401
29492
29551
29583
29573
29592
29585
29604
29469
29575
29622
29628
29633
29653
29647
29567
29647
29692
29684
29692
29701
29591
29697
29748
29727
29751
29746
29759
29687
29749
29802
29780
29799
29795
29811
29716
29807
29841
29853
29855
29858
29862
29871
29879
29735
29789
29773
29828
29844
29877
29895
29909
29935
29943
29967
29973
29995
29991
29998
30004
29977
30007
30012
30025
30030
30036
30046
30046
30058
30057
29886
29989
30050
30077
30103
30132
30107
30101
30116
30133
30137
30142
30138
29999
30095
30125
30142
30165
30180
30200
30205
30199
30191
30209
30210
30239
30247
30234
30243
30079
30154
30215
30247
30280
30297
30272
30286
30300
30303
30321
30310
30321
30327
30332
30183
30268
30294
30303
30295
30285
30327
30348
30372
30403
30404
30418
30412
30412
30420
30439
30439
30415
30431
30426
30446
30340
30394
30441
30468
30452
30459
30464
30471
30490
30495
30492
30316
30332
30382
30423
30463
30527
30540
30522
30532
30516
30511
30549
30554
30561
30547
30401
30575
30586
30540
30569
30592
30598
30501
30591
30527
30563
30599
30615
30641
30623
30628
30636
30638
30639
30657
30471
30583
30613
30670
30694
30692
30673
30685
30695
30549
30580
30668
30703
30715
30727
30711
30725
30733
30727
30597
30653
30660
30718
30743
30752
30774
30756
30767
30783
30788
30631
30747
30802
30821
30807
30807
30817
30653
30744
30816
30849
30831
30846
30847
30667
30746
30815
30826
30850
30881
30879
30907
30879
30879
30890
30901
30905
30722
30815
30874
30916
30928
30919
30942
30940
30950
30791
30791
30830
30859
30823
30906
30948
30991
31004
30981
30999
31008
31002
31015
30855
30855
30940
30986
31017
31058
31015
31052
31043
31053
31079
31060
31078
31076
30911
31014
31053
31055
31087
30911
30964
31063
31075
31095
31092
31111
31116
31099
31111
31122
31127
31151
31169
31177
31014
31083
31179
31204
31102
31191
31221
31073
31207
31217
31223
31236
31156
31224
31255
31132
31253
31260
31079
31263
31239
31271
31255
31208
31299
31279
31302
31317
31124
31299
31297
31319
31327
31234
31333
31326
31340
31328
31310
31350
31380
31274
31367
31396
31279
31385
31381
31255
31393
31400
31215
31414
31389
31406
31404
31402
31427
31428
31435
31292
31452
31467
31345
31431
31479
31493
31495
31474
31478
31482
31486
31488
31501
31514
31505
31519
31520
31387
31430
31439
31444
31458
31527
31547
31541
31559
31591
31594
31564
31585
31588
31601
31602
31605
31601
31594
31613
31623
31615
31617
31620
31611
31650
31654
31556
31663
31687
31559
31670
31643
31671
31667
31674
31692
31709
31709
31719
31615
31687
31726
31742
31726
31744
31733
31558
31695
31728
31751
31775
31764
31767
31775
31788
31791
31786
31793
31623
31658
31738
31780
31796
31821
31830
31839
31855
31847
31854
31864
31877
31866
31879
31866
31854
31844
31846
31855
31893
31884
31911
31911
31884
31895
31907
31927
31930
31934
31947
31937
31740
31813
31823
31887
31909
31926
31940
31964
31972
31995
31988
31985
32006
32008
32007
32015
32014
32029
32030
31863
32039
32034
32045
32068
31892
32069
32039
32074
32081
32072
32079
32015
32099
32118
32028
32103
32100
32101
31908
32111
32094
32133
32119
32118
32135
32135
32130
32164
32165
32109
32169
32156
32127
32179
32198
32102
32190
32186
31991
32194
32209
32028
32205
32224
32127
32226
32243
32084
32236
32259
32202
32247
32238
32243
32262
32255
32207
32276
32271
32263
32293
32285
32227
32311
32303
32321
32131
32345
32356
32196
32354
32337
32351
32366
32364
32381
32194
32399
32405
32407
32409
32418
32228
32369
32422
32455
32421
32471
32454
32291
32383
32430
32492
32517
32478
32511
32518
32519
32333
32371
32424
32412
32484
32542
32572
32586
32559
32579
32587
32593
32585
32533
32583
32620
32636
32616
32615
32639
32647
32647
32661
32655
32666
32663
32494
32551
32613
32639
32670
32683
32719
32727
32701
32717
32728
32738
32615
32653
32660
32679
32730
32772
32772
32760
32770
32788
32791
32799
32804
32817
32608
32697
32748
32779
32806
32829
32854
32876
32866
32860
32860
32865
32887
32898
32876
32903
32895
32895
32680
32827
32907
32943
32900
32934
32913
32950
32948
32959
32968
32978
32942
32973
32967
32834
32903
32978
32999
32838
32970
33012
32989
33009
33021
33015
33020
32814
32939
32995
33010
33031
33050
33079
33067
33031
33065
33066
33074
32861
32891
32895
32924
33004
33044
33116
33125
33133
33129
33094
33104
33121
33135
33136
33148
33142
32955
33135
32974
33030
33067
33135
33159
33178
33189
33137
33184
33182
33188
33196
33191
33191
32975
33030
33076
33124
33130
33177
33199
33188
33195
33197
33201
33233
33235
33250
33079
33239
33260
33107
33253
33263
33045
33259
33271
33063
33268
33263
33236
33259
33277
33273
33302
33207
33284
33287
33207
33301
33254
33302
33121
33287
33301
33327
33278
33274
33305
33310
33315
33313
33327
33319
33319
33221
33286
33338
33342
33343
33329
33343
33342
33169
33283
33319
33346
33362
33319
33333
33351
33334
33351
33333
33341
33343
33356
33358
33357
33369
33372
33374
33356
33375
33359
33366
33362
33134
33148
33166
33139
33351
33387
33351
33367
33383
33359
33371
33388
33403
33407
33273
33404
33382
33380
33399
33393
33388
33404
33382
33367
33431
33434
33243
33399
33397
33428
33415
33385
33431
33447
33423
33407
33405
33436
33461
33214
33417
33405
33447
33452
33439
33428
33447
33447
33468
33375
33463
33477
33328
33463
33475
33467
33442
33363
33455
33434
33479
33500
33239
33463
33436
33496
33523
33257
33495
33487
33500
33495
33359
33492
33438
33531
33495
33504
33535
33319
33472
33358
33519
33500
33527
33533
33517
33511
33483
33533
33537
33351
33511
33505
33537
33561
33543
33514
33509
33569
33567
33436
33556
33582
33476
33567
33583
33326
33562
33559
33575
33593
33490
33587
33578
33332
33580
33582
33589
33575
33591
33603
33561
33527
33598
33565
33605
33605
33578
33599
33611
33579
33607
33615
33589
33607
33626
33639
33512
33626
33661
33533
33642
33665
33543
33653
33641
33569
33644
33622
33632
33642
33647
33662
33509
33659
33647
33678
33562
33666
33649
33674
33695
33677
33453
33566
33616
33583
33614
33647
33639
33606
33700
33708
33708
33703
33505
33573
33607
33569
33669
33678
33699
33551
33735
33730
33711
33717
33752
33717
33703
33721
33726
33737
33751
33510
33620
33683
33696
33736
33759
33765
33765
33767
33772
33795
33794
33767
33747
33743
33793
33767
33749
33735
33734
33733
33762
33793
33796
33811
33823
33795
33778
33775
33817
33799
33815
33823
33716
33662
33695
33703
33725
33743
33751
33747
33747
33716
33620
33818
33770
33860
33871
33623
33835
33772
33849
33834
33871
33876
33870
33892
33703
33855
33855
33885
33857
33820
33895
33895
33895
33871
33796
33896
33907
33906
33897
33901
33927
33894
33880
33919
33913
33866
33927
33946
33717
33902
33863
33940
33946
33932
33942
33934
33959
33923
33916
33968
33984
33813
33972
33975
33783
33963
33974
33976
33948
33948
33988
34016
33844
33991
34005
33997
33981
33988
34001
33981
33978
34015
34027
33935
33991
33971
34023
34044
34028
34007
34023
34037
34052
33932
34044
34044
34055
34023
34025
34054
34040
33988
34071
34044
34065
34017
34054
34021
34086
34079
34076
34086
33997
34080
34104
34081
34123
33991
34116
34109
34111
34132
34081
34122
34116
33967
34117
34137
33920
34100
34095
34135
34105
34127
34129
34117
34127
34142
34124
34130
34154
34143
34068
34164
34156
34161
34166
34095
34187
34193
33989
34183
34191
34209
34191
34206
34206
34181
34181
34223
34228
34197
34238
34263
34119
34232
34207
34266
34282
34172
34269
34294
34142
34284
34271
34295
34303
34305
34325
34164
34295
34245
34326
34337
34329
34322
34349
34355
34329
34330
34359
34384
34370
34356
34204
34361
34291
34383
34368
34406
34422
34407
34420
34247
34398
34356
34437
34431
34439
34426
34377
34444
34463
34271
34450
34452
34471
34495
34349
34480
34481
34485
34468
34455
34504
34524
34380
34511
34501
34516
34541
34378
34507
34455
34535
34530
34540
34567
34391
34550
34559
34552
34539
34500
34575
34577
34583
34555
34548
34579
34604
34415
34599
34599
34588
34629
34605
34639
34615
34644
34631
34644
34452
34613
34630
34622
34632
34644
34585
34676
34660
34535
34629
34663
34688
34652
34677
34653
34666
34679
34666
34678
34692
34645
34703
34711
34702
34708
34621
34730
34724
34705
34711
34729
34716
34719
34733
34722
34740
34591
34767
34751
34732
34732
34751
34760
34756
34706
34767
34767
34732
34741
34768
34751
34768
34719
34791
34780
34759
34773
34795
34796
34778
34793
34798
34795
34607
34823
34813
34743
34823
34810
34817
34823
34822
34663
34855
34819
34798
34823
34655
34849
34833
34748
34853
34839
34823
34823
34815
34855
34844
34753
34867
34855
34855
34854
34772
34823
34847
34859
34855
34784
34844
34855
34855
34868
34773
34863
34855
34863
34838
34695
34885
34871
34740
34882
34881
34798
34855
34868
34864
34870
34817
34844
34878
34876
34881
34782
34879
34879
34846
34884
34879
34861
34873
34714
34891
34886
34756
34882
34876
34756
34895
34885
34858
34878
34788
34863
34887
34892
34886
34871
34862
34879
34903
34889
34865
34879
34789
34900
34884
34865
34871
34886
34887
34882
34874
34886
34884
34737
34911
34892
34871
34887
34823
34884
34889
34895
34892
34875
34897
34784
34909
34884
34813
34882
34764
34895
34895
34894
34894
34789
34913
34887
34888
34900
34852
34885
34747
34913
34897
34903
34902
34899
34895
34871
34901
34823
34910
34773
34899
34735
34926
34898
34915
34906
34892
34908
34900
34906
34890
34911
34895
34911
34895
34919
34884
34909
34866
34902
34811
34925
34903
34927
34917
34892
34913
34875
34900
34915
34919
34918
34890
34911
34842
34904
34913
34925
34910
34910
34916
34855
34924
34924
34909
34919
34806
34933
34925
34894
34919
34783
34933
34918
34868
34934
34923
34919
34861
34924
34910
34788
34922
34934
34857
34940
34927
34884
34914
34792
34935
34924
34900
34916
34931
34935
34927
34863
34930
34924
34948
34927
34942
34927
34925
34935
34922
34931
34897
34933
34917
34932
34924
34932
34917
34941
34871
34940
34930
34932
34940
34837
34949
34938
34946
34943
34943
34951
34935
34943
34919
34941
34910
34949
34903
34940
34871
34943
34878
34933
34836
34950
34934
34964
34813
34951
34949
34945
34940
34949
34959
34937
34946
34898
34941
34951
34965
34951
34951
34938
34919
34949
34844
34958
34948
34951
34951
34823
34974
34958
34972
34964
34944
34954
34956
34983
34953
34933
34959
34962
34951
34964
34935
34965
34915
34970
34917
34955
34971
34983
34958
34966
34959
34961
34968
34950
34967
34902
34974
34959
34967
34964
34923
34961
34965
34980
34967
34959
34973
34968
34979
34975
34975
34964
34967
34965
34945
34959
34972
34981
34964
34983
34968
34961
34963
34868
34983
34967
34978
34967
34970
34971
34959
34964
34948
34975
34909
34971
34919
34977
34900
34974
34972
34983
34976
34989
34975
34980
34964
34972
34969
34956
34975
34949
34965
34938
34967
34940
34975
34937
34967
34900
34980
34970
34985
34981
34961
34981
34943
34972
34927
34976
34967
34977
34972
34974
34974
34967
34967
34945
34965
34929
34972
34967
34978
34975
34932
34965
34967
34966
34967
34958
34957
34941
34965
34925
34971
34911
34978
34959
34978
34946
34961
34965
34903
34977
34951
34962
34953
34965
34959
34963
34959
34949
34964
34924
34966
34940
34958
34944
34948
34948
34924
34957
34916
34957
34954
34964
34938
34954
34942
34957
34944
34945
34951
34957
34959
34963
34959
34957
34959
34940
34971
34959
34970
34971
34903
34967
34964
34977
34975
34971
34964
34950
34988
34948
34983
34940
34983
34964
34988
34956
34980
34959
34998
34986
34999
34987
35006
34996
34988
34993
34988
34996
34989
35002
34914
35015
34999
35009
35002
34991
35008
34983
35021
35004
35022
35009
35031
35023
35015
35021
35015
35015
35015
35014
35015
35022
35004
35026
34975
35031
35015
35039
35033
35045
35036
35036
35031
35047
35037
35020
35033
35036
35042
35039
35040
35032
35031
35030
35036
35036
34998
35044
35036
35038
35039
35039
35039
35044
35045
35014
35041
34977
35034
34999
35031
35033
35047
35033
35041
35025
35021
35031
35015
35041
35025
35037
35028
35044
35031
35036
35029
35031
35029
35039
35037
35009
35026
34992
35039
35025
35033
35024
35023
35015
35020
35017
35011
35012
34991
35036
35022
35031
35020
35021
35015
35022
35022
35013
35003
35016
35007
35007
34996
34978
35002
35011
35015
34999
35006
34989
35010
34986
35001
34983
34999
34981
34993
34973
34983
34964
34972
34967
34974
34967
34977
34966
34975
34964
34970
34967
34952
34951
34946
34951
34949
34954
34941
34945
34948
34959
34927
34948
34933
34945
34925
34935
34912
34935
34915
34908
34926
34916
34915
34904
34902
34914
34910
34905
34893
34896
34878
34854
34871
34875
34863
34870
34877
34876
34863
34847
34847
34849
34851
34834
34844
34839
34844
34823
34820
34818
34823
34812
34822
34807
34813
34799
34783
34804
34788
34776
34802
34794
34780
34765
34772
34767
34772
34756
34765
34748
34746
34755
34734
34735
34727
34740
34727
34724
34719
34708
34716
34708
34710
34685
34695
34692
34702
34669
34689
34676
34606
34668
34617
34655
34657
34651
34650
34634
34639
34639
34631
34622
34623
34609
34626
34609
34609
34604
34599
34593
34588
34594
34580
34575
34567
34563
34573
34567
34502
34550
34549
34538
34540
34548
34542
34532
34532
34518
34526
34500
34516
34497
34511
34495
34508
34479
34486
34479
34481
34471
34477
34455
34462
34455
34442
34449
34439
34439
34431
34444
34426
34442
34413
34406
34431
34410
34414
34391
34402
34399
34404
34382
34386
34367
34383
34369
34355
34367
34342
34360
34340
34353
34335
34341
34324
34336
34308
34327
34311
34311
34294
34303
34303
34310
34284
34300
34287
34293
34260
34274
34263
34287
34260
34244
34255
34235
34259
34229
34236
34228
34231
34213
34213
34199
34211
34197
34197
34204
34199
34181
34188
34098
34183
34157
34175
34151
34172
34151
34164
34141
34157
34122
34150
34129
34151
34119
34140
34103
34098
34107
34093
34095
34091
34099
34082
34083
34069
34084
34068
34093
34055
34065
34044
34071
34030
34036
34023
34017
34021
34009
34017
33997
34010
33991
33995
33986
34003
33982
33991
33980
33980
33973
33980
33957
33959
33958
33951
33963
33925
33950
33927
33950
33919
33943
33911
33903
33898
33897
33897
33887
33895
33879
33887
33873
33892
33886
33858
33849
33859
33859
33852
33866
33836
33829
33822
33819
33838
33814
33813
33817
33799
33816
33789
33799
33771
33790
33775
33767
33766
33766
33759
33759
33743
33764
33743
33757
33740
33711
33739
33721
33751
33708
33698
33718
33702
33716
33699
33710
33675
33671
33671
33658
33684
33653
33663
33639
33660
33629
33652
33629
33647
33620
33627
33614
33594
33618
33606
33630
33590
33629
33578
33586
33597
33575
33604
33552
33551
33568
33551
33556
33541
33529
33564
33528
33518
33530
33515
33495
33497
33487
33521
33498
33484
33498
33479
33495
33468
33498
33469
33436
33475
33440
33484
33434
33431
33446
33412
33415
33438
33396
33391
33406
33391
33422
33382
33371
33388
33371
33356
33349
33384
33349
33343
33332
33350
33338
33327
33315
33346
33316
33303
33311
33303
33331
33287
33287
33295
33270
33268
33269
33254
33303
33253
33236
33269
33237
33280
33233
33214
33215
33197
33228
33193
33250
33191
33183
33199
33179
33175
33167
33152
33166
33151
33170
33144
33172
33143
33130
33144
33119
33141
33119
33148
33100
33139
33108
33145
33103
33167
33086
33085
33102
33079
33154
33080
33086
33119
33070
33123
33079
33066
33074
33061
33077
33055
33068
33050
33076
33044
33071
33031
33063
33049
33082
33029
33053
33028
33055
33022
33060
33018
33068
33007
32999
33038
32996
33061
32996
32984
33012
32981
33044
32973
32967
32979
32973
32990
32965
33009
32966
33022
32957
32942
32953
32942
32967
32938
32970
32934
32923
32922
32916
32934
32918
32955
32908
32926
32903
32913
32895
32950
32892
32882
32910
32870
32897
32873
32924
32863
32860
32848
32844
32855
32847
32884
32842
32862
32823
32874
32820
32813
32811
32797
32817
32797
32823
32797
32836
32787
32844
32790
32771
32775
32753
32821
32765
32815
32754
32742
32749
32745
32793
32730
32795
32725
32724
32723
32710
32728
32700
32728
32697
32767
32682
32675
32714
32670
32580
32676
32646
32661
32639
32692
32645
32635
32647
32627
32677
32623
32591
32613
32585
32621
32598
32648
32583
32579
32566
32572
32639
32551
32554
32554
32530
32548
32535
32615
32519
32511
32556
32509
32490
32500
32477
32511
32478
32463
32487
32471
32453
32449
32436
32478
32428
32421
32451
32421
32487
32429
32398
32383
32404
32384
32352
32414
32351
32351
32397
32343
32341
32319
32409
32351
32327
32306
32310
32300
32271
32359
32305
32283
32263
32252
32252
32239
32246
32225
32219
32225
32207
32263
32204
32185
32222
32171
32166
32196
32157
32149
32160
32132
32214
32135
32118
32167
32103
32093
32116
32084
32076
32109
32063
32059
32116
32039
32033
32024
32022
32010
32074
32007
31989
32031
31972
31892
31962
31956
31953
31928
31934
31916
31934
31906
31921
31908
31959
31898
31878
31883
31868
31893
31856
31925
31843
31823
31825
31814
31825
31807
31808
31786
31835
31780
31860
31767
31751
31751
31737
31743
31725
31734
31706
31717
31699
31701
31747
31679
31751
31668
31745
31649
31658
31653
31635
31699
31618
31598
31615
31594
31654
31590
31574
31612
31576
31556
31551
31535
31590
31529
31512
31525
31505
31516
31492
31506
31485
31541
31467
31556
31456
31440
31452
31431
31503
31430
31413
31427
31404
31441
31400
31452
31379
31436
31378
31388
31359
31351
31348
31334
31340
31326
31346
31303
31342
31303
31281
31294
31271
31308
31256
31364
31239
31347
31236
31223
31236
31218
31265
31206
31183
31198
31172
31236
31172
31151
31157
31143
31148
31141
31122
31120
31118
31098
31111
31095
31108
31081
31091
31073
31087
31059
31111
31047
31037
31047
31031
31046
31010
31026
31002
31022
30990
31060
30989
31083
30971
30951
30956
30941
30956
30924
30985
30932
30923
30911
30951
30892
30888
30926
30911
30884
30878
30858
30928
30874
30844
30882
30840
30916
30820
30816
30815
30799
30796
30788
30790
30770
30814
30769
30807
30772
30797
30753
30808
30726
30719
30724
30714
30724
30710
30715
30695
30716
30681
30699
30666
30668
30656
30677
30637
30672
30639
30711
30631
30741
30607
30603
30606
30590
30618
30583
30657
30570
30670
30566
30548
30548
30532
30551
30535
30603
30529
30607
30519
30621
30511
30599
30490
30543
30480
30545
30471
30559
30468
30527
30452
30514
30431
30431
30416
30412
30410
30402
30421
30395
30462
30387
30471
30386
30374
30367
30342
30359
30336
30350
30319
30356
30319
30342
30306
30340
30301
30319
30301
30380
30279
30269
30276
30269
30306
30261
30393
30240
30215
30236
30228
30241
30222
30234
30214
30212
30199
30215
30191
30270
30191
30311
30183
30165
30173
30155
30181
30149
30272
30132
30126
30127
30127
30122
30092
30112
30102
30095
30228
30103
30199
30087
30182
30071
30055
30058
30055
30090
30048
30026
30071
30038
30148
30025
30006
30022
30004
30044
29994
30071
29997
30118
29979
29959
29967
29955
29979
29949
30039
29940
29927
29939
29907
29932
29912
29943
29906
29939
29909
29943
29898
30015
29895
29873
29884
29871
29888
29873
29927
29874
29971
29866
29914
29875
29924
29861
29968
29852
29839
29887
29855
29826
29844
29833
29946
29834
29839
29882
29836
29825
29841
29821
29873
29826
29809
29828
29815
29943
29820
29828
29957
29799
29793
29807
29791
29921
29791
29791
29913
29779
29769
29820
29787
29917
29789
29782
29909
29767
29756
29795
29770
29747
29791
29768
29735
29751
29758
29847
29733
29740
29801
29740
29716
29735
29725
29766
29725
29833
29703
29703
29716
29702
29718
29695
29746
29703
29768
29700
29742
29691
29673
29719
29678
29671
29780
29678
29802
29668
29663
29675
29655
29766
29666
29653
29642
29777
29666
29644
29693
29643
29772
29636
29608
29622
29610
29616
29610
29647
29619
29670
29604
29740
29588
29583
29607
29583
29625
29578
29676
29562
29561
29571
29557
29563
29548
29546
29535
29578
29551
29522
29539
29518
29535
29511
29517
29506
29538
29523
29668
29502
29486
29514
29500
29627
29482
29476
29486
29477
29543
29463
29535
29455
29511
29455
29564
29436
29415
29436
29428
29460
29419
29512
29422
29383
29402
29397
29406
29380
29398
29375
29431
29382
29510
29353
29350
29372
29354
29485
29353
29349
29341
29332
29306
29335
29315
29365
29319
29295
29303
29273
29314
29271
29359
29263
29253
29254
29243
29244
29234
29244
29231
29301
29225
29209
29229
29205
29255
29198
29236
29191
29235
29191
29286
29173
29149
29148
29132
29157
29147
29250
29127
29108
29111
29096
29095
29098
29095
29084
29095
29076
29102
29060
29068
29047
29068
29037
29089
29039
29148
29031
29172
29004
29001
29070
29000
28986
28985
28964
29012
28978
29007
28950
29019
28950
29099
28925
28908
28917
28902
28925
28888
28908
28883
28879
28869
28872
28866
28908
28868
29025
28839
28828
28838
28818
28861
28820
28871
28802
28861
28807
28901
28789
28772
28768
28762
28780
28756
28837
28766
28903
28731
28722
28731
28706
28716
28697
28699
28687
28749
28679
28758
28695
28727
28673
28722
28658
28692
28640
28679
28631
28699
28634
28669
28614
28625
28599
28619
28582
28593
28567
28585
28554
28570
28723
28572
28703
28543
28622
28545
28675
28527
28733
28532
28586
28512
28705
28510
28674
28486
28470
28468
28455
28456
28436
28457
28439
28444
28429
28430
28588
28437
28494
28423
28516
28407
28484
28388
28399
28375
28389
28359
28359
28349
28356
28263
28337
28316
28335
28313
28323
28309
28305
28519
28311
28429
28313
28476
28298
28268
28274
28260
28295
28274
28343
28263
28415
28244
28434
28242
28438
28223
28207
28207
28198
28202
28185
28198
28174
28172
28177
28175
28157
28164
28148
28156
28159
28204
28148
28324
28153
28277
28143
28317
28130
28206
28121
28317
28084
28076
28089
28263
28080
28095
28069
28256
28069
28036
28046
28040
28039
28031
28051
28020
28030
28009
28012
28002
28006
27988
28010
27982
27991
27973
27982
27965
28028
27961
27977
27956
27939
27954
27947
28134
27932
27941
28092
27911
27921
27950
27901
27911
27903
28042
27873
27900
27887
28101
27883
27866
28082
27870
27870
27849
27871
27855
27825
27850
27846
27970
27828
27823
27962
27820
27805
27913
27797
27791
27861
27775
27778
27911
27773
27783
27996
27770
27766
27876
27751
27750
27884
27750
27742
27933
27739
27733
27894
27724
27713
27818
27713
27719
27718
27695
27717
27705
27675
27692
27686
27695
27687
27683
27901
27655
27655
27686
27640
27668
27655
27878
27655
27645
27866
27637
27632
27769
27622
27613
27796
27608
27605
27714
27604
27599
27655
27581
27588
27682
27573
27583
27669
27567
27565
27687
27565
27557
27764
27542
27548
27663
27540
27533
27713
27543
27740
27546
27647
27534
27611
27518
27511
27499
27502
27668
27506
27500
27487
27495
27716
27493
27530
27464
27469
27462
27478
27486
27440
27472
27472
27443
27462
27458
27425
27453
27454
27420
27431
27415
27431
27423
27477
27437
27495
27423
27428
27415
27420
27461
27406
27426
27436
27402
27417
27417
27396
27425
27426
27412
27418
27479
27409
27418
27543
27402
27419
27540
27412
27415
27625
27423
27428
27438
27412
27421
27633
27433
27422
27404
27424
27449
27406
27420
27413
27583
27420
27409
27493
27413
27438
27471
27413
27420
27473
27408
27422
27508
27412
27413
27604
27431
27444
27422
27433
27437
27410
27439
27428
27635
27430
27431
27546
27447
27434
27423
27429
27445
27415
27431
27436
27408
27438
27463
27415
27427
27638
27437
27477
27427
27431
27412
27417
27623
27442
27502
27433
27430
27623
27432
27431
27415
27442
27487
27436
27426
27596
27429
27435
27414
27429
27607
27433
27490
27420
27422
27407
27436
27490
27417
27424
27399
27436
27440
27407
27442
27449
27415
27417
27546
27416
27424
27599
27412
27436
27406
27434
27496
27406
27416
27612
27411
27421
27590
27419
27420
27476
27420
27416
27397
27419
27427
27607
27411
27410
27553
27406
27432
27386
27415
27446
27395
27399
27586
27409
27437
27393
27399
27386
27380
27557
27394
27399
27378
27377
27448
27375
27381
27533
27399
27398
27361
27372
27471
27378
27377
27366
27417
27370
27361
27374
27391
27349
27357
27350
27529
27363
27383
27339
27342
27472
27351
27349
27332
27341
27463
27340
27357
27313
27330
27438
27335
27349
27311
27314
27465
27326
27342
27309
27306
27447
27313
27317
27292
27308
27382
27290
27295
27327
27278
27300
27290
27441
27303
27268
27283
27279
27259
27260
27263
27346
27245
27264
27311
27244
27244
27300
27232
27243
27293
27231
27245
27263
27214
27220
27219
27270
27210
27216
27271
27205
27204
27258
27195
27212
27220
27173
27205
27226
27176
27188
27196
27171
27191
27236
27156
27178
27236
27157
27165
27209
27159
27157
27228
27154
27143
27188
27143
27143
27201
27126
27134
27212
27124
27138
27169
27117
27132
27162
27110
27113
27207
27111
27111
27193
27095
27108
27132
27094
27106
27101
27239
27101
27100
27073
27092
27127
27074
27079
27177
27074
27081
27049
27071
27182
27062
27071
27204
27078
27087
27055
27061
27103
27041
27057
27182
27053
27045
27037
27051
27044
27103
27023
27051
27058
27031
27045
27035
27130
27028
27029
27050
27020
27016
27100
27030
27170
27022
26997
27017
27059
26999
27023
27015
27080
26993
27014
27060
26999
27010
27134
27005
27004
27113
26997
26997
26991
26999
26990
27107
26990
26997
26991
27060
26988
26998
26998
26974
26983
26982
27001
26983
26995
26988
26971
26986
26973
27066
26988
26967
27035
26970
26965
26990
26961
26988
26989
26967
26966
27007
26959
26963
27012
26953
26960
26966
27071
26965
26967
26966
27023
26972
27031
26967
26951
27054
26961
26954
26982
26941
26956
26955
27044
26950
26953
26964
27031
26948
26956
26980
26940
26956
26951
27004
26940
26951
26953
27032
26951
26948
26967
27032
26945
26937
26957
26941
26949
26940
26930
26931
26935
26933
27015
27010
27012
26991
26980
26949
27009
26935
26949
26977
26933
26947
26947
26980
26932
26948
26953
27039
26943
26948
26987
26949
26951
26954
26945
26935
26926
26913
27033
27039
27023
26988
26959
26951
26953
26959
26942
26999
26948
26945
27039
26947
26959
27013
26943
26949
26983
26948
26955
27009
26950
26958
26946
26951
27046
26953
26940
26953
27007
26951
26951
27023
26959
26966
26974
26950
26959
26970
26994
26952
26966
26992
26961
26966
26979
27038
26964
26973
27039
26958
26969
27027
26957
26967
27004
26969
26975
26992
26977
26980
26991
26976
26984
27050
26985
26983
27027
26988
26991
26983
26996
26995
26974
26999
27017
26988
26991
27039
26996
26995
27027
26999
27000
26985
27005
27032
27004
26997
27052
27004
27012
27082
27004
27010
26996
27015
27015
27083
27014
27015
27067
27013
27013
27044
27005
27028
27046
27023
27027
27023
27071
27015
27039
27036
27080
27026
27045
27059
27030
27046
27060
27030
27046
27062
27039
27047
27079
27051
27060
27073
27047
27062
27076
27057
27064
27118
27063
27072
27082
27050
27073
27068
27123
27071
27084
27068
27092
27094
27071
27091
27111
27077
27088
27157
27088
27092
27076
27095
27141
27098
27108
27093
27101
27135
27099
27106
27143
27107
27118
27105
27118
27126
27161
27143
27135
27141
27162
27163
27197
27174
27174
27229
27169
27184
27173
27189
27228
27190
27207
27246
27211
27214
27271
27228
27228
27254
27229
27247
27292
27259
27260
27293
27255
27271
27291
27271
27287
27304
27284
27301
27333
27301
27311
27329
27322
27338
27333
27386
27349
27350
27342
27363
27369
27353
27366
27398
27371
27390
27416
27396
27409
27447
27401
27413
27423
27420
27443
27429
27456
27432
27445
27482
27439
27463
27479
27464
27473
27511
27484
27478
27526
27486
27504
27522
27489
27508
27530
27498
27524
27543
27525
27527
27555
27539
27542
27557
27543
27557
27572
27597
27569
27571
27597
27570
27590
27589
27594
27603
27609
27595
27612
27625
27615
27623
27634
27624
27630
27655
27677
27655
27651
27693
27660
27669
27679
27655
27676
27691
27711
27686
27695
27693
27694
27708
27738
27717
27714
27717
27725
27735
27716
27733
27745
27725
27741
27756
27736
27753
27752
27796
27755
27767
27783
27767
27790
27769
27783
27822
27781
27786
27822
27794
27812
27828
27797
27814
27839
27811
27823
27857
27826
27852
27829
27832
27864
27831
27847
27831
27842
27862
27838
27858
27855
27860
27878
27870
27875
27884
27871
27876
27905
27887
27886
27918
27895
27899
27899
27892
27911
27895
27908
27900
27904
27935
27907
27919
27937
27908
27923
27939
27919
27935
27948
27927
27941
27948
27924
27931
27958
27943
27957
27940
27943
27964
27943
27952
27980
27951
27966
27949
27959
27972
27956
27967
27950
27956
27974
27959
27972
27985
27964
27970
27978
27975
27981
28002
27983
27983
28007
27978
27991
27991
28006
27991
28008
28015
27991
28007
28020
27995
28006
28034
28006
28006
28020
28005
28021
27963
28014
28019
28014
28028
28034
28020
28031
28030
28036
28031
28023
28030
28047
28027
28039
28055
28032
28038
28042
28031
28044
28060
28062
28052
28059
28057
28053
28075
28060
28067
28070
28055
28064
28083
28070
28081
28065
28076
28088
28070
28089
28095
28087
28086
28095
28083
28091
28099
28081
28092
28113
28100
28103
28110
28113
28110
28117
28103
28114
28126
28115
28133
28133
28132
28124
28129
28136
28149
28132
28148
28139
28143
28157
28139
28151
28166
28136
28167
28148
28160
28183
28163
28190
28167
28167
28167
28179
28190
28176
28195
28196
28191
28204
28191
28196
28200
28204
28212
28199
28219
28206
28223
28217
28215
28220
28231
28226
28238
28229
28239
28239
28236
28254
28227
28253
28258
28245
28252
28257
28264
28278
28263
28261
28274
28279
28266
28276
28287
28281
28279
28284
28295
28294
28287
28295
28302
28302
28324
28316
28322
28311
28325
28334
28315
28330
28317
28327
28335
28343
28356
28340
28356
28348
28367
28373
28358
28356
28359
28364
28374
28373
28382
28367
28386
28386
28389
28391
28394
28395
28406
28407
28407
28416
28401
28405
28421
28410
28433
28342
28431
28423
28444
28446
28440
28443
28452
28454
28466
28364
28458
28468
28465
28471
28470
28478
28475
28484
28493
28479
28493
28501
28498
28508
28512
28514
28508
28526
28531
28481
28533
28542
28515
28545
28549
28544
28550
28551
28561
28561
28446
28561
28583
28567
28588
28577
28587
28602
28580
28594
28607
28590
28610
28600
28615
28634
28614
28617
28626
28623
28641
28644
28644
28634
28657
28663
28646
28661
28642
28655
28679
28655
28671
28687
28679
28692
28696
28695
28679
28706
28708
28709
28719
28722
28722
28726
28735
28724
28721
28742
28762
28749
28748
28766
28738
28762
28775
28749
28767
28785
28765
28782
28799
28783
28798
28791
28812
28805
28824
28811
28821
28820
28825
28836
28842
28823
28838
28840
28842
28846
28864
28848
28867
28860
28879
28879
28889
28878
28874
28884
28881
28898
28878
28905
28873
28915
28910
28928
28932
28924
28935
28948
28932
28949
28940
28957
28947
28963
28966
28975
28964
28963
28986
28961
28991
28976
28989
28998
28988
29004
28997
29013
28980
29026
29016
29031
29030
29008
29046
29046
29036
29051
29018
29068
29063
29041
29066
29070
29084
29076
29090
29087
29042
29101
29086
29116
29104
29124
29111
29122
29109
29125
29140
29116
29137
29104
29148
29140
29169
29156
29165
29161
29170
29171
29153
29180
29152
29175
29185
29203
29191
29204
29208
29205
29222
29175
29221
29124
29235
29221
29256
29236
29246
29255
29261
29254
29266
29252
29267
29270
29287
29279
29287
29287
29287
29295
29291
29294
29256
29305
29307
29324
29317
29327
29324
29337
29327
29337
29340
29333
29358
29348
29343
29340
29365
29326
29364
29333
29378
29297
29394
29383
29399
29397
29372
29407
29399
29420
29412
29417
29420
29433
29447
29439
29434
29463
29414
29484
29473
29484
29490
29483
29498
29468
29515
29510
29532
29528
29529
29536
29484
29567
29565
29570
29575
29575
29574
29591
29596
29562
29611
29618
29639
29628
29614
29642
29608
29649
29590
29668
29670
29690
29686
29671
29691
29696
29692
29703
29679
29716
29733
29737
29741
29697
29757
29753
29754
29761
29669
29783
29772
29774
29791
29764
29807
29727
29833
29820
29834
29831
29823
29839
29793
29869
29863
29866
29877
29814
29895
29885
29863
29911
29892
29898
29925
29910
29889
29934
29927
29938
29938
29951
29935
29959
29959
29975
29972
29982
29993
29918
30008
29997
30004
29995
30001
30018
30023
30030
30004
30027
29921
30050
30047
30037
30053
30055
30064
30071
30013
30091
30078
30087
30087
30035
30114
30105
30096
30110
30080
30124
30127
30144
30134
30139
30142
30133
30150
30095
30148
30153
30167
30174
30121
30183
30170
30199
30185
30205
30191
30205
30199
30206
30202
30215
30222
30215
30226
30176
30243
30229
30244
30236
30244
30252
30235
30253
30252
30261
30260
30268
30267
30253
30277
30251
30279
30207
30297
30293
30286
30300
30267
30295
30298
30323
30306
30302
30310
30257
30317
30265
30327
30324
30319
30329
30300
30335
30336
30324
30340
30304
30356
30343
30340
30346
30343
30348
30343
30308
30363
30358
30359
30351
30364
30367
30364
30332
30364
30359
30376
30372
30330
30383
30371
30372
30378
30375
30384
30337
30404
30379
30356
30405
30387
30342
30391
30317
30395
30394
30407
30394
30402
30391
30408
30402
30387
30405
30375
30388
30343
30406
30359
30405
30364
30407
30338
30423
30407
30416
30411
30413
30410
30412
30411
30403
30412
30361
30406
30362
30432
30415
30423
30414
30412
30425
30383
30417
30359
30439
30428
30428
30423
30406
30429
30375
30418
30359
30436
30428
30428
30428
30428
30438
30362
30445
30428
30443
30432
30433
30431
30389
30439
30357
30449
30438
30446
30439
30437
30434
30359
30452
30437
30414
30451
30447
30443
30431
30421
30438
30411
30442
30386
30447
30332
30452
30455
30457
30450
30443
30438
30428
30451
30444
30467
30455
30452
30456
30408
30455
30453
30460
30466
30429
30458
30415
30454
30396
30461
30468
30468
30462
30454
30465
30413
30451
30394
30469
30455
30432
30468
30387
30479
30471
30471
30467
30459
30463
30426
30469
30439
30468
30442
30479
30443
30476
30463
30475
30474
30407
30487
30491
30466
30476
30487
30502
30455
30486
30487
30476
30477
30471
30487
30497
30434
30478
30499
30420
30481
30506
30477
30486
30489
30479
30485
30471
30482
30495
30477
30500
30492
30495
30450
30487
30490
30487
30492
30499
30465
30487
30501
30483
30487
30514
30455
30503
30498
30407
30498
30505
30418
30494
30494
30500
30503
30490
30503
30519
30436
30500
30511
30453
30503
30508
30466
30506
30510
30464
30506
30512
30414
30517
30528
30466
30511
30515
30471
30508
30511
30511
30503
30512
30455
30515
30508
30510
30520
30468
30506
30526
30444
30511
30499
30511
30522
30439
30513
30496
30527
30525
30470
30513
30530
30420
30519
30505
30516
30526
30502
30512
30528
30536
30511
30519
30517
30511
30510
30528
30512
30518
30520
30516
30524
30542
30439
30535
30527
30531
30529
30509
30528
30534
30526
30528
30543
30493
30527
30550
30432
30533
30524
30535
30538
30514
30534
30534
30527
30540
30545
30535
30539
30534
30543
30538
30487
30543
30542
30541
30553
30490
30553
30548
30552
30552
30523
30545
30559
30531
30545
30540
30538
30540
30562
30540
30557
30540
30562
30519
30559
30565
30532
30544
30551
30513
30551
30551
30559
30573
30478
30567
30551
30558
30574
30501
30567
30562
30551
30559
30543
30543
30565
30427
30548
30534
30564
30577
30503
30567
30567
30558
30570
30527
30567
30569
30574
30561
30567
30559
30571
30543
30561
30565
30452
30572
30551
30570
30572
30479
30572
30554
30572
30568
30539
30572
30586
30468
30566
30567
30556
30587
30571
30571
30538
30583
30585
30567
30575
30538
30570
30594
30543
30570
30567
30573
30577
30533
30579
30572
30573
30588
30533
30573
30581
30571
30583
30556
30583
30591
30526
30582
30580
30578
30572
30583
30552
30582
30482
30599
30586
30567
30581
30535
30590
30587
30580
30587
30521
30582
30584
30591
30583
30575
30583
30594
30579
30586
30580
30495
30597
30583
30561
30586
30576
30591
30587
30591
30583
30538
30591
30576
30583
30587
30587
30581
30584
30588
30558
30598
30594
30474
30595
30586
30514
30585
30591
30588
30567
30596
30588
30540
30598
30586
30522
30610
30599
30527
30595
30591
30583
30591
30482
30592
30592
30517
30604
30599
30554
30594
30580
30586
30599
30551
30600
30581
30575
30575
30590
30599
30591
30551
30596
30589
30566
30589
30590
30586
30587
30519
30604
30583
30572
30597
30519
30600
30588
30580
30587
30502
30588
30587
30535
30597
30585
30566
30588
30569
30581
30538
30573
30497
30596
30577
30581
30580
30575
30585
30518
30590
30587
30564
30586
30508
30591
30586
30546
30575
30526
30581
30497
30604
30596
30563
30591
30495
30616
30596
30581
30598
30592
30599
30606
30618
30607
30599
30623
30593
30619
30557
30646
30626
30609
30639
30631
30637
30615
30647
30647
30639
30601
30652
30647
30644
30655
30650
30653
30674
30658
30660
30665
30663
30661
30662
30679
30667
30681
30615
30699
30682
30695
30684
30682
30694
30670
30689
30663
30694
30659
30698
30663
30703
30638
30695
30589
30709
30705
30717
30711
30713
30705
30689
30705
30673
30717
30716
30727
30714
30727
30718
30708
30718
30675
30717
30727
30727
30727
30677
30727
30727
30742
30721
30740
30724
30727
30729
30685
30727
30599
30741
30727
30738
30740
30642
30759
30734
30740
30727
30678
30756
30748
30717
30750
30608
30756
30742
30746
30741
30725
30740
30752
30752
30746
30706
30742
30749
30759
30740
30740
30759
30703
30727
30743
30751
30737
30709
30738
30613
30748
30735
30754
30746
30726
30740
30727
30724
30727
30736
30697
30746
30735
30727
30735
30687
30745
30727
30703
30727
30727
30716
30722
30727
30723
30727
30666
30734
30727
30691
30727
30720
30724
30708
30709
30714
30594
30721
30709
30677
30708
30706
30709
30707
30688
30694
30692
30714
30695
30683
30679
30604
30700
30683
30647
30689
30682
30669
30676
30668
30673
30678
30619
30668
30656
30629
30671
30661
30605
30662
30647
30646
30642
30620
30632
30575
30628
30567
30633
30630
30637
30612
30629
30615
30613
30599
30591
30607
30599
30599
30592
30560
30575
30577
30577
30583
30524
30566
30575
30575
30554
30564
30558
30510
30549
30477
30551
30530
30533
30518
30433
30541
30522
30496
30510
30458
30516
30496
30509
30492
30488
30485
30483
30481
30471
30471
30426
30465
30407
30463
30444
30453
30448
30424
30441
30342
30441
30420
30423
30419
30411
30417
30406
30407
30346
30391
30385
30396
30335
30388
30375
30382
30375
30372
30359
30356
30355
30351
30353
30311
30351
30332
30329
30288
30322
30319
30334
30314
30325
30311
30314
30292
30293
30299
30265
30292
30262
30277
30244
30276
30215
30273
30255
30270
30250
30245
30249
30215
30245
30242
30230
30220
30204
30208
30183
30209
30214
30196
30207
30172
30199
30194
30188
30182
30180
30180
30167
30172
30138
30166
30156
30161
30138
30153
30148
30150
30128
30135
30127
30087
30116
30108
30120
30109
30108
30118
30054
30104
30087
30087
30087
30065
30085
30011
30072
30058
30069
30050
30055
30039
30015
30036
29977
30037
30025
30033
30026
30018
30015
30007
30005
29902
30011
29988
29990
29988
29978
29976
29927
29974
29894
29978
29958
29964
29950
29952
29947
29934
29941
29897
29935
29931
29895
29917
29847
29926
29895
29903
29903
29884
29895
29881
29855
29885
29871
29884
29865
29860
29862
29778
29855
29839
29809
29839
29828
29842
29828
29802
29807
29809
29811
29802
29799
29796
29683
29799
29787
29781
29775
29768
29765
29759
29767
29726
29755
29718
29737
29695
29749
29735
29734
29733
29724
29719
29703
29714
29681
29700
29644
29703
29695
29699
29671
29671
29676
29622
29687
29662
29647
29652
29591
29644
29637
29641
29639
29611
29628
29629
29625
29606
29572
29615
29605
29609
29603
29576
29591
29548
29578
29539
29583
29566
29577
29560
29550
29544
29531
29550
29539
29538
29538
29538
29523
29526
29517
29518
29511
29507
29506
29457
29495
29431
29490
29397
29486
29478
29474
29477
29469
29459
29461
29446
29434
29442
29418
29437
29410
29421
29372
29411
29407
29422
29398
29396
29391
29399
29399
29367
29383
29329
29390
29360
29364
29374
29354
29349
29355
29342
29299
29348
29322
29341
29318
29295
29316
29262
29309
29305
29300
29292
29271
29286
29287
29295
29268
29284
29268
29272
29257
29253
29246
29214
29236
29185
29239
29227
29234
29224
29223
29212
29204
29210
29141
29207
29191
29197
29190
29168
29180
29168
29169
29122
29160
29075
29148
29124
29144
29119
29134
29132
29146
29125
29117
29114
29094
29103
29095
29113
29099
29077
29095
29084
29074
29076
29044
29057
29047
29069
29052
29036
29037
29031
29041
29030
29021
29025
29009
29007
28983
29004
28991
29006
28992
28966
28978
28935
28986
28968
28966
28965
28969
28959
28948
28942
28914
28938
28892
28935
28931
28933
28909
28910
28907
28905
28906
28895
28888
28886
28865
28884
28869
28871
28860
28858
28855
28831
28848
28844
28849
28831
28789
28839
28814
28824
28827
28772
28804
28763
28806
28748
28791
28767
28783
28759
28767
28767
28763
28757
28754
28742
28734
28724
28736
28722
28724
28722
28726
28711
28710
28709
28661
28705
28679
28692
28677
28672
28669
28666
28658
28634
28655
28622
28645
28512
28639
28628
28633
28617
28626
28614
28615
28604
28593
28602
28601
28575
28580
28572
28577
28559
28552
28536
28546
28528
28540
28521
28540
28526
28517
28519
28516
28508
28507
28493
28492
28484
28487
28483
28487
28471
28459
28482
28458
28466
28453
28464
28450
28432
28444
28434
28447
28440
28448
28418
28424
28424
28428
28412
28417
28420
28399
28410
28417
28399
28407
28394
28401
28397
28390
28391
28379
28397
28382
28386
28370
28348
28374
28359
28372
28354
28364
28371
28354
28341
28359
28351
28335
28341
28335
28324
28337
28341
28317
28327
28318
28325
28315
28319
28324
28316
28308
28294
28304
28288
28295
28279
28285
28292
28258
28283
28284
28268
28260
28263
28267
28247
28253
28249
28246
28253
28246
28254
28247
28233
28243
28228
28225
28238
28220
28214
28220
28201
28206
28180
28195
28186
28190
28175
28167
28165
28167
28180
28167
28158
28150
28159
28157
28135
28140
28151
28132
28117
28124
28117
28116
28109
28105
28107
28107
28105
28087
28091
28084
28087
28075
28089
28063
28066
28055
28055
28047
28053
28038
28052
28001
28026
28030
28038
28011
28023
28010
28006
27998
28003
27983
27979
27995
27973
27978
27959
27959
27967
27946
27948
27926
27940
27921
27927
27925
27917
27927
27913
27911
27882
27903
27891
27887
27875
27886
27865
27882
27860
27863
27844
27848
27836
27831
27818
27818
27807
27817
27797
27805
27791
27802
27773
27788
27772
27764
27759
27753
27744
27743
27734
27721
27719
27701
27713
27719
27702
27686
27690
27681
27676
27668
27668
27655
27661
27642
27647
27629
27628
27616
27615
27604
27591
27602
27588
27591
27578
27561
27559
27567
27544
27537
27534
27512
27527
27489
27519
27514
27508
27491
27484
27492
27463
27466
27460
27438
27457
27436
27439
27415
27414
27399
27413
27393
27391
27382
27383
27363
27370
27343
27356
27348
27343
27322
27326
27311
27325
27303
27301
27282
27281
27278
27269
27265
27243
27257
27239
27234
27223
27227
27206
27220
27191
27205
27180
27196
27175
27173
27143
27156
27127
27142
27122
27125
27107
27106
27097
27094
27076
27077
27062
27074
27047
27044
27052
27048
27036
27028
27015
27015
26983
26985
27013
26986
26995
26972
26981
26951
26961
26944
26948
26920
26927
26927
26922
26914
26908
26909
26907
26899
26863
26858
26843
26853
26849
26861
26831
26869
26818
26836
26807
26824
26791
26796
26773
26783
26754
26762
26748
26748
26729
26739
26720
26743
26708
26724
26706
26726
26692
26665
26679
26661
26664
26647
26638
26622
26663
26595
26608
26612
26609
26594
26590
26604
26567
26570
26563
26574
26573
26573
26533
26529
26530
26523
26519
26509
26492
26496
26479
26484
26509
26463
26490
26463
26493
26436
26333
26431
26461
26419
26446
26398
26418
26388
26406
26375
26391
26351
26362
26345
26343
26327
26337
26300
26314
26348
26306
26335
26279
26302
26287
26263
26260
26290
26255
26278
26230
26231
26244
26214
26208
26221
26198
26210
26181
26192
26179
26183
26156
26177
26149
26167
26145
26179
26127
26144
26106
26118
26099
26096
26060
26074
26112
26068
26087
26062
26058
26031
26036
26022
26076
26058
26006
25988
25991
25991
25996
25983
25974
25973
25983
25996
25937
25934
25926
25936
25930
25916
25907
25904
25913
25908
25924
25949
25873
25857
25863
25852
25844
25824
25844
25844
25849
25862
25847
25799
25789
25789
25783
25775
25764
25770
25758
25751
25743
25767
25768
25795
25716
25711
25713
25706
25698
25689
25716
25671
25667
25657
25654
25665
25640
25642
25643
25638
25631
25672
25599
25595
25605
25595
25583
25582
25586
25579
25589
25597
25542
25541
25547
25520
25545
25510
25516
25500
25511
25485
25487
25479
25469
25372
25460
25441
25460
25434
25439
25423
25442
25421
25399
25399
25455
25394
25398
25374
25390
25351
25365
25395
25336
25393
25343
25330
25327
25377
25318
25325
25295
25286
25322
25286
25343
25274
25335
25257
25313
25250
25255
25225
25230
25212
25217
25189
25199
25236
25189
25209
25167
25170
25150
25156
25159
25140
25150
25132
25127
25111
25115
25175
25095
25160
25095
25111
25069
25074
25051
25061
25046
25045
25044
25044
25039
25028
25020
25015
25019
25019
25039
25059
24975
24962
24967
24966
24944
24944
25031
24934
24995
24930
24956
24916
24923
24895
24898
24877
24879
24862
24866
24935
24849
24924
24862
24871
24827
24832
24811
24798
24891
24799
24862
24780
24829
24775
24798
24749
24759
24743
24743
24769
24710
24716
24772
24710
24711
24798
24695
24710
24675
24683
24649
24663
24721
24655
24647
24623
24631
24673
24610
24615
24594
24600
24645
24583
24591
24559
24563
24551
24554
24532
24551
24522
24535
24578
24515
24532
24507
24498
24479
24476
24577
24474
24484
24432
24444
24551
24430
24450
24416
24409
24356
24404
24479
24389
24380
24363
24387
24375
24349
24346
24341
24351
24393
24327
24333
24302
24322
24410
24308
24356
24295
24314
24284
24282
24256
24281
24392
24272
24374
24268
24358
24254
24279
24241
24238
24222
24233
24214
24239
24222
24227
24198
24207
24192
24198
24175
24191
24167
24185
24294
24180
24189
24148
24159
24262
24159
24183
24135
24143
24263
24142
24169
24122
24141
24100
24108
24095
24103
24135
24083
24165
24069
24062
24071
24062
24052
24062
24063
24055
24049
24042
24036
24034
24030
24031
24036
24018
24011
24014
24010
24035
24092
24114
23971
23964
23970
23983
23961
23967
23986
24030
23971
23940
23946
23925
23919
23905
23918
24006
23911
23977
23896
23918
23879
23911
23879
23916
23869
23943
23863
23911
23842
23840
23805
23825
23883
23809
23828
23803
23806
23804
23821
23787
23880
23785
23879
23750
23755
23762
23739
23744
23734
23740
23719
23715
23701
23716
23689
23691
23675
23687
23656
23666
23652
23663
23646
23670
23650
23719
23634
23761
23629
23775
23594
23697
23604
23707
23591
23652
23581
23632
23554
23604
23558
23626
23530
23580
23512
23527
23493
23496
23492
23486
23460
23482
23455
23467
23450
23452
23426
23430
23407
23422
23555
23410
23519
23403
23477
23377
23476
23377
23394
23352
23349
23322
23335
23308
23310
23286
23300
23284
23287
23264
23279
23399
23270
23350
23251
23279
23233
23234
23207
23228
23199
23193
23169
23170
23153
23156
23298
23153
23263
23145
23157
23125
23119
23097
23095
23076
23079
23058
23067
23165
23063
23079
23033
23078
23022
23167
23014
23079
22986
23022
22968
22959
23040
22924
22943
22959
22909
22919
22906
22930
22881
22887
22876
22925
22837
22849
22839
22846
22950
22810
22796
22796
22908
22791
22811
22744
22772
22745
22890
22727
22721
22770
22694
22710
22727
22676
22695
22682
22647
22668
22638
22673
22628
22612
22637
22592
22615
22609
22564
22590
22565
22650
22542
22535
22691
22522
22515
22634
22481
22504
22485
22654
22465
22458
22502
22437
22456
22441
22401
22423
22412
22376
22390
22383
22524
22361
22356
22399
22324
22329
22330
22349
22297
22306
22285
22428
22270
22287
22258
22325
22228
22240
22224
22247
22202
22206
22199
22191
22319
22163
22180
22190
22142
22140
22201
22125
22135
22119
22201
22083
22106
22081
22145
22063
22067
22058
22239
22020
22044
22022
22016
22204
21988
22004
21989
21961
21962
21948
22014
21940
21931
22011
21910
21932
21901
22109
21895
21886
21964
21853
21869
21863
21831
21834
21827
21875
21798
21809
21823
21781
21781
21840
21747
21763
21751
21900
21735
21741
21719
21694
21704
21701
21911
21691
21667
21780
21645
21661
21650
21850
21628
21617
21753
21606
21594
21679
21573
21582
21566
21605
21539
21567
21540
21761
21519
21508
21717
21491
21490
21556
21468
21471
21599
21444
21447
21477
21423
21431
21463
21396
21395
21508
21383
21380
21463
21347
21367
21391
21326
21340
21356
21297
21324
21392
21289
21294
21362
21260
21260
21333
21244
21246
21414
21221
21235
21231
21197
21207
21191
21239
21159
21181
21167
21226
21147
21139
21158
21116
21109
21113
21108
21111
21097
21068
21075
21173
21068
21055
21055
21031
21013
21147
21021
21006
21012
20995
20975
21141
20994
20965
20980
20955
20935
20929
20908
21154
20930
20905
20918
20903
20868
21087
20885
20863
20852
20862
20838
20818
21086
20849
20808
20809
20803
20770
20957
20774
20778
20771
20742
20736
20974
20782
20732
20723
20710
20726
20706
20688
20676
20661
20805
20674
20655
20661
20628
20779
20645
20617
20628
20604
20590
20790
20590
20580
20597
20566
20541
20676
20534
20540
20540
20521
20508
20497
20753
20519
20479
20487
20480
20452
20438
20591
20449
20426
20445
20429
20418
20407
20389
20380
20375
20598
20469
20397
20372
20343
20335
20343
20334
20588
20346
20602
20319
20302
20518
20286
20280
20399
20253
20286
20353
20261
20510
20250
20450
20236
20199
20305
20183
20205
20172
20287
20158
20174
20153
20123
20155
20134
20256
20097
20124
20098
20214
20077
20090
20073
20138
20055
20075
20050
20057
20013
20044
20030
19997
20026
20020
19982
20010
19970
20185
19966
19980
19953
20166
19928
19933
19950
19908
19932
19926
19878
19891
19932
19863
19892
19928
19844
19855
19869
19830
19844
19820
20012
19794
19815
19815
19770
19807
19770
19866
19749
19742
19761
19740
19725
19739
19714
19772
19698
19713
19695
19681
19687
19671
19706
19643
19672
19647
19645
19628
19644
19626
19697
19597
19619
19603
19745
19580
19598
19597
19559
19591
19633
19575
19556
19551
19534
19551
19542
19554
19522
19551
19528
19510
19531
19513
19535
19498
19517
19498
19739
19482
19492
19531
19463
19487
19470
19664
19460
19458
19471
19664
19434
19456
19428
19618
19409
19444
19436
19455
19407
19402
19430
19385
19403
19393
19561
19367
19394
19377
19562
19357
19357
19358
19379
19335
19341
19339
19434
19317
19347
19319
19396
19297
19315
19308
19366
19279
19308
19297
19412
19263
19275
19271
19274
19299
19247
19246
19262
19236
19265
19228
19242
19223
19239
19207
19199
19212
19229
19190
19186
19238
19174
19178
19194
19156
19407
19210
19159
19153
19167
19124
19334
19143
19120
19134
19109
19105
19093
19140
19103
19098
19094
19086
19089
19089
19089
19062
19042
19170
19059
19043
19041
19046
19038
19011
19300
19103
19003
19002
19012
18988
18972
19279
19055
18977
18973
18967
19150
18951
18947
19048
18950
18929
18912
18947
18927
18908
18916
18908
19007
18874
18901
18882
19153
18885
18864
18836
18865
18834
18823
18834
18823
18843
19067
18799
18825
18796
18798
18806
18761
18779
18767
19047
18758
18756
18997
18740
18737
18753
18722
18728
18706
18690
18708
18684
18944
18671
18675
18682
18651
18673
18645
18923
18633
18630
18700
18586
18642
18602
18847
18591
18579
18685
18549
18583
18559
18543
18560
18542
18519
18540
18517
18503
18508
18494
18542
18474
18492
18487
18462
18468
18487
18427
18458
18429
18695
18413
18415
18426
18383
18411
18392
18367
18364
18598
18371
18351
18321
18351
18409
18322
18308
18295
18314
18294
18266
18286
18273
18254
18270
18244
18527
18223
18228
18278
18211
18216
18210
18177
18207
18177
18456
18172
18175
18161
18134
18157
18128
18296
18117
18130
18103
18311
18090
18087
18145
18056
18087
18051
18310
18056
18037
18066
18010
18029
18011
18293
17994
17993
18054
17966
17984
17972
18025
17928
17948
17949
17960
17913
17938
17909
18210
17902
17889
18023
17875
17892
17877
17859
17873
17852
17878
17831
17831
17836
17959
17801
17807
17946
17796
17813
17783
18077
17783
17772
17965
17777
17890
17739
17750
17741
17709
17733
17710
17911
17693
17724
17677
17855
17662
17676
17763
17660
17663
17855
17640
17644
17874
17620
17615
17604
17627
17599
17591
17617
17581
17768
17566
17588
17628
17549
17575
17570
17532
17560
17531
17519
17551
17513
17806
17508
17508
17582
17486
17508
17493
17463
17483
17462
17468
17445
17470
17447
17713
17429
17446
17426
17573
17404
17428
17407
17391
17397
17379
17513
17364
17398
17381
17357
17379
17346
17517
17335
17357
17330
17605
17322
17324
17359
17295
17332
17300
17498
17273
17284
17378
17263
17300
17261
17265
17254
17260
17314
17230
17257
17234
17524
17219
17238
17243
17201
17229
17201
17185
17202
17185
17450
17178
17173
17198
17155
17175
17160
17143
17157
17135
17402
17121
17148
17127
17156
17111
17119
17111
17165
17087
17104
17107
17079
17225
17073
17092
17074
17082
17051
17064
17052
17117
17036
17070
17030
17025
17035
17012
17173
17012
17031
17001
17228
16999
16996
17003
16967
17002
16975
17212
16991
16972
17263
16970
16964
17175
16941
16940
17025
16921
16958
16927
17069
16910
16935
16910
16909
16902
16908
16965
16878
16915
16889
16871
16897
16874
16831
16876
16857
16991
16849
16870
16856
16903
16837
16863
16831
17114
16831
16834
16824
16807
16834
16811
16796
16814
16801
16962
16775
16794
17000
16791
16775
17066
16772
16769
16874
16761
16759
16866
16742
16773
16740
16729
16746
16735
16987
16733
16730
16791
16710
16732
16710
16997
16706
16706
16735
16692
16714
16704
16688
16703
16677
16676
16703
16677
16653
16684
16660
16964
16667
16655
16731
16647
16669
16633
16605
16635
16639
16687
16613
16652
16626
16838
16602
16639
16607
16854
16601
16601
16604
16861
16581
16604
16605
16572
16599
16570
16621
16564
16593
16570
16737
16549
16585
16558
16749
16537
16564
16538
16696
16526
16559
16535
16527
16529
16516
16529
16525
16686
16508
16529
16505
16700
16502
16522
16509
16489
16497
16792
16513
16516
16478
16479
16711
16482
16471
16682
16465
16467
16671
16460
16461
16639
16448
16463
16454
16434
16473
16464
16430
16456
16518
16423
16434
16684
16435
16430
16453
16404
16431
16410
16630
16410
16412
16456
16386
16422
16402
16382
16406
16386
16437
16373
16410
16369
16509
16361
16373
16546
16362
16366
16378
16345
16362
16354
16455
16332
16357
16334
16382
16323
16362
16331
16314
16348
16375
16335
16326
16559
16322
16321
16348
16307
16326
16320
16320
16315
16322
16321
16390
16306
16317
16396
16312
16316
16364
16321
16339
16344
16311
16339
16331
16312
16340
16348
16314
16340
16323
16602
16326
16335
16457
16313
16340
16342
16319
16337
16335
16428
16327
16590
16335
16337
16441
16318
16341
16555
16337
16328
16506
16316
16343
16359
16326
16338
16635
16340
16338
16329
16357
16375
16326
16332
16402
16342
16331
16575
16366
16470
16338
16334
16326
16342
16444
16323
16353
16454
16346
16337
16334
16357
16345
16322
16356
16336
16332
16351
16337
16636
16320
16366
16338
16439
16322
16359
16327
16578
16335
16350
16340
16326
16342
16329
16330
16331
16329
16447
16319
16326
16510
16315
16359
16334
16593
16340
16326
16446
16324
16345
16322
16420
16318
16350
16351
16311
16334
16436
16326
16318
16319
16320
16617
16343
16370
16319
16317
16300
16336
16391
16322
16324
16574
16326
16309
16597
16327
16306
16305
16321
16318
16343
16292
16300
16343
16291
16310
16305
16293
16327
16304
16289
16311
16290
16565
16290
16284
16582
16295
16285
16265
16301
16335
16261
16298
16575
16285
16282
16259
16284
16299
16256
16289
16288
16247
16277
16293
16249
16258
16390
16246
16264
16318
16238
16247
16483
16252
16252
16231
16268
16237
16226
16256
16222
16522
16222
16228
16215
16519
16204
16231
16198
16477
16189
16221
16212
16367
16198
16196
16225
16175
16206
16183
16251
16188
16179
16185
16198
16161
16174
16161
16247
16146
16177
16151
16136
16159
16149
16183
16134
16152
16134
16243
16119
16126
16161
16105
16131
16113
16367
16093
16129
16088
16093
16105
16092
16199
16069
16102
16078
16185
16061
16088
16065
16052
16086
16054
16221
16042
16071
16044
16024
16056
16031
16151
16029
16030
16019
16042
16022
16008
16026
16052
16002
16010
16265
16023
16007
15986
15990
16308
16011
16068
15989
15977
15977
15984
16166
15950
15969
16245
15976
15960
16134
15947
15962
15972
15941
15963
15945
15940
15958
15930
15921
15948
15930
15912
15935
15976
15919
15927
15900
15932
15951
15900
15908
16153
15911
15901
16070
15887
15910
15897
15879
15910
15897
15886
15900
15879
16174
15882
15878
15883
15863
15885
15908
15857
15879
15886
15858
15860
15854
15847
15860
15847
16161
15862
15834
16113
15842
15849
15885
15827
15854
15840
15823
15836
15835
15937
15816
15839
15838
16129
15816
15822
15855
15803
15832
15806
16087
15798
15802
15838
15792
15808
15791
15783
15830
15788
15772
15812
15842
15786
15780
16042
15800
15789
15769
15782
15846
15772
15775
15770
15782
15765
15774
15795
15775
15760
15775
15865
15768
15760
15747
15762
15868
15748
15759
15862
15755
15749
16010
15751
15748
15741
15779
15767
15730
15743
16057
15754
15728
15725
15738
15789
15735
15734
15725
15743
15732
15729
15755
15726
15723
15741
15838
15721
15737
15956
15721
15712
15714
15727
15857
15714
15727
15781
15706
15738
15716
15711
15735
15730
15709
15716
15908
15716
15716
15836
15700
15727
15730
15699
15726
15697
15699
15724
15695
15687
15713
15709
15940
15706
15698
15689
15710
15692
15946
15688
15695
15830
15694
15693
15770
15687
15724
15686
15689
15711
15701
15676
15694
15998
15708
15690
15674
15711
15816
15702
15682
15675
15718
15703
15670
15697
15714
15668
15704
15685
15841
15688
15686
15673
15693
15689
16003
15684
15683
16007
15685
15679
15762
15676
15687
15724
15670
15682
15689
15671
15692
15678
15907
15691
15684
15700
15676
15692
15685
15782
15675
15703
15674
15673
15689
15678
15874
15671
15707
15681
15884
15674
15692
15703
15668
15701
15691
15680
15689
15679
15696
15674
15697
15681
15668
15693
15680
15701
15665
15669
15702
15674
15945
15671
15700
15676
15808
15673
15679
16003
15707
15686
15944
15676
15686
15722
15673
15707
15684
15812
15677
15708
15678
15668
15698
15689
15998
15713
15682
15667
15700
15734
15672
15703
15690
15824
15671
15714
15700
15671
15709
15680
15681
15695
15695
15732
15671
15703
15703
15671
15705
15681
15996
15693
15696
15728
15681
15700
15714
15693
15927
15689
15718
15685
15690
15714
15706
15782
15699
15716
15703
15986
15706
15701
15950
15709
15703
15771
15693
15724
15711
15814
15696
15704
15920
15711
15715
15999
15707
15706
15690
15732
15709
15690
15721
15711
15703
15727
15727
15699
15742
15742
15701
15734
15731
15704
15735
15709
15960
15715
15727
15719
15730
15713
15744
15719
15736
15728
15741
15719
15960
15706
15753
15735
15716
15734
15722
15879
15724
15745
15729
16047
15734
15727
15971
15718
15734
15891
15726
15741
15815
15725
15759
15752
15725
15741
15743
15751
15722
15752
15717
15751
15798
15715
15750
15740
15795
15735
15754
15751
15811
15734
15767
15750
15810
15747
15772
15758
16044
15766
15767
15769
15758
15786
15762
16035
15770
15805
15782
15782
15795
15806
15820
15793
15818
15802
15901
15807
15819
15879
15813
15850
15834
15828
15847
15847
15879
15837
15866
15853
15861
15868
15873
15900
15854
15903
15884
15875
15895
15881
15865
15889
16137
15924
15908
15895
15919
15949
15908
15942
15924
16081
15927
15958
15931
15943
15959
15941
15935
15970
15955
15940
15964
16001
15944
15990
15968
15959
15993
16011
15969
15989
16187
15996
15991
16193
15990
16014
16306
16006
16015
16199
16011
16016
16210
16015
16031
16059
16018
16057
16096
16032
16046
16114
16031
16050
16105
16047
16058
16109
16063
16060
16047
16087
16101
16050
16073
16071
16102
16152
16077
16088
16091
16091
16089
16118
16114
16090
16131
16110
16097
16127
16102
16108
16120
16338
16148
16127
16113
16141
16214
16116
16132
16452
16162
16158
16128
16133
16433
16157
16147
16135
16164
16164
16256
16148
16175
16164
16474
16157
16179
16181
16156
16183
16165
16407
16188
16179
16170
16180
16204
16171
16212
16196
16181
16206
16183
16461
16191
16198
16433
16197
16199
16346
16194
16206
16273
16197
16223
16200
16387
16193
16220
16351
16208
16215
16478
16230
16222
16413
16200
16235
16221
16204
16229
16223
16236
16233
16235
16224
16244
16477
16230
16230
16240
16222
16217
16213
16230
16368
16232
16228
16206
16236
16461
16244
16382
16244
16297
16230
16232
16235
16224
16222
16233
16228
16255
16230
16231
16234
16266
16234
16322
16258
16436
16243
16445
16243
16263
16235
16253
16231
16237
16230
16318
16229
16378
16246
16533
16223
16215
16237
16327
16233
16514
16229
16383
16236
16335
16229
16520
16218
16205
16218
16204
16236
16415
16215
16244
16213
16208
16196
16209
16190
16209
16197
16207
16205
16239
16283
16207
16231
16195
16221
16215
16298
16229
16310
16220
16186
16202
16190
16204
16462
16230
16239
16202
16198
16181
16201
16194
16204
16510
16222
16365
16215
16233
16194
16188
16182
16215
16265
16211
16225
16197
16198
16183
16199
16185
16207
16438
16221
16250
16210
16198
16191
16200
16189
16192
16182
16202
16386
16200
16190
16190
16220
16380
16209
16227
16193
16196
16194
16205
16512
16228
16322
16204
16200
16194
16206
16191
16206
16194
16211
16188
16215
16257
16207
16230
16203
16202
16183
16205
16185
16210
16490
16229
16358
16225
16211
16189
16197
16198
16198
16493
16229
16394
16225
16228
16198
16213
16207
16215
16200
16239
16377
16228
16249
16226
16244
16220
16246
16203
16217
16536
16234
16241
16220
16213
16203
16210
16206
16225
16216
16315
16429
16209
16209
16214
16249
16255
16228
16225
16226
16257
16452
16210
16220
16214
16240
16251
16233
16229
16245
16361
16550
16223
16222
16243
16260
16232
16287
16227
16230
16250
16230
16238
16235
16239
16230
16246
16244
16249
16244
16253
16252
16295
16271
16391
16277
16369
16269
16432
16285
16556
16254
16248
16261
16239
16324
16269
16256
16252
16253
16255
16249
16258
16255
16275
16259
16271
16277
16289
16279
16300
16286
16291
16268
16270
16268
16262
16267
16265
16270
16277
16279
16282
16278
16300
16283
16294
16282
16294
16282
16305
16307
16325
16283
16294
16287
16284
16280
16294
16289
16306
16285
16317
16344
16316
16409
16322
16511
16315
16302
16316
16306
16312
16307
16321
16306
16317
16294
16314
16318
16335
16334
16382
16334
16326
16310
16325
16321
16322
16310
16334
16322
16342
16335
16334
16324
16343
16326
16330
16324
16346
16330
16346
16340
16350
16339
16364
16527
16378
16492
16373
16468
16386
16478
16388
16352
16361
16363
16352
16358
16362
16358
16372
16651
16391
16475
16385
16452
16385
16388
16365
16381
16374
16409
16413
16397
16392
16375
16381
16364
16391
16387
16399
16374
16398
16705
16423
16469
16391
16401
16383
16401
16389
16406
16697
16427
16434
16407
16402
16395
16428
16552
16407
16402
16443
16586
16452
16485
16417
16420
16414
16460
16513
16436
16452
16425
16432
16428
16425
16423
16444
16426
16459
16611
16445
16505
16445
16431
16423
16444
16439
16453
16438
16461
16650
16465
16463
16438
16447
16443
16478
16483
16446
16454
16456
16471
16457
16473
16460
16472
16778
16504
16684
16495
16453
16471
16495
16464
16474
16500
16468
16479
16493
16464
16486
16505
16460
16500
16508
16774
16492
16478
16484
16785
16519
16677
16505
16516
16494
16490
16485
16495
16487
16494
16486
16500
16494
16504
16789
16516
16540
16499
16511
16521
16507
16494
16495
16504
16513
16727
16540
16592
16519
16506
16498
16508
16509
16519
16503
16511
16511
16525
16471
16547
16662
16539
16538
16514
16526
16526
16543
16524
16538
16522
16523
16514
16523
16515
16551
16683
16546
16546
16524
16544
16749
16533
16541
16518
16549
16660
16532
16532
16524
16543
16526
16533
16820
16555
16609
16538
16550
16533
16543
16521
16541
16522
16551
16650
16532
16540
16535
16554
16586
16532
16549
16765
16574
16590
16544
16564
16538
16564
16548
16564
16719
16583
16591
16559
16578
16564
16583
16875
16608
16764
16609
16640
16590
16592
16589
16609
16596
16611
16599
16630
16780
16635
16690
16623
16616
16616
16628
16625
16636
16773
16643
16632
16637
16653
16871
16677
16646
16637
16662
16647
16657
16929
16671
16696
16651
16663
16662
16682
16895
16692
16679
16669
16694
16753
16678
16685
16674
16699
16664
16714
16738
16702
16694
16681
16705
16693
16707
16691
16696
16710
16711
16710
16791
16730
16870
16737
16985
16714
16715
16716
16702
16719
16723
16734
16724
16730
16734
16802
16743
16771
16745
16722
16716
16731
16717
16727
16722
16732
16722
16732
16730
16745
16732
16738
16732
16750
16837
16751
16755
16741
16775
16752
16764
16743
16755
16731
16749
16748
16748
16731
16756
17030
16746
16734
16747
16730
16742
16735
16757
16962
16753
16916
16752
16778
16742
16773
16735
16740
16735
16743
16742
16737
16735
16754
16756
16752
16761
16734
16740
16730
16759
16837
16723
16724
16736
16742
16749
16729
16726
16731
16820
16995
16720
16709
16714
16724
16729
16737
16717
16709
16711
16710
16743
16903
16971
16684
16943
16692
16689
16691
16704
16707
16712
16696
16682
16687
16690
16671
16714
16780
16912
16665
16660
16678
16678
16671
16675
16671
16664
16671
16684
16676
16665
16663
16651
16646
16643
16650
16655
16724
16909
16619
16620
16617
16629
16629
16624
16607
16624
16794
16621
16747
16615
16685
16613
16593
16590
16572
16580
16580
16595
16572
16668
16584
16759
16573
16805
16569
16743
16557
16716
16551
16572
16525
16518
16517
16538
16691
16530
16697
16519
16508
16485
16503
16572
16510
16688
16505
16523
16473
16479
16459
16478
16587
16453
16453
16458
16445
16450
16435
16469
16464
16423
16437
16422
16439
16425
16413
16404
16402
16398
16401
16382
16413
16383
16413
16433
16371
16375
16366
16390
16454
16356
16359
16354
16358
16348
16352
16495
16348
16495
16343
16326
16442
16344
16352
16306
16316
16492
16335
16370
16295
16276
16283
16277
16293
16282
16298
16289
16276
16275
16260
16255
16282
16378
16236
16246
16230
16235
16236
16216
16217
16217
16230
16247
16242
16215
16202
16231
16270
16471
16190
16187
16467
16205
16197
16170
16173
16167
16174
16482
16191
16300
16175
16272
16166
16166
16138
16149
16130
16135
16133
16130
16137
16126
16133
16100
16121
16382
16125
16096
16103
16093
16098
16085
16076
16072
16084
16068
16071
16068
16062
16295
16069
16207
16063
16289
16070
16195
16055
16039
16028
16036
16013
16025
16172
16041
16100
16015
15996
16006
16010
15999
15994
15980
15989
15974
16239
15982
15971
15979
15951
15959
15951
15951
15944
15957
15946
15954
16258
15948
16027
15943
15927
15911
15914
15914
15930
16013
15917
15908
15910
15904
15879
15919
16025
15905
15935
15890
15902
15877
15868
15858
15875
15856
15876
16070
15868
15857
15852
15838
15833
15834
15824
15832
15850
15814
15836
16036
15837
16118
15828
15965
15826
15804
15794
15817
15802
15810
15780
15788
15782
15778
15776
15791
15776
15780
15772
15781
15757
15762
15748
15747
15742
15769
15842
15756
15894
15756
15765
15740
15729
15717
15735
15724
15711
15707
15710
15703
15721
15698
15700
15721
15756
15847
15679
15689
15686
15699
15695
15676
15799
15661
15665
15679
15677
15694
15661
15657
15684
15855
15642
15649
15649
15669
15655
15645
15628
15641
15683
15885
15627
15619
15635
15611
15639
15716
15638
15612
15596
15607
15598
15619
15631
15593
15588
15585
15590
15792
15604
15588
15567
15575
15575
15588
15572
15567
15545
15567
15549
15567
15557
15558
15541
15559
15541
15541
15531
15543
15537
15545
15781
15550
15640
15545
15551
15528
15521
15508
15524
15503
15527
15505
15525
15767
15527
15585
15522
15548
15496
15508
15484
15484
15474
15484
15472
15479
15484
15484
15455
15473
15460
15459
15461
15466
15452
15470
15635
15478
15619
15479
15673
15469
15447
15458
15426
15446
15684
15452
15423
15458
15678
15440
15417
15437
15413
15440
15626
15450
15654
15430
15410
15417
15401
15423
15399
15408
15394
15397
15403
15417
15405
15436
15406
15428
15409
15420
15407
15563
15407
15557
15404
15469
15396
15561
15399
15525
15383
15591
15377
15354
15375
15350
15367
15357
15367
15353
15366
15358
15352
15348
15356
15348
15358
15347
15357
15490
15357
15354
15334
15344
15549
15364
15484
15348
15329
15343
15326
15335
15537
15330
15520
15335
15317
15332
15308
15333
15445
15325
15415
15327
15312
15314
15317
15301
15313
15292
15303
15478
15317
15297
15300
15294
15300
15435
15310
15402
15316
15366
15310
15434
15295
15300
15277
15284
15457
15297
15325
15279
15282
15264
15277
15270
15272
15434
15287
15315
15268
15287
15267
15274
15259
15261
15257
15260
15239
15275
15429
15284
15363
15268
15284
15264
15276
15263
15268
15257
15281
15339
15277
15360
15294
15444
15274
15269
15285
15276
15280
15279
15294
15278
15280
15283
15310
15304
15314
15298
15313
15289
15301
15289
15316
15303
15309
15308
15313
15300
15324
15312
15319
15313
15333
15308
15325
15307
15317
15318
15328
15315
15331
15310
15332
15324
15341
15385
15351
15343
15349
15358
15351
15362
15361
15397
15357
15338
15359
15349
15359
15348
15366
15352
15364
15360
15382
15367
15398
15378
15413
15385
15394
15381
15430
15382
15488
15383
15488
15374
15375
15390
15375
15390
15373
15384
15375
15381
15379
15389
15393
15455
15397
15371
15391
15389
15393
15385
15397
15382
15391
15388
15396
15503
15406
15398
15405
15511
15406
15399
15407
15397
15409
15402
15406
15405
15420
15459
15412
15410
15415
15484
15415
15490
15419
15412
15415
15403
15414
15408
15419
15412
15419
15419
15452
15428
15492
15431
15512
15425
15511
15427
15503
15433
15512
15427
15469
15434
15410
15443
15420
15419
15420
15430
15409
15422
15414
15425
15419
15422
15423
15440
15429
15424
15428
15428
15422
15422
15468
15426
15491
15433
15415
15420
15420
15430
15428
15444
15431
15430
15416
15441
15427
15423
15420
15422
15421
15437
15419
15430
15414
15423
15428
15423
15417
15426
15421
15440
15414
15449
15407
15397
15407
15401
15410
15410
15416
15414
15426
15396
15414
15398
15422
15402
15418
15398
15340
15394
15420
15393
15403
15387
15396
15390
15411
15385
15371
15375
15365
15379
15373
15371
15374
15374
15357
15375
15365
15383
15367
15378
15361
15362
15356
15353
15359
15375
15352
15364
15348
15339
15345
15337
15348
15339
15338
15353
15338
15357
15323
15332
15333
15321
15331
15346
15319
15333
15319
15321
15322
15302
15323
15305
15324
15305
15315
15305
15310
15306
15316
15307
15310
15301
15306
15298
15291
15302
15290
15294
15288
15297
15295
15294
15297
15292
15290
15288
15295
15277
15289
15275
15280
15272
15285
15277
15283
15281
15283
15270
15279
15276
15276
15278
15274
15273
15269
15273
15272
15257
15268
15266
15265
15264
15265
15270
15257
15264
15259
15266
15264
15260
15259
15257
15253
15248
15257
15263
15262
15260
15264
15252
15263
15244
15256
15246
15251
15238
15249
15241
15255
15245
15256
15245
15250
15239
15247
15239
15244
15242
15240
15237
15249
15239
15243
15225
15252
15231
15240
15226
15237
15244
15244
15245
15243
15245
15239
15234
15238
15228
15240
15238
15238
15240
15236
15243
15238
15243
15238
15238
15233
15238
15227
15240
15228
15241
15234
15235
15231
15234
15235
15238
15240
15240
15238
15237
15232
15228
15233
15212
15228
15225
15236
15233
15236
15236
15235
15233
15244
15230
15236
15231
15240
15239
15233
15229
15242
15236
15246
15237
15246
15227
15241
15236
15236
15227
15247
15233
15244
15234
15241
15228
15245
15244
15252
15233
15245
15239
15247
15227
15234
15243
15241
15249
15239
15246
15246
15252
15253
15247
15242
15245
15255
15230
15249
15239
15236
15247
15247
15250
15250
15256
15254
15258
15260
15252
15256
15254
15243
15263
15263
15256
15260
15250
15261
15252
15263
15260
15262
15270
15253
15262
15265
15271
15268
15268
15261
15265
15262
15265
15269
15277
15265
15274
15274
15282
15269
15274
15278
15255
15272
15229
15276
15276
15291
15269
15289
15281
15285
15273
15286
15281
15292
15230
15286
15240
15288
15275
15283
15276
15289
15289
15293
15279
15302
15298
15293
15308
15296
15312
15301
15300
15244
15306
15247
15303
15263
15300
15294
15303
15313
15306
15327
15311
15299
15312
15319
15332
15322
15326
15290
15321
15313
15321
15301
15329
15292
15324
15303
15332
15333
15329
15335
15343
15344
15331
15341
15333
15348
15304
15342
15324
15341
15350
15357
15352
15271
15354
15285
15354
15258
15367
15353
15360
15365
15371
15358
15373
15364
15375
15358
15376
15373
15375
15366
15387
15278
15373
15324
15380
15313
15372
15301
15377
15352
15378
15367
15397
15391
15390
15396
15398
15415
15283
15394
15399
15407
15407
15344
15402
15412
15411
15418
15423
15415
15404
15423
15422
15407
15416
15422
15433
15314
15420
15363
15428
15400
15434
15429
15423
15438
15448
15459
15324
15439
15375
15438
15377
15447
15427
15450
15417
15448
15424
15452
15420
15460
15397
15453
15444
15460
15455
15462
15477
15465
15477
15489
15486
15486
15488
15490
15498
15484
15486
15487
15463
15489
15485
15488
15490
15495
15500
15498
15508
15504
15514
15508
15522
15382
15509
15447
15515
15499
15502
15367
15533
15379
15519
15455
15514
15499
15519
15490
15537
15518
15539
15528
15547
15530
15545
15551
15548
15549
15547
15543
15552
15542
15563
15560
15554
15563
15410
15548
15484
15564
15506
15558
15486
15554
15485
15566
15532
15575
15574
15571
15582
15581
15594
15590
15574
15472
15590
15572
15599
15585
15596
15612
15613
15623
15614
15622
15458
15615
15524
15615
15504
15640
15487
15646
15515
15645
15620
15655
15610
15655
15572
15665
15529
15694
15686
15703
15703
15701
15709
15692
15706
15714
15725
15613
15735
15611
15735
15564
15724
15564
15754
15613
15749
15652
15747
15668
15761
15719
15776
15706
15764
15673
15783
15734
15802
15798
15812
15818
15823
15819
15835
15830
15661
15817
15714
15836
15834
15846
15861
15855
15855
15732
15863
15860
15874
15879
15886
15884
15894
15877
15812
15888
15872
15914
15909
15908
15918
15922
15923
15921
15927
15932
15934
15939
15948
15945
15956
15948
15952
15962
15963
15965
15975
15970
15975
15970
15980
15980
15984
15838
15966
15866
15968
15901
15996
16007
15927
16019
16006
16026
15847
16007
16001
16026
15941
16025
16005
16023
15839
16039
16043
15852
16031
16057
15929
16052
16037
16031
16063
16054
16055
16066
16053
16082
15932
16072
16082
15998
16080
16070
16065
16102
16080
16108
15979
16089
16101
15981
16091
16111
16045
16107
16089
16112
15930
16106
16124
16027
16118
16114
16087
16132
16127
16128
15957
16131
16135
16121
15979
16133
16126
16125
15952
16142
16157
16095
16148
16140
16162
16042
16156
16143
16164
16094
16163
16149
16176
16098
16156
16156
16166
16096
16160
16141
16158
16166
16169
16151
16163
16017
16161
16180
16120
16168
16170
16161
16163
16014
16174
16165
16153
16174
16166
16122
16178
16150
16172
16183
16168
16188
16047
16178
16189
16075
16175
16169
16160
16180
16171
16162
16178
16161
16168
15968
16166
16181
16013
16170
16196
16060
16182
16146
16175
16062
16172
16160
16175
16186
16166
16181
16057
16178
16148
16146
16172
16165
16183
16028
16167
16174
16170
16151
16154
16172
16150
16145
16174
16151
16150
16164
16153
16153
16170
16158
16182
16016
16158
16151
16179
16161
16122
16172
16174
16172
16144
16157
16071
16173
16183
15969
16159
16167
16175
16150
16142
16170
16179
16023
16162
16186
15985
16175
16172
16048
16173
16174
16090
16174
16163
16136
16175
16164
16178
16136
15996
16169
16180
16147
15985
16167
16158
16172
16028
16168
16159
16172
16021
16172
16177
16011
16166
16172
16183
16165
16182
16087
16179
16190
16134
16179
16160
16180
16007
16172
16189
16048
16173
16191
16172
15999
16188
16166
16192
16188
16076
16197
16183
16189
16013
16197
16208
16116
16189
16174
16159
16191
16182
16203
16199
16187
16187
16200
16191
16206
16030
16180
16190
16207
16192
16167
16207
16212
16147
16211
16215
16170
16205
16199
16209
16055
16204
16220
16067
16213
16220
16191
16222
16210
16225
16191
16223
16222
16221
16202
16220
16216
16208
16060
16215
16239
16233
16226
16242
16093
16231
16235
16166
16233
16228
16245
16146
16234
16258
16135
16241
16225
16244
16121
16236
16252
16209
16260
16258
16116
16246
16250
16256
16245
16223
16252
16271
16173
16261
16242
16258
16256
16244
16260
16266
16266
16272
16111
16268
16270
16216
16275
16275
16217
16284
16263
16295
16225
16279
16268
16295
16273
16284
16286
16292
16291
16198
16295
16285
16290
16305
16286
16300
16299
16284
16303
16295
16313
16301
16316
16303
16198
16304
16324
16247
16311
16324
16311
16318
16324
16328
16295
16329
16333
16335
16310
16195
16330
16338
16344
16225
16342
16347
16330
16188
16346
16364
16262
16349
16359
16292
16368
16363
16300
16358
16358
16337
16363
16363
16379
16234
16356
16384
16303
16375
16376
16371
16375
16377
16400
16327
16377
16375
16388
16271
16397
16394
16387
16271
16390
16407
16374
16418
16402
16410
16294
16409
16420
16400
16418
16418
16422
16313
16421
16423
16421
16428
16376
16435
16441
16406
16433
16450
16369
16439
16453
16452
16445
16436
16449
16450
16422
16454
16448
16415
16461
16448
16440
16456
16474
16391
16463
16478
16414
16471
16475
16470
16466
16472
16486
16415
16487
16501
16409
16492
16503
16423
16491
16507
16403
16499
16511
16490
16513
16516
16523
16500
16519
16517
16525
16465
16525
16516
16512
16527
16532
16526
16531
16541
16519
16541
16544
16516
16550
16550
16500
16550
16552
16538
16559
16549
16564
16456
16575
16569
16496
16566
16583
16495
16570
16572
16585
16583
16554
16583
16593
16583
16596
16593
16588
16598
16598
16612
16596
16607
16622
16587
16617
16610
16615
16544
16625
16597
16623
16634
16644
16631
16623
16629
16631
16628
16629
16639
16632
16639
16645
16650
16650
16660
16654
16650
16658
16660
16662
16663
16671
16670
16601
16669
16673
16677
16675
16677
16686
16693
16680
16679
16689
16695
16690
16689
16698
16704
16695
16693
16708
16703
16705
16703
16700
16714
16719
16708
16694
16713
16732
16720
16718
16721
16732
16733
16750
16733
16741
16724
16747
16744
16741
16742
16751
16754
16759
16761
16761
16763
16773
16773
16775
16780
16794
16791
16797
16799
16802
16804
16807
16807
16814
16811
16823
16837
16846
16844
16856
16863
16842
16849
16868
16868
16873
16868
16881
16863
16881
16881
16880
16899
16897
16897
16902
16914
16950
16916
16911
16927
16923
16935
16929
16941
16937
16948
16948
16973
16959
16982
16967
16974
16969
16977
16970
16988
16975
16999
17061
17009
17063
17006
17038
17012
17023
17006
17029
17114
17028
17054
17027
17043
17027
17045
17046
17051
17046
17061
17066
17087
17068
17098
17079
17103
17086
17115
17089
17101
17093
17105
17096
17111
17101
17119
17101
17135
17134
17181
17132
17117
17143
17127
17137
17136
17146
17137
17154
17139
17160
17281
17175
17286
17180
17273
17195
17278
17195
17207
17188
17191
17188
17207
17302
17208
17261
17215
17206
17231
17341
17227
17283
17239
17247
17222
17244
17228
17239
17382
17255
17259
17244
17253
17414
17267
17282
17249
17271
17436
17279
17287
17271
17281
17442
17295
17361
17299
17316
17285
17293
17284
17319
17407
17318
17336
17296
17316
17310
17309
17303
17320
17308
17316
17493
17341
17486
17332
17316
17349
17476
17352
17372
17342
17351
17351
17353
17338
17364
17348
17367
17348
17359
17345
17353
17548
17369
17383
17362
17350
17355
17360
17352
17367
17356
17372
17359
17379
17361
17372
17443
17380
17385
17383
17394
17374
17374
17365
17380
17373
17386
17367
17395
17495
17393
17413
17384
17386
17369
17382
17374
17399
17377
17383
17377
17391
17567
17396
17391
17374
17402
17381
17405
17443
17389
17399
17380
17391
17374
17394
17378
17391
17379
17391
17380
17385
17390
17394
17384
17388
17551
17410
17532
17421
17587
17412
17519
17414
17535
17409
17421
17399
17416
17397
17401
17385
17396
17372
17407
17390
17393
17389
17399
17389
17410
17391
17396
17573
17423
17535
17410
17545
17415
17442
17401
17441
17409
17467
17419
17567
17405
17647
17405
17396
17400
17642
17423
17513
17409
17453
17401
17402
17385
17415
17577
17431
17456
17407
17399
17397
17406
17397
17427
17620
17433
17616
17428
17489
17406
17445
17406
17407
17397
17409
17400
17407
17406
17407
17399
17399
17406
17415
17403
17415
17402
17444
17399
17416
17406
17449
17441
17657
17420
17405
17412
17395
17413
17415
17484
17434
17564
17431
17632
17429
17636
17431
17625
17444
17524
17439
17665
17442
17697
17422
17410
17423
17413
17421
17719
17431
17671
17446
17442
17404
17428
17423
17428
17674
17418
17425
17471
17407
17421
17431
17486
17451
17671
17447
17638
17422
17423
17731
17451
17433
17409
17450
17484
17434
17428
17423
17445
17428
17618
17442
17422
17661
17441
17429
17663
17424
17441
17733
17443
17435
17762
17458
17504
17449
17433
17733
17447
17428
17427
17463
17438
17428
17442
17537
17438
17441
17535
17442
17452
17467
17433
17455
17445
17492
17433
17447
17434
17476
17462
17437
17469
17455
17443
17462
17457
17444
17467
17521
17442
17465
17447
17447
17473
17465
17445
17489
17496
17443
17491
17457
17453
17488
17468
17657
17474
17463
17763
17454
17468
17810
17477
17470
17583
17457
17491
17479
17458
17474
17487
17477
17466
17490
17471
17710
17474
17473
17519
17462
17469
17490
17506
17472
17507
17581
17501
17543
17507
17530
17480
17492
17476
17486
17487
17479
17455
17485
17507
17500
17477
17524
17486
17734
17500
17494
17712
17499
17493
17629
17487
17526
17502
17657
17493
17525
17502
17488
17521
17510
17480
17533
17487
17487
17530
17509
17494
17535
17516
17500
17530
17508
17546
17494
17518
17509
17709
17505
17511
17595
17495
17539
17551
17501
17543
17512
17508
17547
17513
17751
17504
17539
17614
17503
17535
17581
17514
17553
17530
17509
17553
17523
17934
17524
17533
17681
17519
17526
17606
17523
17540
17560
17524
17561
17535
17518
17551
17532
17521
17559
17542
17523
17540
17538
17899
17537
17543
17575
17530
17568
17551
17650
17535
17575
17535
17796
17556
17541
17535
17575
17530
17985
17537
17548
17659
17530
17585
17553
18039
17547
17551
17609
17534
17570
17550
17751
17565
17543
17614
17548
17590
17561
17545
17556
17552
17609
17541
17585
17551
17542
17557
17562
17666
17546
17556
17670
17550
17564
17620
17543
17600
17559
17549
17591
17559
17977
17556
17599
17563
17553
17559
17575
17568
18050
17551
17602
17550
17775
17551
17591
17558
17548
17586
17560
17697
17554
17570
17613
17548
17586
17559
17837
17554
17584
17561
17627
17551
17587
17558
17742
17546
17574
17624
17548
17591
17567
18068
17574
17567
17712
17557
17612
17571
17570
17613
17578
17562
17617
17583
17732
17599
17598
17688
17574
17643
17623
17593
17621
17615
17628
17604
17646
17605
17990
17614
17623
17614
17617
17650
17629
17633
17653
17638
17798
17625
17680
17658
17639
17666
17672
17629
17658
17840
17673
17655
17644
17698
17703
17656
17669
17704
17657
17684
17671
17832
17661
17700
17681
18247
17686
17695
17838
17685
17697
17754
17672
17710
17710
17690
17722
17702
18143
17677
17735
17703
17702
17704
17739
17708
17699
17733
17703
18086
17697
17737
17721
17804
17708
17736
17721
17727
17733
17732
17758
17703
17747
17724
17716
17743
17727
17844
17717
17751
17727
18085
17724
17742
17742
17730
17750
17742
18033
17740
17734
17724
17760
17732
17726
17736
17746
17839
17730
17785
17734
17738
17767
17743
17724
17785
17743
17739
17771
17815
17734
17748
17874
17736
17781
17741
18272
17734
17759
17753
17744
17751
17749
17775
17728
17730
17772
17744
17864
17728
17751
17794
17726
17749
17737
17735
17732
17724
17743
17721
17740
17720
17760
17740
17730
18251
17722
17767
17721
18060
17704
17747
17730
17729
17892
17709
17715
17749
17719
17729
17966
17696
17745
17711
17895
17701
17729
17717
17703
17940
17685
17732
17702
17706
18143
17689
17733
17687
17679
17697
17694
17701
17668
17703
17686
17711
18300
17667
17696
17663
18193
17655
17690
17661
18023
17646
17661
17675
17636
17661
17702
17623
17680
17643
17623
17665
17621
17781
17604
17639
17623
17650
17606
17638
17604
17789
17588
17613
17602
17647
17588
17606
17593
17697
17569
17610
17577
17686
17571
17572
17595
17558
17546
17594
17550
17554
17564
17548
17723
17527
17574
17524
18143
17532
17534
17547
17513
17516
17514
17648
17496
17537
17516
17570
17487
17533
17485
17661
17482
17500
17783
17479
17479
17552
17461
17484
17479
17462
17956
17439
17505
17444
17437
17469
17440
17676
17421
17475
17428
17633
17418
17448
17424
17535
17402
17423
17414
17445
17389
17425
17407
17465
17374
17436
17378
17378
17402
17375
17397
17354
17399
17370
17549
17355
17360
17415
17349
17351
17353
17365
17334
17372
17341
17330
17354
17316
17531
17333
17327
17388
17295
17345
17321
17302
17342
17293
17349
17289
17327
17288
17281
17293
17287
17684
17266
17302
17284
17883
17265
17305
17275
17315
17252
17250
17261
17255
17245
17261
17260
17270
17222
17236
17244
17225
17310
17218
17254
17218
17456
17209
17254
17197
17809
17206
17201
17223
17613
17194
17188
17215
17178
17193
17182
17268
17164
17162
17209
17156
17190
17154
17175
17164
17189
17137
17164
17145
17554
17135
17155
17131
17541
17119
17138
17124
17357
17127
17119
17224
17096
17150
17132
17105
17127
17102
17114
17076
17080
17127
17082
17254
17061
17104
17080
17094
17052
17086
17065
17213
17055
17098
17052
17246
17032
17083
17046
17069
17033
17072
17035
17242
17020
17073
17025
17021
17032
17026
17040
17543
16997
17051
17010
17022
17615
16994
17036
17007
16977
16999
16992
16980
17590
16974
16997
17012
16962
16987
16966
17093
16949
16972
16965
17028
16936
16967
16956
16958
17405
16939
16967
16946
16921
16947
16939
16991
16911
16925
16930
16915
17434
16903
16953
16895
17119
16888
16933
16898
17054
16887
16901
16900
16904
16878
16879
16883
16879
17504
16875
16865
16868
16860
16860
16898
16854
16842
16839
16863
16850
17289
16832
16879
16828
17036
16814
16868
16837
16818
16831
16825
16985
16801
16821
16811
16806
17312
16788
16837
16799
16958
16789
16801
16783
16892
16775
16790
16786
16791
16760
16764
16809
16757
16932
16742
16794
16754
17094
16736
16783
16746
16802
16729
16757
16739
16844
16724
16735
16725
16724
16727
16728
16752
16705
16714
16724
16710
16701
16698
16751
16707
16736
16692
16691
16709
16687
17087
16687
16721
16679
16889
16658
16709
16668
16839
16647
16676
16678
16663
16647
16656
16658
16652
16622
16682
16636
17224
16631
16652
16631
16948
16612
16630
16646
16608
16642
16620
16741
16596
16628
16604
16619
16582
16583
16637
16591
16566
16610
16589
16631
16560
16578
16572
16743
16585
16561
16551
16567
16561
16710
16540
16550
16682
16529
16586
16530
17176
16548
16529
16935
16514
16519
16769
16520
16527
16599
16500
16551
16526
16502
16555
16540
16492
16521
16535
16499
16519
16853
16517
16501
16507
16538
16492
16505
16538
16521
16498
16540
16507
16909
16497
16542
16534
16485
16513
16546
16499
16702
16480
16546
16497
16487
16527
16501
16484
16533
16485
16484
16527
16486
16493
16515
16494
16488
16497
16502
16759
16471
16529
16484
16816
16478
16510
16481
16700
16456
16509
16472
17057
16486
16485
16679
16472
16483
16716
16471
16470
16663
16454
16487
16463
16456
16484
16460
16574
16444
16482
16464
16484
16447
16477
16453
16701
16427
16476
16448
16436
16440
16481
16436
16763
16420
16469
16434
16508
16424
16453
16412
16657
16412
16447
16422
16528
16399
16410
16415
16433
16386
16423
16401
16772
16391
16407
16407
16380
16397
16388
16668
16363
16413
16385
16362
16380
16383
16486
16357
16373
16454
16337
16363
16370
16932
16344
16384
16348
16354
16337
16330
16369
16330
16541
16323
16357
16330
16310
16344
16316
16469
16308
16316
16318
16310
16281
16287
16325
16285
16275
16294
16284
16271
16258
16284
16274
16348
16253
16293
16252
16364
16247
16291
16260
16229
16261
16233
16212
16223
16255
16215
16205
16220
16222
16233
16184
16236
16198
16231
16684
16169
16202
16178
16172
16431
16143
16153
16200
16148
16189
16126
16135
16166
16142
16189
16102
16116
16134
16105
16663
16092
16136
16092
16622
16083
16108
16077
16069
16068
16078
16076
16044
16052
16099
16039
16025
16071
16024
16558
16025
16027
16016
16548
15994
16028
15998
16063
15981
15996
15991
15972
16099
15948
15962
15960
15960
16254
15937
15930
15974
15932
16026
15908
15918
15920
16343
15911
15884
16255
15897
15894
16170
15857
15913
16087
15904
16463
15861
15834
15844
15826
15839
15825
15856
15823
15796
15847
15797
15788
15813
15848
15779
15812
15833
15773
15804
15773
15749
15799
15783
15748
15749
16351
15757
15740
15715
15725
15929
15730
15706
15700
15741
15796
15700
15685
15674
15705
15856
15687
15665
15667
15697
15838
15664
15660
15642
15628
15614
15639
15608
15623
15597
15622
15605
15623
15727
15600
15607
15586
15638
15609
15746
15575
15555
15559
15537
15564
15543
15551
15535
15540
15519
15561
15908
15556
15666
15519
15505
15503
15505
15487
15489
15479
15471
15470
15515
15495
15455
15469
15736
15463
15452
15435
15446
15429
15475
15564
15425
15404
15399
15407
15406
15434
15511
15417
15407
15388
15388
15735
15390
15367
15357
15540
15503
15741
15792
15626
15737
15940
15463
15497
15328
15316
15313
15310
15303
15301
15300
15320
15423
15304
15287
15278
15295
15267
15260
15308
15325
15256
15262
15531
15261
15237
15237
15255
15342
15229
15221
15215
15253
15222
15206
15215
15413
15205
15195
15566
15207
15181
15179
15185
15363
15180
15165
15156
15172
15191
15139
15150
15632
15146
15131
15747
15139
15114
15110
15142
15113
15101
15097
15110
15450
15106
15087
15070
15092
15068
15062
15084
15312
15111
15076
15044
15054
15046
15062
15222
15055
15079
15031
15028
15012
15004
15011
15052
15199
15016
15012
14983
14979
14971
14978
15547
15015
15076
14978
14972
14951
14954
14944
14945
14927
14940
14926
14939
14932
14974
15047
14940
14932
14908
14912
14901
14915
14892
14932
15036
14905
14918
14859
14885
14873
14903
14873
14850
14911
14856
14845
14880
14915
14843
14844
15290
14868
14896
14844
14849
14818
14812
14793
14807
14796
14802
14788
14809
14877
14777
14783
14769
14787
15135
14788
14759
14750
14766
15288
14797
14855
14739
14745
14720
14736
14711
14727
14723
14726
14718
14721
14696
14741
14784
14708
14707
14686
14695
15013
14701
14674
14672
14685
14664
14707
14659
14651
14683
14722
14643
14647
15269
14671
14642
14614
14631
15172
14666
14667
14608
14620
15045
14616
14607
15004
14600
14586
14666
14612
14640
14584
14580
14564
14582
14556
14586
14797
14580
14548
14549
14568
14534
14529
14541
15071
14580
14633
14529
14513
14502
14511
14833
14522
14500
14477
14500
14488
14518
14484
14470
14486
14678
14492
14456
14441
14556
14453
14449
14491
14462
14436
14446
14431
14474
14556
14455
14427
14407
14424
14410
14422
14410
14447
14424
14410
14439
14510
14397
14411
14404
14442
14410
14391
14421
15006
14439
14461
14399
14399
14390
14388
14384
14396
14383
14398
14390
14393
14394
14388
14388
14392
14782
14429
14409
14389
14390
14958
14425
14449
14372
14396
14951
14408
14430
14376
14395
14377
14406
14470
14372
14369
14372
14377
14648
14382
14370
14370
14364
14356
14371
14358
14401
14504
14374
14351
14338
14370
14684
14394
14400
14340
14346
14340
14359
14436
14361
14353
14332
14383
14413
14354
14339
14328
14369
14375
14327
14330
14324
14367
14385
14323
14330
14310
14361
14342
14322
14314
14927
14353
14361
14306
14310
14293
14321
14657
14326
14310
14302
14325
14882
14317
14632
14328
14648
14299
14288
14337
14403
14298
14285
14271
14289
14769
14313
14411
14292
14282
14271
14260
14260
14263
14265
14260
14250
14269
14591
14282
14635
14285
14524
14289
14273
14240
14241
14239
14235
14223
14237
14220
14226
14224
14261
14612
14253
14335
14240
14288
14214
14208
14200
14209
14191
14204
14185
14199
14812
14221
14267
14189
14180
14180
14183
14161
14216
14417
14190
14169
14146
14172
14149
14166
14150
14181
14545
14181
14173
14135
14140
14133
14151
14678
14176
14201
14150
14128
14110
14105
14110
14102
14096
14119
14092
14111
14666
14136
14426
14123
14405
14127
14246
14101
14095
14051
14056
14057
14055
14044
14052
14046
14058
14572
14078
14101
14044
14028
14013
14033
14006
14050
14012
13998
14022
14156
14029
14001
13983
14001
14412
14004
13986
13964
13976
13966
13999
14535
14000
14029
13966
13955
13936
13945
13930
13958
14175
13944
13934
13919
13929
14374
13943
14212
13925
13899
13888
13902
13895
13921
14338
13931
13955
13894
13887
13870
13876
13878
13883
13861
13863
13860
13859
13846
13839
13841
13850
13831
13852
13835
13844
14296
13868
14148
13852
14402
13833
13805
13821
13804
13800
13786
13799
13794
13813
13788
13823
13940
13791
13778
13775
13799
13765
13821
13902
13811
13903
13799
13819
13777
13764
13741
13764
13753
13785
14222
13775
13865
13775
13769
13738
13740
13738
13751
13736
13779
13925
13743
13740
13717
13727
13706
13761
13739
13708
13727
14077
13736
13717
13708
13705
13699
13730
13797
13701
13703
13698
13727
13794
13697
13699
13796
13730
13726
13683
13693
14272
13726
13978
13698
13678
13670
13691
13823
13698
13691
13670
13679
13669
13702
13727
13654
13679
14070
13689
13665
13663
13674
13983
13679
13668
13654
13699
13697
13648
13661
14247
13686
13694
13655
13653
13664
13662
13642
13656
13650
13651
13644
13649
13663
13693
13686
13772
13676
13652
13645
13660
13640
13666
13643
13699
13734
13665
13662
13645
13643
13641
13661
14186
13678
13664
13644
13652
14127
13679
13738
13663
13662
13661
13671
13666
13805
13679
13686
13650
13651
13649
13655
13647
13653
13636
13658
13646
13684
13916
13694
13887
13671
13671
13663
13644
13650
13653
13641
13673
13926
13692
13652
13659
13651
13662
13671
13641
13670
13658
13684
13658
13649
13694
13843
13687
13669
13885
13661
13708
13674
14024
13676
13708
13669
13778
13675
13669
13705
13704
13677
13775
13681
13683
13719
13694
13684
13786
13686
13684
13721
13718
13690
13902
13697
13711
13714
13704
13762
13693
13697
13745
13722
13715
14279
13709
13727
13749
13718
13835
13704
13746
13770
13727
13761
14204
13719
13730
13766
13745
13778
13738
13763
13741
14294
13755
13761
13773
13754
13751
13735
13761
13917
13854
13775
13764
13777
13774
13949
13762
13804
13791
14327
13776
13797
13785
13783
13781
13805
13800
14230
13797
13839
13803
13900
13801
13847
13812
13993
13806
13844
13847
13819
14318
13825
13846
13842
13836
13846
13844
13878
13838
13873
13852
13877
13843
13871
13871
13858
14101
13864
13908
13874
13888
13859
13881
13896
13924
13927
13886
13885
13891
13908
13911
13904
14198
13900
13942
13924
13919
14436
13926
13934
13955
13933
13933
13983
13940
13938
13946
13988
13956
14153
13959
13996
13965
13990
13972
13989
13995
13973
14414
13989
14010
13982
14273
13994
14012
14015
14005
14474
13997
14038
14024
14014
14018
14034
14041
14042
14461
14036
14066
14054
14058
14057
14065
14082
14084
14408
14083
14119
14091
14522
14099
14143
14116
14300
14119
14177
14136
14559
14148
14161
14180
14575
14180
14197
14231
14190
14207
14216
14276
14223
14229
14270
14237
14494
14248
14276
14265
14352
14280
14301
14302
14309
14522
14305
14350
14322
14441
14332
14338
14365
14351
14348
14836
14455
14390
14395
14422
14394
14388
14414
14470
14423
14437
14476
14458
14440
14813
14493
14470
14497
14489
14479
14732
14496
14510
14538
14507
14848
14544
14544
14581
14553
14937
14549
14601
14583
14711
14572
14604
14596
14597
14637
14948
14617
14655
14637
14684
