EGG
42503
42503
42538
42580
42599
42612
42631
42631
42631
42647
42661
42671
42438
42612
42683
42695
42694
42605
42700
42695
42709
42622
42719
42745
42751
42746
42711
42663
42700
42695
42725
42759
42694
42705
42706
42727
42779
42758
42734
42749
42780
42831
42852
42847
42853
42503
42642
42632
42485
42679
42759
42706
42869
42899
42927
42940
42942
42948
42949
42958
42980
42981
42964
42900
42954
42982
42990
42996
43003
43013
43015
43015
43031
43028
43038
43047
43063
43063
43079
42844
42951
42815
42887
43056
43066
43029
43070
43119
43117
43132
43141
43143
43158
43157
43176
43181
43180
43181
43183
43197
43198
43200
43194
43203
43183
43237
43207
43172
43219
43238
43214
43270
43270
43271
43286
43295
43294
43298
43310
43255
43191
43023
43165
43175
43133
43006
43339
43343
43349
43366
43355
43302
43298
43322
43303
43319
43311
43343
43317
43343
43391
43443
43453
43460
43463
43477
43463
43476
43479
43471
43500
43503
43515
43517
43508
43527
43527
43548
43555
43527
43563
43557
43565
43527
43556
43583
43582
43549
43495
43527
43541
43526
43525
43556
43587
43614
43644
43655
43655
43591
43559
43473
43460
43246
43364
43415
43240
43684
43692
43713
43325
43621
43647
43679
43728
43676
43641
43599
43511
43527
43492
43399
43341
43360
43788
43807
43804
43807
43820
43815
43835
43837
43831
43766
43852
43863
43860
43822
43893
43906
43911
43908
43908
43927
43923
43911
43933
43928
43863
43873
43871
43814
43622
43554
43987
43974
43972
43991
44005
44007
44004
44012
44015
44033
44028
44039
44039
44039
44039
44039
43997
44092
44103
44100
44058
43962
43684
44132
44130
44131
44117
44121
44141
44150
44141
44120
44087
44100
44098
44110
44122
44129
44175
44148
44231
44239
44236
44250
44223
44253
44266
44228
44189
44204
44207
44219
44213
44213
44234
44239
44260
44279
44330
44343
44350
44366
44373
44381
44389
44390
44391
44398
44411
44406
44423
44433
44436
44445
44445
44463
44461
44475
44479
44485
44483
44491
44502
44510
44498
44519
44532
44535
44539
44543
44551
44551
44573
44579
44574
44594
44592
44606
44596
44610
44628
44621
44628
44639
44620
44564
44591
44591
44605
44667
44695
44688
44710
44710
44645
44639
44551
44411
44447
44635
44685
44709
44764
44782
44788
44804
44796
44804
44818
44837
44828
44839
44847
44855
44845
44862
44871
44860
44864
44859
44847
44837
44855
44852
44791
44710
44716
44489
44935
44929
44956
44960
44961
44975
44981
44979
44980
44983
44997
44997
45003
45008
45013
45012
45028
45034
45017
44990
45044
45073
45090
45075
45090
45100
45103
45085
45099
45083
45035
44967
45015
44975
45047
45047
44895
44931
44988
44928
45126
45167
45190
45202
45205
45221
45220
45231
45234
45236
45243
45252
45252
45266
45254
45261
45271
45287
45282
45287
45308
45311
45311
45310
45319
45252
45237
45319
45347
45333
45330
45348
45356
45367
44951
45255
45335
45372
45393
45423
45429
45430
45417
45431
45348
45340
45398
45449
45447
45447
45475
45471
45470
45468
45495
45495
45476
45404
45418
45431
45511
45436
45479
45485
45558
45471
45447
45506
45546
45551
45549
45539
45575
45575
45604
45607
45607
45107
45349
45575
45615
45628
45653
45661
45657
45670
45668
45668
45675
45611
45695
45693
45650
45703
45711
45686
45733
45687
45660
45655
45666
45764
45766
45775
45784
45792
45805
45801
45815
45797
45821
45815
45831
45831
45829
45831
45831
45797
45746
45807
45831
45855
45863
45868
45859
45851
45812
45861
45895
45908
45911
45940
45933
45949
45935
45951
45936
45901
45702
45679
45557
45743
45879
45831
45908
45819
45787
45876
45927
45975
46010
46023
46007
46009
46014
45988
46023
45999
46051
46069
46071
46077
46078
46066
46077
46087
46087
46081
46087
46001
46006
46012
45999
46116
46123
46131
46135
46136
46108
46059
46058
46050
46061
46069
46151
46166
46175
46183
46186
46180
46199
46199
46127
46199
46238
46172
46214
46210
46167
46244
46260
46230
45858
46248
46227
46244
46286
46284
46215
46274
46275
46179
46306
46288
45979
46306
46210
46334
45989
46222
46204
46287
46358
46335
46333
46246
46354
46327
46343
46265
46324
46371
46375
46340
46375
46388
46327
45841
46388
46343
46388
46423
46406
46415
46421
46401
46343
46434
46447
46453
46420
46403
45909
46447
46453
46438
46398
46463
46483
46487
46414
46479
46429
46508
46503
46279
46494
46506
46406
46519
46535
46507
46196
46519
46516
46533
46469
46554
46465
46004
46548
46558
46536
46463
46514
46578
46575
46589
46494
46165
46582
46570
46567
46567
46541
46599
46599
46460
46071
46623
46599
46579
46631
46599
46331
46609
46631
46630
46621
46587
46614
46661
46667
46421
46663
46648
46551
46678
46687
46484
46143
46664
46663
46566
46692
46711
46566
46688
46701
46599
46700
46716
46591
46695
46703
46599
46740
46646
46714
46703
46693
46734
46671
46727
46656
46749
46682
46743
46732
46754
46734
46746
46727
46695
46780
46676
46775
46759
46650
46775
46788
46645
46775
46777
46679
46775
46791
46454
46789
46767
46700
46803
46819
46269
46804
46703
46803
46825
46719
46807
46799
46742
46727
46820
46815
46279
46820
46778
46828
46850
46539
46834
46727
46855
46805
46831
46839
46789
46852
46855
46851
46831
46855
46842
46855
46852
46886
46359
46874
46756
46879
46894
46878
46862
46809
46902
46327
46874
46897
46893
46885
46892
46780
46911
46828
46886
46910
46798
46913
46935
46674
46911
46891
46914
46921
46591
46920
46854
46941
46810
46915
46919
46895
46956
46894
46936
46894
46951
46855
46954
46886
46943
46935
46379
46963
46871
46967
46777
46951
46939
46978
46951
46973
46940
46983
46951
46964
46967
46948
46997
46980
46979
46914
47015
46500
46983
46927
46999
46951
46999
46964
47027
47005
47006
46996
46940
47023
46817
47023
46918
47047
46533
46933
46983
46991
47031
47025
47059
47041
47041
47030
47054
47047
47039
47036
47066
46593
47047
46975
47079
46526
47063
46983
47102
47073
47063
47092
47070
46500
47079
47018
47103
46875
47083
47002
47111
47111
46533
47098
47051
47101
47111
47101
47063
47111
47055
47111
47035
47131
47122
47062
47135
46599
47111
47111
47163
46980
47143
47068
47183
46996
47143
47071
47175
47111
46599
47162
47066
47204
46734
47167
47190
46772
47180
47195
47151
47174
47095
47211
47199
47104
47205
46679
47175
47234
47214
47180
47235
46903
47178
47239
46662
47175
47246
47223
47205
47249
47111
47239
47134
47268
46918
47227
47135
47271
47138
47239
47254
47151
47268
47279
47137
47246
47260
47252
47287
47006
47263
47174
47288
47168
47271
47258
47271
47301
46919
47295
47287
47220
47287
47311
47275
46960
47295
47193
47326
47220
47314
47319
47198
47335
47316
46983
47324
47322
47335
47355
46967
47333
47290
47356
47351
46847
47345
47271
47356
47284
47356
47287
47367
47365
47335
47367
47391
46976
47383
47380
47335
47398
47380
47380
47390
47340
47412
47326
47402
47404
47348
47439
46846
47412
47422
47407
47439
47420
47436
47396
47429
47447
47459
47367
47452
47446
47463
47471
47398
47463
47486
47420
47405
47495
47447
47492
47444
47516
47468
47495
47500
47434
47535
47513
47527
47527
47455
47543
47461
47543
47542
47447
47574
47504
47543
47477
47576
47476
47566
47484
47591
47590
47255
47591
47572
47590
47623
47429
47599
47594
47519
47620
47573
47615
47614
47538
47597
47623
47623
47135
47639
47615
47651
47671
47623
47655
47599
47683
47359
47671
47692
47492
47686
47687
47694
47181
47695
47623
47716
47576
47719
47615
47742
47639
47727
47724
47741
47759
47516
47740
47668
47751
47699
47751
47747
47772
47783
47431
47772
47687
47799
47815
47544
47799
47735
47796
47815
47378
47799
47710
47815
47830
47332
47815
47732
47842
47823
47455
47852
47807
47836
47856
47759
47841
47839
47815
47879
47875
47807
47791
47852
47879
47870
47879
47846
47908
47379
47879
47807
47909
47918
47455
47922
47863
47919
47943
47815
47923
47935
47910
47843
47959
47900
47951
47942
47953
47980
47462
47959
47911
47998
47861
47974
47975
47977
47999
47981
47983
48000
47951
48002
47975
47999
48015
48007
48007
48007
48047
48020
47989
48044
47871
48036
47991
48055
47702
48051
47956
48076
47740
48055
48058
47894
48078
48007
48084
47665
48069
48084
48095
48090
48076
48090
48103
47600
48101
48102
48106
48109
48079
48132
48108
48127
48107
48127
48126
48135
48134
48049
48174
47991
48135
48135
48117
48177
48030
48150
48167
48079
48188
48162
47790
48181
48100
48198
48202
47687
48196
48108
48221
48158
48194
48188
48215
48237
47951
48225
48135
48233
48124
48237
48207
48246
48257
48235
48237
48245
48263
47761
48252
48231
48284
48259
48276
48277
48200
48295
47751
48276
48282
48268
48287
48263
48296
48135
48300
48294
48263
48310
48215
48310
48279
48323
48260
48341
48079
48334
48313
48359
47844
48335
48358
48295
48344
48263
48364
48028
48358
48291
48388
48046
48367
48390
48239
48364
48407
48039
48380
48404
48167
48386
48382
48387
48391
48303
48415
48407
48317
48452
48108
48375
48443
48439
48436
48263
48439
48455
48453
48433
48327
48455
48423
48452
48455
48391
48487
48085
48479
48476
48281
48476
48499
48455
48494
48469
48518
48500
48499
48495
48489
48485
48519
48446
48536
48503
48535
48540
48558
48374
48536
48564
48543
48536
48559
48565
48551
48567
48588
48446
48574
48558
48537
48588
48588
48569
48593
48551
48623
48165
48596
48612
48607
48608
48560
48636
48135
48607
48647
48290
48631
48647
48604
48647
48599
48682
48689
48412
48679
48580
48691
48383
48695
48644
48701
48706
48559
48687
48683
48711
48686
48710
48647
48729
48743
48732
48716
48705
48775
48503
48763
48667
48791
48613
48759
48767
48767
48775
48687
48798
48361
48788
48732
48836
48310
48804
48727
48829
48411
48821
48828
48830
48846
48810
48855
48826
48847
48827
48871
48868
48871
48825
48900
48684
48889
48831
48889
48927
48900
48924
48815
48951
48919
48916
48948
48965
48671
48932
48852
48974
48487
48966
48940
49004
48569
48991
48988
48984
48986
48999
49013
49023
49015
49018
48991
48999
48940
49047
49059
49068
49070
49064
48887
48631
49079
49079
49079
49063
49094
49087
49069
49082
49095
49111
49108
49114
49031
49071
49135
49140
49156
49149
49183
49183
49127
49143
49118
49127
49095
49028
49063
49076
49092
49156
49156
49189
49154
49140
49172
48996
49012
48790
48876
49238
49255
49244
49254
49255
49190
49170
49159
49159
49223
49198
49247
49295
49311
49324
49318
49316
49234
49244
48949
48719
49318
49339
49319
49351
49335
49252
49266
49359
49405
49237
49367
49382
49369
49384
49343
49276
49383
49415
49421
49436
49415
49383
49300
49303
49191
49295
49311
49071
49464
49477
49461
49367
49484
49533
49510
49116
49505
49511
49526
49447
49511
49551
49566
49495
49367
49414
48932
49549
49559
49570
49543
49476
49565
49607
49624
49639
49607
49644
49454
49347
49006
49639
49659
49653
49668
49655
49543
49671
49707
49708
49430
49692
49703
49705
49639
49692
49757
49759
49754
49615
49740
49751
49750
49759
49780
49764
49662
49791
49825
49834
49788
49263
49810
49827
49815
49839
49868
49888
49819
49863
49884
49887
49828
49819
49902
49927
49945
49927
49839
49363
49313
49927
49927
49951
49953
49961
49967
49969
49982
49986
49988
50004
49991
50015
50015
50007
50027
50044
50043
50055
50054
50023
50036
49998
49975
49959
50055
50119
50129
50138
50148
50135
50156
50158
50178
50181
50183
50180
50183
50206
50196
50214
50207
50212
50207
50108
49666
49689
50222
50230
50247
50243
50247
50254
50231
50145
50169
50247
50276
50299
50293
50311
50327
50337
50350
50367
50343
50274
50119
50275
50209
50119
49911
49789
49927
50053
50327
50371
50300
50292
50221
50235
50215
50250
50011
49758
50439
49852
49741
49766
50483
50487
50495
50487
50485
50392
50388
50394
50389
50411
50477
50535
50540
50562
50567
50567
50567
50581
50603
50587
50598
49881
50020
50615
50630
50238
50627
50684
50695
50692
50690
50686
50637
50581
50573
50695
50695
50663
50580
50599
50644
50606
50663
50757
50767
50796
50671
50047
50783
50764
50663
50788
50839
50836
50711
50141
50822
50275
50668
50791
50786
50718
50846
50791
50639
50526
50427
50900
50903
50911
50927
50935
50924
50872
50815
50965
50983
50997
50951
50629
50983
50991
51009
51013
50988
51013
51026
51039
51038
51055
51044
51052
51045
50935
50991
51024
51092
51109
51135
51133
51166
51156
51175
51167
51142
51113
50577
51172
51187
51186
51203
51207
51204
51207
51207
51207
51228
51239
51207
51140
51138
51175
51154
51207
51268
51303
51293
51324
51326
51353
51375
51367
51335
51284
51191
51228
51263
51164
51158
51303
51277
51399
51253
50927
51415
51421
51330
51462
51325
51454
51393
51463
51511
51476
51487
51372
51514
51520
51191
51516
51527
51500
51583
51406
51535
51482
51580
51541
51581
51588
51500
51629
51354
51615
51591
51520
51675
51668
50924
51657
51549
51711
51155
51687
51638
51719
51038
51695
51587
51764
51663
51742
51612
51783
51750
51746
51788
51815
51638
51799
51815
51763
51847
51092
51847
51719
51863
51831
51843
51750
51894
51708
51880
51879
51862
51948
51862
51910
51924
51895
51975
51439
51952
51940
51975
51962
51975
51988
51910
52044
51901
52022
51892
52039
52020
52039
52030
52055
52087
52062
52090
51966
52089
52147
51863
52103
52099
52019
52170
51975
52149
52063
52180
52199
51580
52188
52151
52215
52087
52215
52174
52231
52249
52231
52231
52231
52308
52284
52275
52301
52292
52351
52300
52308
52288
52359
52279
52343
52340
52251
52380
52422
51709
52391
52262
52411
52449
52215
52436
52415
52438
52509
52433
51754
52484
52472
52399
52533
52455
52509
52527
52408
52561
52583
52344
52569
52487
52583
52614
51960
52599
52535
52607
52659
51971
52644
52535
52663
52692
52527
52671
52645
52695
52743
52723
52725
52662
52772
52743
52679
52793
52815
52781
52695
52813
52637
52819
52695
52871
52452
52836
52799
52871
52924
52351
52908
52791
52932
52941
52725
52922
52844
52967
52980
52970
52972
52855
53020
52930
52998
52973
53029
53025
53038
53044
52981
53084
53058
53063
53092
52996
53111
53014
53156
53119
53140
53137
53161
53151
53175
53057
53181
53060
53228
52820
53231
53113
53255
53064
53255
53160
53300
53279
53255
53358
53119
53332
53215
53393
53351
53351
53268
53412
53229
53404
53364
53463
53420
53447
53486
53447
53485
53349
53511
53255
53510
53388
53559
53286
53567
53590
53601
53575
53480
53612
53598
53533
53661
53632
53569
53668
53723
53334
53694
53601
53748
53455
53751
53691
53764
53820
53668
53799
53807
53887
53825
53831
53735
53895
53223
53870
53919
53687
53912
53870
53975
53950
53959
53967
54023
53653
54012
53911
54071
54044
54045
54082
54116
54092
54023
54169
53629
54132
54041
54214
53767
54183
54103
54241
54108
54244
54125
54303
54271
54151
54335
54186
54326
54300
54362
54351
54375
54389
54332
54459
54249
54437
54437
54462
54490
53764
54508
54511
54428
54535
54599
53862
54586
54527
54615
54679
54644
54645
54644
54616
54724
54173
54708
54572
54740
54766
54751
54762
54791
54828
54669
54828
54751
54858
54883
54866
54887
54780
54919
54949
54948
54959
54954
55028
54454
55006
54892
55068
54572
55070
55031
55156
54663
55112
55132
55153
55167
55180
55070
55260
55212
55119
55286
54900
55271
55246
55358
54526
55303
55364
55270
55371
55239
55429
54988
55423
55303
55492
54671
55482
55361
55556
54951
55527
55508
55620
55249
55591
55547
55639
55639
55650
55655
55687
55747
55700
55719
55720
55797
55148
55783
55670
55847
55413
55839
55783
55885
55914
55894
55905
55815
55973
55963
55964
55994
55868
56032
56039
55755
55247
56062
56087
56070
56119
56164
56165
56197
56220
56223
56254
56277
56285
56126
55463
56292
56296
56323
56327
56359
56327
56234
56279
56417
56455
56478
56511
56516
56410
55867
56510
56527
56551
56556
56526
56465
56605
56646
56684
56703
56732
56727
56582
55924
56759
56759
56782
56807
56812
56830
56836
56839
56727
56901
56943
56961
56861
56181
56967
56993
56871
57028
57031
57087
57127
57095
56574
56451
57126
57144
57175
57191
57157
57089
57077
57135
57226
57276
57311
57351
57386
57415
57428
57439
57453
57447
57284
57020
57445
57475
57510
57402
57527
57565
57418
57576
57533
57479
57623
57687
57735
57742
57764
57781
57711
57711
57215
57172
57791
57812
57822
57844
57863
57894
57912
57887
57846
57808
57863
57950
58005
57980
58042
58047
58079
58101
58119
58142
58167
58229
58224
57796
58202
58199
58247
58215
58201
58309
58367
58359
58152
57585
58358
58396
58420
58446
58452
58364
58471
58534
58599
58600
58599
58546
58015
58607
58612
58641
58670
58588
58631
58748
58799
58774
58735
58759
58819
58830
58836
58844
58871
58745
58908
58967
59002
58998
58887
58740
59014
59039
59053
58943
58945
58959
59090
59174
59229
59247
59198
59086
59278
59140
58926
59256
59367
59317
59352
58455
59247
59375
59399
59487
59431
59436
59418
59482
59495
59514
59303
59053
59588
59631
59630
59655
59583
59527
59623
59767
59820
59847
59821
59141
58887
59823
59836
59871
59748
59886
59937
60023
59934
59140
59998
60028
59991
60031
60130
60100
59188
60131
60167
60164
60185
60199
60087
60260
60310
60359
60332
59437
60324
60351
60369
60389
60372
60284
60356
60471
60535
60548
60596
60574
60572
60559
60605
60596
60678
60660
60620
60551
60703
60748
60782
60807
60846
60863
60904
60908
60495
60876
60905
60932
60911
60838
61007
61038
61095
60420
61056
61095
61020
60954
61156
61224
61231
61239
61063
60422
61254
61271
61251
61191
61343
61358
61407
61447
61428
60821
61423
61447
61493
61487
61372
61391
61560
61598
61631
61672
61684
61703
61703
61265
61136
61727
61742
61740
61620
61816
61876
61861
61319
61861
61895
61879
61780
61920
62019
61943
61981
62010
62042
62039
61943
61927
62053
62127
62122
62178
62215
62276
62252
62223
61703
62240
62280
62243
62327
62396
62412
61854
62391
62431
62316
62469
62500
62470
62510
62372
62538
62596
62599
62518
62134
62615
62635
62503
62695
62714
62751
62772
62790
62727
62213
62796
62817
62837
62852
62820
62740
62895
62951
63005
63014
63020
62951
62628
63018
63045
63047
62935
63016
63135
63175
63207
63220
63107
62692
63228
63268
63239
63142
63301
63322
63358
63396
63239
63383
63412
63436
63350
63300
63479
63527
63538
63495
62996
63569
63604
63604
63495
63636
63676
63655
63196
63692
63580
63734
63789
63639
63799
63828
63831
63767
63748
63879
63903
63932
63892
63680
63965
63975
63943
63885
64030
64060
64068
63982
64103
64119
64135
64119
64005
64086
64205
64223
64245
64226
64334
64293
64308
64327
64357
64335
64334
64382
64415
64447
64455
64439
64919
64503
64519
64398
64460
64580
64587
64615
64630
64676
64927
64692
64711
64714
64737
64751
64750
64703
64671
64688
64734
64861
64900
64903
64930
64936
64980
64990
65007
65012
65031
64954
65072
65092
65119
65124
65148
65159
65188
65359
65190
65231
65188
65247
65396
65268
65279
65304
65319
65335
65351
65359
65356
65372
65407
65398
65409
65420
65436
65446
65452
65479
65487
65496
65511
65508
65511
65519
65511
65502
65508
65511
65511
65508
65500
65511
65524
65504
65498
65510
65519
65518
65505
65510
65511
65508
65511
65498
65510
65511
65511
65511
65509
65504
65517
65511
65510
65492
65494
65508
65534
65504
65519
65494
65508
65505
65524
65511
65510
65510
65511
65535
65509
65511
65517
65519
65510
65503
65503
65494
65508
65510
65503
65503
65510
65519
65511
65508
65500
65505
65495
65502
65493
65503
65505
65511
65519
65508
65510
65525
65511
65498
65509
65498
65511
65511
65511
65492
65502
65502
65511
65511
65511
65504
65508
65511
65519
65511
65504
65502
65507
65511
65503
65511
65508
65500
65502
65508
65519
65509
65511
65506
65505
65511
65502
65503
65511
65511
65510
65511
65510
65511
65500
65505
65510
65511
65506
65502
65508
65510
65519
65502
65506
65511
65511
65519
65519
65503
65502
65508
65511
65500
65511
65500
65511
65508
65496
65502
65508
65500
65511
65503
65510
65511
65511
65508
65506
65519
65508
65518
65527
65508
65508
65503
65502
65502
65499
65519
65503
65511
65509
65502
65508
65502
65493
65511
65511
65503
65517
65511
65501
65511
65500
65519
65511
65510
65524
65502
65504
65500
65511
65519
65519
65511
65508
65510
65511
65511
65511
65511
65492
65510
65518
65504
65519
65504
65509
65510
65509
65510
65505
65508
65511
65502
65519
65519
65506
65500
65511
65504
65509
65516
65511
65511
65509
65511
65511
65510
65510
65511
65508
65511
65503
65519
65494
65511
65508
65496
65519
65519
65511
65503
65510
65519
65511
65502
65500
65519
65511
65510
65511
65507
65516
65511
65518
65503
65509
65508
65508
65494
65511
65508
65511
65511
65508
65512
65514
65499
65508
65508
65502
65507
65515
65505
65519
65496
65511
65507
65511
65506
65519
65511
65519
65503
65511
65504
65519
65505
65511
65511
65527
65511
65500
65519
65510
65516
65508
65511
65511
65524
65510
65506
65511
65502
65517
65511
65519
65511
65510
65504
65518
65506
65510
65527
65508
65511
65511
65510
65518
65509
65508
65511
65502
65508
65498
65511
65502
65511
65511
65503
65517
65511
65500
65509
65517
65508
65511
65508
65510
65504
65505
65518
65508
65500
65519
65503
65508
65503
65511
65506
65519
65510
65516
65519
65508
65511
65511
65503
65502
65518
65519
65507
65516
65519
65508
65508
65511
65509
65508
65506
65506
65519
65511
65511
65527
65504
65508
65519
65511
65502
65511
65508
65508
65511
65505
65516
65511
65511
65505
65510
65519
65503
65504
65517
65511
65505
65498
65511
65500
65511
65500
65511
65511
65519
65511
65511
65508
65511
65511
65506
65504
65506
65511
65511
65516
65508
65511
65511
65497
65511
65511
65516
65511
65525
65509
65498
65527
65514
65511
65508
65508
65511
65511
65502
65527
65511
65508
65511
65511
65511
65508
65511
65503
65504
65517
65511
65511
65511
65508
65510
65503
65502
65508
65510
65511
65519
65508
65503
65509
65508
65511
65524
65511
65508
65511
65511
65509
65508
65511
65503
65508
65519
65502
65511
65509
65525
65518
65511
65516
65507
65518
65506
65519
65503
65511
65511
65510
65503
65519
65516
65510
65500
65519
65527
65511
65499
65511
65500
65513
65511
65519
65511
65511
65519
65503
65519
65518
65513
65511
65508
65505
65511
65511
65505
65510
65509
65507
65511
65503
65517
65519
65511
65517
65511
65527
65500
65508
65511
65504
65511
65500
65527
65510
65519
65511
65510
65502
65524
65511
65512
65508
65502
65519
65509
65527
65525
65496
65508
65517
65500
65503
65511
65518
65516
65511
65518
65511
65511
65511
65518
65505
65508
65535
65524
65508
65511
65509
65511
65519
65510
65519
65527
65500
65511
65510
65519
65511
65519
65511
65519
65511
65511
65518
65510
65510
65511
65502
65511
65508
65508
65503
65500
65495
65508
65514
65511
65527
65519
65513
65511
65527
65502
65492
65519
65510
65504
65511
65510
65500
65500
65519
65500
65498
65516
65494
65519
65517
65518
65518
65510
65507
65516
65510
65519
65519
65503
65496
65519
65504
65511
65509
65505
65508
65510
65511
65505
65511
65511
65503
65509
65507
65512
65511
65511
65527
65511
65511
65500
65510
65502
65516
65500
65496
65506
65519
65511
65527
65509
65516
65510
65511
65511
65519
65506
65500
65505
65508
65519
65519
65510
65503
65508
65519
65511
65502
65510
65508
65506
65511
65508
65511
65500
65502
65504
65519
65495
65497
65510
65516
65503
65511
65508
65507
65523
65505
65511
65511
65511
65495
65511
65500
65510
65511
65526
65511
65511
65511
65504
65506
65508
65511
65511
65511
65508
65519
65497
65519
65509
65519
65495
65511
65500
65510
65511
65519
65509
65511
65508
65510
65511
65519
65507
65508
65527
65502
65505
65511
65511
65500
65503
65519
65519
65519
65524
65509
65509
65508
65511
65519
65518
65506
65496
65511
65510
65525
65511
65516
65516
65511
65511
65519
65508
65501
65511
65506
65502
65508
65508
65516
65505
65511
65516
65508
65508
65519
65524
65508
65506
65511
65519
65511
65500
65511
65502
65516
65519
65511
65510
65511
65503
65507
65505
65504
65506
65516
65503
65511
65507
65502
65505
65503
65517
65511
65511
65508
65511
65510
65511
65511
65511
65514
65511
65506
65508
65511
65511
65516
65506
65508
65508
65511
65518
65503
65511
65508
65508
65505
65514
65524
65511
65509
65508
65506
65507
65519
65519
65511
65505
65527
65511
65505
65511
65509
65511
65519
65519
65502
65518
65497
65518
65504
65510
65509
65519
65509
65511
65517
65527
65510
65511
65506
65514
65503
65519
65508
65516
65511
65519
65510
65511
65510
65502
65503
65499
65511
65496
65511
65503
65510
65511
65508
65510
65496
65502
65511
65508
65511
65509
65505
65508
65508
65510
65511
65502
65519
65492
65508
65500
65511
65500
65503
65511
65511
65511
65511
65504
65516
65508
65511
65510
65509
65503
65510
65511
65511
65498
65510
65506
65511
65502
65509
65508
65511
65524
65519
65508
65506
65519
65508
65501
65508
65519
65511
65519
65508
65508
65511
65511
65511
65508
65511
65511
65511
65511
65502
65494
65504
65496
65511
65511
65496
65496
65500
65508
65500
65511
65511
65516
65511
65507
65502
65511
65511
65500
65511
65511
65508
65492
65518
65496
65511
65500
65500
65511
65511
65511
65507
65488
65502
65492
65494
65504
65511
65516
65519
65511
65511
65506
65508
65510
65501
65511
65503
65506
65505
65516
65511
65510
65500
65498
65502
65510
65519
65500
65511
65505
65511
65495
65508
65500
65501
65524
65502
65508
65519
65509
65516
65508
65511
65500
65511
65509
65511
65527
65503
65509
65509
65504
65525
65511
65511
65519
65498
65508
65504
65510
65492
65519
65495
65500
65511
65506
65493
65511
65511
65503
65510
65502
65511
65511
65511
65510
65511
65505
65511
65511
65504
65501
65508
65500
65498
65508
65519
65511
65511
65511
65511
65511
65511
65511
65506
65502
65510
65518
65496
65510
65496
65510
65510
65504
65519
65511
65511
65511
65511
65500
65511
65492
65511
65511
65509
65508
65511
65508
65517
65511
65516
65504
65488
65508
65508
65500
65511
65511
65516
65510
65506
65493
65516
65511
65502
65511
65508
65511
65511
65519
65508
65519
65511
65511
65511
65503
65511
65508
65496
65519
65500
65511
65502
65484
65479
65468
65452
65452
65453
65447
65437
65431
65428
65463
65415
65415
65385
65399
65383
65375
65378
65378
65360
65375
65356
65444
65343
65340
65318
65319
65306
65311
65319
65309
65286
65286
65250
65223
65222
65211
65244
65239
65239
65236
65234
65220
65211
65213
65220
65269
65413
65159
65159
65150
65159
65143
65031
65075
65108
65095
65114
65095
65092
65080
65068
65060
65031
65031
65023
65020
65015
65006
64996
65005
65031
65031
65287
64932
64935
64932
64916
64902
64892
64895
64743
64814
64855
64855
64839
64823
64821
64828
64804
64791
64775
64772
64980
64759
64742
64609
64631
64711
64705
64702
64703
64684
64671
64647
64647
64639
64638
64620
64614
64612
64607
64590
64567
64591
64559
64548
64540
64519
64508
64519
64487
64478
64515
64471
64913
64647
64706
64704
64428
64436
64423
64415
64389
64388
64351
64327
64212
64334
64348
64343
64327
64326
64292
64303
64290
64284
64252
64190
64102
64230
64234
64207
64207
64221
64191
64062
64183
64183
64068
64151
64134
64108
63947
64110
64087
64116
64084
63879
64076
64060
63932
64036
64007
64039
63998
63775
63996
63983
63967
63939
63959
63965
63724
63941
63940
63783
63924
63911
63911
63868
63742
63524
63852
63831
63839
63740
63687
63823
63796
63564
63783
63770
63679
63719
63743
63751
63519
63335
63726
63711
63687
63644
63495
63511
63646
63636
63658
63615
63293
63599
63591
63495
63589
63565
63047
63548
63530
63495
63488
63528
63348
63484
63477
63463
63312
63436
63471
63365
63413
63390
63238
63405
63415
62980
63357
63343
63167
63350
63324
63308
63300
63175
63265
63310
63148
63260
63263
63206
63134
63233
63239
62773
63199
63181
63053
63156
63196
63158
62451
63127
63110
63111
63057
62951
63066
63095
63095
62951
63022
63023
63012
62967
62831
62967
62983
63004
62910
62815
62471
62919
62913
62839
62788
62895
62922
62908
62850
62052
62837
62823
62798
62653
62799
62845
62775
61991
62773
62754
62759
62727
62581
62596
62719
62759
62727
62715
62471
61950
62639
62637
62631
62607
62580
62439
62517
62575
62611
62620
62599
62575
62511
61868
62507
62510
62471
62494
62326
62452
62447
62460
62463
62500
62455
61924
62388
62404
62388
62337
62214
62317
62343
62388
62385
62380
62103
61564
61409
62279
62247
62254
62242
62255
62215
62247
62215
62212
62200
62181
62159
62159
62172
62151
62149
62087
62084
62150
62180
62111
61749
62058
62058
62062
62055
62034
61872
62031
62070
62068
62020
61231
61959
61959
61959
61959
61951
61950
61935
61924
61919
61871
61759
61889
61893
61924
61941
61914
61895
61823
61430
60935
61798
61799
61783
61703
61620
61703
61769
61775
61782
61573
61703
61735
61716
61702
61687
61684
61599
61556
61656
61692
61688
61695
61601
61287
60668
61599
61575
61575
61575
61551
61543
61447
61428
61519
61532
61549
61543
61567
61546
61472
61012
61447
61447
61447
61369
61278
61359
61423
61475
61431
60807
61369
61361
61359
61334
61319
61282
61175
61303
61308
61319
61342
61340
61317
61254
60980
60391
61235
61223
61184
61044
61211
61221
61231
61136
60988
61198
61109
61087
61108
61108
61132
61151
61140
61002
60112
61038
61039
60984
60927
60868
60998
61025
61052
61029
60968
60629
60366
60023
60908
60914
60916
60898
60887
60866
60870
60857
60742
60799
60856
60862
60876
60839
60671
60399
60757
60743
60751
60767
60583
60700
60714
60756
60775
60703
60156
60652
60656
60657
60583
60484
60612
60623
60627
60647
60631
60633
60641
60647
60623
60621
60570
60140
59710
60487
60484
60476
60475
60469
60446
60455
60451
60351
60294
60364
60421
60445
60423
60071
60370
60358
60367
60355
60239
60295
60305
60335
60374
60340
60343
60351
60306
60228
60068
59557
60221
60227
60204
60199
60103
60207
60223
60247
60181
59953
59583
60116
60134
60119
60111
59996
60084
60124
60126
59884
60039
60055
60021
59911
60001
60060
60055
60053
60000
59521
59959
59969
59958
59911
59788
59892
59951
59958
59879
59719
59862
59871
59847
59736
59727
59903
59247
59815
59807
59796
59783
59687
59647
59684
59774
59753
59796
59783
59795
59711
59680
59559
58837
59679
59648
59669
59564
59502
59631
59649
59655
59655
59645
59525
59431
59293
59188
58671
58751
59540
59527
59527
59516
59368
59503
59526
59543
59386
58784
59462
59430
59428
59427
59392
59252
59271
59334
59397
59428
59430
59431
59399
59381
59373
59329
59319
59197
58516
59289
59280
59271
59266
59111
59252
59271
59274
59255
58492
59196
59184
59193
59190
59166
59015
59077
59142
59142
59141
59151
59161
59166
59070
58338
59079
59079
59079
59006
58917
59051
59071
59061
59047
59045
59039
59015
58972
58863
58799
58060
58932
58928
58919
58887
58882
58956
58941
58887
58207
58863
58844
58847
58844
58819
58823
58819
58835
58823
58830
58815
58759
58759
58740
58565
58471
58615
58596
58196
58682
58685
58676
58676
58663
58668
58631
58622
58628
58623
58603
58615
58592
58580
58550
58502
58430
58428
58407
58421
58447
58519
58503
58495
58477
58436
58374
58348
58330
58327
58309
58418
58449
58495
58468
58469
58451
58375
58247
57975
57719
58351
57575
57989
57943
58163
58083
57678
58287
58294
58279
58284
58257
58227
58158
58103
58111
58193
58215
58198
58095
58087
58049
58078
58058
58071
58087
58054
58117
58116
58119
58116
58117
58093
57972
58071
58063
58067
58049
58044
58038
58020
57903
57948
57958
57884
57941
57983
57976
57991
57982
57983
57927
57831
57708
57903
57895
57887
57818
57759
57878
57895
57905
57882
57479
57828
57831
57812
57768
57663
57727
57799
57823
57831
57693
57087
57743
57734
57735
57695
57703
57683
57631
57652
57636
57572
57558
57605
57644
57660
57655
57669
57684
57591
57066
57598
57591
57558
57479
57583
57599
57600
57598
57573
57501
57421
57095
56895
57476
57479
57479
57479
57479
57439
57399
57402
57319
57437
57453
57460
57468
57470
57444
57462
57447
57438
57416
57415
57398
57390
57338
57351
57351
57351
57351
57351
57341
57324
57299
57314
57295
57263
57091
56993
57223
57236
57134
57255
56938
56399
57198
57207
57180
57144
57203
57207
56924
57151
57140
57154
57127
57119
57083
57031
56983
57094
57111
57082
57093
57095
57070
57095
57087
57079
57076
57095
57095
57046
56990
56749
56484
57020
56999
56990
56883
56889
56839
56836
56876
56833
56940
56952
56959
56967
56965
56991
56967
56949
56583
56174
56888
56887
56903
56886
56839
56765
56871
56875
56901
56823
56415
56814
56820
56839
56806
56679
56684
56820
56839
56828
56319
56021
56775
56759
56761
56769
56759
56759
56631
56709
56766
56789
56778
56743
56656
56678
56693
56701
56630
56550
56609
56588
56598
56583
56576
56583
56620
56662
56660
56668
56679
56687
56620
56445
55769
56596
56607
56607
56615
56487
56583
56607
56599
56615
56615
56607
56615
56580
56186
56526
56532
56517
56501
56509
56511
56498
56447
56391
56492
56519
56533
56532
56517
56343
55654
56461
56476
56437
56454
56324
56423
56454
56487
56495
56460
56375
56279
56319
56405
56408
56408
56391
56356
56244
56353
56405
56423
56368
56357
56354
56356
56347
56263
56183
56263
56287
56311
56327
56327
56327
56357
56252
55921
56262
56276
56228
56124
56249
56252
56039
56244
56189
56270
55766
55559
56199
56213
56198
56172
56063
56186
56212
56130
55335
56156
56156
56030
56052
56087
56135
56140
56160
56180
56175
56047
55267
56095
56092
56090
56094
56071
56052
55943
56068
56095
56103
56116
56108
56103
56022
55876
56020
55943
55886
56022
56031
56071
56046
55894
55559
55967
55965
55975
55964
55871
55966
55989
55978
55966
55943
55931
55919
55940
55964
55975
55943
55716
55249
55175
55590
55687
55440
55035
55868
55891
55876
55878
55871
55868
55766
55774
55847
55854
55858
55863
55863
55878
55887
55761
55253
55802
55804
55807
55804
55809
55735
55767
55807
55815
55719
55140
55055
55759
55759
55756
55740
55724
55739
55743
55743
55742
55735
55704
55654
55620
55582
55559
55559
55646
55695
55711
55717
55718
55737
55741
55719
55719
55711
55502
55101
54869
55231
55647
55636
55613
55600
55489
55653
55671
55629
55146
55607
55535
55616
55631
54911
55588
55569
55576
55578
55570
55556
55556
55550
55543
55500
55477
55501
55543
55557
55582
55572
55487
55558
55455
55191
55396
55287
54916
55483
55500
55486
55431
55351
55462
55487
55490
55512
55526
55067
55447
55367
55466
55423
54645
55431
55427
55292
55446
55468
55396
54689
55390
55398
55367
55390
55415
55431
55399
54830
55383
55375
55356
55280
55210
55335
55356
55403
55207
55332
55332
55222
55303
55359
55375
55364
55364
55341
55317
55199
54782
55295
55276
55295
55272
55281
55279
55264
55251
55260
55267
55246
55268
55270
55247
55245
55239
55239
55239
55188
55108
55079
55120
55234
55251
55236
55230
55249
55244
54951
55174
55175
55175
55164
55156
55044
55028
55093
55063
55157
55203
55180
55172
55132
55116
55135
55095
55038
55108
54964
54903
54957
54764
54677
54660
54534
54502
54257
55068
55047
55047
55057
55060
55077
55015
54943
55047
55079
55081
55077
55047
54989
55014
55015
54996
55047
54999
54991
54935
55014
54983
54975
54980
54975
54847
54830
54951
54983
54997
55011
54981
54974
54903
54492
54206
54916
54933
54919
54919
54879
54852
54791
54764
54791
54791
54781
54823
54871
54877
54860
54870
54791
54815
54854
54872
54886
54812
54623
54018
54791
54791
54808
54791
54812
54791
54791
54791
54785
54788
54780
54772
54774
54755
54743
54740
54751
54743
54759
54743
54652
54631
54616
54601
54628
54719
54722
54738
54735
54740
54730
54679
54575
54663
54681
54663
54668
54567
54610
54687
54693
54679
54695
54671
54494
54060
54070
54612
54614
54615
54597
54593
54588
54580
54579
54588
54582
54555
54535
54527
54503
54453
54431
54407
54407
54477
54526
54519
54486
54471
54420
54387
54356
54363
54359
54342
54350
54407
54357
54438
54472
54468
54465
54420
54460
54447
54455
54444
54471
54445
53615
53586
53719
53943
54219
54191
53827
53639
54375
54375
54364
54363
53834
53740
53758
53935
54356
53844
54326
54324
54338
54327
54311
54306
54327
54311
54221
54204
54253
54166
54151
54151
54222
54223
54214
54147
54247
54257
54252
54255
54247
54239
54238
54239
54223
54238
54223
54191
54082
54071
54092
54119
54189
54213
54199
54204
54209
54207
54184
54196
54199
54214
54207
54022
53371
54142
54140
54124
53991
54132
54167
54103
53684
54119
54102
54054
53988
54116
54132
54060
53284
54068
54075
54077
54071
54022
53921
53932
54047
54060
54079
53479
54023
54042
54014
53950
54023
54023
54054
54046
53959
53982
53767
53399
53980
53980
53972
53845
53933
53983
53983
54005
54003
53959
53916
53824
53876
53786
53767
53739
53572
53895
53895
53916
53927
53901
53898
53884
53814
53836
53895
53930
53910
53652
53069
53871
53868
53815
53719
53847
53879
53871
53847
53700
53882
53837
53579
53829
53822
53791
53671
53788
53815
53814
53836
53831
53831
53816
53822
53767
53740
53543
53151
53766
53762
53767
53767
53755
53378
53412
53559
53621
53623
53383
53415
52965
53704
53718
53708
53711
53711
53708
53693
53668
53575
53558
53565
53684
53703
53726
53674
53028
53648
53648
53642
53540
53536
53655
53669
53620
53364
52996
53609
53607
53612
53600
53604
53462
53524
53593
53612
53631
53612
53522
53383
53076
52927
53534
53548
53559
53539
53535
53511
53511
53470
53402
53419
53439
53511
53511
53511
53508
53479
53426
53316
53335
53418
53399
53437
53332
53255
53405
53210
52919
53447
53443
53428
53436
53419
53303
53399
53428
53447
53448
53439
53228
52999
52967
52778
53102
52898
52632
52903
52743
53348
53351
52590
52643
53348
52629
52828
53332
53319
53327
53311
53294
53231
53191
53175
53220
53285
53300
53324
53340
53319
53223
52655
53287
53278
53255
53268
53255
53215
53134
53110
53210
53255
53255
53279
53255
53237
52996
53216
53207
53223
53206
53214
53199
53187
53068
53215
53228
53183
53188
53095
53213
52895
53159
53048
53189
53149
53164
53148
53057
53183
52437
53124
53087
53164
53116
53078
53141
52836
53100
53079
53151
53092
52999
53141
53100
52966
53127
53087
52951
53108
52519
53063
53071
53079
53060
52991
53076
53036
52935
53084
53023
53018
53058
52876
53019
52967
53028
53012
52931
53028
52778
52983
52916
53038
52975
52989
52985
52975
52972
52961
52991
52966
52852
52999
52695
52964
52903
52996
52198
52927
52941
52816
52927
52838
52971
52903
52909
52957
52910
52879
52887
52900
52887
52893
52894
52847
52887
52788
52919
52878
52817
52881
52775
52860
52773
52871
52777
52849
52852
52871
52837
52815
52839
52599
52828
52680
52862
52591
52815
52786
52797
52838
52103
52790
52807
52782
52780
52716
52831
52732
52775
52775
52782
52797
52002
52743
52774
52743
52743
52717
52743
52767
52743
52732
52741
52780
52508
52732
52695
52711
52775
52301
52721
52580
52727
52711
52705
52694
52703
52687
52685
52706
52692
52671
51948
52647
52678
52719
52172
52655
52615
52684
52696
51908
52637
52519
52662
52677
52256
52631
52633
52674
52103
52615
52519
52639
52649
52608
52484
52652
52613
52559
52615
52420
52596
52526
52636
51959
52580
52596
52447
52587
52483
52610
52573
52582
52572
52588
52550
52511
52575
52543
52551
52452
52588
52103
52543
52516
52575
52544
52526
52540
52524
52524
52476
52534
52564
52519
52500
52439
52541
52500
52487
52487
52510
52484
52487
52487
52476
52471
52455
52395
52380
52471
52487
52515
52500
52487
52479
52462
52343
52004
51775
52449
52461
52323
52423
52487
52463
52148
52445
52418
52460
52447
52437
52343
52231
52103
52407
52421
52421
52302
52423
52412
52438
52423
52327
51830
51687
52391
52391
52388
52359
52316
52367
52415
52399
52263
51719
52358
52373
52278
52324
52364
52391
52380
52380
52031
52351
52332
52231
52327
52367
52340
52194
52023
51934
52311
52343
52327
52324
51911
52045
52303
52317
52324
52294
52207
52286
52327
52327
52327
52194
51762
52277
52287
52286
52263
52255
52305
51599
52283
52231
52223
52294
52300
52311
52207
51575
52246
52247
52132
52268
52280
52207
51588
52231
52255
52207
52212
52284
52231
51759
52223
52231
52199
52116
52220
52270
52231
51747
52199
52221
52095
52218
52231
52231
51524
52194
52199
52083
52230
52231
52057
52179
52188
52124
52190
52223
52140
52184
52195
52175
52119
52079
52180
52180
52183
52215
52192
52068
51807
52161
52164
52079
52127
52172
52189
51766
52143
52140
52039
52151
52167
51951
52132
52148
52135
52135
52012
52133
52159
52133
52127
52127
52111
52111
52006
52063
52127
52132
52132
52132
52143
52127
52103
52124
51484
52044
51783
52039
52069
52100
52039
52129
51487
52064
52127
51428
52079
52108
52085
52111
52079
52086
52087
52092
52073
52115
51998
52047
52062
51948
52103
52055
51975
52094
51636
52036
52071
51706
52067
52055
52053
52046
51935
52066
51430
52031
52063
51455
52028
52060
51559
52022
52046
51900
52010
52037
51932
52039
52031
51975
52023
51975
52038
51807
52007
52034
52013
51887
52036
52015
51903
52038
51998
51989
51943
51996
52007
51677
51956
52018
51990
51924
52020
51975
51948
51938
51975
51870
52020
51405
51959
51975
51687
51959
51958
51942
51951
51854
51975
51942
51847
51973
51364
51926
51814
51964
51932
51878
51949
51246
51876
51956
51518
51906
51895
51916
51197
51790
51838
51828
51807
51879
51895
51318
51822
51895
51414
51847
51862
51836
51839
51772
51879
51424
51764
51861
51839
51783
51860
51391
51799
51840
51151
51796
51822
51719
51788
51774
51792
51803
51743
51804
51772
51678
51810
51775
51758
51799
51447
51759
51663
51780
51746
51654
51771
51156
51703
51745
51742
51719
51679
51718
51644
51707
51613
51718
51711
51694
51580
51719
51687
51672
51687
51573
51668
51679
51009
51628
51678
51644
51631
51669
51487
51620
51605
51636
51623
51514
51642
51265
51542
51623
51486
51604
51548
51591
51583
51471
51588
51572
51463
51612
51559
51447
51045
51567
51550
51551
51543
51575
51530
51558
51533
51559
51516
51535
51507
51534
51499
51531
51490
51511
51463
51428
51498
51004
51460
51458
51484
50774
51438
51456
51457
51431
51434
51431
51353
51412
51351
51439
51362
51385
51375
51390
51387
51368
51370
51255
51315
51373
51359
50816
51346
51333
51224
51332
51364
51236
50823
51302
51291
51287
51265
51175
51207
51292
51300
51301
51246
51259
51247
51239
51143
51255
51141
51207
51207
51183
51178
51228
51196
50613
51183
51180
51175
51062
51134
51151
51179
50967
50466
51127
51111
51028
51119
51135
51111
50734
51087
51077
51047
51006
51079
51069
51055
51079
51015
50519
51014
51015
50999
50878
50999
51002
50999
50892
50382
50951
50964
50951
50932
50839
50919
50935
50947
50852
50893
50807
50899
50902
50895
50903
50868
50756
50839
50836
50823
50719
50823
50835
50820
50818
50820
50764
50367
50751
50743
50736
50718
50619
50746
50751
50695
50631
50727
50460
50663
50607
50676
50671
50671
50660
50645
50620
50501
50179
50070
50597
50593
50583
50580
50524
50478
50492
50567
50543
50108
50499
50481
50515
50503
50484
50382
49807
50452
50387
50457
50468
50218
50405
50401
50365
50324
50400
50399
50335
50303
50339
50308
50267
50339
50340
50278
49879
50263
50234
50244
50285
50223
50115
49917
50197
50203
50183
50094
50159
50180
50183
49863
50129
50124
50086
49994
50119
50119
50095
49927
50055
50037
50039
49946
49916
49911
49999
50007
49999
49767
49333
49927
49943
49911
49889
49830
49855
49900
49903
49877
49823
49471
49831
49825
49821
49791
49756
49814
49821
49689
49287
49103
49727
49732
49700
49693
49671
49575
49612
49662
49665
49654
49647
49535
49030
49599
49575
49460
49559
49573
49519
49223
49519
49502
49486
49386
49474
49495
49430
49269
49095
49404
49399
49390
49380
49372
49271
49327
49340
49335
49292
49155
48663
49271
49258
49239
49226
49183
49100
49210
49199
49195
49044
48871
49135
49122
49119
49095
49066
48996
48956
48974
49060
49025
49031
49031
48938
48789
48962
48947
48926
48924
48879
48839
48823
48878
48887
48847
48479
48809
48818
48670
48746
48783
48783
48736
48285
48710
48693
48573
48711
48605
48647
48637
48507
48612
48615
48607
48551
48343
47942
48527
48503
48462
48367
48487
48455
48418
48198
48412
48405
48388
48367
48260
48350
48335
48156
48316
48283
48255
48248
48230
48181
48231
48225
48216
48102
47663
48148
48124
48068
48127
48080
48030
48083
47735
48030
47958
48036
47551
47970
47911
47973
47695
47935
47824
47919
47332
47852
47844
47828
47822
47732
47800
47453
47751
47744
47701
47718
47708
47665
47689
47111
47636
47524
47623
47238
47568
47566
47545
47538
47403
47526
47174
47468
47463
47294
47430
47387
47407
47374
47346
47367
47111
47321
47303
47097
47279
47156
47271
46967
47199
47151
47201
46959
47132
47028
47111
47087
47079
47051
47061
47055
46735
47005
46881
46981
46807
46934
46836
46905
46895
46767
46864
46517
46825
46821
46746
46788
46721
46743
46727
46637
46699
46463
46669
46652
46599
46618
46599
46484
46581
46566
46375
46516
46503
46353
46468
46457
46127
46396
46396
46132
46364
46343
46343
45769
46296
46191
46263
45799
46225
46222
46039
46164
46095
46138
46103
46062
46079
45644
46020
46034
45990
45932
45972
45422
45917
45913
45851
45868
45855
45777
45800
45755
45774
45746
45751
45204
45605
45682
45669
45559
45639
45151
45575
45575
45514
45527
45410
45505
45063
45430
45439
45286
45390
45383
45119
45319
45306
45277
45293
45159
45270
44797
45199
45137
45159
45157
45044
45099
45092
44967
45058
45038
44916
44991
44980
44871
44949
44831
44900
44875
44862
44844
44756
44717
44797
44757
44351
44701
44708
44662
44603
44666
44631
44295
44596
44551
44447
44497
44524
44511
44435
44118
44441
44404
44389
44348
44263
44325
44331
44317
44295
44276
44263
44226
44163
44015
43807
44139
44114
44099
44077
44052
44033
43943
43930
43983
43974
43953
43935
43885
43761
43855
43839
43815
43799
43760
43709
43655
43655
43671
43607
43603
43639
43614
43463
43267
43554
43526
43509
43399
43476
43463
43439
43399
43213
43063
43343
43316
43311
43270
43217
43183
43221
43207
43196
43156
43095
43015
42757
42671
43061
43028
43015
42985
42928
42873
42916
42939
42887
42855
42642
42818
42807
42783
42703
42654
42734
42692
42692
42575
42423
42597
42599
42567
42498
42503
42524
42491
42407
42437
42410
42339
42367
42372
42324
42055
42303
42259
42244
42223
42205
42118
42068
42068
42036
42004
42039
42044
42042
41979
41680
41973
41940
41924
41895
41867
41856
41782
41730
41806
41783
41750
41679
41404
41679
41653
41628
41597
41558
41479
41496
41530
41514
41479
41470
41438
41375
41259
41142
41345
41319
41292
41269
41252
41167
41163
41127
41087
41091
41063
41101
41087
41071
41044
41015
40981
40901
40839
40681
40895
40876
40839
40831
40749
40791
40774
40757
40711
40647
40535
40455
40431
40364
40276
40553
40535
40508
40500
40430
40390
40437
40407
40345
40348
40327
40293
40221
40263
40255
40227
40151
40045
40142
40127
40085
40038
40076
40036
39957
39726
39970
39943
39871
39916
39871
39815
39687
39595
39781
39754
39733
39679
39631
39617
39655
39638
39595
39551
39467
39527
39505
39478
39455
39387
39407
39412
39377
39235
39312
39304
39284
39207
39249
39223
39136
39155
39136
39098
39034
39080
39037
38965
38882
38767
38940
38919
38892
38839
38887
38836
38747
38520
38773
38747
38663
38711
38663
38558
38346
38599
38572
38518
38543
38528
38479
38324
38447
38429
38375
38388
38367
38294
38151
38276
38247
38231
38179
38197
38167
38119
38046
37895
38079
38039
38021
38007
37973
37940
37895
37871
37831
37871
37839
37806
37700
37511
37726
37708
37695
37660
37613
37590
37615
37590
37556
37529
37495
37455
37357
37289
37407
37383
37364
37302
37287
37292
37268
37207
37135
36964
37159
37137
37099
37066
37051
37081
37034
37008
36979
36890
36935
36909
36871
36821
36852
36817
36740
36763
36748
36711
36683
36652
36636
36647
36599
36556
36413
36529
36503
36477
36445
36461
36410
36327
36188
36348
36314
36295
36267
36227
36238
36210
36181
36087
35936
36101
36092
36065
36047
35988
35999
35975
35934
35820
35897
35867
35845
35814
35826
35799
35727
35615
35715
35695
35643
35655
35606
35575
35517
35363
35519
35510
35463
35478
35407
35407
35383
35335
35360
35308
35247
35269
35240
35239
35215
35150
34951
35133
35097
35073
35084
35047
35004
34900
34767
34943
34918
34893
34903
34863
34794
34814
34783
34738
34753
34719
34581
34671
34652
34617
34626
34589
34532
34436
34511
34490
34471
34455
34413
34372
34383
34358
34324
34243
34143
34258
34234
34207
34188
34175
34148
34142
34103
34023
33903
34036
33999
34003
33948
33781
33900
33884
33871
33871
33830
33775
33692
33759
33759
33655
33543
33670
33647
33637
33610
33575
33582
33543
33495
33399
33469
33439
33431
33396
33398
33325
33191
33308
33287
33268
33253
33183
33076
33179
33149
33134
33110
33097
33053
32965
33015
32990
32969
32948
32948
32900
32853
32727
32833
32820
32775
32775
32754
32725
32644
32580
32639
32621
32608
32584
32554
32557
32534
32485
32439
32356
32422
32404
32367
32346
32318
32299
32279
32244
32215
32209
32190
32167
32137
32105
32055
31983
32039
32017
31991
31970
31943
31931
31892
31823
31847
31829
31806
31791
31719
31599
31706
31682
31652
31528
31617
31590
31510
31532
31522
31494
31482
31444
31399
31364
31255
31359
31331
31303
31286
31218
31110
31223
31203
31178
31143
31027
31103
31072
31054
30981
30999
30982
30967
30870
30910
30892
30883
30727
30821
30758
30778
30779
30724
30631
30679
30666
30645
30577
30589
30565
30538
30525
30471
30370
30446
30432
30425
30377
30308
30341
30311
30287
30279
30247
30228
30173
30169
30160
30132
30117
30095
30051
30033
30013
29996
29974
29955
29925
29905
29894
29868
29837
29813
29799
29740
29755
29725
29697
29680
29660
29619
29612
29598
29559
29543
29527
29511
29447
29452
29442
29397
29380
29375
29338
29319
29301
29253
29255
29239
29184
29180
29154
29142
29118
29099
29087
29031
29031
29015
28964
28967
28943
28919
28896
28874
28859
28835
28791
28795
28755
28740
28722
28691
28670
28661
28629
28618
28587
28548
28538
28519
28503
28482
28447
28423
28412
28376
28373
28348
28314
28291
28263
28241
28227
28209
28199
28159
28132
28112
28097
28071
28043
28038
28013
27980
27956
27940
27911
27899
27871
27854
27823
27815
27797
27756
27740
27717
27686
27668
27655
27624
27614
27594
27571
27545
27527
27502
27472
27439
27423
27411
27390
27372
27353
27325
27299
27279
27254
27234
27200
27191
27172
27137
27132
27109
27083
27070
27000
27015
27008
26964
26951
26930
26917
26887
26870
26831
26820
26799
26783
26748
26739
26730
26720
26655
26631
26622
26604
26575
26563
26556
26503
26487
26470
26448
26429
26420
26419
26357
26334
26319
26311
26311
26246
26231
26214
26211
26219
26140
26118
26091
26071
26056
26037
26027
26004
26007
26006
25930
25910
25887
25859
25847
25823
25837
25778
25750
25737
25716
25694
25674
25650
25647
25633
25531
25558
25538
25533
25506
25473
25468
25441
25444
25461
25364
25338
25326
25308
25293
25270
25262
25255
25262
25180
25161
25138
25129
25103
25124
25044
25029
25018
24991
24981
25014
24916
24916
24894
24866
24860
24882
24793
24779
24759
24750
24718
24700
24685
24719
24619
24605
24583
24577
24562
24527
24509
24524
24447
24430
24423
24410
24379
24359
24357
24388
24280
24279
24255
24239
24223
24197
24188
24260
24124
24105
24092
24077
24106
24015
23999
23974
23970
23952
23919
23912
23887
23889
23917
23882
23784
23776
23772
23748
23779
23690
23679
23660
23633
23621
23639
23571
23544
23543
23512
23502
23521
23559
23421
23420
23394
23363
23368
23361
23298
23295
23321
23247
23228
23199
23193
23175
23159
23231
23111
23099
23070
23061
23127
22994
22983
22977
22951
22935
22951
22991
22863
22836
22831
22821
22799
22791
22858
22729
22711
22705
22668
22694
22615
22608
22604
22581
22561
22618
22679
22489
22485
22468
22447
22420
22404
22400
22511
22326
22324
22330
22289
22272
22254
22308
22377
22185
22169
22159
22142
22119
22103
22175
22055
22023
22031
22015
21983
21994
21929
21935
21918
21879
21886
21863
21820
21835
21837
21750
21764
21881
21730
21888
21687
21730
21642
21642
21679
21587
21578
21630
21538
21525
21533
21479
21466
21466
21423
21430
21398
21438
21368
21339
21308
21308
21478
21303
21286
21236
21219
21351
21180
21162
21135
21136
21315
21098
21068
21202
21041
21034
21207
20983
20981
20955
20938
20983
20899
20884
21073
20865
20839
20803
20818
20788
20754
20766
20742
20702
20718
20733
20666
20655
20707
20606
20596
20639
20550
20548
20658
20507
20496
20527
20455
20453
20486
20395
20412
20521
20351
20351
20383
20301
20308
20319
20259
20263
20286
20212
20209
20229
20164
20154
20129
20135
20268
20079
20083
20064
20022
20036
20020
19985
19970
20003
19934
19931
19983
19892
19881
19991
19828
19828
19924
19790
19783
19997
19776
19735
19704
19725
19695
19659
19678
19639
19621
19617
19590
19586
19552
19560
19543
19747
19519
19494
19559
19449
19449
19574
19415
19393
19365
19383
19403
19321
19326
19317
19274
19282
19249
19224
19241
19243
19183
19178
19406
19164
19137
19095
19100
19076
19058
19057
19029
19023
18979
19002
18974
18935
18951
18932
18888
18891
18865
18930
18828
18827
18833
18772
18775
18803
18719
18744
18727
18679
18673
18713
18636
18633
18614
18578
18606
18574
18538
18556
18551
18496
18506
18498
18454
18457
18427
18689
18414
18383
18567
18356
18335
18571
18321
18285
18273
18273
18247
18215
18238
18189
18169
18189
18169
18128
18151
18112
18087
18086
18068
18295
18047
18022
18222
17999
17981
18158
17965
17933
18212
17911
17892
18143
17889
17900
17843
17820
17796
17799
18076
17799
17788
17722
17738
17841
17709
17683
17658
17671
17675
17621
17615
17580
17583
17615
17574
17541
17514
17514
17629
17479
17471
17633
17455
17426
17406
17407
17661
17401
17495
17369
17343
17312
17329
17343
17269
17278
17245
17258
17397
17236
17235
17168
17192
17294
17143
17119
17366
17118
17089
17074
17085
17071
17023
17028
17173
16994
16990
17008
16938
16950
17039
16911
16909
17077
16884
16867
17171
16859
16863
16807
16806
16852
16775
16766
16928
16751
16731
16697
16694
16744
16667
16660
16635
16658
16635
16587
16590
16895
16593
16592
16535
16527
16509
16519
16550
16470
16465
16454
16455
16433
16414
16407
16488
16361
16387
16359
16330
16353
16343
16295
16316
16295
16255
16275
16249
16561
16247
16221
16180
16199
16239
16158
16152
16122
16142
16130
16087
16106
16087
16047
16068
16039
16117
16009
16006
16037
15972
15990
15951
15934
15935
15927
15986
15888
15911
15877
16197
15846
15844
16056
15808
15807
15860
15769
15783
15764
15727
15741
15943
15739
15695
15673
15697
15739
15648
15640
15725
15610
15607
15782
15591
15572
15555
15565
15541
15868
15521
15503
15477
15504
15609
15460
15452
15649
15434
15406
15559
15376
15377
15713
15372
15349
15329
15338
15399
15305
15286
15276
15289
15302
15236
15248
15388
15234
15207
15509
15203
15171
15152
15157
15343
15142
15126
15094
15099
15196
15069
15067
15157
15042
15038
15182
15017
15006
15274
14999
14966
14949
14982
14947
14930
14931
15089
14900
14891
14881
14881
14849
14846
14843
14826
14804
14822
14791
14775
14808
14761
14766
14764
14799
14724
14717
14693
14711
14724
14660
14662
14703
14631
14652
14730
14609
14610
14975
14605
14591
14558
14587
14573
14534
14551
14595
14494
14506
14639
14482
14477
14488
14441
14452
14434
14415
14425
14481
14397
14390
14558
14367
14357
14660
14340
14332
14597
14299
14329
14299
14266
14297
14250
14577
14257
14239
14210
14238
14206
14190
14206
14198
14155
14188
14165
14132
14150
14294
14152
14105
14110
14079
14088
14063
14078
14084
14034
14042
14194
14030
14019
14282
14009
13980
13972
13975
13949
13983
13943
13932
13950
13960
13904
13903
14123
13901
13880
13864
13891
13868
13826
13869
13823
14002
13802
13814
13794
13760
13803
13773
13749
13778
13750
13725
13758
13719
13708
13737
13703
13685
13706
13674
13958
13645
13684
13639
14018
13650
13622
13606
13606
13946
13606
13581
13566
13592
13552
13548
13566
13595
13519
13532
13566
13508
13492
13487
13496
13469
13457
13498
13524
13445
13446
13428
13454
13433
13402
13438
13396
13393
13414
13391
13367
13376
13368
13352
13363
13341
13329
13361
13320
13308
13342
13319
13284
13297
13673
13287
13260
13258
13275
13306
13230
13239
13580
13235
13213
13201
13215
13355
13207
13187
13173
13169
13391
13160
13156
13136
13134
13140
13189
13115
13138
13140
13088
13119
13113
13078
13104
13092
13062
13075
13351
13052
13031
13022
13057
13024
13015
13027
13103
13003
12989
13362
13029
12983
12963
12994
12960
13078
12967
12940
12926
12955
12930
12909
12937
12923
12917
12921
12913
13131
12911
12885
12866
12908
12860
12855
12870
12849
13223
12851
12824
13154
12807
12846
12820
12796
12839
12799
13123
12790
12779
12767
12804
12820
12759
12748
13132
12759
12737
12944
12720
12741
12767
12701
12717
12945
12703
12707
12860
12675
12680
12740
12668
12678
12658
12651
12673
12633
12638
12650
12625
12618
12638
12876
12615
12609
12597
12622
12638
12581
12607
12606
12573
12583
12710
12568
12569
12742
12539
12538
12529
12560
12519
12890
12533
12519
12902
12544
12512
12487
12521
12481
12847
12485
12483
12459
12472
12470
12567
12450
12470
12452
12437
12454
12434
12546
12416
12449
12413
12405
12435
12405
12663
12386
12409
12393
12364
12393
12380
12624
12358
12371
12373
12344
12371
12339
12330
12366
12333
12326
12348
12325
12559
12316
12318
12559
12302
12311
12551
12293
12292
12301
12265
12274
12273
12267
12251
12292
12303
12246
12252
12315
12227
12253
12349
12231
12220
12205
12228
12471
12222
12209
12336
12195
12201
12310
12187
12195
12255
12161
12181
12186
12174
12191
12155
12549
12172
12147
12452
12132
12143
12206
12128
12157
12133
12119
12147
12125
12100
12143
12138
12092
12127
12112
12082
12086
12165
12070
12087
12197
12057
12097
12065
12055
12081
12059
12043
12058
12044
12068
12109
12027
12037
12025
12034
12294
12049
12021
12006
12013
12085
12005
11992
11985
12025
11995
11984
11996
12037
11964
11990
12108
11955
11975
12007
11950
11987
11959
11944
11967
11945
11938
11955
11943
12077
11935
11938
11943
11918
11944
11910
12257
11905
11908
12086
11932
11930
11894
11911
11918
11885
11894
11876
11891
11868
11866
11868
11862
11845
11874
11844
11892
11847
11830
11825
11851
11804
11801
11846
11799
11798
11822
11813
11783
11792
11934
11783
11770
11766
11771
11765
12166
11777
11752
12150
11746
11743
11802
11727
11734
11764
11705
11750
11713
11703
11733
11761
11689
11704
11806
11700
11684
11671
11709
11679
11668
11685
11680
11657
11692
11660
11647
11664
11649
11868
11629
11671
11641
11621
11657
11617
11620
11623
11623
11604
11623
11659
11590
11610
11918
11618
11594
11581
11614
11774
11606
11609
11579
11579
11558
11574
11815
11574
11554
11548
11585
11539
11542
11566
11534
11531
11556
11519
11523
11561
11524
11508
11540
11509
11847
11503
11518
11521
11496
11504
11500
11684
11482
11495
11564
11479
11498
11477
11488
11474
11503
11474
11460
11497
11479
11458
11463
11458
11684
11454
11455
11862
11463
11441
11437
11474
11505
11432
11440
11767
11461
11420
11427
11444
11456
11417
11414
11402
11442
11463
11425
11398
11387
11409
11749
11403
11394
11394
11417
11497
11381
11399
11568
11380
11393
11461
11364
11377
11538
11370
11377
11577
11364
11374
11355
11358
11350
11379
11473
11344
11359
11424
11338
11347
11749
11350
11348
11334
11358
11332
11750
11346
11348
11727
11323
11334
11562
11311
11329
11743
11346
11315
11311
11351
11413
11311
11307
11306
11339
11373
11305
11302
11295
11328
11299
11295
11335
11317
11300
11297
11293
11300
11411
11297
11286
11286
11307
11284
11282
11312
11279
11273
11307
11268
11272
11303
11274
11256
11275
11271
11298
11305
11252
11266
11649
11270
11269
11378
11255
11300
11282
11266
11269
11384
11249
11275
11446
11253
11260
11435
11263
11251
11247
11264
11348
11253
11249
11252
11253
11376
11263
11249
11674
11266
11245
11239
11280
11246
11236
11258
11551
11246
11245
11243
11284
11270
11249
11237
11562
11244
11256
11271
11239
11252
11270
11237
11276
11253
11231
11268
11249
11302
11231
11274
11238
11626
11249
11254
11248
11239
11250
11256
11247
11231
11282
11321
11274
11615
11261
11368
11243
11292
11240
11241
11287
11239
11679
11272
11257
11657
11264
11249
11254
11276
11251
11580
11257
11267
11469
11264
11280
11449
11247
11270
11523
11265
11273
11319
11251
11280
11333
11291
11373
11263
11282
11271
11282
11306
11282
11394
11279
11287
11372
11287
11309
11304
11275
11332
11298
11455
11294
11297
11566
11286
11308
11302
11290
11347
11294
11296
11334
11336
11302
11322
11401
11305
11323
11518
11334
11318
11774
11330
11334
11401
11327
11343
11544
11343
11335
11341
11369
11335
11347
11365
11356
11505
11359
11375
11498
11358
11375
11368
11363
11385
11380
11782
11382
11394
11680
11400
11391
11381
11439
11396
11393
11431
11401
11405
11417
11411
11401
11453
11420
11416
11434
11433
11462
11433
11435
11472
11460
11452
11474
11606
11900
11451
11458
11457
11474
11511
11487
11470
11486
11743
11478
11484
11514
11534
11510
11499
11570
11509
11513
11549
11527
11516
11774
11525
11549
11568
11555
11561
11882
11559
11588
11566
11559
11609
11569
11572
11695
11948
11578
11617
11622
11596
11938
11613
11646
11621
11717
11620
11623
11663
11653
11648
12022
11647
11655
11686
11697
11657
11685
11679
12095
11678
11715
11716
11709
11731
12023
11710
11713
11748
11731
11738
12138
11743
11756
11771
11767
11940
11770
11775
11786
11814
11797
11798
11814
12151
11803
11815
11859
11839
11853
12094
11845
11847
11879
11877
11869
11975
11874
11903
11918
11895
12204
11916
11913
11947
11942
11922
12125
11937
11980
11966
11966
11970
11972
12026
11993
12003
12433
12012
12021
12021
12437
12030
12046
12035
12191
12058
12060
12099
12098
12087
12397
12086
12122
12121
12109
12295
12123
12132
12157
12151
12293
12154
12178
12194
12183
12314
12189
12199
12228
12229
12226
12253
12505
12243
12250
12278
12311
12285
12279
12345
12286
12303
12337
12329
12334
12735
12336
12342
12388
12364
12372
12514
12383
12400
12422
12437
12423
12482
12844
12429
12471
12494
12475
12474
12482
12623
12494
12495
12498
12545
12533
12535
12655
12549
12589
12581
12587
12645
12591
12603
12654
12633
12633
12918
12636
12646
12677
12688
12680
12729
12698
12702
12725
12741
12749
12749
12784
12874
12762
12807
12794
12788
12824
13188
12809
12834
12864
12866
12860
12922
12879
12882
12929
12908
12938
13309
12934
12963
12969
12967
12965
12983
13075
12993
13003
13032
13058
13031
13040
13253
13061
13065
13074
13116
13119
13119
13119
13178
13546
13143
13156
13175
13200
13199
13204
13234
13219
13253
13240
13556
13261
13265
13268
13313
13303
13631
13318
13338
13547
13345
13366
13468
13378
13399
13458
13408
13433
13695
13453
13448
13466
13503
13485
13491
13519
13655
13532
13552
13710
13566
13578
13777
13605
13604
13936
13639
13637
13949
13655
13685
13736
13684
13715
13953
13738
13743
13742
13790
13772
13786
13816
13817
13803
13862
13848
14169
13844
13886
13925
13885
13924
13961
13925
13974
13955
13970
14000
13996
14320
14021
14034
14128
14041
14103
14076
14077
14118
14115
14507
14139
14153
14293
14170
14186
14194
14238
14279
14219
14240
14246
14279
14537
14318
14429
14316
14331
14351
14373
14372
14377
14424
14504
14422
14428
14432
14478
14466
14474
14486
14495
14517
14526
14539
14553
14585
14593
14606
14601
14684
14644
14677
14661
14687
14809
14702
14716
14716
14765
14790
14756
14781
14784
14831
14946
14835
14838
15161
14868
14884
15094
14926
15059
14975
15229
14988
14979
14988
15001
15037
15101
15041
15086
15124
15078
15103
15175
15135
15144
15152
15174
15167
15199
15277
15206
15231
15502
15246
15268
15466
15296
15293
15649
15330
15330
15426
15386
15367
15388
15411
15409
15750
15467
15444
15469
15618
15481
15503
15626
15519
15549
15612
15598
15594
15593
15613
15887
15617
15655
15666
15666
15847
15693
15719
15745
15748
15748
15799
16085
15779
15825
15823
15878
16190
15847
15887
15903
15903
16029
15923
15951
15953
15966
16127
15995
16018
16055
16038
16086
16333
16074
16113
16126
16154
16125
16160
16195
16185
16205
16206
16227
16263
16251
16391
16269
16297
16342
16340
16346
16481
16358
16375
16423
16425
16433
16508
16758
16468
16487
16521
16540
16537
16551
16597
16893
16580
16599
16641
16662
16651
16666
16679
16714
16720
16742
16743
16822
16778
16779
16813
16851
16843
16862
16966
17191
16893
16935
16929
17026
16943
16975
17007
17005
17018
17086
17286
17056
17069
17092
17131
17130
17148
17188
17478
17181
17194
17243
17243
17271
17334
17295
17300
17324
17356
17350
17356
17479
17379
17399
17452
17441
17446
17492
17517
17500
17518
17711
17558
17574
17755
17597
17617
17653
17643
17660
17740
17690
17707
17739
17767
17770
17777
17805
18068
17816
17836
17872
17872
17901
17936
18177
17929
17967
17990
17990
17996
18060
18251
18039
18055
18095
18101
18117
18301
18134
18182
18189
18204
18274
18220
18239
18283
18279
18401
18308
18326
18349
18363
18382
18441
18641
18416
18437
18478
18484
18498
18524
18604
18538
18555
18573
18601
18626
18652
18646
18675
18776
18693
18713
18739
18743
18755
18778
18842
18802
18813
18834
18879
18889
18899
18916
19045
18933
18951
18983
19017
19007
19037
19105
19278
19074
19098
19118
19131
19153
19232
19174
19181
19230
19243
19257
19278
19365
19289
19316
19355
19353
19350
19402
19417
19423
19446
19462
19536
19630
19493
19524
19550
19570
19575
19636
19598
19629
19668
19667
19710
19686
19710
19727
19758
19927
19778
19831
19833
19857
19970
19870
19893
19914
19934
19969
20052
20169
19976
20023
20040
20070
20073
20093
20099
20128
20214
20145
20165
20209
20212
20231
20285
20407
20420
20285
20295
20340
20371
20372
20390
20479
20469
20438
20479
20487
20496
20555
20681
20540
20587
20589
20641
20775
20628
20660
20686
20695
20723
20778
20742
20757
20804
20807
20852
20980
20847
20878
20902
20917
20942
21025
20954
20971
21012
21021
21053
21149
21060
21087
21123
21139
21150
21173
21186
21205
21262
21380
21251
21278
21298
21323
21328
21352
21378
21441
21392
21415
21443
21467
21476
21489
21527
21614
21534
21558
21588
21617
21627
21643
21666
21715
21773
21700
21729
21745
21774
21791
21825
21893
21838
21857
21892
21898
21924
21967
22077
21962
21982
22023
22029
22090
22186
22079
22109
22131
22149
22175
22180
22205
22290
22229
22252
22268
22305
22319
22334
22369
22418
22380
22396
22438
22448
22460
22484
22507
22572
22643
22541
22578
22598
22607
22636
22706
22692
22679
22711
22730
22813
22751
22775
22810
22831
22833
22855
22910
22985
22909
22937
22959
22971
22989
23031
23078
23086
23069
23076
23110
23131
23140
23163
23187
23217
23278
23336
23251
23263
23308
23318
23332
23367
23453
23473
23399
23426
23461
23476
23493
23547
23572
23535
23576
23598
23604
23631
23658
23732
23679
23699
23719
23751
23766
23786
23815
23891
23826
23850
23881
23907
23927
23997
23951
23965
23999
24028
24076
24049
24069
24105
24127
24143
24192
24191
24194
24214
24242
24263
24308
24363
24311
24326
24365
24383
24398
24408
24447
24487
24423
24492
24507
24533
24554
24581
24626
24607
24633
24658
24675
24725
24763
24731
24746
24778
24796
24829
24868
24901
24868
24892
24916
24940
24981
25007
24999
25028
25038
25067
25125
25083
25106
25143
25171
25195
25228
25222
25244
25261
25287
25317
25351
25335
25375
25422
25410
25429
25447
25485
25490
25500
25534
25559
25580
25631
25607
25629
25661
25703
25695
25720
25754
25755
25775
25838
25827
25846
25848
25877
25908
25913
25941
25967
25983
26006
26059
26039
26072
26093
26117
26160
26150
26176
26206
26228
26235
26254
26283
26303
26330
26335
26352
26372
26409
26436
26431
26462
26487
26510
26541
26540
26565
26599
26612
26631
26659
26686
26703
26705
26735
26750
26781
26806
26816
26852
26852
26876
26908
26931
26945
26977
26979
27015
27023
27049
27065
27087
27106
27143
27157
27173
27205
27217
27228
27223
27281
27299
27332
27348
27347
27372
27398
27433
27455
27471
27466
27502
27524
27552
27571
27591
27617
27643
27665
27680
27707
27707
27733
27759
27776
27812
27816
27852
27875
27897
27908
27940
27949
27973
27989
27955
28029
28050
28072
28095
28086
28135
28167
28189
28198
28223
28217
28263
28287
28311
28327
28353
28380
28378
28390
28421
28447
28469
28497
28519
28541
28556
28567
28592
28620
28636
28660
28687
28678
28716
28738
28760
28778
28780
28817
28843
28870
28864
28796
28909
28932
28956
28981
28990
29002
28989
28976
29066
29070
29103
29121
29150
29175
29180
29171
29213
29228
29247
29284
29301
29300
29335
29352
29367
29405
29407
29357
29447
29470
29506
29487
29534
29545
29575
29586
29535
29620
29646
29667
29652
29703
29719
29745
29756
29741
29782
29812
29855
29838
29743
29893
29917
29932
29919
29973
29997
30000
30037
30025
29988
30087
30106
30133
30091
30157
30187
30195
30218
30206
30263
30279
30286
30318
30311
30354
30374
30393
30425
30415
30446
30471
30485
30515
30530
30492
30566
30578
30612
30599
30580
30665
30672
30688
30712
30753
30727
30719
30791
30801
30834
30788
30878
30903
30871
30925
30935
30975
30863
30998
31024
30983
31060
31099
31071
31119
31148
31108
31174
31207
31179
31237
31237
31253
31281
31318
31273
31340
31378
31335
31405
31420
31435
31452
31471
31487
31502
31525
31556
31493
31591
31615
31548
31639
31677
31607
31706
31717
31732
31751
31773
31790
31815
31790
31847
31879
31866
31901
31938
31863
31962
31968
31994
32002
32006
32055
32060
32080
32109
32124
32152
32126
32047
32191
32229
32237
32171
32263
32286
32301
32199
32335
32380
32348
32389
32409
32439
32447
32463
32484
32500
32514
32515
32558
32580
32549
32603
32647
32622
32671
32685
32695
32590
32721
32751
32642
32788
32802
32717
32839
32869
32760
32892
32923
32820
32943
32972
32972
32991
32998
33031
33054
33061
33095
33115
33105
33118
33092
33063
33191
33196
33219
33242
33277
33263
33243
33199
33326
33355
33351
33378
33414
33415
33412
33374
33346
33479
33501
33527
33535
33543
33567
33599
33591
33574
33543
33647
33679
33682
33698
33735
33757
33732
33706
33647
33797
33831
33834
33851
33861
33917
33909
33851
33939
33959
33979
33991
33994
34045
34049
34018
33983
33971
34102
34122
34143
34140
34174
34223
34201
34172
34179
34163
34119
34295
34308
34310
34340
34366
34377
34338
34311
34417
34438
34461
34462
34498
34521
34516
34508
34435
34575
34583
34599
34628
34629
34671
34667
34659
34647
34639
34617
34567
34764
34783
34799
34820
34836
34837
34879
34890
34895
34814
34922
34942
34959
34956
35015
35023
35023
34963
35051
35068
35099
35100
35122
35015
35146
35174
35186
35183
35233
35226
35187
35263
35295
35284
35300
35335
35335
35330
35220
35381
35402
35406
35442
35474
35453
35374
35483
35518
35542
35535
35575
35591
35598
35524
35634
35638
35627
35693
35670
35625
35710
35735
35748
35765
35764
35820
35795
35694
35839
35831
35899
35878
35807
35911
35935
35931
35985
35960
35847
36015
36015
36070
36063
35969
36077
36098
36093
36156
36134
36075
36175
36199
36199
36244
36253
36231
36263
36276
36287
36340
36351
36309
36351
36378
36359
36423
36399
36303
36449
36461
36450
36522
36503
36423
36536
36551
36543
36593
36596
36527
36636
36644
36666
36692
36597
36707
36735
36722
36735
36772
36552
36759
36756
36820
36850
36743
36871
36879
36751
36903
36917
36935
36960
36911
36981
37008
36858
37025
37060
37063
37042
37070
37107
37127
36964
37148
37164
36964
37172
37174
37210
37252
37088
37255
37283
37287
37295
37308
37340
37320
37351
37381
37367
37396
37431
37461
37364
37468
37506
37431
37519
37543
37447
37562
37554
37556
37595
37620
37578
37634
37668
37565
37681
37727
37716
37708
37678
37760
37764
37791
37796
37707
37821
37832
37859
37887
37838
37913
37942
37877
37950
37983
37775
37985
38015
38020
38004
37973
38076
38093
37846
38068
38119
38130
38109
38174
38187
38175
38209
38222
38207
38251
38266
38279
38215
38261
38084
38343
38356
38319
38359
38407
38431
38429
38399
38404
38457
38482
38503
38523
38466
38543
38565
38452
38580
38611
38370
38631
38659
38479
38681
38701
38532
38695
38717
38743
38775
38682
38790
38811
38807
38770
38820
38855
38871
38815
38908
38939
38916
38951
38725
38935
38911
38974
38991
39023
39052
38782
39053
38829
39052
38919
39071
39070
39139
39175
39067
39184
39220
39098
39239
39260
39132
39278
39306
39214
39319
39341
39104
39327
39295
39383
39399
39418
39450
39455
39407
39462
39490
39498
39242
39482
39389
39550
39572
39292
39596
39597
39628
39655
39469
39663
39687
39703
39668
39674
39732
39767
39769
39790
39685
39815
39833
39824
39821
39815
39889
39905
39895
39936
39938
39894
39972
39971
40004
39863
40007
40046
39807
40046
40085
40097
40117
40106
40143
39874
40137
40181
39868
40173
40159
40221
40258
40059
40255
40286
40287
40319
40189
40314
40327
40365
40382
40378
40348
40359
40416
40435
40455
40428
40383
40484
40518
40518
40546
40556
40564
40303
40569
40604
40615
40567
40623
40631
40679
40518
40679
40720
40455
40724
40760
40589
40775
40788
40791
40732
40807
40825
40846
40869
40816
40668
40839
40823
40907
40927
40948
40967
40967
40907
40964
41004
41027
40799
41030
41035
41061
41041
40967
41080
41111
41099
41130
40999
41148
41175
41179
41134
41047
41148
41158
41218
41239
41255
41207
41261
41278
41306
41245
41320
41334
41283
41362
41367
41129
41375
41407
41252
41417
41431
41436
41402
41468
41464
41404
41449
41505
41530
41533
41559
41551
41574
41586
41591
41507
41565
41623
41644
41642
41597
41585
41683
41695
41703
41721
41479
41729
41748
41742
41744
41795
41796
41729
41794
41828
41839
41703
41819
41855
41879
41913
41894
41908
41786
41925
41956
41956
41983
41798
41972
41988
42006
42015
41887
42039
42063
42071
42032
42021
42087
42119
42133
42139
41884
42132
42167
42178
42110
42055
42189
42212
42219
42252
41991
42244
42286
42285
42215
42302
42301
42326
42148
42343
42348
42236
42356
42391
42215
42404
42420
42021
42411
42457
42447
42402
42482
42471
42421
42516
42527
42455
42548
42543
42471
42560
42580
42538
42603
42590
42602
42639
42247
42575
42660
42262
42657
42692
42294
42620
42588
42720
42734
42743
42748
42503
42751
42795
42784
42818
42462
42796
42668
42838
42861
42520
42798
42811
42885
42923
42615
42839
42925
42944
42951
42971
42911
42982
42990
42927
43015
43000
42823
43015
42981
43063
43074
42631
43082
43025
43118
42842
43122
43031
43158
42855
43143
43091
43182
43190
42797
43200
43191
43219
43225
43261
43238
43271
43271
43271
42887
43230
43268
43287
43335
43335
43290
43343
43196
43367
43373
43370
43314
43116
43383
43407
43444
43414
43444
43419
43450
43379
43490
43195
43484
43479
43501
43515
43492
43541
43483
43527
43484
43572
43467
43579
43503
43608
43247
43527
43591
43622
43639
43644
43670
43655
43687
43662
43719
43687
43714
43716
43725
43653
43753
43548
43757
43758
43747
43777
43526
43789
43756
43837
43559
43835
43812
43847
43855
43847
43868
43823
43863
43901
43910
43702
43927
43911
43932
43925
43943
43935
43975
43814
43979
43900
44007
43956
44015
43999
44033
44039
44039
44039
44003
44078
43708
44061
44063
44103
43695
44103
44036
44126
44115
43862
44143
44155
44068
44169
44184
44143
43854
44194
44196
44125
44223
44191
43777
44231
44259
44180
44278
44279
44176
44279
44306
44279
44240
44324
44333
44324
43886
44327
44279
44356
44372
44063
44373
44319
44415
44345
43943
44416
44404
44383
44439
44264
44436
44363
44471
44265
44471
44469
44476
44500
44505
44407
44527
44532
44196
44531
44482
44551
44572
44457
44583
44589
44520
44599
44599
44239
44592
44591
44606
44652
44487
44642
44615
44670
44648
44222
44676
44651
44700
44709
44680
44423
44728
44719
44730
44634
44762
44774
44677
44756
44764
44767
44743
44747
44798
44821
44716
44831
44831
44807
44767
44855
44866
44716
44868
44855
44858
44898
44764
44895
44895
44839
44935
44766
44908
44922
44903
44967
44871
44948
44950
44899
44983
44970
44524
44989
44959
44964
45027
44911
45010
45037
44967
45060
44871
45047
44977
45094
45038
45079
45079
44986
45108
45091
44679
45116
45100
45111
45149
44868
45156
45078
45181
45154
44710
45172
45095
45207
45205
45052
44716
45223
45207
45141
45134
45244
45257
45263
45278
45252
45175
44807
45279
45284
45294
45303
45307
45286
45270
45287
45246
45255
45344
45348
45359
45345
45207
45019
45370
45391
45391
45386
45319
45311
45333
45420
45439
45462
45398
45374
44946
45447
45462
45455
45381
45461
45501
45506
45527
45511
45527
45535
45445
45207
45529
45543
45551
45529
45502
45529
45515
45547
45575
45565
45546
45618
45638
45644
45549
45157
45638
45634
45627
45590
45675
45671
45575
45679
45687
45463
45684
45714
45279
45695
45735
45257
45727
45742
45487
45743
45780
45751
45703
45778
45789
45703
45788
45802
45804
45780
45820
45831
45461
45792
45863
45847
45855
45725
45862
45887
45718
45882
45900
45787
45896
45929
45901
45890
45943
45918
45855
45949
45948
45959
45892
45956
45903
46004
45991
46005
45973
45964
46022
45553
45977
46043
46022
45972
46053
46052
46071
45691
46038
46087
46087
46015
46108
46087
46021
46103
46119
46125
45959
46076
45831
46158
46135
46183
46175
46179
46023
46191
46204
46199
46177
46167
46199
46197
46215
46231
46133
46253
46244
46227
46257
46207
46277
46204
46281
46102
46287
46267
46314
45893
46314
46258
46335
45970
46322
46248
46369
46023
46356
46387
45935
46374
46335
46407
46391
46343
46420
46415
46318
46441
46428
46325
46466
46445
46343
46485
45921
46432
46489
46468
46420
46516
46484
46399
46118
46431
46196
46535
46534
46543
46540
46540
46015
46485
46549
46575
46516
46587
46580
46549
46599
46598
46615
46599
46548
46518
46623
46648
46630
46583
46573
46650
46673
46309
46641
46687
46668
46566
46640
46695
46687
46676
46703
46715
46662
46708
46719
46342
46710
46711
46708
46735
46678
46750
46746
46644
46722
46751
46639
46780
46774
46676
46798
46463
46768
46799
46788
46709
46820
46796
46772
46821
46812
46780
46718
46826
46849
46748
46846
46855
46580
46851
46855
46531
46814
46886
46879
46887
46759
46883
46911
46343
46826
46935
46500
46894
46938
46655
46927
46951
46578
46877
46955
46943
46974
46950
46892
46870
46946
47005
46983
47003
46971
46999
46424
46922
47025
47004
47015
46669
46980
47036
47021
47045
46809
47014
47068
46717
47021
47079
47068
46964
47044
47065
47095
46639
47036
47102
47098
47095
47108
47007
47092
47111
47142
47142
47075
46910
47111
47170
47130
47167
47156
47058
47179
47168
47074
47196
47179
47175
47176
47195
47111
47135
47207
47225
47216
47230
47207
47143
47109
47237
47255
47228
47143
47223
47257
47276
46711
47162
47262
47270
47293
47287
47241
47204
47292
47304
47047
47303
47331
47151
47326
47335
47130
47335
47343
47252
47353
47324
47343
47355
47367
47111
47359
47391
47183
47391
47399
47291
47407
47303
47423
47382
47367
47323
47417
47426
47334
47421
47423
47414
47431
47452
47174
47440
47467
46918
47463
47487
47220
47473
47471
47444
47492
47399
47482
47495
47511
47067
47495
47535
47510
47447
47535
47284
47524
47535
47249
47543
47530
47535
47548
47457
47577
47303
47553
47577
47445
47568
47574
47559
47581
47548
47583
47595
47591
47611
47599
47495
47623
47615
47507
47647
47621
47578
47099
47526
47652
47636
47647
47607
47645
47591
47477
47637
47687
47663
47591
47669
47663
47699
47356
47652
47687
47696
47699
47215
47641
47732
47719
47699
47623
47722
47727
47284
47706
47751
47732
47623
47749
47727
47738
47610
47749
47775
47199
47671
47782
47780
47711
47751
47782
47732
47738
47783
47807
47255
47713
47818
47815
47710
47815
47810
47719
47799
47828
47835
47548
47743
47796
47847
47847
47631
47851
47861
47709
47853
47879
47623
47862
47866
47852
47879
47764
47911
47879
47855
47909
47589
47907
47879
47926
47911
47839
47951
47439
47879
47952
47938
47818
47958
47942
47970
47787
47954
47987
47946
47879
47986
47967
47919
48001
47979
47878
48007
47988
47999
47747
47995
48020
48003
47907
48023
48012
47902
48021
48025
48021
48007
48036
47931
48020
48047
48047
47783
48020
48060
48045
47959
48039
48063
48094
48055
48084
47723
47976
48078
48079
48103
47543
48015
48127
48087
48085
47879
48097
48135
47514
48039
48135
48118
48135
47566
48071
48157
48135
48164
48135
47890
48135
48135
48180
48158
48164
47811
48085
48086
48083
48135
48178
48197
48196
48222
48199
48191
47623
48135
48150
48199
48223
48222
48244
48229
48215
48199
48230
48261
48231
48247
47999
48247
48279
48248
48263
47871
48163
48231
48263
48294
48279
48299
48279
48236
48135
48290
48324
48292
48314
47932
48302
48335
48207
48319
48213
48341
47895
48319
48354
48166
48327
48351
48263
48356
48372
48066
48255
48372
48375
48308
48349
48383
48362
48325
48388
48409
48391
48326
48427
48391
48314
48436
48420
48391
48383
48431
48454
48437
48322
48455
48447
48437
48309
48446
48481
48463
48391
48462
48471
48462
48221
48469
48500
48495
48446
48459
48492
48427
48516
48511
48463
48548
48503
48455
48485
48543
48556
48548
48518
48351
48541
48567
48559
48562
48356
48551
48604
48575
48579
48023
48516
48195
48501
48595
48583
48623
48621
48647
48611
48579
48611
48631
48662
48092
48551
48679
48647
48579
48647
48646
48668
48349
48566
48674
48679
48684
48364
48701
48715
48700
48599
48615
48704
48728
48711
48751
48731
48760
48727
48727
48719
48750
48759
48764
48711
48719
48735
48774
48775
48818
48794
48804
48805
48807
48793
48831
48807
48833
48823
48838
48831
48750
48644
48837
48884
48863
48831
48766
48851
48895
48889
48861
48559
48861
48919
48903
48801
48923
48925
48903
48871
48932
48960
48935
48948
48703
48956
48991
48989
48983
48967
48879
48952
48980
49023
48993
48927
48938
49012
49057
49028
49055
48495
48919
48471
49071
49051
48989
48639
49007
48520
49031
49125
49103
49140
49117
49124
49109
49063
49014
49062
48980
49057
49062
49055
49156
49159
49188
49159
49211
49191
49180
49044
49191
49236
49220
49231
49237
49222
48903
49148
49254
49242
49268
49276
49276
49260
49159
49278
49268
49327
49295
49292
48887
49271
49314
49287
49269
49292
49303
49332
49255
49324
49351
49327
49359
49346
49363
48903
49308
49372
49356
49391
49367
49391
48738
49310
49409
49391
49287
49324
49396
49444
49414
49340
49447
49415
49415
49327
49415
49471
49445
49343
49487
49473
49357
49471
49479
49493
48839
49467
49506
49221
49500
49479
49357
49522
49559
48983
49487
49540
49363
49551
49586
49556
49452
49588
49579
49591
49578
49500
49489
49573
49629
49606
49626
49159
49603
49670
49627
49575
49652
49660
49623
49633
49663
49671
49573
49671
49685
49285
49687
49735
48999
49655
49735
49727
49733
49719
49730
49738
49735
49767
49719
49772
49772
49791
49339
49767
49829
49799
49822
49575
49820
49837
49115
49751
49878
49847
49743
49876
49871
49887
49623
49871
49911
49190
49835
49927
49457
49791
49979
49919
49843
49975
49951
49946
49941
49957
49986
49870
49974
50015
49502
49999
50025
49351
50007
50047
49924
50028
50054
49500
50019
50087
50062
50053
50031
50078
50101
49756
50103
50143
49366
50031
50165
50125
50007
50159
50148
50180
49791
50164
50215
50183
50176
49836
50164
50251
50206
50252
50215
50180
50182
50242
50279
50257
50135
50267
50279
50294
50300
50164
50262
50295
50324
50207
50332
50343
50156
50333
50359
50183
50356
50380
50308
50346
50431
50391
50430
50415
50436
50431
50431
50311
50439
50410
50484
50003
50458
50481
50519
50471
50436
50519
50517
50503
50436
50566
50525
50387
50580
50536
50543
50567
50583
50572
50462
50620
50299
50607
50598
50630
50628
50620
50439
50644
50502
50690
50667
50656
50673
50670
50735
50695
50695
50695
50751
49972
50738
50716
50739
50782
50496
50771
50695
50828
50788
50657
50823
50820
50831
50615
50775
50871
50855
50759
50894
50870
50724
50919
50886
50772
50949
50908
50773
50975
50927
50804
50967
50959
50173
50969
50970
50863
51014
51022
51007
51007
50895
51052
51068
50279
50919
51098
51069
51068
50946
51119
51087
51092
51087
51075
51160
51135
51143
51071
51195
51171
51170
51196
51047
51207
51231
51198
51205
51181
51258
51271
51230
51252
51276
51262
51175
51308
51332
51030
51316
51325
51303
51231
51349
51390
51398
51415
51399
51348
50647
51396
51415
51415
51318
51438
51463
51309
51446
51463
51348
51463
51519
51543
51517
50758
51527
51423
51575
51575
51556
51572
51444
51580
51615
51554
51591
51607
51655
51625
51552
51562
51646
51540
51692
51374
51694
51606
51750
50998
51719
51591
51759
51719
51759
51765
51655
51812
51831
51375
51804
51791
51858
51551
51847
51834
51812
51906
51259
51879
51756
51924
51826
51926
51967
51930
51852
51989
51695
51970
51871
51998
51567
52007
51958
52026
52071
52030
51959
52095
52052
52061
52098
51652
52100
51991
52156
52062
51428
52141
52031
52162
52183
52180
52189
52068
52231
51943
52219
52212
52231
52292
51853
52268
52244
52199
52316
52279
52308
52270
52341
52357
52356
52359
52231
52376
52430
52319
52383
52283
52439
52471
52404
52437
52455
52359
52487
52417
52487
52487
52503
52548
52487
52143
52543
52544
52454
52583
52615
52551
52596
52607
52524
52629
52666
52690
52341
52668
52661
52668
52686
52623
52739
52775
52630
52735
52743
52743
52638
52789
52836
52610
52050
52814
52831
52821
52780
52868
52895
52564
52883
52895
52895
52831
52916
52959
52974
52999
52767
52972
52986
52995
52903
52991
53045
53063
53077
52884
52716
53075
53091
53089
53104
53102
53101
53082
53039
53156
53181
53200
53203
52972
52458
53223
53223
53199
53133
53191
53255
53300
53333
53204
52767
53317
53311
53244
53215
53364
53383
53407
53412
53047
53395
53428
53310
53447
53479
53431
53255
53469
53493
53479
53374
53532
53572
53541
53339
53556
53581
53572
53492
53631
53652
53639
52956
53659
53647
53656
53579
53719
53726
53375
53727
53732
53735
53687
53767
53828
53652
53794
53808
53796
53760
53879
53881
53790
53390
53887
53895
53890
53797
53927
53975
53877
53959
53961
53965
53869
54005
54036
54042
54038
54051
53926
54068
54118
54060
53442
54103
54112
54015
54148
54188
53446
54173
54164
54096
54212
54263
54087
53456
54215
54220
54239
54295
54308
54126
54279
54312
54204
54330
54372
54279
53670
54343
54372
54271
54279
54406
54447
54345
54415
54433
54375
54423
54488
54167
54465
54380
54508
54519
54511
54490
54535
54599
53719
54559
54578
54614
54577
54607
54590
54623
54677
54471
54655
54655
54578
54705
54743
53935
54700
54631
54767
54375
54735
54639
54791
54765
54775
54791
54675
54818
54878
54852
54647
54842
54863
54741
54887
54929
54407
54903
54927
54958
54212
54940
54911
54967
55020
54951
54981
55010
54876
55031
55031
55047
55046
54943
55086
55103
55076
55103
55044
55173
54996
55141
55121
55172
55223
55167
55198
55047
55218
55259
55124
55223
55239
55157
55285
55303
54948
55279
55189
55331
55303
55320
55228
55374
55303
55367
55398
55271
55411
55303
55407
55431
55284
55455
55486
55454
55479
55423
55540
55483
55503
55479
55551
55580
55303
55559
55573
55431
55585
55651
55124
55604
55478
55668
55687
55653
55671
55586
55701
55749
55686
55700
55603
55757
55761
55732
55759
55618
55804
55802
55786
55805
55676
55815
55879
55815
55862
55774
55908
55231
55884
55844
55951
55800
55911
55815
55943
55878
55943
55831
55988
56010
55975
55982
55991
56043
56028
55510
56035
56049
55979
56111
55516
56084
55926
56158
55388
56117
55975
56174
56166
55484
56175
56148
56199
56270
56196
56231
56071
56231
56295
55902
56268
56252
56148
56231
56319
56319
55455
56299
56306
56324
56380
56414
55860
56380
56327
56420
56326
56406
56380
56445
56501
55815
56444
56444
56495
56492
56471
56487
56512
56567
55749
56518
56412
56583
56564
56574
56428
56636
56580
56583
56612
56534
56629
56484
56636
56711
56644
56679
56088
56684
56556
56751
56708
56703
56728
56583
56788
56749
56767
56774
56674
56812
56839
56514
56795
56812
56797
56838
56893
56789
56839
56868
56871
56884
56911
56956
56929
56327
56927
56929
56777
56996
56993
56954
56967
56919
56895
56998
57070
56127
57006
57031
56884
57055
57119
56188
57068
57077
56950
57141
56870
57109
57111
57124
57007
57151
57199
57078
57151
57158
57095
57223
57263
56308
57215
57128
57230
57279
57311
56509
57253
57271
56998
57188
57351
57286
57223
57320
57392
56863
57348
57340
57287
57431
56695
57382
57223
57407
57460
57479
56895
57433
57439
57319
57476
57516
56839
57471
57375
57519
57546
56702
57527
57463
57606
56820
57540
57421
57594
57607
57561
57591
57535
57607
57674
56951
57605
57561
57637
57717
57200
57652
57534
57713
57649
57675
57688
57596
57782
56998
57735
57604
57788
57735
57741
57767
57783
57823
57783
57807
57763
57863
57644
57812
57684
57892
57821
57860
57861
57886
57948
57895
57783
57910
57105
57772
57972
57923
57973
57935
57980
57953
58020
57967
57983
57988
58001
57191
57895
58045
58015
58108
58036
58070
58039
58030
57222
57934
57957
57940
58039
58055
57695
58119
58118
58183
57967
58126
58167
58151
58180
58084
58166
58247
58087
58263
58184
58117
58247
58207
58236
57778
58145
58279
58241
58247
58055
58247
58287
58246
58222
58343
58276
58145
58348
58308
58327
57988
58311
58375
58308
58255
58412
58314
58287
58407
58372
58279
58461
58375
58390
58422
58412
58417
58375
58422
58451
57530
58324
58519
58444
58413
58453
58484
58487
58055
58468
58548
58484
58373
58583
58503
58559
58508
58375
58601
58543
58495
58551
58561
58599
58551
58440
58655
58575
58596
58586
58516
58183
58479
58681
58631
58694
58631
58631
58428
58535
58696
58679
58751
58668
58701
58693
58583
58616
58708
58780
58711
58734
58473
58748
58823
58759
58815
58775
58809
58767
58703
58249
58631
58812
58776
58887
58821
58859
58831
58853
57948
58687
58887
58870
58887
58135
58732
57956
58871
58885
58909
58229
58830
58991
58929
58959
58932
58882
59030
58964
58964
58935
58983
59033
58983
59005
58964
59015
59079
59007
58951
58433
59042
59110
59039
59060
58887
59087
59084
58647
59077
59142
59094
59015
59143
59109
59159
58204
59092
59180
58215
59129
59207
59162
59172
59152
59051
59239
59184
59178
59240
59183
59151
59247
59214
59236
59194
59143
59258
59254
59271
58919
59230
59302
59228
59228
59328
59256
59270
58759
59118
59364
59279
59175
59327
59312
59303
59183
59317
59326
58370
59191
59396
59319
59252
59391
59332
59195
59439
59354
59348
59055
59334
59452
59364
59244
59463
59383
59386
59316
59399
59432
59399
59311
59495
59431
59446
59215
59422
59490
59431
59447
59031
59399
59527
59447
59455
59399
59422
59551
59487
59495
59044
59474
59550
59493
59546
59503
59551
58631
59381
59431
59495
59559
59519
59599
59542
59399
59583
59621
59479
59557
59572
59503
59599
59615
59607
59607
59446
59647
59612
59615
59621
59622
59695
58831
59645
59559
59575
59671
59724
59343
59655
59649
59620
59739
59108
59695
59564
59703
59766
59175
59695
59715
59639
59735
59773
59702
59572
59806
59727
59720
59756
59710
59744
59607
59807
59649
59764
59767
59687
59762
59830
59679
59774
59783
59714
59863
59780
59783
59810
59655
59831
59890
59174
59831
59844
59705
59855
59911
58951
59831
59755
59911
59886
59854
59852
59911
59868
59895
59870
59892
59852
59911
59975
59502
59911
59906
59780
59959
59956
59015
59943
59911
59897
59991
60007
59911
59949
59894
59967
60028
59111
59974
59935
60036
59484
59975
59874
60063
59999
59911
60052
59996
59901
60035
59676
60015
59900
60060
59495
60021
59909
60066
60069
60027
60054
59903
60052
60122
60039
60053
60068
60033
60007
60126
59702
60083
60037
60015
60102
60135
60126
59288
60092
60065
60111
60183
59566
60103
60015
60127
60182
59911
60130
60127
60039
60186
60198
60148
60127
60165
60151
60167
59879
60167
60039
60222
60189
60164
60191
60053
60212
59730
60193
60111
60221
60277
60196
60211
60079
60253
60244
60199
60224
60207
60238
60295
59903
60239
60092
60247
60311
60239
59439
60261
60231
60233
60325
59716
60256
60205
60263
60321
60327
60029
60285
60278
60236
60330
60351
59911
60295
60295
60319
60199
60335
60399
60317
59485
60337
60247
60340
60391
60276
60327
60356
60287
60327
60345
60388
60423
60388
59885
60383
60268
60396
60420
60388
60377
60263
60414
60455
59589
60407
60423
60276
60423
60484
60404
60405
60423
60420
60308
60456
60500
60423
59583
60448
60439
60303
60450
60511
60199
60455
60463
60335
60487
60489
60462
60469
60460
60517
60496
60474
60486
60363
60516
60446
60484
60476
60535
60543
60493
60527
60407
60527
60543
59646
60524
60423
60542
60588
60423
60521
60524
60530
60423
60551
60630
59927
60565
60563
60414
60569
60647
60590
60551
60569
60537
60628
60423
60596
60566
60565
60632
60582
60583
60593
60517
60620
60671
60503
60615
60564
60529
60644
60653
60028
60615
60628
60631
60679
60620
60084
60647
60666
60535
60655
60700
60679
60060
60660
60655
60519
60695
60751
60487
60678
60676
60551
60716
60743
60727
59861
60679
60665
60711
60759
60694
60580
60706
60766
60476
60707
60693
60775
59911
60679
60788
60706
60604
60745
60735
60743
60799
59911
60743
60721
60751
60823
60111
60753
60622
60793
60775
60754
60775
60732
60838
60502
60783
60701
60824
60719
60791
60796
60663
60823
60839
60799
60813
60663
60854
60874
60806
60823
60732
60887
60743
60828
60826
60699
60871
60879
60836
60839
60845
60924
59957
60871
60806
60853
60922
60527
60870
60855
60879
60925
60870
60896
60775
60935
60871
60871
60900
60847
60935
60517
60919
60780
60985
60902
60911
60886
60985
60911
60935
60855
60999
60671
60935
60935
60903
61009
60743
60935
60935
60935
61020
60186
60935
60932
60970
61044
60981
60981
60829
60999
61036
60975
60996
60845
61033
60989
60871
61062
60562
60991
61015
61005
61023
61031
61039
60182
61011
61039
61023
61036
61015
61045
61055
61041
61044
61110
61062
60975
60911
60910
60935
60964
61044
61095
61086
61063
61118
61123
61127
61159
61156
61157
61159
61087
60212
61116
61095
61119
61031
60981
61048
61063
61127
61155
61207
61127
61126
61179
61114
61160
61020
61173
61206
61244
61247
61159
60902
61159
61178
61186
61103
61039
61084
61226
61268
61284
61279
60935
61207
61219
61253
61228
61215
61223
61095
61292
61308
61236
61269
61109
61265
61327
61252
61287
61272
61159
61293
61344
61351
61244
60676
61262
61285
61293
61178
61311
61334
61372
61396
61316
60630
61303
61314
61319
61319
61319
61172
61204
61183
61188
61180
61254
61338
61365
61382
61399
61415
61387
61391
61436
61429
61167
61367
61382
61370
61319
61239
61242
61282
61375
61391
61428
61444
61447
61447
61411
60927
61388
61390
61414
61405
61407
61415
61439
61420
61437
61365
61340
61313
61300
61317
61438
61519
60520
61447
61388
61518
60755
61447
61311
61502
61407
61447
61447
61422
61532
60831
61447
61487
61372
61479
61551
61039
61487
61390
61551
61023
61499
61502
61415
61446
61534
61571
61489
60703
61519
61412
61505
61552
61591
60673
61512
61527
61429
61604
61511
61526
61407
61575
61607
61543
61546
61508
61591
61542
61551
61551
61397
61635
61559
61574
60934
61422
61605
61565
61607
61158
61588
61479
61600
61631
60679
61601
61434
61647
61330
61605
61447
61613
61685
61083
61599
61508
61679
61514
61621
61508
61639
61687
61396
61618
61636
61551
61647
61703
61118
61610
61614
61636
61695
61582
61633
61636
61646
61695
61191
61660
61575
61679
61678
61647
61656
61661
61703
61638
61668
61647
61727
61208
61671
61670
61637
61751
61668
61686
61663
61660
61722
61734
60734
61692
61543
61700
61757
60908
61679
61677
61559
61727
61698
61031
61676
61695
61618
61578
61719
61775
61671
61695
61700
61692
61549
61628
61751
61759
61263
61687
61724
61615
61668
61775
61695
61695
61703
61623
61756
61759
61692
61703
61731
61703
61543
61719
61777
61780
61519
61695
61703
61703
61644
61742
61783
60902
61724
61544
61759
61036
61717
61703
61727
61796
60991
61719
61592
61767
61771
61703
61727
61613
61758
61807
61130
61703
61735
61660
61759
61739
61724
61727
61719
61781
60776
61702
61598
61703
61799
60828
61703
61549
61755
61781
61191
61703
61592
61791
60967
61717
61692
61760
61471
61702
61575
61703
61780
60853
61695
61535
61717
61740
61700
61748
61671
61703
61703
61534
61735
61724
60862
61700
61695
61556
61748
61676
61383
61684
61687
61674
61511
61690
61743
61516
61658
61516
61742
61695
61652
61660
61502
61719
61191
61670
61636
61703
61308
61663
61515
61654
61731
61639
61652
61486
61671
61686
61639
61630
61516
61697
61638
61616
61642
61479
61713
61136
61630
61470
61657
61380
61617
61597
61695
60844
61597
61603
61662
61588
61607
61447
61617
61654
61586
61499
61620
61295
61583
61415
61641
61548
61568
61407
61644
60804
61567
61575
61530
61380
61601
61532
61572
61527
61551
60663
61364
61538
61527
61543
61175
61494
61590
61509
61447
61548
61495
61419
61559
61480
61500
60852
61383
61549
61471
61366
61542
61447
61447
61310
61364
61500
61436
61486
61415
61300
61447
61428
61500
61422
61487
61423
61460
61390
61287
61248
61334
61479
61388
61447
61377
61397
60679
61345
61447
61375
61396
61340
61303
60639
61213
61405
61340
61414
61318
61301
60679
61191
61399
61312
61357
61305
61319
60704
61132
61277
61287
61367
61292
61308
60477
61125
61348
61263
61286
61244
61119
61260
61255
61285
61235
61223
61220
61093
60999
61191
61271
61191
61167
61030
61086
61252
61207
61229
61172
61172
61151
61084
61231
61148
61207
61125
61151
60980
60792
61000
60831
61059
61108
61159
61094
61156
61102
61166
61080
61136
61076
61138
61063
61095
61045
61039
60452
60906
61119
61033
61102
61016
61044
61005
61021
60999
61008
60986
60996
60049
60871
60596
60871
60020
60967
60031
60935
60919
60852
60577
60783
60596
60751
60951
60935
60975
60893
60935
60890
60903
60854
60837
60710
60784
60926
60855
60886
60839
60839
60823
60796
60622
60773
60828
60783
60871
60789
60804
60167
60634
60799
60780
60855
60767
60759
60087
60615
60821
60734
60741
59852
60551
60703
60631
60739
60696
60764
60679
60759
60672
60727
60647
60702
60534
59966
60551
60071
60511
60108
60460
60207
60468
60477
60462
60455
60444
60415
60454
60578
60580
60613
60528
60455
60505
60535
60615
60532
60599
60518
60568
60423
60524
60455
60527
60423
60543
60474
60551
60471
60485
60451
60448
60438
60423
59895
60348
60487
60391
60404
59783
60295
60423
60388
60415
60359
60247
59550
60206
60304
60267
60199
60228
60385
60316
60382
60295
60344
60295
60327
60263
60260
59655
60236
60238
60110
60222
60230
60295
60232
60239
60228
59717
60060
60166
60156
60229
60164
60159
59317
59981
60185
60124
60128
59590
60046
60161
60071
60076
59767
60060
60092
60055
59995
59543
59952
60063
60013
60071
60007
60039
59987
60028
59964
59956
59950
59951
59911
59831
59668
59751
59831
59742
59911
59812
59940
59887
59911
59846
59855
59843
59842
59428
59668
59575
59703
59583
59639
59351
59648
59831
59679
59683
59622
59796
59719
59783
59729
59779
59687
59687
59575
59470
59519
59446
59583
58887
59636
59620
59607
59142
59453
59591
59500
59620
59567
59615
59556
59567
59546
59446
59583
59524
59527
58605
59358
59567
59479
59527
58997
59333
59543
59457
59454
58919
59380
59495
59399
59399
58812
59341
59444
59383
59426
59356
59366
58562
59187
59365
59335
59324
58421
59154
59359
59271
59313
59255
59230
59143
59236
59263
59223
59242
59191
59047
59221
59182
59237
59182
59239
59167
59204
59143
59124
59006
58822
58980
59140
59072
59158
59087
59078
58663
59055
59084
58287
58908
59087
59021
59047
58991
58994
58116
58876
58873
58922
58828
58903
58099
58854
58436
58927
58907
58940
58887
58883
58553
58862
58887
58833
58919
58839
58887
58834
58862
58804
58830
58783
58782
58013
58716
58800
58755
58764
58223
58631
58783
58708
58686
58733
58679
58679
58631
58662
58725
58652
58660
58622
58644
58619
58622
58599
58619
58572
58591
58548
58485
58247
58399
58292
58380
58431
58431
58276
58419
57687
58467
57983
58316
58511
57863
58431
58287
58478
58390
58350
58375
58471
58356
58351
58375
58061
58343
58342
58103
58306
58348
58031
58295
58135
58348
58268
58119
58324
58244
58183
58244
58191
58215
58077
58211
58242
57559
58175
58020
58178
58190
58143
58135
58151
58172
58102
58101
57949
58114
58111
58047
58060
57972
58093
57685
58022
57884
58047
57917
57983
57940
57991
58024
57095
57972
57860
57975
57897
57918
57911
57918
57921
57863
57887
57863
57935
57847
57831
57709
57851
57817
57797
57831
57703
57837
57340
57768
57716
57767
57790
56887
57742
57582
57748
57568
57716
57551
57723
57333
57687
57660
57671
57703
56802
57630
57639
57601
57607
57455
57645
57532
57564
57568
57557
57620
57532
57535
57479
57581
56663
57519
57375
57479
57535
57503
57006
57463
57425
57438
57495
57415
57414
57318
57415
57423
57397
57319
57274
57340
57396
57332
57244
57351
57386
57192
57304
57300
57223
57327
57214
57253
57260
57182
57300
56839
57245
57140
57223
57252
56839
57188
57079
57180
57031
57159
57039
57184
56309
57140
56982
57140
57156
56487
57070
57007
57119
56856
57070
57095
57047
56994
57039
57073
56472
57002
56928
56839
56932
56991
56988
56988
57010
56694
56921
56927
56906
56903
56767
56796
56921
56908
56876
56119
56884
56807
56839
56895
56756
56823
56821
56751
56799
56636
56791
56777
56823
56759
56743
56775
56254
56742
56605
56759
56748
55881
56697
56551
56708
56728
56029
56655
56551
56646
56679
56607
56627
56535
56661
56583
56597
56583
56546
56583
56612
55900
56548
56430
56579
56359
56532
56478
56548
56352
56487
56383
56479
56505
56420
56454
56449
56445
56484
56031
56415
56388
56421
56452
56391
56398
56327
56375
56351
56360
56412
55623
56326
56305
56327
56324
56300
56297
56303
56348
56022
56274
56135
56300
56228
56238
56197
56247
56273
55424
56221
56098
56263
55510
56068
56228
56162
56167
56164
56167
56143
56012
56177
55740
56142
56028
56135
56166
56095
56101
56090
56030
56069
56071
56089
55855
56047
55911
56056
56053
55919
56022
56014
56060
55979
55991
56003
56034
55700
55982
55917
55975
56014
55453
55934
55812
55982
55279
55933
55809
55940
55668
55889
55844
55924
55783
55871
55767
55911
55294
55847
55839
55886
55448
55812
55808
55815
55852
55100
55783
55791
55812
55815
55708
55782
55759
55767
55803
55732
55734
55655
55783
55574
55711
55714
55623
55749
55207
55687
55597
55735
54934
55687
55534
55675
55652
55645
55636
55533
55630
55664
55572
55621
55623
55494
55610
55655
55334
55598
55541
55582
55623
54780
55559
55430
55564
55479
55541
55407
55548
55543
55503
55525
55440
55559
55148
55495
55364
55510
55201
55476
55335
55509
55047
55439
55294
55444
55431
55419
55406
55409
55447
55247
55368
55376
55246
55366
55422
55239
55339
55344
55204
55356
55367
54511
55303
55166
55303
55327
55290
55284
55286
55175
55261
55131
55284
55238
55236
55228
55143
55284
55251
54499
55215
55066
55215
55244
55175
55188
55103
55199
54892
55150
55047
55206
54340
55145
55143
55188
54965
55111
55111
55086
55143
55105
55110
55071
55092
55127
54431
55066
54932
55047
55108
54599
55047
54908
55044
55076
55015
54999
55023
54932
55004
54852
55039
54977
54183
54976
54831
54991
54991
54951
54961
54857
54975
54887
54934
54897
54927
54973
54911
54828
54919
54919
54895
54863
54916
54085
54873
54884
54895
54861
54742
54887
54660
54847
54846
54791
54834
54735
54893
54828
54815
54831
54676
54791
54791
54756
54791
54687
54826
54311
54787
54785
54046
54621
54791
54127
54727
54618
54783
54574
54727
54687
54738
54719
54695
54677
54695
54767
53855
54703
54670
54718
54684
54685
54687
54695
54663
54508
54695
53934
54635
54655
54652
54631
54502
54663
53759
54615
54551
54639
53875
54599
54599
54652
54582
54575
54529
54628
54013
54575
54516
54588
54607
54180
54549
54503
54551
54535
54510
54517
54511
54567
54507
54503
54523
54535
54486
54460
54494
54469
54516
54479
54523
54479
54516
54460
54503
54311
53634
54447
54439
54479
54446
54452
54020
54382
54470
54406
54325
54445
54383
54279
54439
53607
54396
54382
53987
54351
54406
54361
54245
54380
54362
54314
53973
54278
54383
54332
54344
54140
54343
54325
54383
54183
54369
53687
54317
54303
54343
54300
54168
54316
54279
54279
53826
54244
54311
54260
54111
54309
54253
54260
53908
54175
54279
54236
54123
54246
54222
54269
54212
54089
54252
54215
54207
53806
54149
54247
54191
54196
53383
54070
54229
54183
54167
54117
54163
54197
54165
54103
54197
54164
54167
54143
54151
54004
54177
53407
54114
54165
54127
54015
54162
54111
54127
53495
54045
54151
54110
54011
54151
54111
53972
54103
54069
54119
54065
53946
54124
54071
54079
54071
54079
54079
54036
53948
54092
54050
54087
54039
53911
54086
54043
54023
53391
54020
54046
53741
54012
54068
54006
53895
54060
54006
53861
54059
53987
53884
54039
53383
53991
54020
53895
53980
53967
53980
53895
54006
53970
53851
54010
53964
53815
54007
53964
53858
53967
53943
53843
53998
53943
53876
53967
53116
53922
53946
53653
53911
53940
53910
53795
53959
53914
53895
53325
53812
53382
53872
53927
53884
53745
53908
53887
53895
53447
53885
53895
53863
53735
53885
53863
53895
53671
53863
53875
53098
53723
53882
53860
53853
53555
53823
53895
53842
53851
53223
53763
53887
53831
53767
53829
53823
53812
53759
53829
53838
53181
53799
53853
53786
53751
53828
53796
53671
53843
53799
53743
53713
53767
53831
53767
53796
53654
53788
53767
53800
53759
53740
53799
53767
53630
53806
53750
53656
53784
53763
53749
53663
53734
53783
53071
53604
53767
53735
53740
52956
53596
53791
53723
53581
53767
53711
53631
53591
53652
53706
53723
53718
53724
53147
53631
53751
53718
53607
53734
53727
53740
53710
53572
53734
53705
53679
53631
53671
53742
53703
53679
53351
53687
53711
53685
53599
53694
53694
53708
53668
53582
53620
53679
53701
53671
53559
53652
53670
53695
53223
53544
53715
53663
53674
53567
53663
53679
53527
53660
53694
53654
53525
53679
53667
53654
53359
53638
53703
53671
53613
53470
53639
53694
53655
53676
53183
53671
53715
53668
53563
53671
53639
53676
53015
53599
53695
53639
53532
53703
53655
53511
53695
53644
53511
53698
53639
53654
53423
53628
53699
53661
53668
53036
53525
53685
53661
53672
53639
53547
53679
53645
53663
53331
53511
53679
53651
53679
53639
53546
53639
53639
53694
53647
53541
53708
53659
53661
53372
53661
53687
53658
53629
53703
53671
53631
53692
53672
53679
53655
53679
53670
53318
53655
53697
53647
53586
53563
53303
53540
53014
53695
53181
53566
53714
53687
53708
53675
53568
53620
53677
53708
53679
53571
53703
53687
53726
53694
53712
53223
53599
53702
53708
53717
53623
53676
53708
53048
53666
53727
53687
53690
53462
53684
53672
53687
53679
53602
53716
53692
53607
53722
53680
53669
53628
53663
53714
53660
53589
53727
53687
53626
53636
53674
53695
52997
53575
53732
53678
53692
53677
53575
53735
53676
53660
53383
53605
53704
53684
53629
53719
53674
53532
53690
53668
53702
53678
53671
53110
53596
53731
53687
53551
53703
53675
53693
53255
53595
53734
53683
53679
53678
53543
53652
53669
53718
53679
53711
53663
53563
53715
53681
53710
53677
53588
53431
53676
53735
53692
53700
53671
53575
53727
53687
53709
53015
53585
53687
53727
53637
53679
53735
53703
53711
52999
53636
53742
53711
53738
53696
53620
53652
53703
53743
53703
53668
53740
53714
53583
53746
53704
53653
53703
53720
53756
53703
53678
53703
53721
53730
53714
53618
53716
53740
53721
53255
53639
53316
53637
53759
53735
53733
53661
53703
53767
53724
53764
53723
53663
53679
53732
53767
53736
53613
53767
53735
53651
53767
53751
53623
53805
53733
53620
53767
53748
53704
53753
53748
53767
53014
53666
53796
53757
53652
53799
53762
53748
53663
53759
53764
53799
53763
53791
53587
53767
53799
53380
53759
53798
53767
53641
53740
53767
53791
53767
53646
53823
53799
53767
53671
53767
53831
53791
53798
53511
53788
53824
53095
53716
53823
53799
53767
53679
53814
53828
53159
53728
53839
53804
53863
53796
53834
53797
53820
53539
53735
53827
53829
53850
53815
53708
53821
53820
53847
53823
53847
53831
53842
53092
53695
53676
53749
53732
53716
53620
53691
53663
53814
53837
53712
53855
53844
53884
53850
53870
53846
53854
53871
53840
53740
53883
53845
53895
53871
53727
53810
53851
53890
53863
53852
53738
53870
53871
53662
53856
53919
53870
53890
53298
53757
53873
53863
53927
53884
53908
53895
53908
53894
53893
53212
53850
53895
53895
53206
53765
53740
53783
53798
53884
53950
53916
53953
53895
53926
53903
53818
53830
53926
53958
53929
53916
53405
53895
53243
53819
53799
53909
53967
53941
53972
53925
53815
53991
53940
53948
53934
53850
53988
53962
53878
53862
53957
53967
53511
53944
53999
53958
53881
54014
53964
53967
53535
53876
53943
53969
53988
53600
53980
54015
53495
53991
53990
53926
53991
53991
53679
53975
54023
53989
53887
53991
54005
54038
53999
54010
53308
53950
54054
54004
54014
53415
53895
54052
54015
54055
54019
54022
54023
53959
53629
53903
54084
54023
54020
53745
54022
54069
54039
54023
53927
54055
54055
54018
53910
54015
54052
54076
54036
53987
53927
54039
54079
54063
54095
54054
54116
53340
53951
53991
54036
54095
54078
54087
54070
54039
53759
53976
54095
54085
54135
54086
54087
54079
54015
54045
54086
54140
54095
54006
53956
54095
54144
54100
53996
54071
54119
54108
53898
54090
54140
54119
54156
54126
54052
53767
54108
54132
54135
54175
54135
54167
54127
54124
54124
54092
53607
54103
54183
54143
54175
53431
54111
54207
54151
54196
54151
54039
54213
54149
54046
54183
54173
54190
53926
54111
54183
54198
54196
54023
54188
54199
53527
54079
54060
54188
54247
54196
54178
53796
54087
54172
54215
54247
54199
54134
54255
54220
54226
53589
54222
54260
54219
54136
54215
54231
54276
54244
54135
54279
54238
54242
54207
54247
54279
53537
54143
54278
54263
54275
53597
54151
54297
54277
54319
54255
54166
54164
54279
54322
54279
54263
54188
54279
54341
54307
54268
54343
53866
54191
53759
54333
54343
54356
54305
54204
54335
53987
54223
54215
54268
54351
54343
54372
54343
54388
54348
54373
53930
54303
54404
54364
54407
54373
54363
53810
54301
53879
54279
53971
54343
54370
54356
54388
54382
54439
54397
54430
54407
54421
54399
54302
54439
54405
54465
54428
54434
54415
54304
54377
54437
54463
54446
54338
54480
54455
54471
53828
54343
54423
54470
54471
53870
54494
54487
54527
54468
54370
54535
54486
54366
54420
54494
54522
53812
54503
54542
53845
54517
54535
54436
54523
54535
54455
54535
54510
54535
54543
54552
53815
54516
54594
54564
54443
54604
53895
54447
54618
53831
54516
54630
54569
54482
54630
54599
54590
54643
54604
54535
54605
54615
54639
54615
54631
54615
54598
54647
53893
54604
54686
54628
54613
54591
54640
54670
54628
54549
54696
54640
54653
54319
54663
54721
54660
54719
54663
54658
54550
54662
54702
54679
54678
53958
54535
54660
54677
54696
53914
54660
54717
54686
54670
54457
54650
54727
54695
54615
54668
54697
54733
54703
54712
54676
54695
54663
54745
54727
54620
54751
54703
54593
54760
54740
54732
54575
54727
54773
54709
54623
54279
54663
54767
54734
54751
54614
54759
54756
54279
54732
54775
54764
54676
54791
54743
54690
54820
54767
54639
54791
54773
54759
54756
54775
54790
54326
54764
54823
54785
54812
54340
54750
54391
54767
54844
54813
54724
54820
54791
54823
54791
54687
54823
54791
54815
54172
54764
54876
54828
54852
54834
54724
54764
54842
54854
54678
54838
54884
54828
54751
54861
54846
54872
54839
54722
54852
54871
54822
54903
54863
54875
54695
54887
54901
54585
54876
54919
54895
54826
54916
54127
54901
54871
54894
54954
54729
54911
54852
54919
54959
54164
54908
54852
54964
54911
54916
54932
54845
54936
54974
54934
54916
54914
54964
54871
54165
54955
54937
54823
54956
54999
54782
54942
54831
55006
54188
54967
54964
55004
54964
54956
54978
55004
54959
54817
55028
54231
54983
54964
55018
54981
54992
54919
55013
54884
55004
54879
55045
54991
54972
55023
55015
55014
54991
55023
55060
54828
55015
55021
54903
55071
54958
55016
54954
55047
55047
54303
55034
54957
55046
55102
54407
55039
54945
55047
55105
54742
55063
54948
55047
55103
55007
55047
55044
55022
55094
55118
55094
55062
55061
55082
55012
55079
55095
55110
54516
55071
55018
55079
55135
55082
55084
55103
55119
54693
55092
54978
55135
55110
54268
55111
55018
55108
55172
54298
55110
54983
55164
54484
55116
55039
55159
54900
55119
55040
55134
55047
55132
55136
55047
55164
55080
55132
55143
54999
55167
55206
54924
55162
55167
55031
55183
55207
54839
55166
55165
55046
55172
55217
55009
55175
55170
55166
55023
55207
55223
54876
55167
55167
55191
55175
55062
55095
55174
55207
55226
55237
55209
55191
55193
55198
55166
55151
55220
55233
55234
54847
55210
55199
55207
55079
55188
55246
55271
55263
54779
55218
55153
55247
55272
54695
55228
55229
55119
55303
55143
55231
55230
55165
55256
55302
55220
54498
55240
55243
55119
55249
55297
55191
55252
55246
55199
55266
55316
55014
55266
55242
55255
55292
55324
55255
55276
55130
55298
55335
54871
55278
55222
55303
55320
55236
54534
55303
55175
55332
55250
55294
55295
55271
55343
54772
55303
55163
55326
55277
55303
55303
55303
55359
55303
55294
55332
55357
55327
55284
55351
55234
55332
55271
55351
55333
55323
55214
55342
55228
55303
55319
55351
55380
54971
55335
55265
55236
55359
55365
55339
55351
55279
55392
55235
55340
55342
55207
55388
55303
55364
55350
55354
55407
55352
55350
55352
55236
55357
55364
55220
55413
55391
55359
55373
55302
55383
55420
55303
55360
55382
55248
55431
55396
55375
55373
55414
55381
55397
55373
55428
55225
55396
55276
55412
55438
55413
55407
55421
55412
55399
55419
55342
55460
54614
55419
55422
55271
55440
55468
54685
55429
55299
55442
55303
55428
55431
55284
55367
55457
55482
54837
55431
55390
55444
55508
55383
55431
55463
55460
55507
55447
55444
55420
55515
54656
55476
55327
55495
55406
55464
55457
55470
55527
54683
55471
55460
55519
55468
55462
55498
55452
55492
55489
55460
55549
55231
55495
55461
55518
55031
55508
55511
55543
55497
55502
55423
55559
55300
55523
55481
55540
55559
54894
55521
55385
55559
54944
55535
55404
55559
55518
55530
55535
55415
55576
55558
55548
55542
55559
55593
55351
55546
55547
55444
55558
55615
55431
55552
55428
55599
55423
55559
55580
55455
55540
55628
55519
55571
55594
55604
55631
54781
55588
55535
55602
55636
55591
55551
55628
55015
55591
55620
55540
55623
55590
55630
55680
55188
55615
55622
55657
55636
55607
55663
55134
55623
55532
55679
54999
55638
55496
55678
55214
55647
55527
55684
55380
55668
55558
55692
55590
55651
55606
55673
55633
55655
55598
55711
55509
55663
55668
55543
55692
55719
55673
55679
55655
55740
55682
55672
55615
55708
55743
55732
55239
55692
55647
55703
55732
55687
55709
55719
55765
54919
55718
55623
55743
55727
55726
55700
55721
55781
55718
55668
55751
55783
55719
55727
55663
55684
55756
55783
55734
55738
55743
55604
55759
55813
55765
54919
55748
55631
55751
55801
55796
55303
55774
55780
55660
55757
55799
55743
55765
55744
55756
55814
54934
55774
55689
55815
55773
55767
55599
55767
55787
55741
55775
55692
55788
55780
55760
55773
55681
55796
55815
54934
55751
55630
55808
55543
55780
55654
55786
55788
55767
55764
55768
55815
55357
55772
55735
55791
55815
55772
55759
55756
55815
54936
55781
55628
55786
55809
55500
55753
55759
55745
55815
55505
55764
55758
55764
55751
55634
55780
55797
55642
55756
55754
55783
55746
55687
55780
55815
55237
55759
55740
55737
55815
55116
55759
55703
55815
54916
55764
55663
55815
55473
55743
55623
55772
55623
55767
55687
55777
55789
55758
55716
55783
55668
55747
55764
55629
55803
55740
55759
55661
55798
55756
55758
55676
55220
55710
55806
55759
55763
55733
55742
55405
55714
55760
55776
55748
55615
55772
55473
55749
55607
55776
55654
55751
55616
55804
55453
55749
55710
55758
55768
55724
55735
55743
55783
55453
55735
55614
55790
54863
55719
55746
55768
55727
55660
55751
55597
55719
55638
55775
55119
55743
55582
55774
55605
55725
55727
55579
55751
55717
55716
55719
55710
55559
55749
55359
55709
55702
55596
55743
55759
55100
55711
55684
55668
55751
55431
55687
55684
55690
55607
55678
55715
55743
55398
55675
55672
55532
55709
55687
54853
55668
55527
55709
55151
55655
55683
55711
55661
55639
55668
55719
54813
55660
55519
55687
55583
55640
55639
55527
55687
55559
55630
55626
55624
55692
55095
55612
55635
55676
55612
55620
55599
55664
54893
55604
55478
55605
55631
55632
54791
55605
55509
55607
55639
55535
55578
55575
55518
55616
55258
55582
55431
55596
55559
55559
55575
55431
55568
55623
54919
55553
55508
55556
55623
55239
55524
55463
55540
55579
55303
55526
55399
55544
55574
54815
55495
55492
55359
55543
55428
55502
55431
55500
55543
54917
55480
55467
55344
55519
55479
55464
55477
55324
55490
55407
55455
55439
55389
55476
55302
55439
55404
55429
55498
55413
55415
55408
55471
55303
55415
55343
55428
55404
55383
55383
55364
55444
54809
55395
55220
55404
55383
55359
55365
55221
55381
55325
55347
55223
55367
55189
55348
55287
55367
54524
55335
55208
55343
55292
55294
55279
55255
55327
55345
54535
55287
55158
55249
55303
55278
54758
55255
55228
55258
55301
54772
55267
55164
55252
55276
55222
55168
55236
55244
55188
55206
55204
55215
55183
55076
55200
55151
55175
55143
55183
55141
55156
55015
55182
55021
55142
55096
55138
55111
55014
55148
54366
55088
55141
55087
55042
55079
55075
55060
55029
55070
55087
54257
55036
54911
55086
55039
55020
54999
55039
55061
54605
55007
54895
55036
55001
54980
54980
54879
55015
54711
54972
54855
54979
54983
54932
54925
54927
54973
54724
54917
54911
54823
54918
54932
54885
54893
54748
54886
54905
54863
54855
54848
54844
54902
54062
54836
54740
54847
54854
54791
54760
54828
54845
54693
54784
54780
54621
54791
54639
54743
54740
54691
54781
54210
54724
54588
54733
54631
54692
54703
54583
54721
54279
54677
54549
54713
54644
54623
54678
54647
53966
54629
54549
54628
54646
54609
54598
54589
54560
54622
53934
54560
54420
54591
53736
54535
54519
54519
54534
54375
54559
53916
54494
54447
54535
54442
54348
54495
54261
54447
54313
54484
54279
54426
54303
54440
54442
54399
54388
54263
54401
54397
54375
54365
54375
54340
54356
54242
54374
53551
54319
54271
54356
54303
54151
54312
54279
54175
54304
53623
54255
54252
54174
54223
54127
54254
54212
54097
54229
54196
54148
54223
54151
54151
54167
54119
54135
54014
54172
54123
54107
54108
54143
53635
54083
53958
54121
54063
54015
54108
54040
53943
54077
53895
54023
53892
54055
53831
54005
54007
53986
53980
53842
53984
53956
53991
53940
53935
53765
53919
53967
53911
53924
53895
53844
53799
53871
53895
53871
53723
53885
53827
53863
53815
53695
53788
53785
53831
53767
53732
53786
53767
53723
53797
53743
53751
53657
53718
53767
53711
53703
53535
53620
53707
53670
53693
53660
53543
53663
53653
53653
53614
53620
53095
53479
53604
53599
53620
53579
53580
52911
53471
53589
53527
53495
53558
53511
53492
53526
53484
53493
53439
53511
53470
53330
53479
53443
53347
53478
53428
53393
52839
53261
53368
53380
53415
53367
53371
52647
53220
53380
53342
53334
53255
53294
52951
53222
53319
53255
53324
53255
53277
53239
53255
53247
53255
53221
53223
53205
53150
52596
53109
52716
53098
52916
53142
53182
53140
53103
52861
52978
53061
53086
53126
53068
53127
53079
53119
53060
53082
53055
52924
52926
53031
53044
53018
52999
52462
52903
52997
52964
52999
52949
52959
52946
52846
52526
52847
52334
52796
52612
52814
52855
52879
52903
52853
52713
52831
52839
52861
52799
52794
52517
52703
52821
52775
52783
52735
52688
52548
52710
52759
52711
52639
52636
52687
52671
52711
52656
52655
52628
52605
52372
52598
52615
52596
52604
52567
52604
52550
52460
52380
52447
52460
52404
52175
52383
52295
52471
52519
52455
52487
52455
52468
52428
52442
52412
52432
52391
52191
52396
52375
52407
52359
52276
52031
52276
52326
52316
52351
52305
52295
52276
52223
51895
52231
52269
52231
52263
52226
52231
52207
52180
51803
52140
52196
52172
52178
52143
52038
52087
52028
52084
52076
52156
52103
52109
52078
52087
52079
52098
52046
52055
51676
51941
51776
51900
51670
51898
51719
51863
51677
51916
51948
51975
51943
51951
51908
51942
51912
51916
51892
51885
51189
51871
51850
51859
51844
51868
51833
51840
51799
51815
51781
51813
51791
51788
51772
51796
51756
51756
51719
51719
51111
51591
51513
51678
51719
51691
51711
51668
51683
51638
51647
51601
51642
51628
51637
51558
51577
51575
51619
51567
51597
51581
51575
51556
51580
51534
51559
51519
51531
51488
51366
51492
51463
51501
51463
51485
51446
51356
51413
51423
51459
51412
51364
51048
51274
51404
51382
51371
50926
51318
51375
51335
51225
51351
51311
51278
51326
50895
51204
51231
51158
51293
51253
51127
51207
51246
51250
51079
51100
51148
51195
51228
51191
51174
51175
51039
51159
51149
51167
51109
51143
51124
51151
51100
50943
50983
51103
51095
51079
50879
50997
51049
51039
51055
51039
51033
51023
50950
50334
50884
50967
50918
50991
50959
50987
50951
50975
50942
50895
50813
50928
50914
50935
50892
50918
50878
50916
50879
50877
50740
50823
50863
50835
50863
50822
50833
50820
50733
50752
50796
50836
50663
50763
50787
50657
50747
50767
50735
50319
50727
50719
50710
50663
50695
50724
50614
50079
50690
50096
50631
50695
50639
50642
50311
50582
50639
50613
50640
50601
50631
50591
50620
50581
50598
50567
50574
50563
50559
50539
50540
50300
50525
50561
50503
50487
50183
50398
50503
50484
50501
50484
50501
50471
50371
50004
50335
50167
50327
50292
50321
50402
50403
50319
50344
50414
50391
50403
50375
50388
50360
50376
50342
50367
50343
50352
50330
50215
50213
50307
50336
50311
50319
50292
50297
50287
50292
50269
50225
50055
50247
50275
50244
50246
49611
50119
50236
50214
50231
50207
50092
50127
50183
50222
50181
50180
50174
50051
50165
50165
50162
49716
50133
50150
49671
50109
50132
49637
50108
50128
50089
49996
50111
50087
50095
50087
49982
50092
50052
49991
49890
50042
50055
50022
49927
49940
50022
50022
50006
49898
50007
49983
50007
49988
49879
49975
49970
49980
49597
49873
49943
49936
49959
49455
49860
49965
49924
49927
49307
49834
49924
49908
49916
49884
49891
49883
49815
49647
49847
49895
49854
49820
49820
49833
49850
49518
49799
49839
49814
49711
49767
49823
49820
49799
49807
49535
49692
49777
49765
49814
49775
49783
49759
49756
49743
49711
49351
49671
49207
49623
49756
49727
49729
49706
49724
49711
49708
49710
49700
49685
49719
49671
49718
49671
49687
49671
49683
49607
49447
49620
49636
49687
49645
49668
49631
49666
49623
49623
49501
49543
49524
49447
49487
49484
49583
49575
49543
49346
49533
49102
49534
49572
49559
49556
49575
49563
49557
49567
49557
49543
49573
48996
49415
49379
49466
49551
49519
49543
49517
49526
49500
49461
49415
49478
49511
49490
49511
49495
49503
49060
49383
48917
49356
49415
49449
49492
49471
49468
48886
49359
49399
49447
49462
49442
49365
49335
49414
49464
49427
49452
49412
49439
49405
49415
49402
49399
49415
49349
49269
49391
49434
49391
49410
49399
49396
48860
49335
49375
49378
49404
49383
49394
49375
49383
49354
49359
49262
49361
49391
49359
49367
49358
49349
49351
49282
49061
49216
49068
49225
49315
49299
49332
49303
49348
49319
49335
49311
49287
48903
49215
49311
49287
49319
48670
49175
49255
49287
49319
49295
49243
48948
49199
49262
49287
49311
49277
49311
49278
49248
49256
49279
49287
49279
49146
49276
49270
49270
49038
49159
49269
49253
49287
49265
49255
49254
49252
48739
49135
49243
49235
49270
49247
49191
49122
49220
49281
49251
49239
49239
49236
48627
49117
49191
49228
49260
49222
49236
49215
49190
48790
49106
49113
49180
49242
49219
49191
49108
49207
49237
49215
49141
49131
49191
49223
49198
49153
48799
49088
48975
49095
49198
49193
49231
49204
49207
48702
49224
49095
49190
49207
49188
49031
49107
49126
49153
49196
49159
49212
49183
49188
48587
49078
49191
49180
49210
49159
49155
48717
49039
48766
49063
48676
49028
49050
49063
49076
49058
49127
49121
49159
49135
49092
49036
49086
49159
49135
49143
49124
49095
49110
49135
49104
49143
49094
49143
49115
49063
49060
49047
48992
48879
48973
48868
48980
48927
49012
49076
49069
49119
49095
49116
49084
49103
49095
49023
49047
49001
49015
48996
49055
49031
49047
49087
49076
49082
49071
49063
49077
48967
48976
49068
49071
49047
49071
48430
49028
48500
48967
48743
48980
49080
49058
49060
48596
48965
49071
49052
49047
48716
49012
49083
49045
48921
48974
49047
49047
49047
49049
48812
49031
49070
48379
48929
48991
49047
49046
48421
48941
48894
48927
48668
48927
48746
48909
48391
49053
49036
49043
49031
49039
48375
48902
48856
48924
48991
49015
49063
49012
49056
49023
49043
49009
49030
49014
48996
48434
49003
48380
48932
48826
48934
49027
49015
49044
49002
49047
49007
49013
48436
48927
49044
49002
49023
48443
48892
49015
49015
49028
48583
48983
49031
49004
49006
48855
49004
49022
48358
48887
48919
48996
49039
49012
49000
48647
48877
49031
49013
49015
48428
48917
49037
48999
48986
48868
48992
49022
48996
49022
48995
48870
48965
49007
49031
49001
48998
48366
48887
48771
48863
48951
49004
49030
48980
48884
48839
48874
48711
48900
48995
48988
49023
48991
48999
48359
48868
49015
48999
49015
48351
48894
48884
48984
49015
48997
48999
48999
48860
48924
48999
48996
48980
48980
48711
48922
49012
48987
49004
48983
48991
48456
48862
48730
48900
49007
48972
