EGG
24554
24549
24551
24539
24535
24543
24539
24533
24517
24519
24524
24497
24507
24503
24486
24489
24487
24492
24484
24485
24455
24473
24469
24456
24467
24460
24447
24431
24450
24444
24381
24430
24437
24423
24425
24423
24407
24435
24412
24404
24411
24396
24397
24411
24391
24382
24394
24373
24375
24367
24381
24358
24351
24352
24351
24349
24351
24343
24354
24327
24317
24343
24321
24319
24341
24316
24313
24342
24308
24300
24279
24315
24292
24277
24296
24283
24276
24311
24279
24277
24263
24273
24270
24256
24273
24263
24255
24292
24259
24251
24251
24179
24269
24251
24237
24227
24249
24240
24223
24156
24239
24221
24224
24209
24249
24217
24214
24199
24224
24209
24202
24194
24215
24207
24199
24212
24199
24198
24203
24188
24187
24224
24180
24185
24171
24191
24183
24169
24182
24167
24167
24212
24178
24167
24161
24190
24167
24154
24206
24172
24167
24156
24199
24164
24162
24207
24161
24151
24139
24169
24151
24135
24169
24142
24149
24127
24199
24145
24175
24136
24143
24187
24166
24151
24151
24142
24148
24137
24155
24151
24153
24143
24140
24139
24126
24135
24140
24138
24134
24141
24135
24137
24134
24139
24133
24122
24127
24124
24130
24186
24191
24167
24159
24157
24144
24140
24140
24137
24135
24135
24135
24131
24134
24127
24125
24134
24130
24191
24203
24191
24199
24165
24183
24133
24131
24127
24125
24132
24132
24148
24190
24143
24150
24210
24132
24143
24202
24143
24145
24207
24153
24159
24199
24157
24149
24169
24159
24152
24153
24153
24154
24166
24169
24167
24164
24159
24166
24162
24167
24153
24159
24164
24159
24238
24230
24197
24191
24175
24176
24181
24168
24175
24184
24183
24183
24188
24181
24234
24193
24190
24259
24196
24199
24268
24207
24209
24193
24204
24218
24247
24204
24231
24204
24216
24223
24221
24223
24239
24218
24227
24242
24293
24236
24235
24297
24238
24241
24250
24247
24245
24249
24254
24255
24255
24248
24250
24252
24252
24246
24244
24255
24263
24262
24271
24262
24267
24273
24275
24279
24280
24280
24285
24284
24292
24289
24294
24295
24303
24326
24340
24294
24310
24294
24307
24334
24311
24316
24303
24312
24343
24319
24327
24310
24327
24325
24318
24319
24369
24334
24341
24335
24339
24375
24348
24353
24399
24348
24363
24356
24362
24398
24359
24380
24361
24375
24427
24377
24379
24368
24391
24394
24385
24395
24394
24447
24406
24412
24414
24417
24418
24422
24415
24419
24417
24425
24421
24474
24471
24455
24479
24460
24455
24455
24451
24460
24451
24463
24473
24465
24485
24482
24482
24487
24483
24487
24497
24493
24493
24480
24487
24495
24519
24541
24540
24532
24523
24528
24540
24540
24527
24538
24524
24535
24526
24539
24543
24537
24544
24551
24547
24559
24553
24562
24559
24558
24566
24559
24570
24572
24570
24576
24571
24583
24581
24583
24599
24605
24598
24595
24612
24604
24605
24621
24663
24620
24619
24658
24625
24631
24625
24634
24649
24641
24636
24647
24640
24643
24670
24692
24651
24647
24663
24669
24673
24693
24676
24671
24684
24697
24670
24684
24683
24690
24695
24698
24698
24703
24703
24732
24698
24708
24711
24711
24727
24722
24734
24766
24727
24735
24738
24736
24753
24766
24735
24748
24753
24765
24796
24743
24756
24764
24779
24805
24759
24766
24775
24776
24807
24772
24773
24790
24794
24788
24824
24779
24783
24787
24799
24802
24803
24828
24844
24804
24811
24811
24820
24858
24815
24826
24827
24831
24833
24814
24823
24831
24834
24839
24877
24837
24843
24846
24846
24860
24877
24839
24846
24856
24851
24870
24867
24871
24860
24855
24861
24887
24858
24871
24868
24885
24903
24866
24868
24869
24875
24890
24892
24883
24883
24905
24876
24879
24883
24888
24909
24879
24890
24894
24894
24913
24923
24887
24895
24900
24908
24923
24889
24903
24907
24906
24943
24900
24908
24911
24930
24905
24914
24909
24917
24943
24919
24913
24942
24919
24940
24922
24920
24940
24954
24919
24917
24932
24924
24935
24947
24940
24920
24940
24938
24944
24929
24940
24939
24941
24948
24958
24944
24941
24949
24951
24967
24948
24948
24963
24961
24963
24971
24958
24955
24966
24970
24967
24969
24988
24967
24966
24975
24973
24979
24987
24993
24967
24978
24991
24990
25003
24983
24984
24989
25005
24983
24985
25000
25006
25007
25019
24990
25002
25009
25010
24998
25029
25017
25029
25023
25015
25028
25040
25013
25023
25031
25036
25055
25023
25039
25036
25052
25042
25036
25052
25045
25054
25060
25080
24979
25041
25063
25071
25063
25069
25087
25068
25076
25077
25093
25086
25105
25087
25083
25087
25116
25084
25095
25086
25102
25116
25116
25111
25107
25122
25112
25125
25125
25135
25117
25127
25135
25157
25121
25128
25140
25154
25156
25167
25153
25152
25153
25157
25170
25183
25158
25159
25172
25163
25182
25175
25191
25182
25165
25204
25191
25202
25187
25209
25199
25210
25205
25218
25209
25222
25211
25223
25223
25215
25250
25238
25241
25239
25254
25247
25250
25243
25278
25263
25265
25254
25295
25283
25279
25271
25168
25291
25283
25290
25283
25304
25297
25297
25302
25301
25313
25311
25314
25335
25334
25319
25322
25323
25327
25333
25351
25335
25343
25340
25351
25365
25351
25351
25371
25382
25368
25367
25380
25396
25387
25377
25381
25431
25396
25400
25407
25399
25423
25415
25407
25404
25455
25429
25426
25423
25449
25440
25442
25441
25430
25477
25466
25453
25463
25454
25461
25483
25479
25471
25465
25515
25485
25482
25484
25534
25506
25501
25485
25535
25512
25506
25516
25515
25540
25527
25516
25519
25544
25556
25537
25527
25545
25535
25533
25573
25547
25551
25557
25547
25551
25589
25575
25565
25564
25567
25561
25587
25573
25571
25573
25574
25595
25593
25593
25586
25591
25583
25618
25604
25607
25599
25653
25618
25623
25655
25607
25602
25627
25623
25624
25639
25655
25614
25628
25639
25639
25628
25645
25647
25692
25636
25647
25654
25654
25663
25684
25593
25647
25655
25667
25663
25663
25671
25684
25679
25698
25708
25703
25711
25703
25673
25666
25684
25697
25687
25695
25700
25713
25683
25687
25696
25707
25705
25709
25733
25737
25699
25705
25716
25715
25723
25722
25751
25709
25711
25725
25726
25719
25719
25732
25759
25725
25721
25727
25735
25727
25743
25738
25748
25721
25725
25742
25739
25738
25738
25740
25757
25776
25749
25741
25745
25746
25763
25789
25742
25741
25740
25754
25751
25746
25786
25765
25746
25751
25748
25740
25771
25756
25760
25738
25779
25767
25742
25748
25743
25737
25764
25761
25757
25739
25752
25782
25775
25759
25757
25750
25744
25767
25756
25759
25741
25806
25761
25751
25751
25741
25780
25759
25758
25754
25756
25794
25765
25759
25748
25753
25787
25753
25750
25751
25768
25751
25741
25779
25756
25742
25754
25725
25789
25749
25742
25735
25735
25763
25739
25733
25727
25756
25743
25732
25734
25757
25735
25726
25727
25762
25724
25727
25721
25727
25745
25739
25715
25725
25734
25724
25735
25703
25711
25713
25701
25709
25709
25719
25713
25698
25702
25707
25698
25693
25700
25700
25705
25679
25682
25687
25686
25685
25707
25703
25656
25670
25666
25678
25699
25655
25665
25657
25663
25674
25671
25639
25645
25643
25653
25661
25619
25629
25628
25634
25639
25620
25625
25621
25615
25628
25629
25598
25604
25599
25595
25603
25607
25620
25583
25575
25578
25580
25569
25572
25583
25591
25557
25563
25553
25565
25547
25565
25551
25554
25551
25545
25522
25517
25524
25516
25517
25524
25511
25487
25508
25485
25485
25484
25476
25495
25475
25473
25475
25453
25475
25462
25453
25445
25428
25441
25447
25435
25414
25427
25426
25412
25415
25394
25388
25388
25387
25386
25367
25372
25375
25370
25367
25375
25351
25337
25340
25335
25342
25337
25332
25343
25311
25313
25321
25306
25304
25314
25316
25284
25283
25286
25278
25287
25286
25292
25247
25260
25247
25254
25245
25268
25245
25236
25255
25215
25219
25203
25204
25209
25188
25187
25188
25180
25180
25189
25159
25159
25165
25151
25143
25148
25149
25146
25141
25126
25121
25127
25117
25112
25108
25111
25113
25082
25103
25081
25076
25063
25079
25054
25051
25039
25034
25065
25041
25029
25017
25009
25038
25013
25003
24999
24989
24999
24987
24976
24970
24962
24983
24965
24957
24937
24950
24949
24940
24924
24918
24943
24906
24893
24897
24882
24903
24881
24884
24870
24859
24879
24863
24847
24839
24830
24823
24809
24818
24803
24807
24806
24807
24793
24784
24781
24773
24775
24765
24763
24747
24751
24757
24735
24735
24744
24716
24710
24733
24692
24701
24701
24675
24677
24670
24666
24657
24667
24650
24646
24638
24615
24625
24635
24603
24612
24615
24582
24593
24581
24575
24583
24559
24560
24571
24549
24545
24548
24540
24534
24518
24516
24425
24508
24511
24489
24479
24488
24471
24471
24466
24444
24461
24449
24442
24428
24419
24407
24429
24423
24401
24401
24387
24385
24374
24369
24358
24351
24353
24344
24341
24343
24327
24323
24327
24327
24308
24289
24286
24277
24273
24274
24260
24256
24251
24249
24250
24231
24234
24221
24213
24217
24210
24191
24188
24183
24182
24177
24164
24166
24190
24148
24126
24126
24124
24118
24155
24133
24133
24123
24117
24107
24105
24092
24095
24071
24071
24076
24060
24042
24040
24039
24027
24036
24022
24006
24001
23978
23974
23992
23967
23959
23978
23937
23946
23963
23935
23919
23943
23919
23911
23935
23907
23893
23878
23879
23901
23863
23860
23903
23859
23840
23839
23833
23863
23823
23815
23814
23808
23830
23796
23818
23783
23795
23809
23768
23782
23759
23761
23750
23739
23740
23740
23774
23735
23733
23717
23722
23687
23701
23716
23690
23695
23670
23678
23718
23679
23678
23646
23655
23693
23655
23665
23637
23641
23623
23622
23615
23611
23645
23603
23604
23585
23594
23604
23572
23581
23566
23572
23555
23559
23599
23555
23564
23530
23553
23559
23527
23554
23516
23514
23515
23509
23527
23503
23500
23517
23494
23490
23520
23471
23483
23469
23471
23506
23463
23462
23451
23453
23447
23446
23465
23435
23439
23423
23427
23446
23421
23431
23446
23411
23394
23451
23396
23400
23380
23398
23392
23377
23380
23401
23365
23375
23396
23356
23361
23348
23349
23356
23353
23344
23356
23366
23366
23325
23338
23328
23332
23316
23320
23324
23312
23350
23309
23303
23301
23294
23303
23287
23291
23302
23275
23283
23295
23269
23271
23325
23265
23277
23260
23261
23294
23260
23249
23241
23250
23269
23243
23249
23292
23241
23251
23219
23228
23263
23227
23225
23279
23228
23236
23212
23216
23241
23207
23209
23237
23208
23210
23263
23206
23207
23192
23199
23235
23191
23191
23172
23193
23214
23188
23195
23188
23175
23175
23231
23183
23179
23169
23171
23178
23199
23151
23161
23175
23141
23166
23179
23145
23151
23175
23151
23155
23182
23142
23144
23205
23145
23141
23132
23158
23175
23140
23153
23126
23143
23166
23133
23128
23131
23140
23143
23127
23135
23155
23126
23137
23137
23172
23126
23133
23116
23122
23147
23117
23127
23142
23119
23124
23140
23110
23130
23103
23119
23151
23119
23127
23114
23122
23118
23121
23153
23119
23127
23103
23117
23100
23112
23132
23110
23118
23144
23120
23148
23111
23127
23111
23119
23142
23102
23118
23143
23121
23126
23107
23121
23134
23113
23116
23145
23105
23110
23165
23123
23130
23111
23124
23114
23126
23150
23118
23131
23137
23114
23142
23118
23123
23108
23122
23164
23127
23136
23121
23124
23127
23133
23117
23124
23154
23119
23159
23161
23151
23141
23146
23151
23124
23133
23130
23138
23145
23150
23143
23139
23151
23141
23141
23137
23142
23141
23143
23136
23145
23143
23143
23146
23148
23146
23159
23152
23146
23148
23149
23153
23151
23145
23149
23151
23148
23155
23166
23160
23157
23156
23179
23196
23205
23148
23162
23157
23167
23166
23172
23175
23165
23173
23170
23172
23169
23172
23169
23175
23173
23175
23169
23183
23177
23171
23171
23179
23183
23181
23181
23183
23183
23191
23189
23188
23202
23198
23194
23191
23193
23185
23196
23202
23201
23195
23204
23198
23209
23212
23212
23213
23208
23209
23208
23215
23218
23216
23223
23229
23217
23228
23228
23231
23230
23230
23236
23223
23234
23233
23234
23233
23238
23245
23235
23239
23245
23253
23242
23247
23250
23261
23248
23271
23253
23263
23255
23265
23303
23263
23274
23261
23271
23286
23265
23271
23310
23285
23283
23283
23292
23284
23284
23303
23284
23295
23286
23294
23315
23301
23303
23297
23303
23297
23308
23315
23309
23324
23318
23329
23310
23327
23332
23327
23331
23334
23335
23342
23332
23341
23341
23335
23366
23334
23350
23373
23354
23356
23373
23353
23366
23374
23364
23370
23373
23373
23390
23366
23372
23389
23366
23389
23387
23372
23395
23397
23404
23391
23396
23410
23396
23415
23412
23399
23413
23410
23412
23415
23411
23417
23416
23417
23437
23440
23439
23447
23438
23429
23430
23439
23438
23447
23450
23468
23465
23447
23461
23464
23467
23479
23475
23475
23479
23490
23492
23484
23494
23502
23503
23515
23518
23527
23495
23478
23500
23532
23522
23513
23518
23525
23533
23529
23533
23535
23550
23546
23569
23571
23578
23554
23567
23559
23559
23572
23588
23572
23572
23585
23579
23588
23596
23600
23603
23596
23607
23610
23610
23627
23629
23631
23626
23619
23603
23633
23647
23646
23655
23655
23660
23665
23665
23663
23682
23672
23678
23687
23684
23695
23681
23605
23701
23694
23696
23708
23714
23722
23713
23712
23722
23732
23731
23727
23738
23749
23750
23746
23764
23752
23750
23770
23771
23774
23770
23769
23775
23782
23772
23781
23799
23792
23795
23807
23809
23802
23804
23826
23812
23825
23820
23835
23840
23837
23829
23855
23852
23719
23879
23869
23871
23879
23882
23874
23853
23887
23909
23895
23899
23909
23906
23922
23924
23927
23938
23949
23943
23943
23908
23950
23966
23959
23967
23950
23988
23994
23989
23995
24004
23982
24011
24021
24020
24025
23966
24025
24045
24034
24037
24046
24058
24039
24063
24066
24079
24100
24079
24044
24100
24102
24103
24109
24103
24107
24118
24121
24140
24136
24125
24082
24147
24157
24167
24154
24169
24164
24167
24146
24193
24191
24197
24199
24197
24207
24193
24222
24215
24229
24222
24224
24251
24239
24246
24252
24225
24268
24279
24275
24260
24286
24279
24284
24199
24287
24299
24307
24308
24267
24313
24327
24327
24334
24295
24348
24354
24351
24357
24359
24319
24366
24381
24382
24373
24335
24372
24396
24409
24408
24425
24416
24422
24428
24426
24393
24433
24439
24446
24467
24447
24427
24472
24465
24470
24485
24476
24455
24487
24492
24486
24431
24501
24509
24513
24524
24516
24463
24529
24535
24543
24530
24493
24555
24553
24560
24570
24554
24506
24574
24575
24583
24583
24598
24602
24575
24539
24613
24579
24513
24629
24630
24626
24652
24647
24636
24597
24650
24659
24671
24677
24660
24575
24684
24692
24679
24705
24710
24679
24693
24663
24637
24713
24719
24719
24732
24735
24699
24654
24742
24743
24743
24752
24763
24740
24693
24761
24777
24772
24779
24743
24662
24790
24787
24802
24799
24766
24813
24804
24809
24818
24820
24829
24819
24825
24777
24715
24839
24844
24851
24854
24845
24775
24864
24868
24874
24882
24823
24876
24881
24890
24854
24883
24898
24916
24854
24903
24910
24916
24910
24922
24922
24927
24881
24933
24932
24932
24948
24939
24959
24889
24965
24964
24975
24964
24916
24982
24986
24983
24979
24955
25005
25005
25005
25011
24967
25015
25015
25019
25023
24975
25028
25034
25042
25044
25044
24982
25060
25062
25047
25081
25075
25063
25048
25001
25092
25087
25095
25037
25017
24981
25113
25111
25116
25111
25133
25127
25111
25063
24997
25143
25148
25146
25143
25151
25164
25142
25141
25127
25095
25119
25105
25052
25191
25197
25198
25221
25217
25224
25223
25229
25217
25209
25157
25110
25243
25245
25247
25257
25244
25268
25166
25274
25269
25263
25191
25287
25283
25294
25236
25315
25316
25199
25317
25318
25315
25303
25333
25331
25258
25354
25345
25351
25238
25351
25367
25378
25370
25298
25385
25383
25391
25364
25326
25287
25401
25415
25423
25423
25422
25447
25442
25423
25423
25389
25364
25463
25377
25469
25468
25479
25396
25492
25484
25506
25422
25510
25503
25351
25516
25521
25530
25501
25543
25543
25455
25535
25551
25564
25522
25572
25567
25575
25511
25578
25587
25591
25540
25607
25614
25619
25582
25639
25627
25637
25494
25622
25663
25644
25664
25670
25583
25652
25670
25673
25670
25606
25701
25703
25695
25724
25702
25664
25559
25724
25729
25731
25734
25698
25606
25755
25763
25761
25756
25684
25780
25772
25796
25775
25713
25807
25791
25807
25818
25753
25819
25819
25825
25839
25817
25756
25839
25855
25851
25860
25868
25808
25709
25890
25880
25901
25891
25818
25902
25898
25911
25855
25922
25927
25959
25909
25848
25949
25965
25975
25923
25970
25967
25988
25985
25877
25999
26004
25986
25917
26015
26015
26015
26039
26016
25926
26046
26041
26063
26033
25900
26059
26084
26030
25921
26079
26080
26103
26076
25991
26111
26109
26119
26086
26119
26132
26141
26132
26046
26154
26153
26183
26136
26058
26181
26183
26179
26189
26204
26091
26182
26210
26210
26039
26157
26215
26227
26247
26247
26182
26254
26254
26094
26260
26278
26111
26231
26289
26289
26293
26180
26258
26324
26311
26309
26331
26321
26338
26215
26345
26343
26366
26332
26267
26371
26374
26370
26386
26331
26246
26399
26406
26404
26425
26403
26330
26272
26437
26438
26431
26446
26447
26420
26361
26461
26468
26480
26470
26494
26454
26495
26486
26447
26366
26505
26509
26510
26434
26527
26533
26556
26511
26428
26567
26568
26566
26591
26563
26517
26383
26583
26586
26613
26553
26447
26607
26622
26614
26639
26591
26509
26649
26648
26646
26655
26588
26515
26678
26664
26695
26631
26695
26696
26709
26654
26538
26717
26722
26735
26687
26555
26746
26742
26743
26730
26590
26764
26759
26764
26783
26749
26656
26795
26788
26804
26799
26772
26721
26661
26829
26831
26844
26839
26852
26815
26717
26665
26863
26854
26871
26791
26885
26887
26686
26860
26892
26916
26812
26907
26912
26924
26711
26911
26944
26955
26741
26932
26973
26956
26977
26823
26966
26967
26991
26996
26943
26892
26961
26985
27035
26951
27034
27035
27047
27038
27005
26871
27058
27066
27055
27087
27036
26959
26884
27085
27097
27106
27102
27010
27108
27110
27127
27092
27111
27143
27039
27153
27143
27167
27043
27157
27172
27181
27183
27206
27185
27195
27203
27050
27153
27220
27220
27223
27065
27220
27223
27255
27142
27261
27260
27270
27117
27276
27281
27060
27207
27303
27287
27305
27245
27308
27327
27130
27306
27331
27345
27262
27367
27357
27359
27230
27348
27351
27383
27265
27383
27383
27399
27316
27431
27415
27263
27391
27402
27439
27311
27457
27447
27454
27430
27436
27475
27369
27487
27476
27495
27448
27478
27502
27462
27484
27519
27407
27527
27528
27295
27471
27555
27546
27564
27463
27563
27548
27572
27442
27581
27587
27596
27502
27609
27588
27610
27482
27602
27617
27627
27629
27527
27636
27625
27655
27482
27647
27647
27673
27502
27632
27700
27669
27693
27709
27697
27569
27670
27697
27723
27523
27694
27735
27746
27554
27739
27739
27759
27684
27773
27777
27534
27751
27755
27791
27605
27783
27782
27810
27582
27783
27828
27821
27826
27612
27775
27854
27843
27615
27799
27861
27863
27883
27782
27871
27860
27894
27651
27855
27882
27913
27828
27940
27916
27931
27846
27945
27927
27946
27793
27897
27950
27936
27962
27764
27951
27963
27985
27921
27903
28001
28006
27839
28002
27991
28021
27799
27975
28023
28044
27799
27996
28045
28063
27901
28059
28070
27825
28030
28071
28084
28085
28004
28119
28107
27853
28023
28106
28092
28116
27970
28124
28130
28144
27967
28104
28150
28164
28002
28158
28164
28164
28039
28167
28154
28189
28033
28200
28196
28204
28166
28195
28215
28061
28213
28196
28216
28003
28154
28250
28231
28237
28199
28271
28236
28268
28055
28251
28256
28275
28065
28250
28279
28295
28077
28274
28281
28310
28181
28322
28324
28327
28239
28343
28327
28339
28143
28303
28369
28359
28124
28313
28367
28373
28234
28375
28374
28399
28158
28351
28406
28406
28405
28374
28419
28431
28301
28419
28423
28443
28431
28439
28221
28455
28441
28471
28390
28494
28483
28341
28485
28482
28503
28473
28487
28510
28422
28511
28519
28267
28491
28508
28533
28383
28534
28535
28312
28511
28539
28558
28367
28559
28567
28579
28524
28582
28587
28372
28551
28583
28598
28367
28575
28599
28623
28622
28546
28639
28616
28644
28551
28639
28645
28647
28565
28665
28647
28655
28595
28647
28677
28605
28651
28679
28514
28665
28679
28692
28500
28679
28676
28703
28498
28645
28715
28721
28549
28686
28709
28729
28724
28660
28731
28745
28527
28716
28727
28754
28687
28741
28768
28556
28758
28767
28549
28756
28772
28780
28750
28775
28791
28713
28807
28806
28572
28761
28790
28807
28749
28805
28819
28645
28807
28813
28833
28697
28837
28839
28596
28803
28812
28844
28767
28853
28853
28855
28751
28856
28845
28866
28703
28827
28885
28854
28871
28806
28890
28878
28877
28711
28861
28862
28895
28711
28893
28892
28898
28859
28897
28916
28727
28919
28909
28727
28861
28920
28914
28918
28826
28930
28924
28847
28916
28927
28850
28912
28933
28850
28951
28935
28860
28925
28945
28878
28958
28951
28839
28935
28949
28815
28959
28952
28788
28945
28961
28948
28914
28941
28947
28881
28971
28959
28789
28975
28959
28815
28959
28959
28842
28964
28962
28967
28929
28951
28974
28870
28987
28971
28981
28916
28967
28975
28857
28985
28967
28974
28911
28982
28981
28751
28943
28962
28985
28932
28967
28980
28959
28988
28981
28964
28983
28990
28921
29003
28992
28789
28980
28974
28999
28875
28979
28973
28999
28999
28973
28974
29007
28911
29006
29004
28852
29016
29007
28890
28989
29003
28799
28991
28990
29001
28855
29010
29005
29020
28986
28989
29030
28900
29009
28999
29012
28894
29015
29006
29009
28906
28952
28823
29019
29014
29030
28969
29036
29023
28825
28988
29034
29021
29029
28891
29010
29039
29029
29036
29025
29044
28998
28956
28861
29034
29039
29041
29033
29047
29029
28908
29036
29047
29033
29044
29047
29046
29039
29039
29037
29020
28987
28975
28895
28887
29052
29055
29055
29039
29055
28916
29045
29055
29049
28979
29075
29061
29061
29031
29063
29063
28932
29068
29068
28906
29072
29070
29015
29043
28878
29069
29069
28886
29023
29071
29077
28925
29047
29063
29073
28980
29079
29077
28908
29062
29081
28942
29078
29083
28953
29086
29084
28935
29091
29079
29028
29073
28931
29087
29095
28925
29071
29079
29079
28989
29098
29093
29087
29063
29078
29080
29026
29088
29095
29035
29094
29099
29046
29086
29087
29011
29098
29099
28928
29077
29082
29096
29036
29095
29108
28999
29111
29095
29103
29045
29114
29103
28962
29085
29101
29098
29031
29116
29111
28930
29071
29091
29099
28998
29124
29108
29117
29071
29098
29101
28988
29095
29093
29119
29111
29071
29115
29105
29105
29071
29123
29094
29114
29110
29015
29079
29123
29116
28954
29105
29023
29114
29109
29102
29025
29122
29115
29109
29067
29144
29114
28969
29092
29129
29119
28983
29111
29108
29123
29089
29123
29119
28987
29073
29131
29125
29118
29053
29119
29115
29127
29122
29084
29126
29121
29126
29054
29124
29119
29125
29082
29142
29119
29029
29140
29135
29123
29079
29140
29118
29131
29028
29117
29119
29138
29063
29142
29127
29039
29127
29121
29131
29062
29141
29123
29134
29095
29127
29127
29036
29148
29131
29007
29130
29135
29133
29112
29127
29129
29093
29147
29147
29143
29088
29142
29134
29002
29126
29136
29133
28983
29109
29150
29145
29133
29105
29151
29143
29140
29118
29133
29138
29110
29143
29148
29138
29110
29140
29145
29037
29131
29148
29152
29123
29143
29149
29111
29159
29151
29063
29152
29147
29148
29095
29145
29143
29151
29071
29151
29151
29143
29130
29145
29156
29089
29163
29141
29098
29148
29150
29150
29108
29161
29159
29045
29143
29156
29156
29087
29159
29151
29055
29141
29154
29143
29087
29155
29151
29155
29087
29159
29150
29155
29059
29148
29161
29159
29159
29012
29137
29162
29175
29151
29159
29159
29090
29159
29159
29169
29164
29120
29174
29172
29162
29123
29171
29156
29157
29079
29159
29159
29166
29166
29132
29174
29165
29153
29141
29167
29154
29108
29157
29161
29158
29117
29159
29161
29175
29078
29159
29159
29175
29119
29172
29156
29176
29167
29181
29156
29095
29178
29181
29167
29182
29152
29071
29175
29173
29157
29173
29134
29071
29175
29149
29180
29172
29167
29095
29167
29168
29164
29103
29178
29175
29170
29180
29173
29111
29190
29186
29097
29180
29167
29173
29116
29180
29168
29169
29151
29187
29179
29183
29125
29187
29177
29167
29109
29165
29181
29178
29181
29155
29191
29177
29180
29125
29173
29191
29173
29182
29167
29182
29190
29188
29153
29191
29187
29175
29149
29185
29175
29180
29119
29169
29183
29175
29185
29183
29191
29202
29167
29110
29188
29185
29175
29186
29187
29180
29139
29053
29187
29183
29189
29181
29142
29095
29190
29191
29191
29188
29180
29191
29206
29189
29179
29145
29175
29167
29180
29191
29127
29180
29187
29188
29165
29191
29198
29113
29191
29176
29190
29182
29188
29183
29132
29179
29183
29191
29172
29199
29185
29181
29174
29191
29191
29188
29141
29175
29127
29181
29191
29182
29183
29149
29077
29191
29190
29191
29149
29191
29199
29204
29139
29191
29187
29191
29183
29121
29191
29191
29206
29167
29051
29189
29191
29189
29160
29191
29191
29191
29175
29082
29191
29184
29188
29189
29209
29188
29175
29131
29076
29189
29191
29191
29199
29191
29108
29191
29215
29191
29191
29158
29190
29207
29191
29204
29155
29213
29199
29121
29191
29198
29206
29151
29191
29206
29207
29151
29214
29191
29196
29136
29204
29191
29215
29209
29186
29220
29207
29154
29215
29199
29202
29148
29212
29213
29201
29183
29220
29203
29207
29165
29223
29214
29205
29191
29201
29199
29122
29218
29200
29206
29196
29214
29214
29100
29191
29196
29203
29175
29209
29214
29205
29189
29215
29201
29175
29197
29191
29127
29206
29199
29196
29191
29196
29190
29191
29182
29186
29191
29103
29182
29191
29191
29127
29180
29189
29191
29155
29204
29188
29077
29188
29188
29190
29183
29191
29191
29159
29191
29185
29207
29187
29167
29199
29190
29199
29202
29135
29201
29203
29207
29191
29205
29191
29207
29191
29191
29202
29175
29212
29201
29206
29133
29191
29197
29209
29199
29175
29207
29205
29202
29208
29189
29220
29201
29203
29188
29217
29213
29138
29214
29207
29207
29121
29202
29226
29221
29207
29167
29215
29213
29221
29210
29166
29209
29227
29221
29220
29215
29211
29220
29135
29219
29214
29223
29205
29222
29227
29183
29236
29223
29181
29223
29228
29163
29232
29221
29220
29219
29215
29237
29227
29175
29236
29235
29140
29213
29226
29226
29188
29239
29231
29159
29231
29231
29167
29245
29239
29143
29230
29232
29252
29224
29235
29239
29207
29239
29236
29197
29247
29236
29231
29222
29251
29245
29140
29231
29239
29225
29172
29237
29246
29239
29135
29227
29252
29239
29231
29223
29255
29251
29246
29175
29239
29236
29247
29179
29238
29249
29241
29188
29235
29245
29240
29245
29241
29191
29239
29244
29239
29228
29246
29255
29230
29219
29247
29250
29141
29229
29257
29246
29254
29199
29247
29247
29255
29201
29257
29252
29159
29251
29238
29239
29231
29242
29238
29231
29239
29239
29236
29245
29124
29253
29238
29241
29219
29247
29237
29178
29239
29236
29177
29220
29247
29236
29228
29188
29250
29237
29235
29231
29245
29237
29167
29231
29242
29229
29191
29251
29237
29230
29223
29239
29227
29237
29246
29218
29231
29237
29212
29223
29223
29183
29231
29223
29168
29223
29221
29223
29213
29214
29222
29228
29215
29212
29188
29219
29218
29140
29199
29215
29220
29217
29180
29215
29206
29207
29111
29186
29205
29210
29198
29122
29203
29206
29191
29191
29182
29205
29201
29127
29191
29191
29195
29182
29191
29189
29122
29191
29203
29188
29172
29190
29191
29182
29142
29175
29190
29182
29182
29135
29183
29185
29175
29183
29172
29143
29187
29175
29181
29167
29111
29157
29188
29175
29167
29135
29167
29161
29175
29093
29158
29177
29165
29111
29181
29164
29166
29157
29178
29159
29103
29167
29167
29162
29116
29161
29159
29159
29114
29162
29158
29171
29148
29165
29155
29117
29172
29157
29113
29157
29167
29161
29127
29167
29167
29159
29130
29152
29151
29164
29127
29164
29163
29042
29143
29159
29156
29156
29121
29157
29157
29159
29140
29153
29169
29149
29153
29157
29166
29151
29087
29163
29155
29145
29154
29159
29161
29069
29147
29153
29151
29132
29159
29159
29111
29164
29164
29158
29139
29159
29161
29069
29142
29154
29163
29137
29167
29159
29167
29145
29153
29156
29163
29172
29084
29159
29159
29061
29148
29167
29154
29147
29159
29163
29093
29172
29163
29154
29155
29165
29167
29163
29130
29105
29084
29167
29167
29167
29164
29166
29178
29164
29153
29161
29140
29183
29167
29173
29167
29135
29175
29179
29172
29062
29158
29188
29180
29179
29146
29175
29181
29179
29138
29182
29177
29171
29179
29115
29157
29180
29183
29175
29159
29190
29180
29090
29178
29188
29177
29175
29181
29179
29182
29179
29188
29159
29191
29191
29119
29199
29191
29191
29132
29204
29199
29207
29107
29183
29219
29191
29202
29129
29189
29206
29203
29204
29217
29211
29205
29141
29207
29199
29202
29219
29175
29215
29213
29209
29207
29133
29201
29230
29225
29213
29191
29227
29222
29231
29161
29223
29221
29225
29163
29222
29239
29223
29218
29239
29223
29188
29244
29224
29155
29243
29244
29198
29257
29243
29183
29249
29255
29199
29257
29249
29259
29224
29249
29255
29231
29265
29260
29180
29243
29273
29263
29157
29248
29270
29271
29191
29267
29269
29279
29269
29277
29203
29287
29276
29230
29287
29290
29244
29292
29293
29276
29299
29302
29237
29317
29295
29290
29284
29295
29300
29245
29313
29310
29212
29308
29310
29311
29273
29327
29316
29225
29340
29318
29319
29319
29317
29326
29295
29334
29335
29237
29335
29340
29335
29300
29346
29349
29343
29311
29359
29351
29367
29293
29349
29358
29361
29315
29370
29364
29374
29348
29385
29379
29335
29382
29388
29239
29372
29372
29383
29380
29385
29389
29357
29407
29393
29255
29389
29403
29404
29340
29422
29413
29414
29350
29412
29419
29419
29415
29434
29395
29335
29426
29433
29428
29435
29447
29414
29375
29308
29447
29445
29455
29447
29457
29346
29436
29466
29473
29358
29447
29459
29471
29471
29415
29493
29479
29477
29469
29497
29499
29492
29404
29472
29503
29509
29511
29500
29479
29529
29518
29525
29483
29539
29522
29397
29519
29524
29527
29534
29507
29552
29543
29407
29522
29558
29561
29564
29518
29572
29559
29563
29492
29564
29578
29569
29575
29447
29551
29591
29587
29583
29487
29579
29602
29596
29607
29497
29575
29615
29609
29618
29537
29627
29623
29620
29497
29629
29627
29631
29575
29647
29648
29650
29583
29645
29643
29665
29542
29633
29652
29663
29583
29673
29672
29670
29651
29679
29679
29674
29619
29694
29681
29703
29639
29703
29699
29703
29706
29677
29722
29731
29713
29693
29726
29724
29727
29731
29619
29668
29735
29729
29747
29677
29751
29751
29610
29745
29759
29626
29757
29756
29761
29780
29719
29782
29791
29791
29754
29791
29793
29673
29791
29799
29811
29788
29806
29679
29798
29819
29823
29803
29831
29831
29783
29852
29841
29765
29855
29847
29767
29871
29861
29755
29846
29857
29863
29759
29871
29871
29880
29863
29872
29883
29852
29891
29903
29843
29925
29904
29777
29891
29900
29919
29815
29916
29923
29927
29804
29903
29943
29932
29823
29871
29876
29875
29888
29874
29886
29876
29879
29852
29926
29972
29970
29895
29991
29975
29866
29991
29989
29850
29989
29995
30004
29959
29999
30008
29886
29983
30012
30015
29873
30003
30023
30021
29953
30024
30028
29924
30039
30027
29943
30050
30041
29900
30037
30047
30049
29980
30062
30048
30062
30045
30063
30069
29959
30068
30076
29943
30067
30079
30089
30029
30092
30097
30053
30111
30102
30053
30124
30119
30044
30124
30124
29981
30106
30150
30132
29974
30131
30146
30031
30147
30145
30157
30121
30185
30171
30177
30111
30189
30183
30055
30180
30182
30039
30183
30196
30195
30151
30215
30207
30022
30193
30211
30215
30180
30225
30215
30108
30215
30231
30239
30178
30246
30251
30163
30264
30250
30169
30269
30268
30136
30254
30264
30268
30210
30287
30277
30124
30239
30295
30306
30145
30269
30304
30303
30309
30267
30322
30309
30319
30151
30308
30325
30325
30329
30276
30343
30339
30333
30311
30332
30335
30279
30356
30362
30215
30351
30358
30359
30323
30375
30381
30215
30378
30365
30382
30355
30386
30398
30367
30385
30275
30399
30405
30271
30410
30408
30259
30414
30411
30414
30334
30412
30422
30429
30348
30427
30433
30403
30424
30431
30397
30445
30447
30343
30452
30446
30317
30439
30444
30461
30395
30455
30447
30349
30467
30458
30468
30390
30486
30471
30471
30469
30469
30481
30373
30447
30506
30489
30332
30492
30490
30314
30485
30487
30500
30479
30494
30498
30402
30502
30510
30402
30511
30516
30519
30410
30506
30510
30516
30518
30436
30519
30509
30535
30535
30435
30525
30450
30407
30357
30539
30545
30543
30533
30527
30557
30550
30523
30508
30444
30367
30559
30531
30559
30389
30552
30545
30554
30441
30559
30551
30563
30443
30553
30551
30567
30443
30570
30566
30378
30539
30556
30571
30467
30567
30559
30575
30495
30567
30560
30568
30449
30543
30554
30574
30573
30575
30516
30596
30575
30567
30506
30569
30569
30575
30437
30575
30555
30592
30500
30575
30567
30577
30407
30562
30581
30583
30401
30550
30570
30588
30532
30516
30580
30579
30597
30560
30526
30511
30425
30583
30590
30599
30599
30588
30575
30591
30607
30596
30583
30591
30586
30604
30600
30591
30532
30604
30593
30598
30519
30610
30601
30463
30589
30599
30614
30543
30607
30607
30564
30610
30606
30525
30622
30612
30428
30604
30611
30615
30561
30604
30611
30513
30611
30609
30458
30607
30621
30627
30582
30599
30629
30570
30634
30629
30612
30626
30444
30604
30631
30629
30631
30604
30611
30633
30454
30606
30623
30652
30551
30630
30639
30635
30586
30639
30647
30635
30628
30637
30642
30644
30526
30615
30661
30646
30471
30623
30651
30653
30487
30589
30607
30615
30647
30634
30654
30643
30661
30535
30663
30653
30663
30566
30663
30655
30663
30591
30679
30670
30479
30636
30657
30670
30553
30648
30663
30671
30539
30662
30671
30677
30527
30655
30661
30680
30583
30687
30669
30687
30663
30674
30693
30620
30701
30682
30487
30646
30692
30692
30572
30695
30697
30700
30653
30695
30699
30612
30718
30711
30703
30675
30692
30708
30563
30675
30705
30703
30708
30613
30718
30703
30719
30655
30725
30719
30722
30615
30715
30715
30727
30719
30660
30738
30717
30559
30670
30724
30727
30727
30663
30727
30727
30727
30625
30718
30739
30743
30743
30651
30741
30725
30745
30743
30599
30679
30769
30747
30752
30626
30735
30727
30748
30567
30695
30751
30740
30760
30580
30700
30773
30759
30582
30698
30767
30771
30599
30767
30759
30775
30630
30752
30755
30770
30607
30727
30782
30773
30785
30691
30773
30771
30778
30783
30676
30789
30786
30791
30727
30787
30766
30794
30667
30775
30783
30807
30791
30743
30807
30807
30809
30687
30727
30737
30797
30803
30809
30669
30783
30817
30799
30807
30687
30797
30804
30823
30719
30815
30798
30829
30711
30802
30813
30822
30675
30799
30826
30839
30831
30727
30820
30819
30835
30727
30831
30830
30842
30764
30847
30845
30827
30748
30846
30833
30855
30783
30855
30846
30851
30735
30852
30837
30851
30828
30839
30855
30655
30831
30876
30864
30861
30695
30836
30879
30871
30662
30854
30863
30875
30701
30869
30881
30698
30876
30860
30883
30839
30871
30887
30849
30866
30887
30778
30892
30887
30890
30855
30876
30902
30853
30894
30898
30719
30862
30895
30901
30893
30847
30911
30895
30903
30694
30837
30899
30895
30917
30911
30843
30897
30885
30872
30912
30932
30925
30927
30791
30874
30930
30924
30927
30723
30930
30923
30948
30925
30901
30808
30933
30941
30951
30879
30949
30945
30932
30942
30943
30909
30885
30778
30945
30948
30951
30943
30943
30967
30939
30887
30771
30950
30967
30953
30948
30967
30933
30871
30815
30751
30967
30965
30958
30988
30961
30924
30855
30968
30975
30972
30983
30979
30748
30933
30983
30977
30975
30922
30991
30974
30983
30927
30999
30976
30975
30911
30995
30964
30999
30795
30956
30975
30987
30916
31007
30998
31014
30846
30982
31014
30999
31005
30886
31015
31014
31006
30977
30983
31004
30876
31015
31013
31012
30958
31027
31024
31013
30935
31021
30997
31023
31015
30854
30973
31025
31015
31023
30837
31005
30996
31036
30931
31021
31018
31031
30991
31047
31023
31036
30974
31046
31019
31035
30957
31039
31046
30904
31039
31047
31053
30980
31038
31042
30873
31051
31047
30879
31042
31034
31048
30831
31023
31037
31067
30904
31047
31061
30895
31047
31031
31063
30970
31079
31072
30855
31036
31059
31054
30999
31045
31066
31007
31071
31075
30861
31034
31042
31068
31007
31066
31059
30939
31070
31063
31075
31084
31075
31050
30903
31077
31076
31052
31103
31059
31013
30887
31084
31079
31055
31079
31034
31049
31085
30939
31095
31079
30853
31060
31083
31086
30876
31029
31100
31073
31092
30899
31069
31063
31087
30909
31060
31067
31092
30863
31066
31052
31094
30951
31103
31079
31095
30894
31079
31079
31098
30942
31101
31087
31092
31028
31098
31079
31107
30868
31078
31111
31099
31108
30961
31063
31110
31084
31103
30895
31052
31105
31108
31093
31034
31119
31092
31106
30892
31095
31087
31095
31091
30993
31092
31069
31085
31102
31090
30983
31070
31108
31099
31092
30855
31099
31099
31108
31054
31087
31079
31079
31036
30975
31098
31100
31071
31095
31045
30977
30890
31098
31095
31069
31111
31091
31061
30990
30853
31097
31099
31100
31082
31103
31052
30983
31085
31100
30975
31087
31071
31107
30891
31044
31103
31079
31090
31087
30853
31019
31077
31109
31076
30983
30853
31103
31095
31090
31095
31089
31096
31078
31111
31063
31027
30959
31101
31087
31095
31055
31101
31091
30926
31078
31077
31087
31026
31095
31066
31089
31013
31096
31089
31103
31018
31111
31100
31093
31029
31092
31057
31087
30940
31095
31081
31091
31019
31089
31090
31092
31018
31068
31077
30899
31071
31049
31079
31018
31081
31075
31079
30971
31081
31063
30945
31058
31076
31074
31077
31061
31043
31077
31079
31070
31019
30948
30877
30815
31054
31059
31047
30903
31055
31066
31016
31045
30951
31058
31027
31043
31040
31045
31047
31026
30935
31041
31039
31041
31049
30959
30788
31036
31038
31010
31023
30959
30823
31029
31024
31015
31011
31029
30993
30942
30776
31020
31015
30982
31017
31007
30949
30851
31007
31004
31012
30999
30979
31005
30982
30815
30990
30983
30972
31001
30980
30939
30796
30980
30983
30950
30981
30958
30897
30735
30962
30958
30969
30965
30905
30695
30954
30951
30900
30803
30942
30940
30935
30928
30898
30895
30923
30826
30931
30921
30661
30860
30931
30917
30911
30879
30871
30906
30745
30885
30884
30887
30643
30856
30855
30873
30873
30815
30884
30852
30855
30749
30854
30829
30847
30595
30786
30855
30815
30847
30567
30806
30797
30821
30556
30692
30800
30822
30813
30805
30739
30813
30799
30661
30787
30762
30773
30727
30783
30780
30767
30685
30762
30764
30753
30687
30757
30746
30739
30628
30727
30695
30727
30575
30713
30724
30718
30684
30689
30711
30570
30701
30707
30449
30659
30647
30683
30654
30675
30438
30676
30671
30446
30662
30657
30407
30644
30644
30635
30567
30645
30631
30633
30562
30638
30590
30613
30486
30599
30589
30609
30356
30519
30595
30363
30565
30574
30335
30575
30573
30400
30558
30578
30542
30558
30551
30522
30559
30526
30465
30308
30538
30539
30514
30527
30506
30495
30478
30399
30331
30271
30504
30494
30506
30507
30267
30468
30470
30487
30410
30490
30474
30351
30479
30470
30333
30469
30452
30455
30413
30448
30431
30435
30319
30428
30426
30423
30341
30439
30415
30407
30371
30421
30413
30399
30364
30399
30407
30205
30366
30369
30381
30373
30311
30380
30382
30215
30389
30365
30156
30361
30356
30359
30339
30355
30340
30299
30326
30342
30269
30314
30335
30263
30327
30316
30323
30291
30301
30325
30215
30306
30308
30215
30313
30295
30087
30275
30307
30301
30160
30268
30268
30287
30121
30266
30242
30269
30228
30244
30268
30055
30255
30255
30115
30260
30244
30029
30232
30215
30235
30167
30223
30231
30087
30233
30227
29991
30191
30199
30212
30119
30215
30206
30056
30179
30202
30175
30199
30068
30169
30167
30190
30168
30135
30183
30180
30180
30093
30170
30178
30162
30159
30110
29995
30163
30166
30146
30151
30146
30127
30075
30027
29937
30144
30151
30143
30132
30139
29959
30114
30110
30127
29953
30092
30111
30124
30122
29985
30108
30119
30111
30094
30033
30083
30119
30092
30108
29940
30049
30103
30079
30095
29903
30068
30087
30084
30084
29996
30070
30063
30081
29895
30028
30079
30074
30071
29916
30031
30074
30055
30077
30050
30047
30058
30001
29919
29837
30052
30052
30038
30053
29911
30039
30043
30049
30025
29923
30037
30045
30009
30041
30001
29947
29815
30020
30029
30010
30021
29996
29908
29799
30020
30002
30023
29969
29872
30009
30005
29989
29991
29889
29999
29986
29993
29895
29998
29994
29991
29990
29775
29886
29973
29995
29978
29977
29995
29879
29932
29973
29973
29972
29976
29788
29913
29990
29970
29975
29853
29940
29969
29965
29976
29855
29915
29953
29939
29959
29949
29885
29951
29950
29950
29935
29935
29831
29953
29935
29926
29840
29935
29945
29932
29940
29905
29815
29929
29935
29933
29907
29931
29924
29887
29803
29919
29917
29912
29922
29927
29881
29770
29719
29925
29911
29899
29935
29881
29839
29695
29911
29911
29901
29919
29847
29727
29903
29917
29885
29910
29897
29845
29899
29903
29895
29909
29845
29789
29898
29895
29895
29886
29907
29875
29785
29735
29881
29891
29903
29831
29879
29865
29879
29791
29876
29877
29867
29883
29843
29767
29871
29873
29846
29879
29824
29734
29662
29855
29867
29855
29885
29828
29682
29862
29860
29860
29770
29863
29855
29836
29857
29799
29681
29856
29845
29857
29837
29846
29742
29850
29852
29834
29845
29799
29698
29839
29839
29828
29823
29841
29831
29747
29607
29831
29825
29815
29826
29716
29810
29821
29831
29765
29820
29823
29663
29807
29799
29811
29681
29804
29813
29615
29785
29812
29812
29735
29817
29794
29815
29716
29816
29807
29627
29783
29799
29820
29635
29779
29793
29799
29808
29714
29796
29790
29803
29679
29789
29782
29784
29607
29750
29796
29783
29643
29782
29780
29780
29755
29765
29780
29620
29767
29766
29778
29680
29793
29764
29779
29700
29789
29767
29772
29700
29778
29762
29764
29596
29703
29759
29757
29770
29639
29749
29767
29758
29567
29763
29767
29698
29661
29599
29739
29753
29751
29751
29738
29758
29735
29682
29615
29747
29703
29742
29735
29744
29748
29701
29599
29542
29740
29738
29708
29749
29714
29671
29555
29732
29537
29673
29735
29716
29718
29732
29525
29653
29716
29703
29719
29717
29621
29697
29700
29514
29703
29703
29691
29719
29695
29631
29484
29714
29703
29703
29698
29500
29702
29703
29670
29703
29700
29586
29703
29680
29695
29487
29644
29702
29694
29478
29638
29692
29676
29685
29634
29690
29670
29676
29678
29550
29640
29682
29676
29679
29594
29679
29662
29668
29479
29636
29647
29662
29655
29601
29671
29649
29663
29587
29656
29652
29541
29650
29636
29645
29640
29538
29639
29639
29629
29624
29636
29611
29585
29524
29413
29634
29631
29630
29615
29566
29437
29620
29622
29631
29588
29556
29621
29607
29627
29605
29558
29447
29619
29605
29605
29499
29619
29597
29623
29571
29406
29607
29609
29599
29606
29553
29447
29593
29599
29591
29594
29519
29404
29596
29597
29607
29541
29403
29599
29572
29586
29438
29584
29585
29593
29462
29587
29581
29581
29575
29497
29586
29579
29583
29557
29471
29575
29575
29575
29564
29524
29460
29575
29564
29583
29553
29483
29359
29570
29567
29574
29497
29558
29567
29548
29562
29507
29423
29372
29551
29551
29543
29556
29556
29546
29497
29433
29330
29535
29539
29537
29539
29543
29527
29437
29536
29531
29526
29504
29534
29516
29483
29419
29315
29525
29521
29527
29501
29529
29489
29447
29527
29480
29488
29503
29386
29481
29479
29485
29331
29437
29501
29491
29289
29442
29485
29469
29478
29469
29349
29437
29460
29471
29263
29439
29471
29467
29463
29258
29446
29439
29447
29455
29415
29339
29447
29443
29431
29451
29415
29340
29438
29439
29415
29421
29351
29231
29429
29415
29431
29308
29421
29410
29405
29399
29389
29364
29269
29398
29388
29399
29380
29326
29235
29386
29386
29383
29359
29371
29372
29367
29311
29191
29372
29357
29372
29332
29226
29347
29335
29354
29350
29332
29286
29177
29333
29331
29315
29330
29297
29271
29247
29167
29311
29303
29300
29293
29309
29253
29187
29287
29272
29279
29278
29272
29247
29223
29230
29214
29219
29257
29262
29252
29140
29244
29237
29191
29224
29237
29222
29222
29126
29236
29223
29221
29211
29172
29215
29089
29215
29189
29176
29190
29071
29189
29188
29063
29172
29170
29154
29170
29095
29147
28967
29148
29150
29047
29140
28993
29153
29130
29116
29129
29035
29108
29125
29068
29103
29117
29077
29095
28935
29095
29090
29071
29093
28999
29087
29077
29031
29062
29075
28977
29078
29063
29007
29055
28859
29046
29046
29036
29031
29039
28891
29037
29039
28847
28999
29007
29019
29013
29009
28883
29000
29004
28953
28984
28983
28973
28989
28831
28979
28980
28812
28980
28974
28807
28946
28947
28951
28902
28942
28954
28935
28946
28762
28929
28930
28831
28940
28935
28884
28923
28921
28884
28903
28721
28911
28911
28859
28892
28731
28911
28895
28871
28895
28763
28888
28880
28855
28874
28725
28883
28868
28834
28869
28775
28852
28698
28852
28852
28773
28839
28679
28854
28847
28839
28839
28820
28831
28767
28823
28823
28788
28812
28831
28820
28820
28715
28802
28626
28804
28813
28759
28796
28801
28805
28791
28751
28775
28778
28786
28781
28759
28783
28661
28777
28771
28731
28764
28763
28731
28751
28606
28757
28751
28660
28751
28745
28653
28741
28736
28599
28727
28735
28658
28733
28735
28631
28714
28711
28731
28713
28582
28679
28725
28706
28706
28549
28658
28708
28693
28700
28530
28645
28700
28690
28679
28629
28677
28687
28676
28658
28671
28666
28645
28611
28549
28663
28668
28663
28654
28671
28663
28604
28649
28663
28650
28661
28620
28541
28486
28645
28646
28639
28638
28635
28606
28465
28629
28628
28639
28599
28548
28475
28625
28607
28606
28626
28563
28629
28609
28621
28532
28598
28607
28613
28603
28572
28475
28598
28599
28597
28604
28578
28519
28596
28591
28583
28588
28539
28588
28583
28581
28586
28567
28500
28579
28577
28567
28581
28551
28503
28571
28566
28572
28551
28435
28543
28570
28565
28559
28519
28571
28558
28556
28509
28563
28551
28551
28502
28558
28548
28551
28524
28459
28549
28547
28551
28551
28542
28498
28394
28554
28543
28531
28549
28524
28432
28545
28538
28533
28474
28390
28531
28542
28551
28515
28511
28435
28529
28532
28525
28516
28533
28495
28541
28518
28519
28453
28524
28532
28521
28439
28519
28517
28525
28416
28501
28517
28507
28460
28522
28503
28516
28515
28439
28523
28499
28515
28518
28413
28501
28505
28510
28421
28489
28514
28512
28513
28494
28519
28507
28507
28387
28473
28517
28505
28505
28493
28507
28511
28515
28463
28513
28503
28500
28503
28454
28491
28507
28495
28413
28510
28505
28500
28391
28459
28519
28510
28508
28356
28423
28481
28484
28516
28506
28503
28509
28507
28517
28410
28483
28509
28500
28519
28507
28447
28503
28518
28512
28503
28432
28484
28515
28507
28508
28404
28519
28520
28518
28504
28511
28484
28435
28511
28518
28511
28518
28484
28377
28515
28519
28481
28525
28515
28517
28519
28515
28523
28464
28388
28525
28519
28514
28532
28531
28515
28467
28527
28519
28402
28503
28527
28526
28526
28381
28503
28542
28524
28519
28529
28535
28404
28500
28533
28530
28535
28414
28498
28548
28541
28530
28420
28487
28534
28532
28543
28485
28546
28540
28539
28549
28500
28550
28543
28541
28549
28548
28551
28455
28481
28480
28516
28547
28550
28551
28501
28415
28558
28559
28551
28555
28514
28556
28561
28551
28566
28533
28558
28567
28565
28546
28471
28567
28559
28579
28544
28414
28574
28567
28580
28531
28442
28574
28577
28583
28569
28502
28462
28582
28580
28573
28594
28588
28559
28547
28492
28462
28583
28590
28590
28583
28596
28599
28581
28569
28542
28508
28468
28593
28595
28607
28541
28605
28597
28595
28620
28613
28611
28598
28591
28575
28546
28537
28496
28619
28611
28612
28614
28622
28616
28631
28610
28628
28625
28581
28620
28623
28527
28623
28612
28628
28602
28645
28631
28643
28584
28639
28626
28639
28582
28647
28642
28637
28596
28643
28642
28655
28499
28627
28657
28644
28647
28618
28668
28665
28654
28615
28663
28658
28660
28631
28663
28663
28654
28576
28644
28671
28663
28668
28574
28647
28658
28675
28663
28557
28644
28661
28662
28667
28580
28660
28668
28663
28551
28636
28671
28663
28666
28527
28636
28671
28671
28671
28506
28655
28671
28671
28562
28658
28679
28619
28559
28674
28677
28676
28691
28691
28648
28591
28695
28679
28696
28649
28527
28703
28698
28693
28636
28695
28689
28695
28700
28663
28699
28700
28703
28628
28708
28709
28713
28662
28722
28705
28708
28638
28708
28716
28711
28719
28617
28702
28721
28721
28607
28708
28711
28721
28663
28715
28732
28727
28727
28679
28724
28727
28731
28730
28679
28729
28743
28649
28743
28738
28734
28669
28735
28733
28743
28655
28752
28748
28748
28655
28735
28743
28748
28753
28751
28745
28754
28679
28750
28759
28767
28759
28732
28709
28642
28762
28759
28763
28774
28765
28764
28767
28626
28751
28763
28769
28679
28755
28764
28774
28639
28758
28765
28771
28679
28787
28775
28783
28649
28745
28783
28774
28783
28747
28789
28783
28779
28732
28783
28781
28787
28685
28775
28772
28783
28676
28779
28791
28790
28754
28799
28791
28647
28789
28788
28793
28748
28788
28794
28607
28731
28803
28777
28797
28679
28799
28804
28643
28743
28803
28804
28802
28767
28805
28797
28679
28814
28796
28679
28796
28793
28805
28695
28787
28793
28796
28695
28787
28788
28814
28767
28710
28795
28791
28799
28807
28790
28735
28639
28795
28798
28785
28813
28786
28759
28695
28799
28799
28800
28780
28804
28791
28751
28699
28636
28747
28807
28791
28788
28801
28798
28734
28630
28797
28783
28797
28791
28775
28783
28798
28765
28751
28719
28611
28788
28791
28785
28780
28770
28791
28773
28729
28655
28803
28784
28791
28773
28797
28782
28763
28669
28777
28638
28762
28780
28799
28771
28647
28743
28767
28783
28615
28751
28782
28781
28783
28731
28779
28775
28679
28779
28764
28764
28724
28783
28768
28765
28690
28786
28774
28765
28670
28775
28763
28774
28602
28722
28777
28770
28583
28725
28767
28765
28607
28719
28719
28719
28755
28774
28775
28754
28743
28739
28770
28775
28753
28741
28764
28751
28761
28618
28634
28665
28721
28720
28727
28726
28735
28745
28751
28756
28763
28767
28733
28734
28748
28749
28759
28746
28583
28693
28743
28762
28743
28751
28749
28749
28750
28748
28743
28748
28742
28755
28755
28757
28746
28753
28751
28744
28751
28543
28577
28623
28673
28665
28595
28579
28628
28716
28735
28718
28711
28705
28725
28740
28735
28735
28753
28738
28738
28756
28765
28759
28756
28758
28747
28735
28743
28740
28763
28751
28756
28759
28759
28767
28751
28759
28572
28595
28609
28692
28711
28710
28759
28758
28743
28762
28761
28762
28762
28761
28678
28727
28775
28773
28748
28753
28756
28764
28769
28768
28763
28764
28770
28760
28765
28776
28774
28764
28773
28765
28761
28783
28739
28767
28761
28764
28758
28758
28772
28770
28783
28772
28768
28759
28780
28781
28787
28781
28637
28679
28723
28652
28705
28708
28714
28738
28798
28799
28788
28778
28782
28769
28779
28786
28775
28775
28779
28783
28791
28788
28792
28799
28790
28794
28795
28797
28796
28807
28797
28788
28797
28796
28803
28804
28797
28598
28635
28623
28679
28743
28785
28798
28814
28814
28805
28819
28810
28821
28818
28815
28798
28804
28804
28815
28822
28638
28706
28733
28803
28820
28838
28806
28817
28807
28821
28830
28824
28833
28823
28618
28716
28799
28812
28838
28821
28842
28836
28846
28720
28780
28835
28847
28844
28852
28846
28700
28788
28813
28818
28846
28869
28855
28847
28852
28847
28856
28861
28858
28652
28865
28871
28703
28706
28679
28739
28761
28831
28857
28852
28883
28889
28879
28895
28873
28765
28892
28895
28892
28894
28836
28783
28745
28759
28746
28732
28730
28766
28815
28839
28883
28903
28903
28895
28900
28917
28921
28903
28922
28927
28921
28924
28919
28933
28922
28750
28786
28838
28847
28873
28875
28917
28947
28945
28951
28951
28935
28942
28951
28954
28957
28925
28760
28853
28894
28903
28945
28975
28962
28963
28957
28979
28983
28971
28968
28800
28847
28910
28911
28938
28972
28998
29007
28970
28981
28975
28982
28997
29011
28999
29007
29005
28788
28798
28847
28890
28873
29023
29019
29006
29023
29031
29022
29031
28827
28884
28951
28973
28998
29016
29031
29037
29051
29062
29039
29037
29044
29042
29063
29062
29060
29063
28911
29042
29058
29060
29085
29074
29072
29085
29093
29079
29060
29074
29063
29083
29095
29085
29100
29093
28911
28989
29042
29095
29119
29105
29099
29109
29119
29123
29117
29123
29122
29135
29125
28903
28919
28994
29055
29086
29111
29150
29135
29139
29148
29147
29159
29157
29159
29156
29167
29174
29167
29170
29169
29174
29180
29175
29175
29175
29191
29187
29191
29182
29191
29195
29197
29191
29207
29183
29099
29115
29159
29159
29170
29205
29222
29046
29090
29106
29151
29163
29093
29020
29092
29127
29147
29175
29183
29188
29212
29230
29202
29209
29246
29258
29278
29247
29263
29279
29273
29285
29062
29103
29143
29236
29283
29277
29309
29317
29286
29287
29287
29294
29301
29315
29311
29319
29317
29318
29326
29319
29147
29327
29311
29340
29323
29271
29347
29333
29302
29349
29362
29178
29365
29325
29351
29350
29322
29372
29369
29159
29375
29381
29381
29371
29289
29382
29349
29393
29409
29245
29409
29423
29251
29403
29359
29404
29425
29220
29404
29378
29415
29406
29370
29430
29421
29303
29428
29422
29255
29438
29439
29359
29236
29442
29457
29346
29453
29463
29370
29455
29470
29343
29467
29457
29474
29255
29349
29419
29467
29479
29474
29477
29479
29486
29487
29292
29306
29334
29351
29423
29479
29511
29511
29499
29503
29511
29514
29519
29524
29527
29524
29524
29535
29318
29524
29553
29500
29359
29553
29557
29486
29553
29556
29571
29423
29575
29551
29348
29555
29439
29575
29567
29383
29591
29596
29454
29582
29588
29555
29597
29589
29591
29447
29624
29623
29615
29618
29624
29628
29629
29630
29625
29639
29420
29434
29463
29415
29405
29646
29647
29660
29675
29418
29644
29612
29674
29647
29426
29671
29635
29684
29662
29608
29691
29692
29540
29693
29683
29504
29690
29687
29703
29698
29664
29711
29703
29719
29522
29723
29700
29476
29719
29733
29727
29504
29495
29516
29495
29556
29545
29518
29559
29646
29703
29723
29748
29755
29767
29777
29775
29767
29742
29740
29791
29757
29759
29775
29781
29781
29799
29791
29788
29779
29766
29788
29794
29799
29799
29804
29807
29797
29791
29797
29799
29823
29812
29774
29760
29754
29831
29802
29823
29807
29755
29831
29812
29788
29839
29846
29689
29845
29851
29607
29847
29759
29782
29829
29845
29860
29868
29852
29871
29871
29879
29850
29844
29852
29852
29849
29863
29879
29874
29875
29866
29871
29876
29881
29891
29891
29889
29900
29895
29894
29895
29894
29892
29899
29892
29895
29895
29905
29895
29895
29894
29901
29913
29903
29913
29911
29915
29916
29694
29900
29839
29911
29921
29674
29909
29895
29745
29911
29876
29921
29909
29791
29932
29921
29696
29915
29918
29710
29930
29941
29890
29933
29895
29871
29927
29903
29892
29927
29903
29876
29903
29921
29937
29935
29926
29947
29950
29916
29923
29921
29931
29948
29919
29948
29935
29938
29946
29942
29955
29938
29947
29953
29953
29940
29959
29943
29933
29935
29930
29916
29926
29850
29949
29947
29752
29950
29967
29834
29955
29927
29915
29730
29959
29975
29854
29966
29933
29950
29958
29959
29976
29959
29959
29972
29981
29974
29981
29978
29943
29935
29927
29946
29927
29940
29925
29847
29875
29895
29823
29839
29831
29831
29817
29751
29982
29983
29999
29988
29967
29788
29983
29899
29987
29946
29994
30004
29991
29971
29991
29988
29957
30001
29981
29978
30006
29987
30005
29999
29821
30001
29973
30023
29999
29940
30015
29997
29947
30023
30007
30028
30018
30018
30022
30020
30031
29794
29865
29927
29974
29994
30031
30042
30023
30011
30020
30029
30023
30039
30051
30047
30039
29847
30028
30034
30047
30058
29999
30055
30053
29911
30044
30060
29831
30039
30049
30069
29948
30073
30082
30071
30002
30083
30069
30076
29958
30070
30063
30078
29967
30087
30085
30084
29970
30077
30075
30093
29996
30108
30107
29959
30100
30097
30109
30051
30113
30114
30114
30050
30122
30117
29965
30108
30109
30124
30009
30122
30119
30119
30087
30134
30129
30139
29999
30139
30113
30137
29991
30135
30139
30145
30121
30122
30146
30095
30164
30158
30047
30165
30164
29953
30129
30135
30159
30167
30115
30187
30159
30158
30179
30146
30038
30175
30179
30162
30196
30165
30145
30151
30103
30063
30185
30189
30199
30191
30074
30202
30191
30208
30092
30215
30206
30215
30141
30215
30214
30022
30143
30234
30215
30004
30191
30231
30226
30031
30196
30222
30237
30165
30242
30244
30084
30241
30240
30252
30129
30255
30251
30251
30195
30271
30252
30268
30162
30252
30254
30284
30169
30271
30269
30279
30211
30289
30287
30291
30215
30303
30279
30287
30230
30297
30284
30301
30133
30311
30286
30316
30142
30271
30334
30319
30321
30303
30311
30331
30124
30279
30340
30345
30180
30343
30332
30351
30342
30254
30342
30349
30371
30284
30373
30371
30157
30351
30381
30343
30375
30167
30367
30364
30375
30349
30344
30378
30309
30374
30388
30295
30395
30378
30384
30310
30404
30407
30231
30391
30375
30404
30335
30423
30407
30415
30339
30435
30430
30419
30373
30406
30431
30239
30391
30279
30218
30438
30237
30445
30460
30458
30455
30453
30463
30447
30460
30439
30463
30462
30439
30463
30247
30469
30478
30243
30471
30482
30303
30490
30495
30302
30488
30483
30500
30423
30516
30507
30391
30522
30530
30527
30485
30503
30516
30522
30495
30527
30532
30319
30502
30519
30549
30543
30385
30525
30538
30559
30528
30542
30553
30471
30580
30569
30563
30545
30555
30567
30533
30567
30582
30534
30584
30591
30399
30591
30596
30369
30567
30590
30606
30455
30567
30477
30418
30607
30615
30607
30598
30631
30605
30593
30580
30519
30484
30398
30631
30647
30570
30644
30623
30652
30655
30635
30593
30588
30540
30434
30654
30668
30670
30670
30661
30655
30683
30680
30671
30639
30599
30558
30481
30680
30692
30687
30679
30682
30711
30699
30635
30611
30711
30708
30538
30703
30687
30709
30635
30727
30726
30510
30708
30703
30727
30554
30751
30727
30490
30709
30727
30741
30604
30765
30739
30758
30693
30759
30769
30663
30759
30749
30771
30629
30775
30762
30779
30775
30721
30782
30781
30791
30684
30771
30767
30791
30599
30755
30815
30800
30560
30748
30823
30799
30819
30631
30826
30801
30823
30741
30823
30823
30619
30787
30807
30831
30727
30849
30843
30589
30804
30829
30851
30715
30834
30845
30860
30709
30855
30844
30863
30670
30836
30864
30871
30862
30764
30852
30861
30874
30742
30887
30869
30882
30823
30903
30888
30655
30875
30879
30897
30763
30894
30878
30897
30847
30907
30903
30678
30875
30910
30910
30915
30847
30900
30909
30765
30919
30911
30927
30806
30933
30922
30913
30852
30927
30919
30922
30789
30924
30936
30930
30939
30822
30932
30921
30945
30939
30862
30951
30927
30950
30806
30942
30942
30959
30959
30886
30950
30971
30951
30964
30975
30797
30933
30990
30969
30740
30914
30975
30981
30966
30951
30979
30983
30820
30997
30991
30999
30938
31006
30993
30780
30951
31013
31004
31012
30966
30991
31007
30987
31011
30791
31010
31012
30769
31004
31010
31016
30951
31031
31023
30855
31023
31019
31030
30941
31039
31014
31031
30789
30996
31052
31042
31051
30935
31033
31059
31035
31053
30869
31035
31054
31045
30823
31012
31046
31052
30834
31026
31071
31065
30855
31019
31079
31054
31065
30852
31015
31086
31063
31071
30863
31012
31079
31052
31073
31076
30847
30999
31079
31052
31077
30815
31034
31070
31077
31079
31005
31064
31066
31082
31079
31077
31079
31093
31056
31023
31095
31092
31082
31065
31109
31103
31077
31021
30930
31066
31099
30981
31071
31100
31083
31103
30964
31085
31070
31098
30893
31079
31065
31100
30887
31079
31061
31094
30883
31067
31065
31094
30964
31031
31101
31107
31097
31031
31109
31087
31081
31019
31103
31090
31095
31039
31103
31095
30860
31012
31095
31077
31086
30885
31085
31084
31095
31101
31007
31105
31090
31084
31004
31083
31076
31095
30946
31047
31100
31075
31087
30964
31073
31060
31084
31006
31089
31077
31077
30983
31067
31059
31079
31069
30832
30983
31069
31079
31070
31055
31071
31030
30914
31067
31079
31069
31029
31076
31063
31047
31002
30974
30885
31060
31010
31047
30935
31047
31018
31042
30903
31028
31007
31034
30930
31043
31029
31029
31006
30942
31030
31028
31018
31005
31038
31026
31007
30945
30918
30762
31021
31009
31020
30993
30958
30775
31002
30988
30997
31015
30983
30888
30999
30991
30967
31003
30983
30946
30886
30796
30980
30967
30897
30954
30975
30967
30927
30968
30964
30740
30932
30966
30749
30967
30964
30719
30958
30954
30727
30924
30943
30966
30886
30960
30953
30727
30911
30931
30939
30929
30855
30930
30943
30932
30919
30925
30944
30938
30936
30942
30947
30932
30919
30913
30869
30857
30727
30895
30900
30915
30820
30923
30918
30811
30908
30906
30697
30895
30884
30903
30855
30869
30902
30831
30916
30895
30698
30860
30873
30889
30784
30903
30895
30723
30889
30885
30695
30859
30887
30892
30887
30876
30883
30804
30883
30851
30876
30658
30819
30853
30876
30727
30863
30845
30860
30780
30855
30844
30851
30786
30859
30854
30855
30797
30865
30839
30855
30772
30863
30837
30849
30759
30813
30847
30838
30836
30637
30774
30855
30848
30623
30705
30753
30843
30839
30645
30756
30831
30815
30836
30702
30807
30806
30827
30823
30759
30822
30819
30820
30620
30791
30807
30822
30820
30771
30823
30823
30815
30743
30828
30810
30815
30805
30708
30799
30791
30803
30599
30747
30810
30801
30796
30629
30804
30782
30815
30801
30721
30785
30790
30801
30799
30685
30772
30821
30794
30799
30675
30783
30776
30796
30790
30614
30751
30796
30791
30631
30771
30804
30766
30785
30786
30678
30799
30781
30596
30771
30772
30785
30679
30773
30780
30631
30766
30770
30775
30766
30775
30772
30722
30801
30783
30591
30759
30788
30668
30783
30781
30708
30791
30766
30674
30790
30775
30551
30763
30757
30780
30623
30764
30762
30776
30717
30790
30780
30658
30765
30750
30778
30572
30727
30790
30759
30791
30780
30673
30759
30766
30779
30596
30742
30757
30775
30576
30755
30759
30783
30767
30711
30785
30787
30554
30743
30758
30774
30612
30769
30752
30771
30610
30767
30759
30780
30628
30755
30758
30775
30589
30738
30771
30780
30615
30739
30775
30777
30783
30644
30765
30753
30771
30651
30762
30756
30777
30775
30668
30763
30789
30766
30678
30783
30781
30760
30773
30794
30759
30667
30791
30783
30725
30623
30790
30790
30783
30769
30786
30711
30593
30767
30789
30767
30767
30803
30791
30791
30748
30667
30791
30790
30767
30798
30769
30719
30598
30798
30782
30783
30783
30794
30765
30773
30647
30572
30775
30796
30711
30812
30794
30573
30762
30783
30808
30772
30783
30798
30681
30813
30815
30799
30804
30740
30789
30805
30727
30809
30799
30623
30780
30783
30814
30751
30797
30819
30722
30827
30823
30584
30764
30797
30823
30695
30807
30812
30621
30796
30837
30827
30823
30675
30792
30853
30823
30817
30679
30821
30807
30837
30822
30630
30772
30847
30815
30825
30836
30727
30829
30764
30615
30840
30822
30852
30796
30683
30841
30844
30821
30860
30781
30638
30849
30835
30862
30823
30748
30855
30860
30855
30847
30868
30831
30699
30855
30845
30872
30823
30687
30870
30858
30876
30844
30695
30871
30861
30882
30851
30740
30869
30867
30869
30869
30788
30655
30878
30876
30823
30860
30882
30672
30839
30885
30893
30755
30901
30884
30689
30839
30901
30898
30673
30871
30889
30899
30791
30885
30888
30903
30695
30855
30922
30892
30902
30743
30833
30917
30898
30914
30727
30885
30927
30911
30920
30926
30853
30921
30919
30916
30817
30905
30915
30930
30927
30908
30948
30917
30901
30875
30777
30727
30938
30931
30937
30934
30950
30935
30925
30761
30943
30943
30799
30947
30938
30951
30840
30944
30940
30961
30751
30935
30948
30961
30785
30954
30943
30959
30892
30977
30959
30972
30919
30983
30983
30836
30972
30978
30765
30962
30950
30975
30894
30995
30997
30782
30972
30972
30982
30962
30980
30983
30839
30983
30967
30996
30858
30962
30991
31008
31001
30879
30973
30999
31001
30797
30934
31015
30999
31013
30884
30999
30999
31001
30836
30954
31011
30991
30997
30811
30964
31022
30993
31005
30834
30964
30997
31012
30823
30978
31021
31007
31013
30947
31020
30996
31021
31022
31007
30903
30967
31004
31039
30983
30790
31017
31023
31007
31008
31034
31029
31010
30975
30921
30837
31031
31033
31043
31044
31039
31023
30964
31029
31012
31038
30807
30941
31047
31015
31051
31047
30876
31021
31055
31054
31057
30981
31063
31055
31051
30945
31052
31038
31054
30829
30995
31066
31047
31063
30983
31067
31047
31054
30884
31021
31078
31073
30825
31046
31052
31076
30940
31055
31047
31063
30969
31074
31073
31076
31044
31043
31074
30950
31058
31054
31074
31012
31053
31082
31005
31093
31079
30881
31047
31055
31079
31012
31093
31079
31079
30959
31069
31069
31088
31014
31092
31084
31079
30893
31047
31095
31085
30885
31068
31071
31083
31027
31094
31079
31079
30942
31058
31073
31078
31085
30971
31052
31037
30991
30926
30887
30855
30903
30911
30958
31067
31061
31079
31074
31013
31095
31074
31077
31004
31090
31075
30973
31087
31079
31071
30876
31029
31082
31047
31076
30879
31042
31069
31065
30846
31014
31078
31061
31067
31011
31047
31055
30981
31077
31060
31068
30997
31061
31046
31063
30910
31027
31068
31041
31047
31000
31066
31051
31054
30931
31020
31032
31044
31047
30867
31010
31043
31031
31038
31047
30968
31026
31026
31039
30940
31028
31031
31023
30997
31016
31031
31025
30837
30991
31036
31023
31017
30855
30967
31018
30994
31020
30975
30855
30996
31004
31010
30983
31007
30994
30963
30923
30887
30800
30983
30989
30969
30992
30860
30991
30954
30978
30836
30964
30975
30966
30869
30983
30975
30812
30960
30951
30958
30901
30951
30946
30949
30908
30939
30951
30810
30946
30933
30932
30838
30942
30930
30927
30866
30930
30915
30708
30894
30902
30903
30766
30893
30895
30891
30695
30863
30907
30896
30887
30721
30862
30900
30871
30885
30680
30820
30884
30868
30875
30716
30835
30871
30854
30858
30805
30855
30831
30855
30683
30822
30847
30855
30782
30839
30838
30727
30846
30827
30823
30740
30814
30823
30815
30823
30647
30739
30809
30820
30814
30809
30727
30799
30787
30802
30623
30788
30799
30796
30629
30775
30769
30789
30602
30761
30775
30782
30619
30747
30766
30775
30619
30751
30757
30767
30599
30735
30755
30759
30599
30740
30738
30751
30747
30680
30749
30743
30743
30559
30691
30743
30727
30727
30643
30725
30711
30727
30543
30644
30692
30710
30722
30711
30674
30727
30718
30604
30711
30703
30693
30621
30710
30692
30695
30580
30691
30683
30687
30591
30703
30679
30553
30668
30683
30700
30679
30679
30687
30607
30687
30687
30500
30658
30662
30661
30611
30671
30664
30505
30639
30655
30453
30651
30652
30487
30648
30647
30527
30645
30647
30535
30647
30631
30455
30607
30615
30631
30575
30615
30630
30559
30639
30616
30537
30618
30615
30615
30519
30599
30590
30599
30596
30549
30607
30604
30597
30493
30597
30588
30585
30379
30591
30570
30596
30577
30494
30394
30577
30588
30605
30543
30450
30577
30569
30555
30581
30497
30567
30549
30567
30560
30489
30583
30549
30558
30430
30557
30552
30564
30406
30506
30551
30388
30556
30479
30366
30542
30543
30551
30540
30491
30452
30367
30542
30522
30551
30526
30499
30525
30527
30415
30498
30519
30533
30342
30511
30503
30511
30413
30524
30507
30511
30513
30465
30523
30503
30511
30436
30521
30511
30501
30431
30498
30507
30502
30409
30502
30487
30499
30441
30509
30492
30319
30481
30489
30287
30462
30466
30485
30471
30487
30476
30375
30491
30487
30471
30448
30449
30483
30439
30479
30471
30343
30486
30471
30359
30485
30458
30336
30487
30459
30478
30424
30466
30464
30276
30447
30437
30455
30310
30439
30446
30455
30280
30442
30449
30455
30364
30454
30447
30459
30379
30460
30452
30228
30376
30458
30447
30327
30455
30441
30287
30447
30436
30232
30421
30431
30437
30410
30429
30453
30315
30439
30438
30302
30435
30430
30435
30314
30407
30422
30444
30363
30442
30437
30308
30446
30426
30343
30444
30436
30359
30439
30436
30350
30420
30423
30300
30419
30420
30423
30412
30415
30439
30372
30431
30428
30310
30438
30436
30209
30333
30436
30423
30426
30319
30414
30409
30425
30257
30384
30438
30415
30429
30428
30362
30422
30422
30423
30274
30388
30434
30428
30418
30330
30426
30402
30439
30420
30319
30423
30415
30421
30372
30269
30423
30420
30429
30410
30307
30427
30420
30444
30410
30315
30419
30421
30412
30436
30383
30231
30432
30424
30415
30436
30367
30231
30429
30433
30413
30437
30388
30269
30436
30426
30437
30439
30385
30261
30439
30439
30422
30455
30381
30312
30242
30435
30430
30327
30422
30431
30434
30439
30376
30460
30417
30441
30203
30309
30409
30432
30454
30316
30444
30447
30427
30433
30381
30245
30452
30436
30455
30418
30275
30456
30454
30460
30414
30290
30451
30436
30463
30405
30293
30452
30449
30429
30448
30433
30328
30468
30460
30449
30436
30471
30407
30350
30250
30466
30463
30439
30478
30455
30405
30351
30470
30471
30468
30446
30471
30402
30471
30471
30241
30445
30444
30469
30375
30470
30454
30471
30232
30437
30488
30471
30471
30269
30446
30466
30484
30247
30422
30487
30466
30485
30495
30367
30497
30463
30491
30503
30431
30343
30511
30501
30472
30516
30478
30367
30503
30509
30496
30496
30511
30481
30423
30501
30436
30263
30502
30495
30518
30456
30380
30516
30523
30489
30459
30519
30529
30394
30259
30525
30490
30526
30467
30340
30516
30518
30484
30516
30503
30421
30524
30516
30495
30545
30509
30488
30418
30327
30508
30523
30505
30500
30455
30326
30529
30523
30523
30498
30540
30479
30541
30527
30527
30429
30535
30519
30541
30387
30534
30533
30538
30287
30460
30545
30554
30287
30508
30556
30523
30550
30558
30544
30431
30503
30536
30558
30537
30566
30571
30410
30517
30373
30568
30567
30532
30567
30462
30310
30583
30535
30537
30340
30573
30581
30575
30565
30461
30587
30582
30611
30555
30431
30599
30562
30599
30539
30454
30596
30599
30588
30567
30599
30551
30500
30348
30599
30607
30597
30567
30613
30604
30573
30543
30496
30364
30593
30615
30607
30499
30615
30602
30631
30559
30575
30621
30610
30621
30628
30620
30519
30619
30609
30623
30505
30607
30599
30623
30630
30388
30562
30631
30614
30632
30513
30623
30613
30634
30401
30595
30635
30633
30631
30613
30604
30644
30645
30607
30539
30631
30639
30633
30623
30644
30596
30389
30652
30633
30631
30615
30493
30646
30641
30629
30662
30598
30502
30647
30655
30647
30623
30572
30655
30620
30650
30420
30565
30671
30655
30646
30595
30670
30637
30655
30574
30663
30627
30662
30532
30657
30654
30399
30621
30630
30662
30436
30636
30628
30660
30647
30494
30620
30671
30658
30667
30450
30593
30651
30631
30663
30660
30458
30585
30661
30623
30662
30663
30581
30676
30660
30647
30577
30660
30655
30655
30566
30662
30655
30649
30597
30612
30655
30511
30646
30636
30658
30525
30652
30631
30649
30559
30655
30637
30648
30529
30631
30618
30639
30403
30634
30429
30631
30635
30655
30615
30620
30660
30655
30621
30586
30481
30395
30631
30654
30639
30610
30612
30632
30575
30543
30495
30631
30628
30634
30611
30615
30637
30653
30614
30588
30501
30631
30626
30620
30599
30635
30575
30535
30508
30485
30452
30618
30623
30611
30593
30622
30591
30516
30627
30621
30627
30637
30629
30575
30546
30540
30399
30617
30617
30615
30596
30587
30615
30551
30631
30624
30417
30607
30605
30623
30578
30583
30612
30476
30599
30599
30604
30369
30612
30618
30618
30580
30597
30629
30599
30564
30503
30372
30623
30596
30610
30535
30420
30604
30609
30586
30602
30455
30615
30615
30617
30599
30564
30521
30438
30613
30615
30623
30619
30375
30575
30599
30618
30605
30511
30610
30597
30623
30531
30604
30579
30623
30458
30607
30613
30615
30462
30591
30603
30623
30623
30471
30605
30598
30615
30423
30579
30626
30617
30619
30633
30576
30450
30620
30619
30599
30604
30639
30617
30582
30558
30463
30398
30629
30623
30628
30630
30518
30637
30623
30626
30478
30630
30628
30421
30613
30622
30641
30551
30644
30651
30412
30597
30647
30637
30403
30595
30639
30651
30641
30547
30654
30652
30655
30585
30663
30629
30580
30478
30436
30659
30665
30659
30649
30668
30684
30669
30647
30597
30428
30679
30671
30650
30689
30687
30635
30491
30679
30677
30669
30687
30656
30588
30693
30682
30690
30668
30693
30659
30578
30699
30700
30679
30694
30687
30635
30606
30489
30719
30707
30709
30707
30689
30690
30722
30635
30740
30721
30490
30667
30709
30727
30545
30695
30724
30742
30740
30644
30741
30711
30748
30565
30717
30719
30753
30564
30708
30767
30727
30757
30759
30594
30746
30757
30777
30533
30711
30779
30767
30782
30695
30787
30773
30786
30761
30759
30786
30597
30763
30807
30791
30805
30781
30719
30807
30812
30799
30804
30770
30692
30820
30831
30828
30831
30831
30847
30598
30783
30855
30828
30839
30814
30824
30846
30703
30804
30865
30836
30860
30868
30789
30855
30695
30639
30879
30877
30863
30877
30868
30803
30671
30893
30894
30895
30877
30900
30855
30663
30887
30879
30916
30708
30895
30895
30935
30708
30903
30919
30697
30925
30936
30813
30963
30947
30724
30928
30927
30948
30838
30981
30959
30928
30941
30967
30933
30954
30978
30926
30981
30762
30986
30981
30967
30758
31006
31015
30828
31014
31027
30977
30892
30834
31036
31031
31017
31022
31054
31021
30990
30967
30948
30895
31054
31058
31060
31053
31067
31028
30911
31082
31077
31068
31087
31063
30963
30888
31097
31103
31084
31107
30983
31116
31127
31101
31111
31044
30935
31127
31124
31134
31108
30961
31143
31133
31159
31148
31065
30949
31167
31175
31151
31167
31121
31055
31182
31191
31165
31203
31158
31080
30980
31210
31214
31185
31230
31204
31174
31199
31235
31059
31207
31207
31239
31062
31215
31257
31238
31257
31143
31279
31264
31274
31199
31271
31274
31290
31191
31291
31279
31303
31070
31274
31323
31287
31324
31327
31260
31336
31330
31127
31345
31335
31335
31228
31367
31359
31175
31331
31346
31366
31211
31366
31359
31381
31207
31362
31381
31399
31398
31276
31402
31399
31423
31296
31425
31404
31425
31321
31418
31415
31446
31276
31431
31431
31456
31423
31465
31466
31374
31468
31475
31431
31463
31491
31375
31495
31488
31493
31467
31495
31511
31511
31475
31543
31525
31538
31407
31559
31539
31553
31469
31559
31543
31570
31393
31540
31571
31571
31322
31526
31592
31588
31591
31495
31583
31587
31604
31367
31575
31639
31619
31623
31629
31636
31494
31631
31622
31643
31639
31431
31606
31671
31653
31658
31581
31684
31669
31680
31607
31698
31700
31706
31559
31700
31700
31554
31727
31719
31581
31712
31712
31722
31663
31725
31732
31750
31689
31739
31763
31709
31783
31767
31564
31723
31775
31785
31635
31807
31789
31799
31751
31776
31818
31615
31787
31787
31818
31607
31797
31845
31836
31827
31781
31860
31850
31604
31815
31871
31856
31871
31717
31877
31860
31889
31886
31855
31751
31655
31898
31908
31905
31879
31920
31903
31812
31665
31924
31917
31892
31939
31943
31685
31911
31950
31931
31936
31695
31855
31964
31951
31966
31841
31946
31941
31980
31783
31955
31993
31980
31738
31791
31855
31863
31971
31979
32001
31788
31973
32020
32018
32028
31968
32039
32031
31771
32007
32023
32054
31779
31919
32039
32055
32071
31901
32068
32038
32075
32015
32098
32084
32079
32007
32103
32063
32097
31967
32102
32097
32115
31983
32124
32107
32116
31961
32119
32135
32145
32020
32156
32154
31943
32119
32161
32147
32162
32031
32167
32157
32173
32051
32173
32149
32180
32018
32180
32167
32189
32021
32173
32183
32193
32215
32023
32173
32228
32199
32230
32161
32229
32228
32233
32189
32247
32241
31975
32222
32223
32247
32069
32217
32263
32251
32263
32217
32276
32239
32287
32101
32263
32246
32279
32283
32219
32304
32295
32290
32239
32295
32278
32308
32035
32279
32289
32309
32311
32263
32327
32294
32318
32207
32323
32325
32327
32207
32338
32308
32327
32199
32330
32298
32342
32258
32359
32311
32353
32354
32338
32193
32363
32351
32317
32365
32157
32324
32375
32361
32367
32260
32366
32343
32380
32255
32341
32391
32354
32383
32166
32351
32374
32383
32385
32120
32311
32374
32367
32383
32387
32287
32401
32378
32399
32124
32357
32399
32361
32405
32399
32309
32391
32374
32407
32127
32391
32397
32412
32412
32341
32423
32382
32407
32407
32291
32414
32389
32421
32423
32295
32327
32422
32199
32417
32391
32423
32383
32397
32420
32383
32367
32204
32431
32407
32373
32435
32409
32364
32354
32191
32419
32419
32380
32446
32418
32372
32233
32427
32423
32399
32399
32390
32180
32412
32412
32391
32380
32418
32407
32383
32253
32415
32415
32389
32404
32406
32347
32252
32399
32407
32300
32377
32402
32391
32396
32397
32311
32374
32389
32397
32147
32362
32398
32388
32396
32391
32257
32362
32391
32345
32383
32389
32151
32347
32387
32349
32388
32372
32187
32362
32257
32388
32374
32391
32346
32244
32383
32375
32333
32381
32353
32247
32103
32364
32364
32364
32324
32351
32335
32126
32363
32338
32359
32279
32363
32369
32326
32191
32351
32359
32322
32351
32335
32356
32335
32263
32301
32356
32327
32359
32333
32239
32337
32351
32343
32340
32308
32351
32311
32259
32103
32333
32335
32295
32347
32294
32228
32127
32319
32327
32317
32308
32303
32239
32314
32325
32294
32335
32295
32227
32055
32319
32310
32308
32318
32299
32216
32053
32305
32311
32311
32294
32279
32286
32206
32316
32299
32277
32289
32229
32071
32313
32263
32318
32283
32226
32068
32303
32299
32300
32227
32287
32299
32263
32308
32276
32230
32151
32287
32291
32252
32297
32262
32181
32083
32263
32285
32285
32277
32287
32287
32269
32214
32039
32278
32263
32243
32291
32271
32217
32109
32263
32276
32273
32263
32275
32191
32276
32263
32279
32205
32263
32263
32259
32255
32172
32019
32263
32263
32241
32263
32203
32028
32263
32257
32239
32273
32235
32103
32251
32260
32255
32252
32206
32051
32247
32239
32234
32258
32246
32217
31999
32259
32244
32234
32247
32209
32133
32035
32237
32239
32213
32252
32167
32242
32231
32262
32156
32247
32239
32231
32225
32215
32030
32235
32248
32231
32245
32190
32132
31998
32237
32221
32247
32211
32150
32013
32231
32231
32207
32250
32209
32053
32231
32236
32197
32231
32164
32227
32230
32218
32206
32238
32191
32111
31998
32226
32231
32207
32199
32239
32167
32212
32219
32196
32228
32199
32117
32231
32226
32215
32199
32220
32174
32077
32212
32222
32210
32199
32237
32204
32151
32052
32213
32221
32186
32231
32210
32209
32087
32206
32202
32217
32190
32220
32215
32223
32195
32151
32078
31987
32204
32209
32207
32207
32211
32207
32178
32194
32220
32188
32171
32055
32007
32202
32215
32194
32189
32211
32219
32193
32143
32072
32203
32223
32183
32221
32149
32199
32202
32188
32197
32127
31985
32215
32183
32215
32175
32134
31962
32203
32206
32187
32212
32199
32126
32204
32219
32198
32174
32216
32171
32131
32077
32199
32207
32182
32195
32023
32167
32178
32199
32199
32125
32200
32196
32205
32191
32140
32215
32201
32207
32053
32187
32175
32203
32016
32147
32207
32196
32201
32135
32216
32212
32202
32097
32193
32207
32206
32202
32187
32207
32145
32058
32201
32204
32213
32193
32207
32199
32185
32065
32207
32209
32203
32007
32172
32184
32209
32205
32199
32003
32121
32143
32188
32215
32199
32207
32007
32191
32228
32191
32201
32025
32167
32199
32204
32196
32135
32222
32180
32205
32031
32169
32220
32186
32204
32076
32203
32165
32212
32005
32164
32221
32191
32207
32084
32167
32217
32197
32208
32052
32192
32180
32215
32067
32197
32178
32209
32110
32205
32195
32203
32044
32199
32175
32213
32103
32215
32191
32220
31985
32117
32199
32193
32215
31964
32169
32219
32207
31988
32212
32205
32215
32180
32196
32212
32164
32184
32231
32167
32198
32223
32038
32209
32186
32217
32042
32189
32191
32231
31971
32175
32231
32198
32225
32074
32199
32215
32027
32180
32223
32207
32231
32239
31971
32172
32229
32201
32220
32006
32199
32217
32226
32219
32158
32236
32190
32210
32029
32193
32228
32221
32228
32101
32207
32222
32201
32229
32066
32199
32215
32225
31969
32181
32228
32220
32221
32159
32220
32221
32217
32106
32223
32207
31960
32175
32239
32218
31970
32203
32183
32227
32155
32221
32205
32221
32173
32181
32223
32159
32221
32227
32097
32230
32215
32216
32173
32223
32218
32222
32135
32214
32208
32214
32138
32228
32227
32002
32207
32207
32227
32215
32143
32219
32218
32095
32215
32207
32223
32124
32212
32215
32217
32026
32199
32199
32225
32001
32197
32228
32217
32047
32214
32198
32216
32043
32199
32177
32226
31959
32174
32187
32225
32091
32223
32198
32224
32068
32166
32240
32188
32224
32220
31991
32180
32231
32212
32210
32166
32225
32189
32222
32220
32022
32156
32226
32204
32221
31949
32102
32173
32214
32181
32206
32209
32173
32201
32113
32197
32201
32172
32180
32188
32111
31959
32190
32197
32209
32147
31993
32196
32204
32167
32204
32213
32183
32159
32103
31967
32199
32188
32187
32186
32199
32135
31978
32189
32195
32176
32199
32157
32028
32190
32197
32173
32199
32175
32118
31983
32203
32199
32166
32167
32202
32176
32106
32012
31936
32194
32191
32164
32199
32199
32159
32085
31949
32191
32198
32156
32199
32143
31991
32189
32190
32181
32173
32170
31943
32181
32172
32172
32157
32143
32188
32142
32166
32140
32063
32186
32183
32181
32151
32154
32193
32175
32165
32164
32087
32191
32183
31967
32141
32183
32144
32166
32039
32172
32149
32174
32154
32122
32175
32166
31916
32127
32140
32167
31955
32049
32085
32108
32125
32145
32164
32158
32142
32153
32158
32036
32150
32120
32133
32156
31980
31904
31948
32116
32135
32141
32135
32068
32151
32130
32133
31966
32119
32127
32138
31900
32095
32140
32132
32135
32004
32118
32089
32122
31967
32103
32105
32124
32039
32116
32119
31859
32085
32087
32106
31983
32113
32109
32105
32015
32102
32077
32100
32089
32105
32071
32015
32089
32097
32079
32063
32084
32034
31935
32076
32084
32056
32085
32025
31866
32059
32076
32069
32050
32030
32045
32071
32066
32039
31998
31976
31928
31824
32036
32048
32031
32039
32046
32033
32007
31989
31948
31840
32027
32029
32023
31987
32024
31987
31921
31833
32007
32004
32014
31980
31924
31757
32000
31991
31951
31989
31956
31871
31739
31975
31975
31943
31975
31950
31871
31953
31964
31948
31912
31939
31943
31886
31732
31935
31925
31930
31914
31911
31852
31903
31922
31909
31879
31919
31889
31797
31895
31895
31898
31868
31892
31800
31887
31871
31877
31807
31870
31842
31858
31725
31863
31847
31855
31715
31848
31828
31846
31845
31845
31636
31823
31812
31825
31739
31825
31814
31804
31724
31804
31791
31793
31559
31781
31751
31786
31612
31765
31772
31773
31775
31732
31783
31763
31751
31691
31771
31764
31524
31726
31714
31751
31587
31724
31707
31725
31527
31674
31719
31711
31559
31671
31687
31707
31543
31693
31688
31697
31643
31665
31679
31611
31691
31666
31669
31603
31668
31661
31667
31593
31658
31660
31583
31602
31647
31641
31637
31594
31636
31633
31434
31647
31628
31583
31598
31615
31625
31398
31591
31607
31588
31612
31489
31580
31395
31601
31591
31556
31580
31367
31572
31572
31548
31577
31462
31551
31558
31550
31551
31454
31528
31547
31523
31543
31345
31551
31528
31349
31507
31516
31516
31521
31434
31495
31495
31513
31495
31313
31454
31469
31495
31503
31479
31451
31278
31484
31454
31477
31426
31319
31461
31463
31451
31453
31408
31247
31457
31445
31444
31440
31325
31433
31453
31425
31431
31387
31235
31431
31423
31412
31431
31389
31335
31206
31415
31405
31388
31418
31372
31399
31397
31383
31359
31391
31363
31272
31173
31375
31367
31359
31375
31372
31337
31295
31287
31167
31351
31343
31356
31331
31333
31353
31333
31299
31236
31321
31279
31323
31319
31103
31263
31319
31311
31137
31271
31298
31309
31215
31303
31295
31293
31221
31293
31285
31093
31247
31261
31273
31209
31274
31265
31092
31225
31269
31259
31039
31236
31239
31247
31123
31239
31239
31119
31222
31211
31223
31161
31237
31231
31115
31223
31220
31031
31183
31189
31207
31143
31193
31188
31108
31207
31194
31022
31157
31167
31190
31106
31191
31168
31014
31164
31159
31155
31084
31166
31143
31143
30956
31127
31136
31143
30994
31111
31146
31134
31135
31041
31127
31113
31125
30933
31086
31125
31117
30918
31035
31126
31111
30980
31077
31078
31103
30964
31092
31087
31095
31020
31098
31079
31072
31010
31079
31063
31071
30950
31063
31060
31055
30922
31039
31041
31064
30942
31023
31036
31039
30888
31011
31023
31038
30858
30989
31042
31013
31028
31031
30992
31013
31017
30823
30983
31002
31007
30967
31013
30837
30997
30990
30995
30895
30999
30983
30983
30872
30988
30966
30983
30804
30932
30976
30956
30969
30972
30955
30967
30967
30914
30845
30951
30954
30954
30940
30939
30855
30948
30946
30942
30919
30955
30893
30828
30926
30941
30919
30916
30876
30751
30923
30927
30911
30929
30871
30777
30911
30905
30901
30910
30887
30809
30898
30892
30887
30877
30901
30866
30756
30883
30887
30899
30868
30834
30741
30876
30863
30878
30869
30804
30679
30867
30847
30865
30854
30805
30727
30852
30851
30855
30843
30855
30823
30765
30717
30652
30830
30837
30847
30795
30693
30823
30819
30676
30789
30830
30807
30815
30764
30795
30805
30617
30757
30816
30799
30642
30754
30800
30794
30791
30735
30780
30791
30647
30772
30771
30775
30670
30767
30764
30780
30660
30780
30752
30758
30771
30617
30727
30772
30758
30751
30695
30756
30745
30739
30654
30737
30727
30727
30690
30727
30722
30639
30727
30725
30727
30654
30727
30715
30716
30623
30727
30695
30709
30551
30657
30699
30693
30691
30697
30703
30488
30618
30699
30693
30670
30647
30693
30676
30546
30663
30663
30677
30551
30655
30652
30663
30499
30621
30641
30654
30463
30597
30657
30646
30635
30652
30618
30542
30631
30631
30631
30623
30647
30618
30595
30509
30609
30631
30607
30620
30599
30549
30455
30615
30613
30599
30591
30599
30599
30599
30604
30565
30530
30459
30579
30586
30573
30579
30587
30560
30508
30407
30568
30573
30573
30558
30551
30561
30527
30500
30467
30401
30550
30483
30548
30541
30362
30519
30539
30535
30375
30519
30516
30523
30485
30498
30530
30425
30524
30512
30508
30449
30519
30503
30367
30483
30508
30505
30341
30487
30481
30493
30434
30497
30485
30476
30326
30414
30432
30380
30367
30375
30447
30470
30454
30468
30311
30428
30432
30449
30295
30420
30433
30433
30294
30412
30418
30411
30310
30414
30404
30420
30215
30343
30404
30391
30396
30223
30375
30375
30382
30263
30375
30374
30372
30201
30333
30362
30350
30354
30351
30255
30343
30339
30343
30194
30351
30324
30331
30189
30306
30343
30322
30333
30198
30282
30319
30309
30335
30307
30324
30307
30173
30267
30303
30290
30301
30295
30156
30254
30279
30271
30287
30276
30149
30242
30279
30271
30269
30276
30090
30230
30275
30256
30254
30127
30215
30255
30228
30247
30223
30191
30125
30231
30237
30232
30237
30222
30215
30237
30212
30169
30058
30208
30204
30206
30211
30199
30103
30188
30195
30182
30199
30172
30109
30172
30184
30185
30128
30171
30171
30164
30149
30151
30065
30161
30155
30142
30135
30102
29959
30149
30132
30160
30110
30071
30004
30124
30118
30110
30100
30019
29927
30106
30111
30087
30114
30076
30001
30087
30015
30076
30065
30075
30074
29967
30056
30080
30044
30059
30055
29957
30039
30037
30033
30046
30028
30035
29940
30041
30016
30015
29950
30023
30015
30004
30004
29940
29889
29996
29992
29869
29919
29972
29991
29984
29966
29823
29918
29980
29945
29951
29951
29837
29916
29943
29940
29941
29812
29926
29924
29933
29863
29940
29903
29914
29773
29876
29885
29895
29759
29860
29879
29877
29757
29867
29860
29864
29743
29843
29861
29851
29791
29868
29842
29709
29827
29830
29831
29644
29783
29825
29823
29629
29767
29820
29794
29797
29682
29775
29772
29779
29775
29719
29603
29771
29754
29751
29750
29723
29620
29741
29740
29719
29735
29703
29652
29543
29713
29711
29702
29693
29638
29511
29687
29677
29658
29687
29655
29551
29656
29656
29646
29665
29629
29607
29511
29479
29628
29627
29617
29602
29617
29586
29559
29514
29470
29599
29573
29588
29575
29579
29423
29535
29571
29557
29554
29439
29527
29525
29541
29351
29481
29530
29510
29507
29475
29479
29501
29495
29372
29479
29479
29470
29305
29422
29473
29460
29447
29347
29431
29426
29437
29239
29386
29429
29420
29279
29388
29396
29398
29225
29365
29386
29377
29235
29327
29367
29359
29230
29356
29343
29336
29252
29327
29335
29327
29313
29227
29319
29307
29301
29263
29295
29279
29285
29287
29190
29268
29258
29265
29183
29252
29243
29255
29151
29233
29234
29230
29105
29214
29218
29220
29214
29149
29188
29206
29202
29191
29087
29173
29173
29185
29148
29164
29172
29103
29165
29150
29031
29140
29151
29141
29138
29087
29127
29126
29122
29116
29110
29108
29117
29092
29093
29093
29094
29087
29087
29077
29076
29079
29067
29063
29064
29063
29059
29050
29050
29044
29047
29052
29044
29036
29031
29031
29028
29029
29006
29005
29011
29009
29000
29003
28991
28869
28892
28884
28892
28931
28918
28926
28940
28934
28930
28953
28941
28945
28935
28934
28925
28948
28941
28935
28935
28935
28927
28927
28918
28911
28783
28868
28895
28902
28900
28895
28884
28783
28888
28888
28869
28788
28875
28871
28864
28749
28855
28860
28837
28852
28852
28849
28822
28847
28847
28843
28783
28842
28821
28831
28706
28831
28818
28807
28748
28822
28799
28828
28789
28738
28796
28791
28789
28795
28775
28783
28754
28779
28775
28756
28768
28716
28604
28759
28751
28767
28727
28633
28751
28735
28753
28730
28703
28639
28742
28727
28723
28735
28707
28679
28637
28613
28718
28710
28711
28703
28702
28631
28558
28707
28679
28707
28687
28702
28695
28673
28647
28589
28668
28679
28679
28666
28669
28670
28637
28539
28649
28655
28655
28663
28640
28623
28583
28551
28644
28649
28638
28633
28636
28650
28621
28596
28506
28613
28615
28617
28512
28597
28622
28612
28610
28484
28559
28623
28599
28593
28477
28583
28603
28595
28610
28561
28508
28590
28589
28583
28582
28583
28548
28473
28586
28571
28578
28559
28519
28575
28565
28568
28551
28575
28525
28423
28556
28572
28566
28559
28503
28450
28556
28551
28551
28548
28551
28534
28460
28542
28540
28540
28561
28530
28455
28423
28535
28531
28532
28447
28533
28515
28532
28532
28532
28460
28506
28537
28521
28527
28434
28514
28531
28511
28524
28526
28507
28479
28418
28518
28503
28515
28506
28503
28517
28482
28437
28351
28505
28502
28513
28497
28508
28525
28466
28391
28494
28499
28500
28495
28493
28474
28507
28492
28470
28469
28491
28372
28484
28495
28491
28370
28487
28482
28497
28334
28475
28492
28486
28343
28395
28464
28483
28479
28481
28373
28455
28481
28487
28369
28460
28497
28487
28475
28454
28477
28477
28394
28487
28479
28366
28479
28478
28379
28497
28486
28449
28465
28472
28447
28479
28487
28388
28487
28485
28359
28482
28473
28332
28478
28479
28310
28472
28468
28391
28468
28479
28439
28479
28473
28481
28375
28455
28480
28482
28366
28470
28454
28481
28442
28468
28468
28423
28472
28475
28450
28470
28470
28458
28462
28470
28420
28490
28479
28358
28479
28482
28476
28421
28467
28487
28423
28474
28482
28421
28494
28480
28477
28455
28474
28477
28399
28494
28487
28343
28473
28477
28372
28490
28481
28307
28454
28500
28488
28493
28388
28469
28479
28491
28352
28466
28481
28491
28381
28464
28490
28497
28303
28455
28482
28484
28502
28375
28482
28489
28499
28335
28487
28493
28507
28369
28487
28487
28511
28320
28458
28515
28516
28506
28487
28495
28506
28460
28514
28508
28506
28473
28515
28527
28372
28501
28511
28516
28487
28509
28524
28444
28538
28523
28450
28542
28535
28453
28528
28527
28516
28530
28419
28543
28543
28495
28543
28532
28480
28527
28551
28506
28533
28357
28557
28549
28490
28542
28545
28551
28559
28445
28575
28556
28498
28543
28559
28500
28551
28572
28448
28572
28567
28443
28564
28569
28455
28574
28571
28409
28580
28572
28389
28547
28554
28566
28385
28530
28583
28571
28420
28587
28568
28401
28569
28577
28391
28567
28573
28365
28575
28581
28397
28566
28566
28589
28499
28591
28577
28511
28599
28589
28423
28575
28581
28596
28546
28584
28593
28487
28607
28604
28437
28583
28593
28595
28498
28613
28614
28407
28593
28607
28444
28621
28620
28455
28599
28615
28619
28551
28631
28628
28492
28634
28626
28529
28622
28627
28628
28589
28615
28633
28493
28600
28623
28647
28652
28577
28654
28645
28645
28473
28615
28653
28655
28655
28562
28641
28644
28649
28663
28647
28445
28672
28599
28497
28668
28667
28660
28678
28644
28611
28561
28509
28678
28679
28676
28679
28671
28671
28696
28663
28607
28610
28532
28484
28692
28692
28695
28679
28710
28699
28710
28647
28606
28563
28532
28700
28708
28707
28692
28724
28709
28670
28619
28508
28717
28718
28721
28717
28731
28731
28490
28711
28702
28727
28645
28743
28733
28607
28730
28733
28730
28647
28750
28742
28615
28750
28745
28726
28669
28749
28748
28748
28654
28732
28761
28749
28748
28540
28679
28755
28746
28748
28623
28735
28774
28747
28767
28609
28748
28743
28767
28630
28749
28753
28770
28762
28765
28740
28679
28557
28775
28773
28775
28783
28593
28774
28742
28591
28775
28761
28697
28783
28724
28782
28787
28757
28674
28796
28778
28788
28766
28807
28783
28775
28752
28738
28792
28750
28781
28798
28716
28791
28802
28615
28783
28781
28797
28730
28775
28804
28740
28791
28804
28753
28783
28799
28741
28801
28791
28711
28818
28807
28703
28815
28802
28631
28820
28801
28643
28807
28788
28807
28678
28791
28813
28604
28777
28805
28587
28779
28793
28808
28749
28797
28804
28770
28783
28807
28719
28816
28806
28615
28795
28798
28812
28700
28815
28791
28815
28582
28762
28825
28819
28812
28599
28798
28803
28821
28679
28783
28831
28806
28815
28663
28793
28787
28820
28815
28634
28807
28814
28674
28815
28815
28815
28739
28821
28826
28823
28789
28797
28822
28679
28820
28815
28830
28743
28823
28799
28823
28617
28774
28823
28831
28625
28814
28823
28821
28697
28700
28759
28810
28845
28823
28843
28839
28837
28623
28711
28775
28852
28842
28735
28851
28831
28717
28846
28849
28631
28839
28853
28846
28780
28840
28855
28654
28829
28841
28860
28783
28869
28851
28759
28868
28852
28737
28870
28856
28766
28868
28870
28735
28861
28866
28738
28874
28867
28791
28873
28872
28810
28886
28890
28695
28863
28869
28899
28814
28902
28890
28813
28871
28887
28860
28874
28887
28879
28887
28893
28837
28887
28898
28857
28882
28908
28820
28924
28909
28830
28902
28915
28847
28903
28709
28889
28904
28910
28896
28927
28730
28905
28919
28932
28911
28933
28929
28876
28940
28927
28833
28941
28950
28823
28958
28962
28878
28935
28948
28947
28935
28964
28852
28972
28967
28780
28973
28971
28804
28954
28973
28975
28935
28967
28775
28966
28981
28984
28940
28991
28992
28922
28982
28991
28935
29009
29014
28839
29013
29009
28963
29010
29023
28904
29023
29029
29027
29004
29028
29036
28975
29047
29045
28956
29055
29047
29047
29009
29039
29054
28887
29039
29044
29063
28935
29067
29062
29076
28951
29060
29071
29090
29025
29087
29084
28999
29095
29095
28906
29084
29089
29105
28999
29110
29111
28951
29125
29117
28955
29114
29116
29109
29135
29124
29127
29135
28975
29135
29132
29145
29105
29159
29154
29005
29154
29157
29167
29148
29148
29159
29171
29068
29189
29188
29191
29108
29207
29183
29199
29100
29217
29207
29213
29191
29206
29215
29180
29221
29231
29127
29254
29237
29124
29241
29254
29245
29238
29251
29265
29223
29253
29271
29144
29277
29281
29230
29289
29287
29191
29292
29295
29220
29308
29308
29191
29286
29300
29323
29180
29321
29325
29168
29330
29335
29175
29322
29341
29343
29247
29343
29356
29363
29247
29375
29368
29381
29288
29383
29383
29394
29308
29402
29403
29399
29381
29395
29411
29256
29391
29439
29430
29420
29318
29423
29436
29442
29295
29421
29447
29467
29279
29431
29467
29484
29339
29471
29478
29489
29488
29471
29505
29505
29332
29487
29521
29512
29519
29474
29539
29529
29531
29543
29511
29555
29551
29367
29541
29551
29564
29480
29575
29567
29575
29527
29601
29590
29455
29572
29613
29607
29607
29511
29623
29625
29617
29583
29645
29647
29466
29616
29655
29646
29647
29613
29677
29674
29661
29631
29674
29677
29692
29642
29699
29687
29703
29644
29728
29717
29719
29689
29713
29734
29660
29755
29747
29589
29730
29748
29759
29730
29756
29770
29739
29790
29783
29702
29797
29799
29694
29792
29812
29674
29807
29798
29819
29644
29815
29831
29851
29771
29817
29852
29854
29863
29776
29870
29868
29869
29871
29879
29890
29897
29858
29798
29898
29907
29906
29922
29863
29942
29918
29782
29925
29934
29947
29838
29946
29959
29788
29965
29972
29793
29951
29975
29986
29876
29983
29988
29999
29908
30013
30005
30012
29914
30043
30025
30021
29978
30055
30030
30044
29909
30024
30055
30073
29933
30056
30055
30078
29994
30093
30095
29940
30081
30091
30108
29969
30067
30099
30111
30029
30108
30111
30142
30135
30103
30155
30145
30165
30071
30165
30165
30166
30124
30161
30181
29996
30135
30212
30194
30194
30145
30213
30215
30075
30215
30225
30231
30054
30195
30254
30247
30060
30215
30247
30259
30079
30255
30255
30274
30231
30296
30285
30290
30229
30311
30308
30151
30303
30297
30326
30215
30303
30322
30330
30279
30351
30348
30356
30355
30349
30203
30229
30278
30311
30374
30367
30378
30335
30386
30391
30331
30407
30406
30301
30417
30421
30279
30436
30427
30433
30394
30447
30452
30285
30445
30447
30468
30380
30477
30468
30471
30380
30477
30479
30480
30427
30508
30502
30507
30447
30526
30519
30373
30510
30508
30522
30398
30508
30510
30537
30402
30545
30543
30348
30534
30540
30557
30460
30566
30558
30569
30512
30573
30580
30432
30567
30581
30588
30507
30607
30593
30608
30567
30599
30610
30431
30583
30631
30623
30442
30565
30621
30641
30643
30639
30654
30499
30643
30655
30662
30487
30628
30693
30680
30676
30511
30639
30703
30695
30703
30697
30607
30677
30719
30715
30727
30711
30727
30676
30575
30748
30743
30748
30767
30727
30639
30767
30773
30767
30767
30783
30751
30740
30678
30615
30796
30785
30796
30789
30815
30767
30715
30621
30820
30823
30823
30842
30828
30825
30786
30836
30838
30850
30748
30843
30831
30852
30823
30855
30857
30756
30860
30865
30875
30843
30895
30886
30705
30871
30871
30898
30783
30901
30900
30906
30799
30911
30901
30910
30927
30793
30925
30918
30934
30822
30919
30932
30948
30770
30921
30959
30965
30774
30926
30958
30960
30811
30938
30983
30983
30973
30906
30964
30960
30992
30834
30960
30992
30981
30916
30997
30815
30954
31004
31009
30846
31001
30999
31020
30887
31025
31017
31036
30987
31020
31037
30838
31005
31034
31045
30855
31015
31034
31052
30903
31060
31037
31057
30948
31061
31057
31065
31017
31068
31069
31038
31065
31077
30991
31083
31085
30906
31077
31075
31085
31028
31088
31091
30983
31085
31080
31093
30935
31068
31087
31099
30949
31079
31097
31100
31076
31090
31106
30989
31111
31100
31118
31055
31114
31111
31121
31028
31111
31102
31108
30999
31014
31117
30969
31116
31116
31111
31111
31116
31135
31126
31111
31092
31087
31079
31067
31071
31036
31134
30928
31093
31151
31125
30971
31118
31111
31132
31079
31139
31126
31139
31047
31143
31125
31141
31133
30997
31116
31143
31132
30961
31111
31117
31132
31062
31125
31108
31135
31121
31030
31133
31111
31133
30964
31127
31117
31132
31103
31127
31132
31088
31116
31130
30973
31111
31111
31127
30983
31088
31111
31124
30999
31119
31101
31114
31078
31141
31125
31011
31125
31121
31127
31066
31111
31124
31015
31140
31119
31045
31111
31127
31075
31118
31133
31115
31035
31127
31119
30937
31097
31105
31116
31079
31111
31111
31071
31122
31119
31069
31127
31127
31119
31035
31125
31102
31127
30948
31084
31123
31124
31116
31057
31111
31102
31111
31007
31108
31103
31124
31119
31038
31111
31121
31110
31032
31100
31100
31124
30996
31092
31102
31110
31038
31102
31095
31103
31039
31111
31104
31110
31012
31115
31099
31111
31063
31108
31095
31100
30992
31095
31111
31099
31095
31111
31043
31103
31100
31110
31008
31079
31108
31111
31103
31006
31101
31090
31095
31100
31038
31111
31101
31099
31055
31111
31100
31102
31039
31111
31098
31085
31085
31086
31106
31037
31087
31087
31039
31111
31100
30948
31041
31108
31098
31094
31031
31099
31094
30957
31053
31103
31095
30942
31070
31079
31092
30916
31063
31085
31088
31029
31093
31100
30927
31071
31079
31095
30973
31093
31092
31094
31047
31100
31086
30951
31097
31079
31087
31066
31069
31084
31007
31082
31071
31082
30989
31085
31079
31095
31061
31069
31079
31029
31087
31075
31085
30937
31062
31078
31087
31084
31013
31087
31069
31079
30983
31079
31074
31092
30947
31036
31092
31084
30916
31057
31079
31079
31071
31055
31066
31079
30975
31077
31077
31076
31079
31079
30955
31071
31068
31067
30983
31047
31076
31086
31071
30983
31068
31071
31075
31009
31098
31081
30918
31059
31091
31071
31079
31029
31080
31064
31076
30989
31077
31067
31068
30951
31049
31063
31077
31084
30975
31071
31065
31082
31073
31043
31081
31077
31076
31023
31086
31072
31078
30983
31060
31090
31062
31074
30918
31038
31082
31077
30919
31071
31069
31079
31029
31091
31071
30943
31074
31071
31079
31006
31080
31071
31070
30997
31082
31062
31079
30918
31039
31079
31098
31079
31079
31002
31051
31087
31076
31084
31080
30942
31023
31065
31102
30989
31076
31084
31077
30999
31085
31082
31082
30983
31079
31081
31081
30967
31074
31076
31085
31085
31019
31082
31084
31083
31083
31075
31074
31084
30903
31070
31073
31085
30926
31071
31101
31094
31097
31009
31079
31091
31095
31101
31023
31063
31101
31084
31091
31085
30927
31005
31097
31082
31085
30981
31091
31084
31100
31006
31103
31095
31087
31014
31089
31108
31092
31079
31012
31102
31093
31094
30983
31109
31095
31099
31073
30951
31095
31087
31103
31079
30948
31100
31092
31111
31092
30953
31104
31089
31103
31062
31111
31111
31099
31103
31073
30954
31118
31111
31100
31102
31077
31039
30983
31111
31119
31103
31118
31050
31111
31116
31124
31055
31105
31118
31111
31107
31127
31087
31031
31124
31111
31124
31105
31131
31109
31042
31116
31124
31118
31117
31140
31123
31101
31069
31131
31135
31119
31140
31110
31057
30941
31119
31126
31120
31141
31092
31015
31127
31143
31127
31129
31135
31078
30993
31134
31133
31127
31145
31142
31143
31076
31145
31140
31130
31050
31137
31139
31135
31143
30970
31076
31143
31129
31130
30963
31144
31133
31147
31148
31119
31092
31049
30987
31135
31150
31149
31151
31146
31157
31141
31151
31154
31127
31071
31007
31147
31142
31156
31150
31147
31167
31127
31095
31156
31151
31151
31164
31151
31158
31103
31169
31162
31167
31111
31174
31157
31076
31166
31149
31167
31052
31167
31158
31164
30989
31121
31156
31157
31159
31036
31131
31171
31168
31172
31087
31181
31162
31164
31150
31151
31165
31132
31175
31182
31073
31173
31172
31172
31135
31172
31174
31063
31182
31170
31175
31151
31178
31179
31063
31164
31165
31175
31004
31156
31179
31182
31183
31119
31183
31166
31175
31028
31164
31181
31175
31177
31107
31182
31167
31191
31100
31198
31184
31196
31183
31187
31057
31184
31190
31084
31189
31198
31197
31111
31038
31181
31181
31207
31175
31091
31189
31195
31170
31199
31165
31077
31186
31188
31180
31204
31174
31125
31020
31194
31172
31180
31172
31200
31014
31151
31188
31188
31187
31191
31076
31152
31190
31185
31191
31025
31143
31173
31205
31159
31047
31182
31175
31203
31135
31031
31181
31186
31176
31186
31173
31085
31012
31167
31169
31183
31057
31181
31166
31175
31181
31059
31167
31191
31183
31194
31207
31053
31198
31099
31182
31183
31180
31183
31175
31145
31087
31166
31203
31198
31191
31205
31157
31109
31188
31199
31135
31208
31194
31196
31135
31201
31199
31196
31110
31177
31199
31191
31206
31119
31188
31190
31191
31193
31135
31205
31182
31199
31199
31094
31175
31206
31182
31197
31199
31076
31207
31211
31199
31109
31186
31183
31198
31019
31159
31201
31191
31198
31204
31113
31212
31201
31207
31108
31204
31207
31207
31161
31209
31201
31207
31034
31124
31203
31190
31199
31116
31170
31211
31204
31213
31198
31199
31038
31175
31215
31191
31199
31073
31165
31204
31205
31195
31170
31160
31050
31204
31202
31199
31191
31115
31201
31203
31200
31185
31164
31100
31037
31203
31202
31199
31191
31079
31207
31195
31191
31169
31063
31188
31196
31178
31199
31212
31102
31189
31175
31191
31039
31147
31181
31171
31183
31029
31149
31179
31182
31031
31159
31170
31183
31142
31183
31182
31079
31175
31155
31177
31004
31164
31163
31175
30983
31125
31180
31177
31181
31111
31021
31174
31177
31159
31147
31034
31164
31164
31175
31117
30988
31157
31143
31150
31093
30983
31151
31159
31156
31151
31111
31066
31012
31147
31140
31159
31110
31041
31134
31135
31135
31137
31135
31111
31143
31134
31111
31056
31026
31005
30964
31118
31115
31108
31107
31132
31107
31029
31097
31105
31089
31127
31082
30959
31088
31107
31093
31107
31085
31044
31089
30903
31055
31068
31079
30975
31061
31075
31079
31071
30927
31055
31067
31060
30892
31031
31079
31043
31042
31047
30949
31023
31057
31026
31046
30886
30997
31030
31026
31028
30843
31015
31036
31012
31025
30885
30983
31031
31022
31018
31015
30897
31009
30997
31011
30891
30981
30983
30999
30986
30799
30925
30955
30997
30979
30975
30983
30983
30981
30844
30929
30989
30969
30962
30983
30955
30879
30782
30967
30951
30970
30934
30826
30950
30948
30938
30935
30838
30949
30923
30955
30911
30813
30933
30943
30926
30940
30922
30855
30931
30929
30913
30887
30926
30917
30919
30918
30852
30726
30918
30901
30891
30814
30897
30895
30897
30887
30911
30903
30863
30799
30897
30898
30895
30878
30887
30879
30839
30727
30884
30875
30877
30878
30883
30868
30855
30853
30858
30727
30836
30868
30845
30863
30743
30847
30851
30851
30702
30837
30855
30849
30852
30759
30839
30832
30831
30711
30831
30831
30831
30831
30833
30831
30834
30829
30838
30794
30828
30807
30829
30805
30764
30691
30767
30820
30822
30819
30799
30820
30783
30719
30809
30809
30818
30767
30669
30809
30799
30790
30807
30783
30727
30694
30660
30790
30799
30791
30794
30791
30793
30784
30739
30788
30781
30778
30789
30751
30621
30785
30769
30772
30772
30727
30630
30773
30764
30765
30786
30760
30754
30782
30770
30727
30679
30623
30766
30765
30759
30756
30599
30740
30751
30760
30697
30740
30752
30633
30737
30743
30741
30591
30695
30753
30751
30631
30736
30645
30751
30740
30727
30663
30756
30727
30676
30743
30727
30724
30705
30719
30724
30737
30713
30679
30618
30550
30713
30725
30727
30724
30662
30590
30711
30721
30718
30719
30724
30687
30620
30703
30716
30705
30709
30671
30583
30710
30694
30698
30714
30679
30590
30702
30706
30705
30694
30645
30569
30700
30692
30701
30666
30540
30700
30691
30689
30695
30668
30594
30684
30685
30693
30695
30692
30647
30581
30686
30687
30678
30693
30663
30614
30545
30686
30676
30526
30631
30693
30670
30685
30580
30659
30684
30668
30677
30671
30673
30682
30669
30549
30660
30679
30679
30497
30639
30677
30658
30669
30516
30633
30676
30671
30463
30612
30670
30653
30646
30598
30500
30657
30660
30657
30678
30634
30628
30535
30655
30660
30662
30641
30663
30660
30602
30518
30663
30660
30653
30660
30613
30556
30482
30655
30649
30639
30655
30626
30591
30655
30556
30644
30641
30642
30511
30615
30654
30647
30650
30647
30561
30638
30636
30656
30643
30642
30652
30628
30599
30519
30643
30636
30637
30652
30609
30528
30631
30643
30649
30615
30535
30641
30645
30644
30631
30577
30503
30639
30635
30615
30647
30614
30541
30635
30623
30637
30599
30532
30631
30623
30571
30503
30634
30636
30636
30607
30528
30631
30630
30631
30631
30580
30628
30623
30615
30631
30583
30516
30629
30639
30631
30591
30631
30632
30619
30634
30572
30631
30631
30640
30592
30623
30620
30607
30608
30457
30636
30642
30607
30458
30623
30623
30612
30453
30629
30641
30571
30623
30623
30637
30577
30623
30630
30620
30591
30623
30639
30619
30617
30528
30628
30615
30635
30581
30531
30631
30621
30599
30631
30574
30471
30615
30623
30614
30633
30631
30599
30481
30616
30628
30623
30618
30593
30511
30612
30621
30628
30619
30611
30629
30608
30585
30524
30452
30615
30623
30618
30616
30612
30619
30609
30533
30631
30615
30608
30611
30631
30583
30533
30450
30623
30614
30620
30622
30612
30559
30470
30612
30614
30612
30622
30551
30620
30619
30599
30612
30575
30447
30605
30535
30619
30615
30605
30628
30574
30484
30612
30604
30599
30602
30526
30607
30613
30615
30571
30612
30604
30599
30607
30607
30598
30599
30599
30615
30535
30613
30615
30599
30599
30607
30603
30547
30621
30607
30612
30561
30623
30623
30491
30599
30612
30607
30513
30612
30609
30486
30587
30599
30603
30567
30617
30599
30541
30620
30610
30530
30591
30603
30503
30613
30609
30604
30590
30605
30607
30511
30607
30613
30439
30575
30600
30606
30580
30591
30615
30487
30595
30595
30606
30477
30595
30599
30599
30501
30591
30599
30594
30515
30591
30610
30606
30595
30430
30573
30619
30593
30442
30577
30600
30599
30596
30580
30602
30596
30484
30569
30589
30598
30583
30532
30580
30603
30593
30593
30564
30578
30585
30565
30572
30591
30463
30561
30583
30587
30516
30606
30587
30503
30593
30581
30575
30549
30590
30583
30588
30498
30582
30571
30581
30447
30555
30570
30575
30460
30565
30563
30568
30575
30519
30577
30571
30569
30471
30559
30572
30580
30437
30554
30562
30583
30428
30543
30572
30575
30457
30565
30564
30577
30495
30588
30583
30417
30539
30567
30566
30455
30583
30570
30431
30568
30566
30578
30559
30580
30559
30527
30471
30570
30567
30563
30552
30574
30532
30451
30571
30573
30558
30570
30545
30419
30574
30566
30573
30573
30567
30527
30469
30558
30565
30579
30563
30522
30471
30426
30555
30557
30565
30557
30549
30484
30554
30553
30548
30548
30559
30501
30544
30554
30527
30484
30402
30546
30565
30543
30546
30539
30551
30543
30459
30551
30549
30451
30396
30542
30542
30543
30539
30559
30537
30485
30389
30543
30545
30518
30533
30511
30471
30543
30535
30522
30445
30503
30544
30522
30519
30409
30489
30530
30508
30530
30534
30332
30511
30431
30526
30508
30524
30500
30385
30510
30503
30521
30479
30516
30511
30513
30466
30403
30511
30500
30492
30399
30500
30503
30515
30487
30443
30335
30498
30482
30504
30474
30464
30391
30492
30494
30487
30497
30468
30386
30338
30469
30478
30492
30454
30359
30483
30468
30479
30460
30421
30330
30469
30469
30455
30447
30377
30455
30447
30455
30384
30439
30444
30452
30431
30327
30447
30447
30441
30420
30376
30295
30433
30430
30428
30430
30430
30387
30261
30433
30428
30433
30403
30375
30310
30408
30410
30407
30415
30409
30391
30335
30252
30391
30386
30411
30284
30351
30396
30388
30380
30383
30349
30386
30375
30372
30341
30373
30367
30226
30343
30344
30372
30305
30360
30343
30342
30252
30343
30327
30343
30300
30350
30342
30342
30333
30188
30296
30324
30324
30330
30260
30317
30310
30319
30243
30311
30311
30306
30305
30301
30303
30296
30215
30300
30298
30166
30279
30279
30291
30119
30264
30268
30278
30275
30202
30262
30276
30263
30267
30251
30229
30117
30270
30267
30263
30239
30114
30254
30247
30252
30228
30141
30237
30237
30251
30215
30159
30229
30228
30215
30239
30183
30215
30215
30215
30175
30212
30215
30209
30207
30171
30070
30207
30206
30191
30215
30182
30143
30063
30206
30193
30189
30189
30188
30186
30202
30159
30100
30042
30175
30183
30183
30189
30182
30151
30090
30060
30165
30167
30167
30190
30164
30171
30123
30169
30154
30163
30103
30167
30159
30150
30155
30097
30143
30163
30151
30162
30129
30113
30056
30147
30146
30144
30128
30153
30143
30118
30101
30076
30015
30128
30122
30135
30127
30115
30123
30076
30127
30126
30122
30112
30115
30081
30053
29950
30114
30112
30100
30078
30114
30113
29953
30106
30100
30077
29983
30095
30111
30095
30086
30118
30107
30071
30044
29980
30087
30085
30079
30095
30084
30029
29935
30078
30078
30086
30085
30081
30092
29969
30082
30085
30053
29996
30071
30074
30071
30061
29946
30061
30065
30069
30042
30000
29964
30057
30071
30059
30047
30072
30044
29956
30054
30052
30056
30062
30036
29941
30055
30057
30039
30050
29998
30050
30052
30058
30018
30047
30045
29941
30034
30034
30046
30011
30039
30032
29975
30028
30039
30037
29924
30012
30044
30036
29895
30007
30036
30024
30035
30031
29959
30023
30021
30023
30028
30023
29983
30036
30018
30019
29940
30011
30026
30023
30012
29987
30027
30010
30008
29916
29990
30015
30019
30017
29990
30023
30011
30023
29942
30023
30007
30004
29932
30015
30004
29999
29875
29977
30017
30005
30007
29999
29908
29991
30010
29997
30004
29959
30006
29958
29887
29993
29991
29991
29994
30003
29996
29994
29999
30007
29993
29991
29967
29959
29982
29934
29983
29981
29996
29895
29977
29991
29983
29868
29986
29980
29873
29969
29980
29986
29885
29974
29989
29850
29967
29981
29982
29839
29959
29985
29991
29868
29978
29991
29983
29903
29978
29989
29979
29990
29955
29899
29839
29983
29981
29991
29985
29992
29980
29909
29829
29981
29980
29975
29970
29970
29984
29987
29945
29890
29979
29966
29975
29975
29967
29988
29964
29935
29930
29882
29972
29977
29988
29979
29981
29973
29959
29969
29971
29975
29981
29959
29921
29991
29967
29981
29895
29975
29980
29815
29970
29959
29977
29839
29937
29982
29959
29969
29959
29903
29849
29967
29967
29967
29959
29977
29966
29933
29845
29972
29972
29972
29974
29967
29985
29949
29949
29918
29834
29967
29973
29959
29968
29919
29831
29959
29959
29951
29977
29947
29908
29868
29830
29959
29968
29955
29977
29937
29879
29967
29959
29959
29975
29942
29874
29833
29955
29954
29975
29943
29899
29962
29959
29957
29973
29927
29879
29958
29959
29965
29959
29947
29861
29959
29922
29959
29951
29970
29959
29927
29861
29959
29943
29949
29959
29882
29957
29959
29973
29924
29823
29956
29955
29959
29949
29964
29918
29825
29971
29949
29958
29948
29863
29939
29949
29949
29894
29948
29939
29831
29934
29932
29943
29943
29847
29938
29959
29951
29943
29910
29959
29927
29945
29936
29802
29913
29943
29942
29935
29911
29954
29940
29943
29925
29935
29943
29887
29940
29933
29903
29940
29936
29825
29928
29916
29939
29839
29927
29926
29940
29797
29910
29933
29935
29825
29900
29943
29935
29748
29877
29943
29930
29805
29919
29940
29926
29831
29922
29915
29927
29775
29924
29919
29933
29874
29931
29931
29791
29931
29915
29930
29849
29935
29925
29922
29873
29943
29927
29926
29900
29913
29927
29823
29898
29909
29917
29862
29942
29922
29927
29863
29931
29926
29748
29893
29946
29923
29925
29772
29873
29932
29924
29916
29877
29927
29924
29915
29877
29919
29921
29773
29894
29923
29927
29781
29922
29915
29939
29919
29905
29911
29919
29887
29819
29917
29918
29919
29906
29935
29919
29868
29807
29913
29911
29905
29903
29908
29861
29785
29917
29910
29903
29900
29895
29918
29921
29915
29911
29912
29876
29895
29893
29862
29888
29895
29862
29879
29887
29840
29895
29887
29703
29838
29871
29878
29733
29852
29870
29884
29767
29873
29860
29884
29747
29867
29868
29879
29764
29874
29848
29869
29876
29813
29875
29873
29867
29807
29870
29861
29747
29869
29863
29794
29859
29863
29762
29867
29866
29862
29812
29867
29869
29703
29829
29870
29852
29859
29797
29863
29855
29853
29852
29853
29848
29807
29868
29863
29759
29837
29837
29854
29765
29865
29858
29842
29815
29841
29845
29802
29841
29861
29810
29854
29855
29838
29750
29855
29847
29703
29834
29847
29842
29832
29837
29853
29810
29828
29848
29682
29803
29841
29842
29691
29822
29829
29643
29823
29831
29676
29825
29815
29835
29800
29812
29827
29727
29831
29828
29825
29793
29828
29828
29756
29837
29817
29813
29768
29831
29815
29821
29703
29801
29802
29799
29720
29816
29801
29819
29690
29804
29803
29807
29703
29795
29793
29807
29801
29775
29796
29812
29801
29767
29801
29796
29727
29615
29791
29806
29781
29807
29775
29730
29680
29787
29790
29778
29789
29779
29762
29726
29719
29703
29627
29772
29779
29770
29789
29741
29715
29643
29765
29774
29772
29772
29751
29779
29740
29662
29623
29762
29767
29759
29750
29769
29761
29753
29692
29624
29753
29754
29743
29703
29756
29748
29623
29749
29743
29586
29721
29735
29734
29703
29717
29729
29564
29711
29723
29731
29682
29712
29714
29669
29722
29703
29703
29687
29691
29513
29719
29703
29535
29681
29695
29695
29608
29703
29699
29575
29668
29695
29691
29505
29647
29700
29689
29687
29615
29675
29676
29503
29607
29606
29646
29667
29678
29570
29678
29660
29527
29654
29658
29649
29615
29651
29650
29610
29638
29510
29636
29635
29463
29604
29626
29637
29483
29614
29616
29629
29503
29607
29615
29621
29475
29610
29609
29608
29614
29543
29617
29599
29517
29614
29601
29439
29574
29588
29590
29506
29595
29583
29599
29494
29594
29586
29580
29483
29591
29579
29582
29559
29553
29581
29446
29564
29550
29575
29401
29524
29572
29565
29388
29524
29548
29550
29407
29540
29548
29548
29511
29542
29543
29475
29558
29543
29539
29399
29502
29537
29532
29528
29379
29511
29516
29538
29457
29538
29527
29519
29418
29503
29507
29517
29343
29479
29527
29533
29521
29497
29511
29527
29521
29455
29518
29509
29439
29518
29519
29383
29505
29498
29512
29405
29483
29359
29519
29502
29504
29441
29523
29495
29507
29442
29503
29499
29506
29429
29503
29487
29503
29407
29487
29495
29490
29487
29393
29483
29503
29495
29486
29382
29478
29500
29485
29492
29364
29473
29484
29490
29348
29468
29491
29490
29348
29479
29495
29316
29476
29487
29479
29478
29488
29495
29463
29468
29479
29341
29479
29487
29486
29354
29367
29378
29418
29503
29485
29421
29334
29482
29479
29476
29493
29470
29435
29364
29488
29488
29473
29500
29447
29364
29490
29485
29477
29490
29444
29319
29486
29490
29481
29483
29386
29301
29483
29489
29492
29495
29433
29378
29487
29490
29487
29502
29495
29465
29423
29333
29487
29497
29502
29506
29468
29387
29500
29500
29486
29505
29426
29497
29503
29511
29467
29343
29495
29487
29519
29476
29468
29383
29492
29497
29510
29496
29508
29489
29490
29473
29437
29348
29509
29508
29503
29519
29514
29477
29390
29511
29523
29535
29501
29447
29342
29527
29511
29531
29493
29428
29523
29530
29523
29527
29452
29543
29532
29521
29539
29494
29415
29527
29535
29534
29508
29390
29550
29534
29533
29478
29543
29557
29540
29558
29519
29391
29556
29534
29549
29434
29559
29559
29561
29511
29390
29560
29566
29572
29534
29420
29564
29575
29583
29565
29495
29407
29578
29578
29572
29565
29479
29575
29580
29586
29524
29433
29593
29601
29594
29597
29569
29460
29602
29597
29593
29463
29609
29601
29622
29587
29447
29610
29605
29627
29594
29506
29630
29630
29621
29635
29587
29533
29631
29639
29637
29635
29642
29534
29642
29653
29628
29662
29671
29628
29624
29506
29655
29671
29665
29558
29673
29663
29666
29511
29665
29668
29687
29543
29675
29701
29699
29678
29678
29694
29527
29692
29679
29715
29703
29679
29682
29663
29631
29633
29658
29607
29546
29703
29726
29739
29729
29665
29583
29737
29739
29732
29743
29741
29703
29595
29753
29755
29769
29725
29644
29565
29756
29752
29773
29703
29620
29768
29774
29775
29767
29796
29788
29741
29695
29791
29727
29802
29783
29799
29765
29803
29805
29671
29807
29809
29820
29760
29831
29830
29823
29775
29822
29828
29790
29827
29838
29775
29852
29838
29869
29703
29814
29869
29863
29879
29779
29863
29871
29855
29847
29869
29885
29887
29810
29903
29893
29899
29858
29893
29903
29769
29911
29915
29761
29895
29906
29927
29882
29919
29933
29862
29946
29943
29875
29932
29946
29830
29938
29932
29952
29876
29978
29964
29793
29948
29973
29983
29909
29991
29984
29834
30005
30004
29844
30005
30002
30007
29962
30012
30011
29959
30014
30018
29981
30021
30036
29865
30026
30020
30044
29914
30051
30050
30058
30018
30051
30055
29903
30070
30071
29959
30073
30087
29919
30021
30078
30087
30015
30091
30102
30014
30117
30111
29907
30103
30113
29897
30119
30103
30115
30080
30118
30133
30082
30125
30143
30145
30154
30071
30169
30159
30111
30151
30170
30124
30166
30175
30175
30177
30116
30169
30191
30191
30187
30053
30211
30215
30088
30239
30231
29983
30189
30198
30242
30127
30244
30243
30144
30234
30239
30164
30253
30258
30063
30247
30261
30268
30204
30260
30276
30244
30278
30124
30275
30292
30241
30292
30119
30300
30303
30162
30308
30307
30167
30319
30310
30212
30331
30321
30207
30319
30327
30332
30314
30327
30343
30291
30333
30346
30325
30354
30163
30363
30354
30202
30344
30354
30367
30187
30346
30369
30378
30279
30394
30404
30248
30414
30410
30380
30407
30187
30383
30405
30195
30414
30431
30279
30439
30431
30375
30415
30439
30446
30449
30331
30455
30454
30467
30403
30476
30471
30300
30437
30491
30491
30493
30455
30466
30499
30471
30479
30512
30443
30503
30516
30445
30500
30525
30445
30524
30533
30439
30551
30554
30513
30539
30559
30566
30562
30330
30435
30533
30556
30575
30575
30582
30388
30583
30596
30439
30620
30610
30553
30596
30623
30602
30629
30437
30647
30633
30484
30623
30644
30471
30647
30652
30523
30631
30654
30583
30647
30669
30619
30660
30677
30594
30676
30690
30634
30663
30689
30661
30685
30702
30665
30685
30703
30663
30718
30717
30567
30739
30727
30727
30698
30711
30741
30696
30727
30750
30675
30765
30767
30540
30727
30754
30772
30706
30783
30782
30580
30791
30804
30674
30800
30795
30692
30804
30799
30807
30791
30801
30824
30658
30830
30803
30836
30791
30815
30840
30759
30852
30855
30630
30807
30831
30854
30831
30847
30877
30757
30900
30884
30879
30831
30859
30887
30831
30878
30895
30755
30904
30892
30919
30855
30919
30916
30914
30807
30924
30908
30930
30895
30927
30930
30863
30949
30948
30719
30924
30919
30949
30806
30940
30951
30959
30897
30972
30966
30783
30962
30959
30974
30914
30978
30963
30983
30748
30919
31005
30983
31009
30919
31015
31005
31007
30881
31025
31012
30877
31029
31021
30919
31036
31019
31029
30941
31035
31006
31032
30925
31046
31050
31047
30924
31046
31029
31047
30983
31055
31061
30929
31055
31043
31073
30927
31063
31047
31069
30847
31069
31061
31073
31015
31086
31082
30842
31042
31095
31092
30852
31060
31083
31105
31037
31111
31084
31107
30937
31095
31087
31118
31044
31132
31130
30893
31127
31137
31025
31148
31140
30899
31103
31131
31137
31090
31111
31155
31099
31127
31153
31124
31155
30943
31157
31175
30988
31133
31187
31172
31084
31189
31175
31127
31197
31191
31047
31205
31199
31032
31207
31205
31057
31207
31215
30991
31197
31207
31223
31175
31209
31235
31197
31215
31239
31167
31239
31255
31127
31258
31255
31015
31231
31239
31255
31153
31268
31260
31272
31223
31283
31283
31174
31295
31292
31294
31248
31282
31311
31186
31312
31313
31161
31308
31323
31095
31311
31322
31327
31311
31332
31236
31331
31347
31314
31319
31349
31332
31355
31351
31335
31351
31145
31363
31359
31367
31316
31387
31383
31382
31359
31383
31395
31342
31405
31403
31327
31391
31412
31356
31400
31418
31391
31425
31239
31411
31420
31439
31340
31428
31443
31431
31430
31457
31413
31431
31471
31335
31463
31447
31480
31367
31493
31482
31483
31277
31445
31514
31503
31508
31402
31524
31515
31511
31461
31538
31524
31410
31512
31527
31545
31482
31541
31552
31377
31535
31534
31564
31473
31569
31569
31574
31422
31559
31601
31580
31585
31439
31583
31582
31591
31615
31453
31567
31630
31623
31638
31591
31527
31439
31639
31646
31645
31639
31631
31639
31660
31633
31583
31511
31463
31674
31602
31692
31676
31687
31647
31700
31667
31698
31515
31684
31716
31703
31727
31554
31719
31703
31739
31737
31558
31705
31726
31751
31514
31732
31747
31764
31575
31725
31793
31767
31778
31791
31793
31687
31783
31786
31807
31660
31806
31806
31814
31823
31751
31843
31845
31631
31815
31823
31847
31751
31860
31860
31703
31871
31862
31873
31853
31864
31895
31828
31874
31903
31751
31910
31902
31911
31871
31911
31919
31843
31933
31943
31735
31926
31940
31951
31884
31943
31961
31786
31948
31957
31970
31938
31995
31983
31979
31889
32007
31978
31996
31974
31991
32020
31860
32022
32014
32032
32028
31973
32053
32047
32038
32001
32077
32044
32071
31941
32062
32055
32085
31867
32040
32102
32094
31909
32079
32094
32117
31900
32100
32102
32131
32055
32135
32135
32143
31935
32105
32164
32151
32145
32167
31982
32135
32167
32186
32039
32190
32188
32199
32134
32201
32212
32037
32178
32211
32237
32059
32214
32212
32251
32060
32249
32242
32103
32228
32252
32275
