EGG
12635
12805
12605
12615
12607
12615
12615
12626
12607
12593
12591
12582
12580
12638
12713
12919
12566
12561
12580
12577
12574
12582
12586
12556
12548
12556
12553
12536
12711
12897
12524
12517
12526
12540
12543
12545
12549
12535
12551
12536
12505
12504
12502
12492
12492
12489
12491
12498
12501
12525
12537
12582
12580
12835
12459
12456
12455
12457
12453
12452
12457
12451
12455
12478
12449
12446
12436
12420
12486
12565
12639
12415
12415
12428
12415
12411
12406
12404
12406
12403
12402
12422
12439
12417
12402
12393
12396
12508
12389
12379
12395
12406
12391
12391
12379
12390
12427
12507
12360
12372
12387
12380
12354
12446
12558
12668
12355
12346
12347
12352
12343
12344
12359
12370
12373
12358
12352
12335
12335
12343
12341
12362
12415
12324
12322
12328
12331
12335
12347
12328
12319
12320
12470
12316
12308
12311
12333
12320
12307
12311
12470
12603
12651
12358
12292
12295
12298
12321
12319
12333
12329
12308
12294
12295
12363
12660
12282
12284
12300
12310
12316
12295
12280
12289
12358
12602
12271
12275
12265
12271
12266
12262
12286
12292
12299
12293
12277
12276
12359
12548
12262
12255
12266
12282
12286
12263
12244
12350
12254
12253
12285
12262
12252
12299
12544
12243
12276
12269
12254
12244
12519
12241
12245
12241
12256
12273
12250
12245
12351
12614
12230
12236
12252
12276
12266
12251
12243
12233
12229
12238
12247
12236
12244
12235
12239
12235
12283
12383
12415
12593
12228
12234
12246
12253
12267
12246
12237
12265
12388
12536
12229
12226
12230
12223
12251
12244
12252
12264
12236
12231
12231
12221
12261
12429
12228
12232
12233
12263
12243
12226
12246
12431
12231
12232
12263
12259
12264
12256
12255
12236
12244
12292
12356
12383
12532
12233
12237
12238
12233
12238
12239
12251
12262
12254
12250
12247
12242
12270
12260
12250
12247
12311
12534
12242
12251
12247
12253
12261
12274
12292
12287
12265
12263
12260
12252
12265
12274
12292
12579
12264
12261
12268
12294
12271
12269
12295
12626
12262
12299
12268
12458
12271
12293
12304
12308
12288
12285
12282
12319
12326
12528
12291
12292
12289
12294
12304
12323
12304
12294
12305
12666
12307
12294
12319
12334
12340
12323
12313
12315
12349
12407
12622
12317
12319
12330
12339
12335
12325
12333
12326
12341
12509
12712
12330
12325
12325
12327
12351
12348
12348
12359
12357
12359
12380
12359
12356
12343
12445
12447
12343
12355
12359
12368
12385
12390
12378
12362
12403
12495
12672
12378
12378
12391
12414
12388
12388
12425
12387
12395
12418
12414
12397
12420
12545
12395
12388
12420
12519
12427
12413
12404
12435
12420
12495
12444
12427
12421
12444
12479
12429
12443
12497
12432
12449
12755
12452
12453
12792
12465
12458
12812
12474
12461
12449
12485
12454
12461
12493
12474
12788
12490
12475
12872
12479
12487
12570
12485
12502
12597
12494
12518
12514
12495
12525
12504
12879
12536
12513
12513
12549
12540
12520
12560
12525
12535
12561
12537
12537
12564
12579
12538
12573
12601
12562
12571
12807
12580
12586
12626
12567
12588
12628
12585
12623
12622
12596
12617
12971
12619
12613
12610
12645
12669
12632
12636
12696
12631
12642
12698
12636
12647
12673
12658
12650
12654
12683
12682
12661
12672
12697
12679
12789
12677
12715
12699
12782
12705
12742
12706
13103
12708
12753
12722
13123
12735
12763
12764
12743
12781
12762
12891
12759
12774
12799
12774
12798
12785
13060
12785
12829
12802
12935
12799
12849
12813
12823
12855
12835
13166
12861
12854
12903
12854
12870
12866
12943
12867
12906
12893
12916
12888
12926
12906
12918
13233
12915
12942
12922
13233
12932
12971
12935
13051
12951
12961
12972
13019
12967
13006
12989
13043
12998
13011
13014
13028
12994
13018
13031
13050
13033
13035
13055
13047
13232
13058
13104
13070
13390
13071
13110
13093
13254
13099
13140
13119
13285
13119
13158
13148
13140
13475
13146
13181
13168
13511
13186
13213
13193
13196
13214
13210
13556
13209
13237
13246
13239
13250
13259
13362
13255
13295
13268
13403
13276
13317
13304
13306
13307
13318
13327
13350
13328
13344
13386
13361
13364
13730
13364
13402
13382
13753
13393
13413
13417
13746
13432
13444
13465
13431
13470
13465
13469
13493
13478
13564
13495
13500
13588
13493
13543
13519
13833
13539
13550
13679
13562
13567
13580
13575
13594
13602
13603
13599
13620
13613
13831
13625
13656
13654
13641
13680
13668
13963
13665
13703
13724
13698
13723
13726
13871
13727
13762
13757
13747
13785
13759
14063
13789
13804
13798
13975
13808
13841
13830
13840
14100
13852
13887
13865
13862
13896
13899
14010
13890
13930
13932
13916
13955
13935
14172
13959
13979
14059
13975
14023
13994
14333
14009
14033
14085
14021
14072
14095
14043
14096
14099
14070
14106
14168
14106
14140
14124
14473
14157
14145
14406
14181
14181
14220
14186
14207
14215
14291
14201
14236
14255
14236
14265
14315
14269
14303
14279
14287
14327
14389
14316
14355
14340
14699
14364
14392
14372
14516
14372
14419
14411
14662
14446
14437
14765
14452
14471
14468
14645
14476
14517
14524
14512
14549
14530
14558
14567
14554
14844
14591
14570
14573
14617
14608
14687
14641
14639
14768
14661
14670
14663
14694
14684
14700
14721
14727
14753
14734
14764
14766
14799
14774
14815
14789
14795
14834
14815
15055
14837
14882
14860
14860
14887
14892
15213
14906
14994
14943
15018
14975
15035
14963
14970
15239
15009
15006
15148
15018
15058
15045
15052
15071
15070
15169
15079
15099
15142
15108
15151
15175
15139
15168
15297
15180
15186
15275
15199
15214
15333
15247
15236
15260
15266
15270
15503
15287
15306
15300
15309
15342
15327
15334
15364
15364
15680
15388
15393
15630
15418
15430
15526
15441
15455
15641
15463
15486
15577
15495
15519
15652
15549
15666
15549
15559
15668
15574
15587
15616
15598
15626
15619
15798
15643
15667
15776
15681
15693
15850
15715
15720
15806
15723
15772
15760
15762
15775
15786
16102
15826
15823
16117
15825
15850
15965
15862
15879
15924
15887
15916
15943
15924
15958
15954
15957
15982
15978
16012
16003
16001
16016
16038
16156
16054
16068
16226
16079
16099
16135
16109
16149
16154
16148
16165
16286
16172
16199
16284
16207
16231
16314
16245
16252
16418
16265
16294
16521
16310
16326
16567
16347
16347
16647
16391
16391
16383
16413
16644
16442
16433
16431
16470
16466
16462
16509
16508
16492
16533
16525
16583
16541
16571
16620
16580
16612
16620
16606
16634
16661
16638
16665
16676
16710
16680
16723
16703
16999
16728
16759
16745
16903
16775
16791
16788
16815
16817
16819
16852
16847
17145
16895
16927
16910
17065
16935
16947
16935
16947
16946
16973
16975
17007
17123
17025
17031
17030
17035
17045
17065
17064
17094
17079
17105
17203
17132
17135
17135
17181
17183
17175
17212
17314
17219
17231
17226
17271
17354
17271
17285
17281
17315
17343
17315
17341
17458
17346
17372
17561
17407
17433
17407
17431
17615
17437
17466
17725
17486
17495
17475
17509
17604
17516
17557
17595
17551
17571
17655
17588
17597
17637
17631
17652
17644
17662
17831
17691
17697
17683
17726
17711
17715
17740
17757
17995
17782
17786
18023
17815
17809
17814
17843
17855
17848
17885
17871
17871
17900
17942
17907
17951
17939
17941
17971
17969
17970
18011
18007
18056
18012
18049
18084
18056
18062
18293
18101
18101
18263
18135
18137
18365
18157
18156
18159
18197
18198
18195
18220
18276
18221
18251
18294
18255
18273
18375
18284
18309
18543
18340
18343
18564
18356
18373
18583
18404
18410
18415
18448
18468
18438
18469
18468
18468
18489
18513
18652
18524
18543
18694
18551
18579
18613
18583
18619
18624
18617
18653
18665
18654
18681
18717
18675
18710
18841
18730
18727
18733
18770
18769
18938
18791
18799
18981
18818
18836
18913
18850
18865
18955
18877
18903
18947
18913
18948
18951
19159
18957
18988
18996
18987
19026
19025
19017
19055
19049
19276
19061
19103
19105
19242
19117
19145
19164
19143
19180
19175
19262
19185
19214
19201
19241
19239
19367
19260
19273
19382
19302
19307
19325
19351
19330
19359
19567
19394
19432
19401
19415
19420
19437
19489
19447
19486
19535
19478
19513
19657
19530
19546
19546
19575
19651
19584
19603
19769
19637
19640
19629
19675
19699
19671
19691
19756
19705
19717
19727
19767
19759
19763
19782
19854
19796
19833
19831
19987
19836
19877
19870
20070
19900
19903
19947
19920
19950
19953
19939
19975
19975
20031
19997
20022
20031
20049
20238
20055
20086
20086
20279
20113
20128
20203
20147
20164
20197
20166
20206
20209
20206
20222
20239
20281
20239
20281
20292
20441
20311
20323
20396
20339
20357
20367
20540
20380
20391
20570
20426
20433
20622
20454
20455
20465
20499
20495
20498
20539
20551
20535
20567
20614
20579
20590
20674
20606
20625
20680
20637
20679
20677
20798
20692
20714
20719
20852
20739
20757
20781
20935
20784
20797
20795
20837
20830
20837
20875
20874
20862
20900
20901
21051
20937
20946
21061
20958
20975
21036
20982
21021
21022
21179
21038
21063
21062
21069
21101
21126
21105
21132
21177
21147
21168
21175
21165
21213
21244
21202
21223
21300
21247
21263
21412
21284
21313
21287
21319
21461
21349
21355
21342
21385
21388
21386
21412
21426
21415
21455
21467
21451
21484
21495
21494
21498
21527
21546
21537
21553
21575
21563
21589
21623
21607
21626
21674
21639
21652
21661
21688
21713
21681
21710
21763
21732
21758
21762
21762
21777
21799
21859
21810
21828
21865
21846
21868
21924
21868
21903
21895
21908
21924
22051
21943
21967
21988
21975
22000
22007
22076
22023
22053
22068
22175
22076
22092
22140
22096
22122
22147
22225
22150
22165
22191
22143
22206
22207
22215
22243
22226
22263
22258
22279
22289
22319
22314
22372
22338
22375
22361
22365
22489
22391
22401
22478
22418
22439
22447
22557
22458
22477
22503
22491
22518
22562
22532
22546
22612
22561
22581
22628
22595
22619
22639
22699
22647
22655
22687
22676
22705
22711
22743
22717
22755
22754
22805
22749
22775
22791
22805
22914
22825
22837
22889
22853
22879
22891
22969
22900
22916
22921
22996
22935
22960
22961
23047
22983
22990
23005
23047
23017
23047
23043
23114
23060
23083
23112
23087
23117
23127
23204
23149
23165
23218
23172
23173
23232
23193
23227
23257
23222
23247
23292
23256
23292
23302
23292
23322
23318
23415
23335
23359
23447
23381
23391
23388
23412
23409
23420
23439
23488
23445
23461
23522
23487
23493
23598
23529
23543
23524
23559
23571
23556
23588
23670
23605
23620
23618
23630
23687
23649
23663
23702
23679
23701
23795
23718
23735
23727
23758
23759
23766
23782
23812
23796
23799
23861
23819
23847
23858
23847
23882
23880
23959
23897
23912
23933
23918
23951
23961
23959
23980
24005
23978
24007
24015
24113
24034
24039
24134
24064
24083
24071
24103
24133
24117
24198
24138
24126
24150
24186
24165
24172
24233
24194
24212
24256
24219
24235
24339
24260
24277
24370
24285
24310
24354
24325
24324
24420
24343
24382
24350
24376
24419
24392
24404
24474
24415
24423
24499
24452
24463
24525
24487
24501
24496
24519
24538
24521
24539
24554
24482
24564
24572
24637
24599
24605
24648
24615
24641
24671
24647
24671
24688
24675
24682
24749
24711
24727
24722
24739
24788
24748
24764
24788
24775
24786
24855
24809
24822
24815
24829
24866
24845
24857
24909
24877
24886
24887
24913
24931
24918
24935
24975
24943
24954
24999
24972
24991
25004
25004
25023
25002
25035
25039
25095
25037
25061
25100
25077
25088
25124
25100
25115
25171
25127
25149
25204
25152
25167
25166
25189
25205
25183
25208
25196
25223
25247
25237
25241
25276
25255
25270
25325
25279
25308
25287
25314
25327
25319
25335
25339
25351
25377
25373
25382
25429
25388
25408
25388
25411
25455
25426
25457
25439
25447
25504
25471
25479
25478
25484
25495
25514
25538
25522
25541
25535
25546
25542
25559
25591
25575
25585
25615
25596
25617
25629
25617
25628
25662
25635
25662
25698
25666
25678
25703
25694
25697
25732
25703
25711
25750
25734
25749
25760
25752
25771
25776
25814
25786
25796
25824
25804
25823
25831
25830
25843
25858
25847
25855
25884
25908
25891
25902
25915
25912
25927
25955
25927
25938
25967
25951
25959
25983
25966
25985
26007
25991
26019
26020
26006
26023
26053
26034
26055
26068
26055
26077
26084
26108
26095
26102
26132
26106
26129
26143
26134
26154
26159
26175
26162
26162
26197
26185
26193
26205
26207
26215
26241
26231
26242
26273
26249
26271
26255
26272
26293
26284
26304
26319
26309
26318
26328
26332
26343
26353
26343
26362
26375
26374
26372
26388
26423
26405
26419
26442
26426
26439
26430
26449
26453
26462
26460
26487
26471
26486
26503
26503
26493
26503
26529
26522
26526
26550
26536
26550
26567
26548
26575
26581
26607
26594
26604
26618
26606
26617
26639
26628
26641
26660
26638
26671
26666
26692
26682
26694
26703
26703
26703
26713
26729
26724
26732
26743
26774
26754
26767
26778
26775
26774
26791
26795
26798
26813
26799
26817
26833
26830
26835
26847
26862
26854
26863
26871
26884
26885
26887
26882
26900
26916
26911
26918
26935
26934
26949
26948
26954
26964
26975
26970
26983
26997
27007
27012
26996
27002
27020
27027
27023
27036
27045
27013
27047
27067
27066
27071
27085
27087
27087
27098
27106
27102
27120
27135
27129
27139
27143
27143
27143
27159
27183
27177
27175
27188
27183
27201
27205
27207
27215
27226
27231
27222
27231
27247
27268
27252
27263
27268
27284
27271
27290
27295
27258
27305
27313
27319
27319
27335
27333
27347
27355
27341
27359
27363
27366
27374
27379
27396
27385
27399
27399
27404
27422
27410
27427
27439
27423
27434
27448
27470
27463
27463
27471
27466
27487
27488
27498
27487
27495
27521
27519
27514
27519
27529
27538
27550
27543
27555
27564
27570
27566
27564
27575
27575
27594
27575
27596
27611
27619
27614
27630
27635
27625
27636
27642
27629
27646
27655
27671
27655
27679
27679
27685
27693
27690
27697
27718
27719
27674
27719
27727
27735
27733
27743
27740
27743
27758
27767
27756
27767
27787
27768
27781
27796
27804
27800
27783
27805
27805
27820
27822
27829
27837
27836
27851
27855
27870
27855
27865
27868
27886
27831
27879
27893
27875
27895
27911
27908
27905
27927
27918
27914
27927
27947
27903
27949
27963
27949
27951
27971
27970
27967
27983
27991
28005
27994
28003
28010
28006
28013
28007
28026
28039
28016
28023
28038
28059
28038
28043
28050
28063
28061
28074
28071
28076
28103
28039
28097
28107
28068
28109
28106
28118
28112
28132
28120
28132
28145
28150
28143
28152
28158
28150
28083
28164
28177
28182
28167
28182
28188
28195
28183
28205
28207
28202
28214
28220
28210
28223
28219
28231
28224
28191
28238
28249
28231
28239
28245
28258
28236
28263
28259
28273
28273
28275
28271
28277
28285
28293
28275
28295
28291
28293
28304
28305
28301
28316
28329
28293
28329
28344
28311
28338
28343
28348
28342
28347
28363
28349
28351
28351
28359
28364
28377
28374
28333
28386
28395
28367
28388
28415
28375
28397
28415
28413
28406
28415
28415
28423
28438
28405
28394
28423
28433
28446
28458
28433
28409
28448
28448
28462
28461
28468
28455
28451
28469
28468
28470
28487
28487
28479
28486
28494
28507
28518
28507
28511
28513
28511
28505
28516
28524
28522
28524
28541
28543
28534
28519
28463
28535
28547
28548
28546
28565
28566
28559
28564
28545
28542
28514
28575
28580
28575
28578
28588
28583
28599
28593
28574
28596
28596
28602
28613
28603
28579
28606
28609
28619
28623
28607
28609
28591
28615
28630
28630
28635
28630
28637
28652
28649
28647
28644
28607
28646
28655
28655
28650
28655
28666
28668
28663
28668
28678
28674
28675
28678
28679
28689
28679
28679
28671
28679
28697
28698
28710
28709
28697
28711
28699
28701
28703
28707
28693
28699
28709
28709
28716
28730
28714
28690
28727
28719
28725
28725
28735
28727
28714
28727
28734
28749
28751
28740
28723
28743
28743
28757
28751
28753
28757
28766
28735
28707
28759
28765
28749
28761
28762
28773
28755
28737
28760
28771
28775
28773
28780
28778
28775
28749
28770
28775
28772
28785
28782
28779
28756
28735
28786
28802
28783
28783
28784
28788
28791
28791
28790
28780
28765
28783
28783
28784
28791
28803
28797
28803
28783
28778
28758
28796
28790
28797
28798
28788
28807
28804
28801
28796
28798
28787
28775
28735
28802
28815
28805
28807
28804
28789
28764
28797
28797
28806
28807
28802
28807
28812
28812
28774
28805
28806
28807
28802
28823
28816
28796
28771
28807
28804
28813
28815
28821
28807
28819
28807
28787
28807
28815
28812
28815
28813
28807
28783
28818
28810
28830
28820
28823
28813
28816
28831
28827
28819
28788
28817
28820
28813
28819
28796
28815
28820
28819
28823
28834
28797
28818
28819
28822
28835
28823
28824
28831
28843
28825
28841
28829
28818
28802
28830
28827
28831
28820
28830
28822
28834
28837
28831
28823
28815
28799
28817
28823
28835
28829
28832
28828
28837
28831
28819
28813
28779
28831
28828
28830
28831
28824
28830
28839
28841
28817
28807
28839
28830
28830
28831
28843
28839
28845
28839
28831
28831
28836
28837
28839
28839
28826
28793
28807
28816
28767
28828
28831
28849
28847
28831
28844
28835
28804
28834
28831
28845
28843
28835
28847
28839
28839
28787
28831
28839
28837
28855
28842
28822
28724
28831
28836
28839
28834
28840
28839
28828
28817
28837
28839
28838
28855
28835
28817
28829
28836
28836
28834
28839
28839
28823
28789
28837
28843
28841
28836
28838
28844
28831
28839
28847
28835
28834
28812
28775
28831
28841
28841
28827
28845
28839
28822
28834
28845
28838
28836
28812
28839
28835
28839
28854
28831
28839
28819
28783
28831
28830
28833
28828
28844
28842
28838
28816
28772
28831
28833
28836
28837
28839
28836
28807
28831
28826
28831
28839
28831
28826
28823
28819
28823
28831
28835
28823
28807
28833
28821
28828
28827
28823
28827
28831
28830
28804
28836
28822
28828
28835
28837
28815
28793
28829
28820
28823
28838
28821
28819
28777
28823
28823
28833
28823
28829
28819
28807
28820
28830
28815
28827
28829
28814
28829
28815
28811
28806
28743
28821
28818
28812
28823
28817
28812
28795
28766
28815
28812
28821
28823
28822
28820
28831
28826
28814
28782
28751
28814
28826
28804
28814
28809
28812
28817
28779
28805
28806
28807
28817
28799
28812
28821
28789
28797
28802
28813
28804
28796
28771
28801
28803
28801
28799
28803
28802
28807
28798
28812
28797
28791
28788
28774
28793
28794
28791
28790
28815
28807
28807
28807
28806
28791
28783
28763
28781
28791
28799
28811
28802
28804
28796
28779
28796
28789
28784
28785
28783
28773
28788
28783
28795
28777
28775
28786
28784
28782
28787
28780
28760
28783
28787
28789
28774
28793
28775
28759
28776
28778
28777
28776
28788
28775
28758
28775
28768
28775
28778
28779
28775
28779
28767
28752
28770
28772
28767
28761
28767
28783
28774
28765
28740
28761
28756
28757
28766
28757
28735
28751
28768
28759
28765
28737
28761
28754
28758
28764
28757
28730
28751
28749
28751
28756
28762
28749
28716
28734
28748
28756
28749
28671
28741
28732
28749
28737
28746
28745
28744
28748
28730
28722
28734
28729
28739
28732
28736
28716
28728
28725
28724
28731
28732
28706
28719
28711
28727
28716
28706
28711
28703
28706
28711
28711
28710
28679
28647
28706
28690
28679
28691
28693
28701
28698
28707
28695
28676
28693
28687
28670
28679
28676
28674
28699
28679
28679
28660
28668
28661
28666
28666
28678
28647
28661
28679
28668
28676
28671
28674
28654
28649
28638
28651
28651
28646
28650
28647
28647
28652
28646
28647
28645
28645
28641
28642
28652
28652
28647
28644
28634
28553
28623
28635
28629
28630
28634
28631
28631
28631
28612
28620
28619
28609
28611
28612
28612
28601
28604
28584
28599
28599
28596
28607
28594
28611
28604
28606
28586
28589
28602
28585
28591
28591
28589
28589
28591
28580
28567
28575
28573
28573
28583
28581
28586
28572
28566
28564
28547
28568
28556
28551
28557
28551
28555
28556
28559
28559
28555
28530
28551
28556
28535
28543
28538
28538
28535
28537
28535
28533
28533
28528
28525
28532
28516
28529
28529
28524
28521
28527
28515
28508
28490
28498
28485
28447
28503
28497
28490
28500
28500
28498
28494
28487
28499
28497
28498
28487
28462
28483
28481
28477
28476
28471
28486
28463
28442
28463
28455
28463
28462
28468
28454
28453
28434
28372
28439
28447
28446
28443
28448
28445
28431
28412
28435
28423
28418
28418
28423
28421
28423
28423
28402
28396
28379
28399
28387
28391
28391
28407
28405
28398
28383
28357
28384
28390
28390
28388
28387
28350
28375
28362
28373
28366
28367
28376
28358
28367
28348
28351
28362
28346
28328
28341
28341
28343
28344
28330
28348
28309
28327
28319
28332
28309
28319
28325
28311
28308
28303
28308
28262
28295
28308
28271
28283
28287
28263
28279
28281
28257
28273
28271
28207
28267
28267
28255
28263
28254
28256
28237
28238
28249
28246
28231
28233
28242
28217
28220
28229
28218
28208
28220
28215
28176
28207
28212
28197
28198
28206
28196
28191
28199
28173
28187
28191
28167
28167
28167
28189
28146
28166
28167
28146
28156
28172
28141
28148
28146
28143
28130
28142
28135
28135
28138
28057
28119
28134
28100
28129
28125
28107
28109
28108
28108
28101
28103
28101
28092
28095
28103
28069
28095
28079
28085
28086
28078
28077
28031
28071
28076
28053
28066
28073
28049
28060
28063
28039
28052
28050
28054
28045
28047
28039
28021
28037
28042
28004
28017
28031
28015
28018
28022
28012
28016
27994
28005
28007
28007
28005
28006
27988
28004
28007
27966
27990
28001
27932
27991
27985
27934
27977
27989
27942
27967
27975
27967
27959
27943
27956
27959
27933
27953
27956
27918
27943
27940
27943
27947
27940
27951
27935
27926
27890
27921
27918
27911
27935
27887
27911
27919
27899
27921
27903
27902
27883
27897
27892
27886
27893
27886
27910
27887
27879
27879
27873
27879
27879
27867
27879
27806
27867
27871
27856
27862
27831
27857
27850
27847
27848
27848
27837
27774
27844
27842
27839
27844
27843
27831
27815
27767
27823
27823
27829
27825
27830
27815
27797
27733
27812
27810
27807
27820
27805
27760
27794
27793
27789
27791
27792
27782
27727
27774
27776
27780
27790
27780
27775
27733
27767
27764
27763
27773
27761
27719
27752
27757
27749
27757
27764
27740
27725
27737
27734
27740
27754
27744
27734
27734
27741
27732
27719
27719
27702
27644
27716
27718
27719
27718
27716
27723
27726
27715
27700
27705
27700
27677
27685
27665
27649
27699
27687
27695
27687
27689
27683
27687
27690
27683
27686
27672
27671
27655
27661
27636
27591
27671
27655
27655
27655
27655
27639
27617
27645
27645
27647
27631
27638
27638
27638
27653
27647
27609
27594
27494
27623
27626
27622
27615
27628
27623
27589
27612
27611
27615
27608
27612
27610
27607
27589
27602
27592
27596
27607
27541
27583
27595
27577
27590
27600
27594
27581
27527
27581
27581
27591
27588
27564
27539
27573
27559
27571
27564
27572
27558
27542
27502
27555
27560
27559
27555
27527
27483
27540
27546
27553
27511
27537
27546
27535
27527
27482
27527
27531
27526
27529
27471
27515
27524
27512
27524
27514
27476
27518
27505
27505
27514
27503
27470
27495
27500
27506
27494
27446
27491
27495
27499
27488
27462
27484
27471
27475
27480
27475
27488
27467
27410
27476
27471
27465
27480
27468
27423
27463
27462
27463
27460
27452
27413
27454
27450
27454
27463
27447
27407
27436
27443
27439
27441
27439
27355
27442
27438
27429
27402
27420
27435
27443
27394
27420
27426
27425
27420
27388
27414
27421
27367
27408
27420
27396
27361
27415
27394
27407
27399
27371
27397
27391
27399
27383
27383
27382
27393
27381
27358
27385
27380
27370
27378
27367
27322
27364
27367
27380
27343
27374
27366
27367
27376
27358
27349
27333
27348
27355
27346
27351
27348
27333
27343
27335
27335
27329
27338
27319
27263
27316
27321
27322
27333
27325
27312
27293
27303
27311
27314
27309
27308
27271
27293
27301
27288
27307
27286
27252
27284
27293
27276
27295
27276
27221
27286
27268
27286
27281
27212
27263
27279
27271
27277
27263
27252
27257
27261
27261
27253
27265
27249
27221
27247
27233
27236
27247
27268
27239
27229
27245
27230
27229
27231
27238
27239
27220
27207
27150
27222
27223
27215
27218
27226
27223
27221
27153
27207
27213
27207
27199
27187
27127
27197
27191
27191
27205
27187
27159
27188
27185
27179
27186
27179
27172
27177
27181
27181
27190
27174
27135
27174
27167
27179
27166
27143
27097
27158
27143
27153
27161
27151
27103
27138
27143
27141
27154
27143
27143
27127
27100
27130
27122
27118
27134
27125
27129
27140
27127
27095
27061
27109
27116
27111
27115
27117
27094
27102
27116
27120
27117
27106
27111
27051
27100
27102
27095
27092
27068
27089
27094
27081
27089
27089
27077
27079
27044
27068
27079
27068
27074
27079
27064
27055
27060
27052
27061
27063
27071
27060
27044
27023
27043
27047
27049
27052
27045
27021
27044
27033
27031
27042
27031
27028
27039
27029
27015
26971
27020
27015
27015
27023
27008
26983
27015
27012
26999
27012
27001
26997
26982
26997
26995
26988
26988
26979
26987
26987
26991
26986
26982
26967
26964
26975
26975
26968
26972
26962
26931
26950
26951
26956
26950
26957
26949
26947
26924
26941
26946
26939
26946
26945
26932
26938
26930
26909
26919
26919
26927
26924
26924
26906
26908
26910
26914
26917
26916
26908
26906
26886
26871
26895
26881
26893
26895
26892
26887
26887
26839
26879
26877
26871
26882
26863
26861
26863
26871
26870
26862
26844
26815
26855
26853
26852
26854
26847
26841
26827
26828
26823
26837
26839
26829
26834
26826
26804
26808
26821
26822
26812
26784
26812
26807
26815
26804
26805
26803
26783
26795
26794
26798
26794
26780
26777
26781
26781
26799
26788
26764
26767
26772
26775
26775
26770
26721
26769
26766
26782
26759
26730
26755
26751
26743
26763
26751
26756
26732
26745
26732
26745
26734
26750
26747
26719
26733
26727
26726
26735
26743
26727
26709
26700
26716
26711
26719
26721
26719
26719
26703
26705
26703
26701
26705
26695
26703
26716
26700
26677
26687
26692
26695
26703
26694
26677
26692
26679
26690
26686
26682
26653
26679
26689
26684
26671
26673
26660
26670
26667
26671
26663
26670
26663
26650
26658
26644
26653
26665
26652
26665
26649
26645
26650
26655
26657
26655
26655
26647
26630
26631
26631
26631
26631
26631
26631
26642
26631
26623
26620
26627
26639
26631
26631
26631
26625
26617
26614
26556
26618
26617
26615
26619
26630
26629
26619
26606
26609
26567
26604
26598
26607
26612
26606
26611
26602
26607
26599
26591
26597
26599
26599
26595
26604
26602
26598
26594
26591
26591
26590
26589
26595
26594
26588
26591
26582
26593
26599
26594
26589
26585
26575
26574
26575
26582
26587
26590
26584
26574
26575
26575
26589
26581
26571
26568
26567
26558
26565
26570
26573
26571
26565
26585
26576
26567
26566
26471
26570
26566
26559
26557
26564
26563
26564
26559
26568
26569
26569
26570
26557
26564
26549
26548
26545
26564
26563
26556
26566
26572
26551
26511
26545
26543
26553
26546
26551
26559
26552
26542
26550
26551
26561
26559
26567
26556
26543
26551
26546
26555
26539
26542
26549
26558
26555
26556
26554
26554
26548
26542
26547
26543
26542
26535
26541
26542
26549
26543
26535
26554
26559
26559
26555
26543
26551
26556
26558
26542
26554
26548
26547
26547
26540
26551
26540
26551
26547
26558
26561
26557
26552
26551
26544
26540
26511
26487
26552
26541
26556
26543
26541
26549
26554
26554
26551
26564
26545
26565
26527
26558
26555
26567
26556
26555
26557
26553
26551
26558
26567
26564
26547
26547
26555
26564
26559
26559
26564
26566
26565
26569
26562
26559
26556
26546
26556
26564
26564
26580
26563
26566
26566
26548
26559
26559
26565
26567
26576
26565
26572
26575
26575
26564
26564
26545
26567
26567
26567
26565
26578
26568
26583
26579
26580
26575
26582
26574
26580
26575
26583
26586
26580
26588
26587
26580
26583
26575
26583
26591
26598
26597
26577
26580
26581
26586
26589
26607
26589
26585
26588
26593
26597
26606
26599
26594
26593
26598
26599
26607
26607
26612
26612
26599
26588
26582
26601
26599
26619
26623
26604
26479
26607
26621
26611
26615
26639
26619
26626
26619
26623
26585
26619
26622
26631
26630
26639
26622
26631
26637
26631
26641
26643
26647
26631
26628
26642
26631
26658
26643
26644
26649
26663
26652
26644
26650
26661
26650
26647
26666
26652
26661
26639
26661
26663
26663
26663
26655
26663
26666
26673
26667
26669
26656
26623
26663
26671
26667
26668
26680
26673
26679
26671
26650
26659
26671
26679
26695
26686
26673
26680
26665
26678
26689
26691
26695
26688
26687
26692
26690
26701
26695
26688
26694
26695
26700
26703
26710
26695
26697
26703
26716
26719
26707
26707
26706
26715
26713
26727
26717
26721
26695
26714
26716
26726
26733
26731
26719
26710
26731
26732
26726
26734
26743
26745
26735
26721
26735
26733
26747
26737
26750
26754
26751
26754
26742
26738
26750
26758
26753
26760
26754
26758
26750
26762
26759
26770
26765
26782
26775
26781
26760
26773
26779
26781
26783
26799
26787
26772
26791
26791
26795
26810
26799
26798
26772
26791
26805
26799
26806
26813
26817
26809
26801
26809
26799
26807
26821
26823
26819
26807
26826
26828
26839
26831
26827
26829
26835
26841
26847
26843
26831
26843
26839
26849
26855
26855
26841
26845
26854
26867
26863
26858
26865
26863
26861
26862
26876
26863
26863
26876
26879
26884
26876
26868
26879
26887
26895
26889
26895
26890
26908
26887
26900
26916
26892
26895
26899
26901
26916
26910
26921
26919
26895
26911
26918
26916
26919
26919
26918
26925
26922
26943
26933
26810
26925
26933
26943
26935
26937
26943
26938
26964
26947
26933
26950
26950
26948
26957
26970
26961
26965
26929
26959
26972
26970
26970
26981
26962
26983
26973
26979
26986
26981
26974
26979
26983
26982
26988
26993
26970
26988
26993
26993
27003
26990
26996
26998
26999
27012
26995
26993
27009
27009
27015
27015
27007
27015
27027
27023
27023
27023
27009
27029
27029
27023
27031
27039
27029
27033
27039
27031
27043
27042
27047
27038
27045
27055
27055
27059
27038
27054
27061
27061
27071
27045
27067
27059
27071
27076
27043
27073
27071
27079
27076
27062
27079
27086
27092
27100
27093
27084
27095
27093
27093
27092
27089
27098
27111
27107
27104
27103
27123
27111
27119
27109
27119
27121
27093
27117
27132
27131
27108
27119
27133
27141
27143
27127
27143
27135
27151
27143
27125
27143
27143
27165
27153
27151
27158
27164
27161
27169
27161
27188
27175
27177
27175
27183
27179
27188
27190
27199
27203
27193
27159
27189
27194
27198
27195
27220
27208
27193
27205
27208
27205
27212
27225
27237
27231
27242
27230
27190
27234
27241
27229
27237
27232
27247
27263
27266
27263
27243
27269
27267
27263
27268
27279
27285
27279
27278
27269
27216
27287
27287
27294
27295
27315
27292
27275
27310
27307
27317
27327
27313
27302
27278
27319
27337
27334
27341
27311
27342
27348
27347
27349
27343
27332
27357
27360
27365
27367
27375
27335
27375
27373
27388
27383
27364
27394
27398
27407
27395
27331
27406
27412
27430
27405
27415
27396
27413
27427
27423
27439
27430
27413
27438
27440
27451
27452
27460
27463
27463
27421
27462
27470
27485
27462
27454
27487
27484
27493
27495
27470
27494
27498
27498
27503
27509
27492
27508
27514
27522
27533
27525
27498
27523
27535
27537
27548
27557
27525
27556
27556
27563
27575
27529
27571
27575
27575
27591
27584
27578
27597
27591
27598
27600
27622
27607
27575
27607
27619
27633
27636
27630
27639
27599
27643
27653
27638
27660
27578
27655
27644
27668
27683
27639
27681
27679
27676
27679
27707
27648
27698
27681
27702
27718
27687
27715
27743
27702
27739
27740
27731
27742
27746
27751
27717
27756
27761
27753
27767
27783
27739
27780
27785
27735
27782
27801
27686
27799
27823
27734
27816
27826
27804
27820
27843
27835
27834
27838
27846
27847
27844
27841
27868
27825
27871
27887
27830
27883
27895
27847
27885
27911
27858
27899
27919
27855
27921
27926
27906
27923
27922
27937
27948
27947
27868
27962
27967
27854
27970
27962
27972
27979
27988
27986
27999
27989
28006
28007
27987
28029
28034
27951
28034
28039
27988
28038
28056
27967
28046
28063
28053
28071
28063
28069
28086
28056
28089
28103
27999
28103
28090
28111
28115
28107
28127
28137
28069
28131
28150
28091
28143
28146
28150
28164
28164
28158
28167
28175
28120
28186
28167
28190
28178
28199
28214
28163
28220
28223
28228
28233
28214
28237
28248
28247
28263
28256
28156
28263
28276
28273
28279
28270
28293
28303
28269
28308
28307
28273
28306
28325
28278
28321
28341
28215
28351
28347
28287
28236
28355
28359
28371
28372
28340
28388
28387
28397
28413
28401
28367
28319
28415
28420
28423
28333
28423
28435
28438
28460
28452
28414
28471
28471
28484
28483
28476
28496
28487
28473
28430
28511
28518
28511
28514
28538
28521
28524
28437
28551
28549
28553
28575
28575
28558
28557
28495
28587
28588
28583
28600
28590
28543
28599
28613
28615
28625
28640
28641
28622
28574
28647
28639
28647
28661
28663
28654
28622
28671
28679
28687
28679
28694
28629
28692
28711
28704
28718
28679
28591
28714
28726
28735
28755
28743
28701
28658
28759
28759
28760
28762
28773
28803
28727
28799
28788
28799
28809
28817
28807
28749
28721
28818
28837
28827
28831
28849
28834
28815
28773
28846
28871
28870
28865
28892
28895
28875
28848
28788
28902
28915
28913
28915
28926
28905
28865
28807
28935
28933
28946
28943
28971
28940
28929
28901
28839
28998
28975
28981
29003
28997
28996
28972
28934
29022
29019
29012
29042
28999
28915
29035
29044
29071
29044
28963
29063
29062
29078
29070
29098
29074
29045
28991
29097
29113
29111
29114
29111
29143
29123
29090
29030
29147
29157
29146
29159
29151
29125
29018
29171
29187
29150
29178
29191
29198
29176
29084
29215
29200
29215
29159
29223
29225
29239
29215
29239
29255
29259
29162
29257
29254
29273
29199
29271
29284
29300
29287
29215
29303
29303
29317
29319
29311
29210
29333
29342
29347
29348
29325
29258
29355
29364
29364
29367
29383
29380
29345
29301
29394
29387
29398
29404
29412
29340
29415
29418
29399
29445
29423
29409
29318
29447
29437
29443
29447
29399
29334
29463
29471
29482
29468
29386
29483
29493
29492
29510
29461
29345
29503
29508
29531
29518
29455
29413
29535
29532
29538
29563
29543
29485
29553
29567
29565
29565
29568
29500
29573
29582
29591
29607
29572
29521
29604
29599
29626
29612
29579
29498
29623
29631
29631
29637
29631
29583
29479
29642
29646
29669
29652
29570
29503
29670
29662
29677
29671
29617
29511
29685
29685
29684
29621
29698
29702
29719
29687
29569
29716
29703
29730
29691
29596
29734
29739
29740
29748
29687
29607
29759
29759
29766
29766
29724
29673
29771
29785
29779
29802
29790
29719
29802
29798
29799
29830
29775
29807
29827
29804
29816
29656
29831
29824
29844
29795
29687
29845
29847
29870
29863
29831
29868
29863
29874
29898
29863
29791
29735
29882
29892
29918
29851
29735
29903
29906
29903
29933
29902
29807
29937
29943
29902
29791
29941
29943
29941
29959
29935
29844
29959
29967
29958
29991
29940
29823
29980
29983
29986
30012
29959
29892
30007
30015
30004
30028
29998
29903
30023
30034
30034
30041
30067
30015
29861
30060
30053
30053
30087
30067
30042
29994
29898
30083
30086
30084
30101
30038
29917
30094
30115
30100
30138
30110
30047
29943
30121
30130
30127
30156
30143
30092
30011
30150
30159
30151
30168
30126
30060
29993
30182
30182
30175
30183
30202
30161
30103
30194
30206
30215
30213
30207
30231
30215
30193
30151
30048
30237
30250
30250
30247
30261
30223
30193
30169
30121
30277
30279
30278
30273
30263
30311
30308
30294
30295
30287
30265
30196
30119
30329
30325
30327
30332
30333
30303
30215
30199
30348
30351
30359
30365
30367
30351
30370
30389
30373
30348
30332
30257
30214
30398
30398
30421
30302
30415
30400
30442
30415
30367
30279
30439
30438
30428
30443
30332
30445
30460
30466
30455
30442
30350
30471
30471
30461
30471
30411
30499
30503
30511
30518
30343
30513
30516
30391
30522
30540
30369
30532
30535
30427
30549
30564
30441
30554
30573
30375
30567
30557
30399
30579
30590
30408
30591
30592
30402
30599
30608
30495
30614
30631
30534
30614
30617
30607
30636
30649
30647
30503
30645
30629
30627
30661
30660
30682
30604
30671
30675
30675
30548
30692
30679
30655
30695
30692
30694
30582
30711
30703
30685
30719
30723
30747
30703
30727
30727
30761
30695
30759
30747
30743
30566
30769
30789
30726
30771
30783
30800
30764
30636
30799
30791
30792
30695
30812
30814
30842
30777
30611
30843
30848
30769
30841
30837
30799
30860
30837
30823
30866
30868
30814
30887
30871
30871
30799
30893
30895
30839
30911
30887
30924
30805
30919
30919
30905
30916
30917
30949
30867
30929
30941
30956
30917
30953
30964
30967
30855
30969
30958
30949
30751
30988
30999
30930
30983
30997
31020
30919
31011
30993
31018
30887
31031
31007
31028
31041
31037
31047
30934
31047
31070
30964
31070
31060
31064
30910
31093
31071
31065
30950
31087
31109
30962
31109
31095
31087
31107
31109
31124
31095
31127
31103
31130
31111
31135
31150
31148
31141
31159
31137
31162
31158
31161
31157
31194
31068
31179
31173
31189
31055
31196
31228
31143
31214
31198
31226
31111
31219
31223
31257
31228
31100
31239
31236
31231
31108
31261
31271
31197
31267
31291
31175
31278
31291
31279
31280
31291
31298
31303
31310
31151
31318
31327
31154
31335
31348
31239
31335
31355
31191
31343
31339
31151
31360
31367
31231
31366
31383
31196
31374
31388
31231
31399
31407
31303
31411
31420
31285
31418
31396
31423
31407
31420
31229
31436
31442
31439
31429
31434
31444
31450
31470
31393
31461
31477
31375
31470
31492
31367
31483
31506
31348
31493
31509
31386
31505
31503
31312
31508
31511
31511
31508
31508
31367
31527
31510
31503
31527
31527
31522
31542
31527
31538
31541
31556
31565
31412
31573
31580
31444
31575
31559
31591
31572
31555
31590
31605
31615
31591
31495
31620
31612
31588
31623
31598
31434
31636
31646
31484
31647
31663
31610
31451
31656
31682
31650
31467
31663
31675
31478
31695
31468
31692
31510
31695
31695
31565
31695
31711
31668
31710
31708
31695
31716
31701
31727
31615
31735
31751
31703
31554
31760
31723
31741
31587
31751
31724
31763
31751
31696
31776
31807
31749
31780
31779
31807
31716
31799
31783
31804
31693
31813
31821
31707
31811
31830
31804
31633
31826
31842
31723
31846
31863
31817
31845
31852
31867
31783
31854
31863
31877
31803
31871
31891
31796
31887
31900
31815
31903
31911
31877
31703
31914
31905
31879
31908
31919
31916
31924
31924
31935
31831
31940
31922
31878
31939
31955
31879
31950
31942
31955
31774
31966
31989
31843
31975
31991
31963
31829
31986
32007
31911
31985
32006
31962
32007
32007
31996
32005
32015
32029
31931
32018
32023
31991
32015
32015
32053
31925
32036
32035
32037
31899
32060
32039
32043
31879
32060
32071
32055
31887
32071
32066
32091
31987
32079
32071
32094
32007
31893
32101
32084
32098
31967
32095
32119
32095
32104
32018
32119
32103
32097
32111
32127
32142
32082
31949
32133
32164
32061
32136
32135
32164
32062
32159
32135
32167
31999
32165
32177
32116
32151
32167
32153
32141
32171
32177
32191
32099
32174
32175
32132
32184
32187
32204
32118
32189
32183
32133
32204
32218
32134
32202
32199
32149
32217
32207
32175
32213
32214
32207
32229
32221
32212
32245
32224
32231
32079
32234
32237
32210
32244
32252
32263
32157
32245
32244
32252
32081
32274
32276
32222
32263
32258
32277
32140
32295
32296
32180
32303
32263
32260
32095
32295
32303
32250
32299
32307
32324
32279
32311
32308
32287
32311
32302
32283
32325
32335
32279
32332
32361
32238
32343
32358
32263
32342
32327
32298
32166
32359
32359
32367
32348
32351
32383
32382
32372
32340
32323
32295
32165
32383
32383
32385
32364
32404
32391
32335
32278
32191
32407
32401
32407
32397
32389
32419
32434
32427
32375
32355
32293
32239
32431
32431
32437
32421
32455
32445
32391
32252
32455
32456
32425
32459
32476
32407
32255
32467
32460
32484
32438
32343
32481
32484
32455
32503
32475
32451
32383
32283
32487
32478
32492
32346
32509
32534
32507
32476
32451
32372
32517
32519
32519
32527
32518
32529
32549
32503
32481
32484
32423
32315
32540
32545
32551
32550
32542
32568
32570
32551
32519
32511
32375
32570
32574
32571
32556
32602
32588
32543
32465
32589
32597
32604
32575
32622
32623
32612
32612
32615
32603
32589
32579
32537
32487
32429
32415
32478
32463
32459
32618
32646
32647
32634
32635
32662
32658
32645
32567
32467
32663
32663
32671
32655
32692
32689
32663
32631
32599
32468
32679
32684
32695
32663
32724
32711
32692
32694
32668
32566
32504
32703
32719
32700
32735
32679
32547
32733
32732
32743
32700
32742
32743
32719
32743
32640
32743
32753
32734
32764
32709
32612
32757
32774
32750
32771
32719
32567
32775
32775
32775
32571
32801
32786
32807
32756
32647
32801
32815
32799
32826
32818
32794
32683
32817
32838
32815
32858
32775
32839
32847
32814
32831
32859
32841
32767
32861
32859
32853
32847
32893
32867
32823
32715
32876
32873
32874
32870
32860
32903
32891
32890
32818
32698
32899
32909
32889
32887
32921
32871
32737
32921
32919
32913
32926
32955
32915
32866
32775
32940
32948
32935
32953
32964
32915
32821
32951
32967
32967
32940
32950
32866
32974
32974
32951
32999
32987
32987
32950
32871
32820
32999
32999
32983
32991
33027
33013
32963
32895
33027
33015
33012
33031
32997
32873
33031
33038
33031
33023
33071
33063
33031
32984
32918
32891
32843
33060
33071
33055
33084
33062
33023
33071
33079
33074
33069
33102
33095
33095
33091
33063
32964
33108
33101
33075
33127
33063
32910
33132
33103
33117
33101
33143
33129
33087
32951
33143
33127
33159
33122
32951
33159
33139
33169
33124
33016
33159
33166
33159
33187
33191
33142
32999
33183
33197
33174
33197
33196
33159
33066
33199
33209
33194
33191
33217
33127
32999
33213
33220
33211
33233
33199
33122
33228
33239
33220
33262
33230
33195
33089
33251
33260
33255
33238
33287
33253
33195
33108
33273
33284
33266
33311
33286
33229
33137
33301
33287
33303
33279
33323
33319
33275
33190
33311
33327
33323
33303
33334
33283
33189
33332
33335
33319
33351
33287
33351
33350
33348
33367
33335
33149
33379
33366
33349
33385
33343
33170
33362
33389
33370
33399
33287
33395
33396
33406
33398
33427
33396
33211
33410
33387
33414
33318
33423
33414
33443
33382
33217
33428
33407
33443
33382
33319
33431
33467
33359
33441
33414
33465
33378
33447
33439
33351
33453
33460
33439
33491
33463
33397
33264
33485
33479
33502
33461
33317
33491
33479
33515
33487
33343
33493
33483
33531
33479
33303
33515
33511
33484
33538
33519
33450
33518
33527
33527
33524
33385
33540
33527
33556
33532
33397
33543
33536
33571
33522
33335
33565
33539
33569
33500
33572
33578
33564
33598
33557
33482
33586
33586
33593
33607
33588
33542
33468
33596
33598
33607
33606
33556
33607
33615
33584
33620
33543
33615
33635
33645
33630
33606
33439
33637
33637
33630
33642
33601
33471
33639
33644
33655
33630
33679
33642
33575
33662
33671
33665
33653
33684
33668
33606
33671
33679
33682
33661
33687
33648
33524
33700
33695
33703
33683
33716
33692
33615
33710
33717
33711
33722
33700
33726
33747
33724
33633
33727
33742
33718
33753
33714
33575
33737
33757
33733
33767
33743
33718
33658
33559
33763
33772
33747
33733
33765
33786
33767
33717
33628
33775
33758
33792
33710
33783
33793
33764
33784
33723
33789
33799
33791
33799
33799
33789
33799
33733
33799
33823
33796
33837
33819
33763
33814
33833
33797
33847
33791
33647
33836
33828
33847
33827
33701
33837
33845
33862
33765
33846
33871
33812
33858
33828
33815
33857
33842
33859
33668
33868
33877
33735
33868
33891
33759
33881
33893
33751
33891
33894
33799
33879
33893
33703
33882
33887
33692
33887
33884
33663
33903
33895
33892
33871
33883
33909
33913
33767
33911
33924
33687
33900
33908
33916
33900
33911
33781
33927
33942
33850
33923
33927
33894
33927
33911
33932
33782
33913
33863
33924
33892
33937
33927
33959
33863
33943
33919
33916
33941
33939
33939
33943
33927
33927
33966
33975
33743
33951
33963
33759
33967
33960
33786
33967
33979
33767
33959
33970
33974
33999
33833
33983
33986
33852
33991
33991
33959
33993
33967
33983
33997
33977
33991
33997
33983
33991
34012
33990
34003
33795
34002
34015
33903
34011
33984
34026
33953
34019
34031
34032
33944
34033
34010
34043
33951
34045
34035
34063
33927
34047
34063
33927
34038
34026
34047
33842
34063
34068
34055
34069
33903
34039
33906
34083
34087
33990
34084
34053
34077
33910
34076
34099
34039
34086
34067
34076
33895
34087
34113
33967
34105
34111
33975
34115
34102
34119
33911
34095
34124
33975
34109
34117
34099
33914
34116
34095
34127
33959
34129
34154
34055
34127
34127
34147
33963
34151
34132
34051
34151
34166
34047
34156
34179
34055
34167
34134
34161
33983
34175
34183
34092
34174
34159
34143
34183
34172
34164
34173
34177
34183
34007
34199
34178
34175
34183
34195
34195
34203
34197
34212
34101
34215
34209
34193
34222
34221
34223
34015
34215
34218
34233
34231
34239
34095
34234
34243
34172
34243
34230
34231
34247
34244
34275
34036
34246
34255
34263
34255
34275
34121
34274
34293
34112
34284
34295
34117
34287
34311
34178
34297
34311
34276
34303
34295
34286
34311
34310
34327
34191
34311
34341
34215
34335
34347
34257
34340
34344
34197
34343
34357
34301
34337
34339
34352
34279
34356
34341
34363
34205
34359
34379
34332
34367
34351
34375
34237
34375
34398
34327
34391
34375
34396
34327
34183
34410
34400
34388
34428
34383
34335
34221
34422
34423
34412
34434
34413
34412
34452
34452
34437
34431
34371
34310
34431
34448
34439
34469
34460
34420
34302
34468
34470
34466
34446
34494
34463
34403
34255
34477
34485
34471
34469
34464
34529
34493
34461
34439
34413
34358
34409
34412
34324
34511
34516
34518
34543
34522
34519
34534
34535
34519
34537
34351
34542
34542
34534
34527
34567
34558
34517
34450
34399
34383
34567
34568
34577
34575
34575
34554
34609
34609
34591
34553
34526
34524
34484
34403
34615
34615
34612
34618
34608
34607
34619
34622
34600
34645
34643
34615
34548
34484
34655
34652
34643
34631
34677
34679
34628
34599
34526
34653
34679
34682
34642
34699
34687
34641
34583
34546
34478
34695
34703
34707
34719
34711
34717
34707
34678
34732
34729
34750
34743
34735
34663
34614
34510
34743
34743
34726
34719
34730
34781
34767
34761
34778
34767
34740
34756
34743
34655
34775
34773
34774
34766
34799
34759
34614
34791
34805
34796
34818
34814
34765
34695
34595
34823
34823
34796
34855
34823
34799
34732
34612
34838
34856
34846
34845
34861
34855
34849
34859
34876
34863
34847
34791
34684
34863
34878
34885
34870
34907
34903
34900
34871
34820
34701
34903
34888
34932
34911
34791
34707
34918
34924
34927
34895
34956
34932
34870
34759
34958
34947
34941
34951
34804
34959
34948
34982
34959
34886
34823
34967
34975
34971
34990
34983
34863
34999
34959
34986
34918
34813
34808
34759
35009
35004
35013
34973
35027
35020
34958
35018
35027
34999
35037
35026
34892
35035
35026
35047
35014
34855
35039
35052
35026
35031
35055
35039
35045
35067
35079
35055
35077
35069
35047
35010
34971
35100
35098
35094
35091
35075
35109
35079
35007
35103
35135
35021
35111
35120
35119
35116
35115
35109
35129
35147
35103
34999
35143
35148
35111
35167
35098
34895
35155
35141
35180
35135
34962
35167
35180
35132
35191
35095
35172
35181
35163
35213
35173
34959
35191
35180
35207
35187
35036
35183
35105
35207
35223
35216
35188
35197
35223
35196
35243
35236
35187
34983
35237
35222
35267
35239
35143
35259
35222
35271
35223
35020
35271
35268
35259
35285
35279
35189
35276
35279
35231
35302
35278
35150
35295
35299
35254
35311
35263
35295
35307
35303
35285
35324
35269
35142
35325
35302
35335
35348
35303
35185
35334
35335
35303
35356
35255
35335
35330
35358
35308
35350
35351
35321
35370
35356
35334
35188
35365
35335
35397
35383
35316
35132
35381
35351
35413
35335
35391
35390
35341
35405
35372
35396
35407
35364
35405
35291
35415
35399
35298
35419
35423
35394
35439
35315
35418
35455
35174
35397
35443
35420
35328
35431
35446
35402
35471
35422
35254
35455
35469
35412
35271
35471
35439
35468
35271
35454
35463
35454
35471
35231
35477
35431
35496
35469
35335
35500
35482
35447
35497
35463
35309
35494
35447
35519
35495
35303
35495
35479
35484
35524
35519
35467
35335
35511
35515
35524
35519
35509
35513
35478
35542
35541
35495
35335
35522
35525
35510
35505
35551
35545
35531
35447
35276
35530
35519
35558
35518
35476
35375
35555
35544
35511
35580
35557
35551
35463
35295
35559
35567
35550
35507
35573
35575
35564
35522
35458
35329
35573
35580
35532
35599
35582
35500
35335
35581
35588
35554
35557
35605
35519
35587
35545
35582
35327
35598
35591
35559
35613
35567
35405
35607
35609
35603
35566
35622
35604
35506
35623
35564
35605
35372
35623
35567
35613
35542
35620
35631
35591
35649
35623
35394
35639
35635
35567
35646
35643
35630
35533
35443
35639
35655
35647
35601
35655
35637
35524
35647
35657
35653
35639
35663
35671
35662
35619
35591
35543
35566
35463
35663
35669
35669
35683
35677
35663
35630
35687
35682
35644
35488
35680
35686
35693
35703
35675
35661
35678
35685
35701
35681
35691
35687
35694
35711
35716
35711
35696
35692
35665
35658
35660
35702
35705
35702
35670
35691
35671
35679
35669
35719
35742
35740
35719
35686
35670
35591
35479
35741
35733
35730
35703
35751
35719
35743
35700
35759
35760
35714
35590
35751
35759
35743
35707
35780
35775
35768
35727
35604
35492
35774
35763
35767
35719
35789
35790
35783
35748
35637
35778
35783
35794
35765
35749
35802
35806
35791
35772
35753
35804
35797
35778
35781
35797
35690
35805
35805
35755
35823
35822
35793
35759
35581
35829
35823
35815
35815
35839
35799
35631
35551
35829
35839
35831
35789
35791
35855
35863
35844
35837
35783
35735
35547
35847
35847
35835
35807
35870
35842
35719
35559
35847
35863
35865
35879
35860
35808
35887
35881
35876
35828
35741
35708
35596
35869
35884
35879
35841
35868
35906
35901
35894
35836
35709
35895
35895
35887
35836
35918
35908
35841
35623
35907
35909
35903
35843
35868
35928
35924
35895
35756
35919
35923
35910
35878
35939
35861
35655
35935
35941
35877
35955
35937
35890
35771
35653
35940
35948
35936
35911
35961
35959
35884
35693
35942
35962
35943
35895
35957
35982
35942
35835
35679
35963
35967
35919
35989
35983
35847
35981
35975
35916
35949
35982
35927
35986
35924
35892
35839
35690
35988
35995
35988
36010
35975
35942
36035
36015
36001
35914
36012
36013
36013
35963
36031
36004
35860
36021
36020
35970
36045
36018
35766
36027
36027
35972
36053
36039
35961
35730
36020
36039
35971
36050
36048
36011
35865
36039
36045
36045
35997
36079
36062
36052
35975
35947
36067
36073
36063
36063
36054
36084
36075
35955
36083
36071
36010
36093
36085
36057
35838
36086
36074
36054
36098
36077
35868
36090
36028
36103
36113
36072
36039
35963
35803
36102
36103
36092
36039
36079
36132
36123
36101
35975
36117
36119
36127
36080
36078
36140
36101
36012
36103
36135
36066
36148
36124
35975
36135
36133
36117
36071
36158
36124
35963
36137
36079
36169
36132
35913
36143
36139
36086
36166
36156
36071
35867
36156
36143
36094
36159
36167
36149
36095
35876
36170
36180
36173
36095
36191
36171
36026
36172
36175
36142
36194
36160
35940
36183
36187
36197
36181
36125
36190
36207
36191
36164
36054
35879
36207
36198
36199
36134
36212
36223
36204
36191
36079
35963
36203
36220
36214
36191
36143
36244
36221
36201
36141
35908
36218
36212
36220
36223
36172
36183
36239
36220
36180
36001
36217
36227
36215
36163
36222
36236
36237
36167
36118
36099
36074
35987
35952
35947
36234
36166
36246
36236
36242
36247
36179
36183
36199
36260
36229
36012
36251
36239
36231
36183
36270
36263
36228
36007
36252
36252
36248
36191
36263
36269
36231
36031
36263
36255
36199
36287
36266
36060
36254
36252
36287
36242
36131
36260
36218
36271
36237
36277
36276
36215
36295
36255
35964
36267
36253
36291
36231
36290
36231
36311
36258
36071
36290
36263
36287
36226
36277
36295
36263
36244
36247
36308
36289
36262
36136
36296
36296
36295
36295
36310
36270
36023
36292
36247
36314
36239
36295
36315
36308
36240
36335
36297
36068
36317
36308
36255
36324
36228
36007
36302
36317
36282
36325
36331
36269
36007
36319
36308
36293
36327
36271
36059
36327
36322
36263
36311
36335
36327
36281
36034
36319
36333
36263
36354
36342
36316
36239
36087
36330
36323
36332
36276
36346
36324
36284
36084
36333
36341
36327
36323
36297
36356
36333
36254
36343
36349
36279
36359
36308
36132
36346
36308
36320
36375
36340
36191
36029
36348
36349
36316
36295
36359
36358
36274
36103
36343
36354
36313
36340
36351
36335
36276
36354
36335
36297
36340
36349
36311
36356
36325
36212
36356
36334
36318
36372
36325
36063
36340
36292
36359
36279
36349
36358
36326
36359
36135
36355
36341
36351
36093
36348
36295
36369
36335
36131
36349
36350
36311
36375
36351
36155
36358
36359
36357
36359
36359
36357
36351
36359
36285
36359
36348
36167
36351
36324
36350
36350
36196
36354
36295
36359
36319
36339
36347
36341
36286
36359
36356
36319
36204
36343
36335
36351
36335
36279
36359
36311
36045
36352
36294
36359
36354
36327
36135
36343
36340
36311
36314
36359
36333
36273
36343
36343
36345
36287
36349
36323
36070
36338
36283
36348
36331
36223
36343
36332
36327
36341
36283
36047
36333
36281
36335
36191
36333
36335
36278
36348
36295
36103
36333
36335
36311
36310
36345
36287
36047
36339
36339
36313
36359
36325
36215
36341
36297
36359
36319
36039
36343
36276
36346
36308
36159
36332
36322
36351
36337
36236
36036
36335
36290
36359
36242
36342
36285
36351
36315
36167
36335
36315
36340
36326
36183
36332
36332
36322
36295
36355
36309
36158
36324
36327
36340
36292
36316
36343
36318
36163
36335
36340
36278
36341
36258
36330
36343
36284
36341
36310
36047
36334
36311
36341
36332
36327
36188
36327
36327
36293
36334
36317
36231
36331
36327
36331
36303
36324
36354
36329
36295
36223
36324
36331
36327
36300
36332
36328
36305
36275
36055
36324
36327
36324
36316
36306
36345
36303
36031
36316
36278
36343
36335
36279
36315
36331
36317
36255
36343
36308
36247
36042
36329
36297
36343
36331
36311
36252
36325
36335
36340
36324
36254
36036
36335
36281
36337
36299
36020
36335
36295
36350
36326
36302
36239
36135
36327
36332
36289
36295
36343
36321
36247
36099
36327
36327
36308
36294
36338
36303
36215
36321
36327
36320
36279
36349
36340
36340
36324
36300
36156
36327
36316
36327
36325
36319
36194
36327
36327
36269
36335
36315
36165
36322
36317
36263
36347
36320
36296
36186
36324
36333
36320
36282
36343
36340
36333
36303
36178
36327
36317
36318
36291
36307
36347
36337
36095
36327
36298
36327
36337
36271
36026
36335
36319
36290
36331
36228
36324
36315
36340
36334
36160
36327
36328
36326
36283
36347
36317
36269
36071
36323
36284
36353
36311
36164
36335
36295
36343
36330
36139
36336
36263
36349
36297
36205
36028
36339
36339
36265
36343
36338
36289
36044
36333
36330
36271
36350
36332
36103
36333
36300
36343
36308
36059
36330
36321
36347
36340
36223
36326
36326
36339
36327
36132
36333
36295
36343
36315
36108
36335
36290
36343
36281
36051
36334
36278
36350
36321
36123
36319
36318
36323
36231
36326
36294
36347
36285
36329
36334
36269
36331
36167
36341
36327
36359
36295
36332
36341
36335
36331
36069
36341
36287
36347
36253
36326
36327
36319
36335
36238
36327
36340
36337
36309
36071
36331
36310
36337
36245
36332
36321
36317
36348
36299
36045
36331
36335
36291
36351
36335
36295
36131
36335
36350
36287
36348
36269
36335
36295
36324
36322
36343
36189
36338
36351
36098
36331
36346
36039
36308
36342
36330
36309
36324
36333
36303
36327
36335
36294
36293
36339
36359
36255
36349
36347
36223
36330
36311
36303
36341
36309
36335
36332
36297
36335
36334
36327
36335
36335
36303
36347
36062
36303
36345
36135
36319
36346
36247
36335
36297
36327
36045
36323
36354
36247
36335
36331
36303
36335
36327
36335
36245
36330
36285
36337
36094
36327
36351
36251
36328
36333
36321
36333
36315
36325
36103
36329
36351
36267
36327
36345
36213
36319
36335
36275
36327
36337
36159
36308
36327
36052
36307
36324
36119
36316
36287
36294
36311
36268
36295
36306
36335
36132
36306
36307
36297
36285
36310
36063
36303
36327
36276
36311
36287
36304
36308
36245
36287
36300
36255
36263
36296
36311
36203
36297
36319
36244
36295
36271
36241
36293
36263
36229
36289
36263
36269
36286
36283
36255
36279
36252
36261
36019
36287
36308
36198
36279
36263
36291
36085
36279
36295
36123
36280
36295
36175
36275
36285
36239
36278
36281
36095
36260
36283
36022
36273
36284
36207
36264
36277
36264
36279
36263
36223
36263
36031
36257
36247
36219
36276
36247
36231
36242
36217
36252
36071
36260
36262
35996
36214
36239
36247
36268
36016
36220
36223
36234
36235
36015
36202
36189
36238
36233
36211
36243
36222
36250
36094
36231
36247
36171
36231
36247
36117
36231
36239
36130
36218
36223
36149
36220
36231
36159
36205
36207
36231
36142
36208
36183
36207
36202
36191
36229
36180
35970
36207
36207
35946
36188
36180
36199
36194
36143
36191
36207
36083
36191
36207
36079
36186
36192
35970
36176
36183
36182
36145
36153
36174
36135
36103
36172
36196
35927
36154
36167
35924
36151
36156
36155
36116
36151
36155
36103
36116
36151
36140
36071
36149
36158
36143
36099
36089
36132
36143
35946
36116
36129
36122
36101
36133
35911
36110
36122
36103
36095
36103
36103
36124
35926
36092
36117
36103
36071
36085
36087
36055
36079
36095
36044
36036
36075
36034
36071
35900
36073
36071
35910
36047
36056
36063
36031
36038
36063
36023
36029
36047
36039
35997
36045
36042
35975
36034
35999
36023
36027
35988
35949
36021
36021
36014
35975
35923
36026
36015
35927
36007
36015
35823
35991
36006
35916
35994
36007
35823
35988
35999
35783
35983
35980
35896
35967
35983
35832
35951
35969
35959
35935
35959
35845
35940
35951
35879
35943
35943
35870
35943
35950
35847
35917
35938
35847
35914
35943
35815
35909
35917
35908
35885
35819
35901
35911
35876
35892
35863
35883
35884
35833
35875
35876
35895
35755
35871
35887
35861
35834
35839
35847
35893
35690
35847
35847
35665
35836
35838
35837
35805
35819
35828
35847
35703
35837
35831
35591
35815
35817
35811
35783
35793
35807
35815
35741
35805
35799
35797
35802
35670
35791
35782
35782
35796
35585
35773
35764
35780
35745
35751
35769
35782
35663
35775
35774
35619
35759
35759
35553
35732
35735
35740
35703
35706
35735
35751
35559
35732
35737
35725
35703
35711
35719
35710
35719
35711
35691
35622
35706
35726
35639
35708
35677
35649
35690
35672
35623
35689
35703
35486
35655
35676
35679
35638
35655
35660
35645
35665
35655
35662
35667
35463
35661
35663
35439
35637
35669
35530
35647
35647
35539
35639
35649
35524
35623
35631
35482
35613
35641
35517
35620
35620
35463
35599
35591
35570
35590
35589
35599
35420
35591
35591
35547
35567
35575
35586
35434
35565
35590
35491
35556
35530
35519
35548
35535
35519
35552
35559
35463
35545
35556
35376
35523
35526
35533
35524
35439
35531
35545
35459
35517
35534
35330
35519
35514
35512
35500
35503
35322
35503
35511
35463
35500
35476
35476
35479
35487
35486
35479
35462
35484
35293
35460
35470
35447
35443
35471
35306
35463
35479
35445
35455
35451
35445
35426
35436
35447
35463
35391
35444
35414
35420
35434
35422
35447
35361
35423
35419
35429
35437
35411
35415
35411
35417
35399
35378
35348
35403
35407
35229
35391
35399
35182
35385
35399
35175
35375
35383
35165
35366
35383
35202
35359
35372
35189
35359
35375
35252
35353
35359
35350
35323
35319
35330
35311
35311
35324
35325
35335
35207
35326
35326
35311
35335
35335
35303
35244
35103
35311
35311
35271
35327
35325
35303
35266
35207
35079
35296
35276
35287
35261
35255
35287
35303
35295
35239
35271
35267
35289
35221
35143
35263
35259
35239
35275
35262
35259
35243
35204
35071
35239
35245
35212
35247
35226
35179
35220
35239
35202
35228
35151
35214
35223
35197
35231
35209
35125
35044
35191
35196
35196
35191
35220
35189
35182
35131
34975
35181
35189
35168
35169
35138
35172
35157
35166
35163
35143
35178
35164
35143
35095
35055
35009
35151
35157
35139
35143
35119
35111
35119
35149
35139
35119
35079
35021
34963
35115
35111
35119
35119
35092
35079
35111
35124
35111
35088
34894
35104
35103
35034
35079
35084
35084
35073
35063
35069
35095
35084
35063
34988
34909
35055
35067
35065
35053
35039
35079
35068
35050
35017
34965
34895
35039
35047
35039
35023
35055
35038
34953
35023
35031
35028
35031
35005
35039
34935
35021
35031
34893
35015
35015
34991
35023
34990
34925
34998
34999
35007
34980
34978
35012
34983
34963
34927
34886
34814
34964
34966
34978
34972
34943
34967
34973
34951
34911
34823
34927
34935
34941
34919
34949
34935
34875
34806
34924
34919
34903
34913
34925
34907
34855
34735
34903
34885
34879
34907
34886
34814
34894
34895
34887
34890
34892
34855
34780
34879
34871
34855
34879
34815
34694
34870
34862
34823
34855
34863
34846
34775
34671
34845
34839
34819
34861
34796
34679
34823
34823
34823
34836
34823
34815
34804
34819
34823
34814
34764
34679
34652
34797
34795
34789
34807
34785
34638
34786
34787
34775
34795
34710
34609
34775
34775
34753
34755
34751
34780
34781
34746
34703
34631
34756
34741
34749
34727
34767
34727
34671
34621
34727
34718
34727
34738
34722
34695
34710
34727
34727
34719
34709
34694
34638
34591
34503
34684
34689
34683
34690
34687
34678
34663
34690
34692
34671
34655
34655
34639
34588
34578
34503
34655
34658
34663
34658
34644
34630
34626
34660
34638
34605
34549
34549
34471
34615
34612
34622
34614
34591
34633
34631
34607
34620
34603
34588
34580
34555
34527
34479
34422
34583
34578
34564
34590
34583
34554
34492
34551
34561
34555
34565
34549
34551
34567
34556
34531
34457
34541
34535
34525
34511
34531
34537
34527
34527
34509
34458
34351
34502
34503
34487
34516
34494
34494
34447
34389
34300
34479
34476
34474
34463
34447
34468
34475
34479
34439
34365
34271
34453
34446
34447
34439
34427
34458
34431
34382
34266
34415
34410
34415
34397
34392
34427
34401
34372
34295
34393
34386
34382
34364
34399
34381
34271
34372
34362
34386
34343
34309
34207
34337
34342
34341
34324
34357
34346
34308
34311
34331
34311
34311
34301
34311
34299
34243
34183
34276
34291
34279
34279
34273
34268
34259
34283
34274
34239
34180
34250
34252
34248
34261
34237
34183
34118
34236
34231
34220
34219
34220
34200
34236
34213
34190
34103
34190
34191
34177
34206
34178
34087
34179
34177
34179
34159
34183
34183
34159
34159
34161
34143
34126
34100
34108
34015
33955
34122
34123
34123
34111
34115
34120
34087
34004
34095
34106
34095
34081
34109
34084
34066
33990
34083
34079
34063
34076
34052
33943
34055
34055
34049
34070
34035
33982
33895
34036
34044
34023
34054
34023
34007
33951
34016
34007
34015
34006
34028
34018
33985
33908
33994
33993
33993
33983
34018
33962
33863
33973
33983
33980
33959
33983
33948
33911
33783
33957
33956
33940
33967
33943
33903
33847
33767
33927
33935
33935
33909
33908
33943
33925
33895
33767
33908
33909
33895
33912
33903
33887
33828
33886
33895
33862
33901
33847
33815
33754
33717
33863
33871
33869
33863
33868
33831
33735
33852
33859
33861
33831
33799
33703
33835
33837
33823
33851
33815
33791
33702
33671
33819
33812
33809
33811
33823
33799
33789
33791
33820
33799
33791
33734
33792
33795
33714
33775
33781
33767
33773
33770
33765
33796
33751
33743
33663
33759
33758
33748
33755
33759
33727
33685
33572
33743
33740
33735
33715
33754
33743
33725
33676
33574
33726
33723
33696
33733
33711
33671
33604
33575
33703
33694
33700
33687
33700
33644
33688
33687
33671
33664
33700
33683
33627
33509
33665
33678
33663
33687
33647
33605
33662
33653
33668
33643
33675
33617
33533
33651
33636
33654
33647
33566
33623
33625
33623
33615
33539
33627
33623
33635
33610
33591
33519
33439
33601
33614
33594
33620
33607
33554
33451
33596
33585
33577
33607
33607
33582
33540
33431
33591
33590
33435
33572
33564
33563
33401
33575
33583
33567
33540
33476
33556
33575
33557
33535
33573
33563
33542
33468
33410
33556
33535
33529
33530
33526
33543
33525
33479
33415
33527
33520
33524
33511
33517
33535
33505
33471
33415
33511
33510
33509
33511
33487
33518
33497
33479
33460
33456
33438
33364
33487
33483
33489
33481
33478
33475
33481
33500
33487
33507
33476
33467
33460
33430
33349
33468
33460
33469
33466
33455
33444
33476
33476
33451
33415
33314
33447
33449
33430
33442
33459
33442
33407
33300
33431
33436
33429
33429
33430
33436
33383
33343
33264
33415
33415
33413
33418
33415
33348
33409
33406
33405
33407
33389
33423
33399
33383
33379
33332
33386
33397
33398
33398
33397
33383
33375
33372
33396
33392
33363
33311
33221
33375
33383
33364
33386
33379
33358
33303
33215
33362
33364
33367
33366
33351
33356
33370
33322
33210
33347
33339
33353
33351
33337
33359
33345
33323
33284
33203
33333
33327
33343
33324
33299
33229
33338
33334
33306
33215
33327
33327
33317
33338
33303
33251
33237
33214
33135
33319
33311
33303
33340
33313
33287
33244
33143
33302
33287
33287
33316
33311
33287
33260
33215
33157
33295
33287
33284
33284
33267
33287
33299
33283
33253
33268
33267
33255
33256
33195
33165
33269
33262
33268
33261
33260
33255
33251
33263
33263
33245
33271
33271
33254
33242
33215
33175
33127
33103
33229
33236
33240
33239
33223
33228
33231
33219
33221
33239
33226
33094
33232
33215
33196
33047
33220
33236
33165
33119
33066
33207
33211
33201
33210
33196
33213
33197
33212
33207
33196
33198
33195
33186
33183
33198
33215
33191
33169
33159
33133
33012
33178
33173
33178
33183
33159
33194
33175
33178
33150
33151
33125
33071
32996
33159
33177
33159
33159
33145
33158
33175
33159
33134
33095
33062
33005
33158
33146
33149
33149
33159
33140
33151
33147
33140
33130
33162
33126
33122
33059
33129
33143
33131
33142
33127
33108
33119
33150
33138
33137
33148
33119
33105
33126
33099
33085
33087
33087
33077
33063
33056
33031
32999
32968
32943
32951
32923
33106
33109
33092
33109
33103
33088
33087
33085
33119
33105
33099
33095
33062
32903
33098
33101
33090
33091
33092
33093
33091
33067
33069
33071
33075
33063
33068
33074
33069
33061
33063
33060
33073
33052
33063
33057
33046
33070
33063
33060
33047
33046
33025
33031
33018
32999
32974
32973
32955
32953
32992
32979
32978
32961
32911
32935
32900
32858
32848
33020
32839
33022
33000
32999
32823
32810
32999
32999
33005
33004
33003
33007
32999
32995
33007
32991
32991
32980
32991
33009
32997
32970
32971
32951
32889
32789
32978
32977
32963
32980
32982
32989
32971
32951
32958
32951
32924
32927
32952
32941
32935
32948
32947
32939
32893
32901
32883
32828
32773
32809
32929
32926
32927
32925
32925
32930
32918
32903
32935
32939
32935
32919
32887
32847
32809
32711
32903
32887
32715
32695
32895
32897
32895
32879
32874
32900
32883
32847
32791
32759
32719
32871
32869
32871
32867
32855
32847
32835
32887
32874
32789
32853
32849
32839
32767
32652
32839
32843
32843
32819
32855
32835
32796
32735
32647
32827
32821
32836
32823
32815
32829
32823
32796
32811
32831
32830
32823
32814
32775
32737
32682
32593
32791
32791
32797
32771
32807
32764
32670
32622
32775
32775
32775
32772
32767
32775
32766
32785
32759
32759
32764
32775
32763
32773
32765
32762
32751
32756
32723
32723
32734
32715
32695
32628
32589
32605
32724
32739
32733
32743
32738
32715
32715
32724
32735
32698
32621
32562
32714
32717
32719
32711
32695
32711
32703
32695
32679
32719
32718
32721
32711
32700
32703
32689
32662
32660
32663
32623
32620
32495
32684
32687
32674
32687
32677
32694
32681
32679
32671
32685
32673
32658
32642
32607
32574
32519
32659
32644
32678
32671
32665
32655
32623
32599
32582
32542
32452
32643
32637
32647
32647
32641
32629
32614
32658
32636
32637
32639
32644
32628
32635
32614
32598
32559
32495
32612
32630
32614
32626
32621
32618
32602
32607
32631
32636
32615
32610
32599
32582
32559
32527
32508
32470
32406
32407
32588
32591
32583
32594
32599
32607
32596
32582
32571
32597
32597
32610
32575
32574
32567
32569
32575
32575
32591
32579
32579
32571
32573
32562
32554
32551
32583
32594
32590
32595
32581
32573
32574
32558
32551
32519
32502
32455
32439
32379
32555
32555
32551
32559
32559
32559
32551
32565
32554
32547
32550
32551
32547
32543
32556
32549
32527
32527
32533
32531
32559
32511
32490
32431
32397
32516
32536
32541
32527
32543
32519
32519
32508
32532
32534
32551
32545
32549
32534
32518
32507
32515
32503
32510
32477
32447
32415
32336
32518
32519
32511
32518
32508
32500
32519
32533
32508
32467
32397
32391
32494
32500
32510
32503
32487
32490
32500
32511
32484
32470
32445
32325
32495
32506
32487
32502
32516
32506
32495
32470
32447
32398
32373
32478
32486
32486
32493
32480
32468
32500
32500
32501
32490
32471
32460
32435
32327
32335
32315
32475
32471
32480
32473
32495
32479
32455
32501
32478
32446
32366
32471
32471
32477
32470
32492
32487
32464
32448
32404
32332
32459
32471
32468
32468
32455
32498
32483
32444
32437
32391
32322
32301
32284
32460
32463
32463
32466
32459
32469
32451
32451
32482
32475
32461
32423
32389
32310
32287
32460
32467
32449
32447
32455
32460
32454
32454
32439
32452
32471
32455
32450
32466
32463
32453
32455
32439
32418
32419
32418
32391
32359
32341
32319
32282
32454
32439
32446
32452
32454
32430
32439
32461
32455
32455
32423
32418
32404
32395
32345
32343
32305
32439
32444
32445
32443
32454
32436
32451
32445
32423
32437
32437
32447
32441
32449
32439
32447
32443
32439
32423
32447
32452
32453
32449
32426
32404
32347
32425
32436
32447
32442
32437
32439
32463
32436
32439
32335
32442
32430
32430
32460
32419
32342
32287
32258
32428
32447
32430
32446
32437
32439
32437
32453
32455
32444
32451
32428
32391
32356
32350
32332
32359
32317
32274
32430
32431
32428
32429
32431
32428
32430
32423
32423
32432
32431
32422
32423
32422
32410
32450
32441
32439
32447
32436
32451
32444
32431
32430
32396
32288
32426
32416
32423
32271
32420
32423
32412
32422
32410
32418
32415
32412
32415
32423
32439
32404
32367
32303
32253
32282
32299
32326
32335
32263
32399
32410
32420
32414
32409
32410
32404
32399
32405
32407
32438
32428
32412
32362
32327
32411
32409
32409
32420
32406
32407
32441
32420
32391
32392
32359
32357
32315
32317
32277
32415
32415
32409
32410
32434
32431
32386
32345
32411
32423
32423
32447
32415
32363
32278
32415
32415
32404
32415
32349
32250
32415
32405
32428
32435
32405
32381
32317
32423
32415
32415
32423
32404
32380
32263
32421
32415
32396
32422
32431
32430
32391
32374
32407
32431
32422
32411
32429
32445
32415
32355
32263
32415
32423
32420
32413
32415
32428
32381
32296
32417
32427
32412
32428
32398
32302
32414
32413
32420
32423
32382
32303
32300
32404
32416
32415
32415
32406
32427
32435
32423
32409
32397
32388
32381
32335
32297
32421
32415
32421
32423
32421
32404
32406
32426
32418
32407
32381
32310
32315
32263
32411
32415
32411
32414
32415
32420
32428
32424
32383
32356
32311
32419
32414
32418
32420
32404
32426
32431
32422
32407
32389
32377
32349
32281
32402
32417
32415
32421
32407
32406
32418
32437
32415
32391
32357
32284
32421
32399
32415
32416
32420
32413
32415
32423
32405
32384
32371
32331
32295
32263
32275
32403
32404
32402
32413
32410
32407
32407
32423
32391
32380
32318
32255
32399
32413
32407
32405
32396
32385
32427
32423
32431
32401
32387
32351
32333
32286
32263
32391
32399
32391
32405
32386
32387
32401
32407
32399
32367
32373
32337
32335
32296
32378
32399
32386
32411
32389
32375
32349
32324
32375
32382
32387
32381
32391
32351
32287
32381
32381
32383
32396
32373
32346
32274
32391
32391
32383
32382
32383
32375
32400
32388
32332
32292
32263
32367
32375
32381
32371
32375
32399
32363
32359
32351
32323
32299
32278
32391
32385
32380
32379
32384
32369
32395
32383
32348
32301
32375
32382
32387
32390
32382
32375
32375
32391
32375
32367
32359
32351
32324
32271
32391
32387
32388
32387
32374
32388
32396
32389
32367
32318
32234
32387
32382
32391
32383
32388
32385
32407
32391
32382
32339
32323
32372
32395
32391
32391
32380
32390
32391
32406
32394
32381
32356
32278
32399
32406
32414
32413
32391
32365
32346
32300
32399
32409
32399
32303
32391
32404
32309
32393
32399
32315
32308
32303
32391
32401
32415
32396
32430
32414
32402
32391
32381
32287
32409
32409
32414
32413
32418
32423
32423
32436
32422
32405
32389
32295
32411
32426
32415
32453
32438
32417
32353
32327
32430
32431
32445
32433
32444
32428
32438
32443
32455
32407
32443
32442
32436
32445
32439
32439
32310
32451
32466
32397
32447
32469
32396
32459
32479
32398
32452
32451
32432
32455
32458
32479
32463
32463
32460
32471
32493
32415
32472
32476
32455
32347
32478
32391
32479
32455
32487
32487
32483
32485
32482
32374
32487
32495
32455
32498
32502
32487
32487
32500
32500
32511
32476
32508
32518
32500
32514
32415
32519
32531
32476
32527
32527
32414
32518
32519
32433
32531
32543
32531
32543
32506
32532
32532
32535
32401
32538
32548
32469
32544
32571
32503
32559
32558
32510
32563
32556
32551
32567
32571
32583
32526
32584
32577
32575
32587
32558
32531
32479
32586
32586
32597
32575
32613
32607
32577
32543
32593
32605
32595
32603
32609
32607
32607
32631
32620
32626
32591
32535
32623
32631
32628
32628
32611
32548
32635
32639
32635
32639
32660
32635
32574
32647
32676
32587
32663
32675
32637
32548
32671
32669
32685
32647
32551
32677
32682
32695
32692
32662
32627
32556
32691
32702
32695
32719
32710
32690
32647
32623
32711
32730
32719
32719
32734
32741
32727
32697
32636
32737
32750
32743
32751
32759
32769
32743
32734
32679
32629
32756
32759
32762
32766
32775
32768
32748
32710
32773
32788
32784
32791
32796
32800
32795
32786
32759
32738
32806
32809
32814
32814
32830
32819
32839
32835
32808
32765
32767
32715
32843
32838
32838
32839
32853
32871
32853
32837
32783
32860
32864
32885
32856
32874
32879
32883
32871
32879
32877
32899
32911
32895
32843
32909
32919
32884
32903
32907
32927
32850
32916
32920
32927
32935
32927
32962
32956
32932
32894
32839
32942
32959
32958
32968
32971
32954
32911
32980
32982
32971
32972
32902
32991
32997
32988
32999
33020
32993
32919
33004
33013
33013
33050
33013
32986
32968
33028
33040
33043
33031
33055
33031
33040
33017
32978
33059
33064
33068
33063
33079
33095
33074
33039
32978
33088
33092
33105
33095
33109
33127
33127
33109
33111
33100
33074
33051
33024
33014
33126
33135
33132
33132
33138
33150
33158
33155
33143
33167
33159
33159
33166
33182
33175
33170
33179
33159
33167
33143
33151
33174
33186
33186
33183
33159
33148
33119
33106
33215
33223
33217
33223
33214
33221
33239
33239
33262
33260
33244
33227
33223
33184
33239
33255
33263
33274
33273
33268
33287
33277
33274
33265
33287
33303
33295
33287
33276
33268
33255
33235
33223
33303
33319
33325
33270
33334
33333
33319
33246
33342
33343
33357
33303
33355
33353
33367
33369
33375
33372
33369
33390
33387
33345
33278
33383
33383
33397
33391
33415
33423
33399
33379
33308
33414
33420
33420
33436
33439
33415
33390
33441
33447
33463
33452
33475
33443
33357
33479
33460
33478
33473
33479
33492
33501
33487
33458
33498
33505
33511
33517
33515
33492
33475
33451
33511
33534
33535
33532
33538
33538
33568
33567
33543
33517
33476
33563
33575
33575
33585
33576
33575
33595
33602
33575
33550
33549
33509
33607
33607
33615
33623
33630
33620
33633
33635
33639
33641
33639
33663
33662
33647
33634
33580
33543
33670
33679
33671
33681
33695
33665
33615
33607
33692
33706
33709
33702
33704
33667
33716
33725
33725
33751
33705
33639
33742
33731
33743
33722
33757
33758
33734
33773
33771
33756
33758
33721
33676
33786
33781
33788
33789
33799
33799
33799
33791
33773
33767
33724
33671
33663
33823
33821
33828
33829
33842
33839
33847
33854
33839
33847
33854
33859
33845
33868
33868
33871
33838
33814
33788
33751
33724
33895
33882
33897
33903
33899
33899
33908
33931
33927
33925
33919
33907
33890
33855
33813
33941
33932
33959
33943
33951
33959
33967
33953
33948
33964
33975
33983
33998
33996
33998
33999
33979
33983
33951
33908
33845
33995
34005
34004
34005
34012
34007
34044
34012
33991
33955
33874
34037
34055
34046
34055
34037
33993
33875
34055
34079
34055
34086
34077
34038
33927
34090
34090
34076
34085
34087
34110
34104
34075
34047
33959
34095
34126
34127
34119
34148
34151
34142
34109
34028
33978
34151
34164
34159
34164
34167
34173
34183
34172
34183
34183
34182
34183
34207
34207
34191
34183
34102
34212
34215
34215
34215
34250
34238
34204
34175
34055
34257
34246
34234
34279
34252
34247
34183
34252
34275
34279
34271
34295
34268
34133
34294
34279
34327
34294
34183
34311
34311
34335
34311
34276
34199
34341
34343
34359
34341
34196
34359
34358
34355
34378
34395
34364
34335
34220
34396
34396
34375
34415
34388
34327
34407
34415
34429
34429
34407
34394
34364
34318
34308
34269
34439
34449
34476
34374
34454
34455
34493
34479
34487
34466
34484
34485
34468
34477
34447
34415
34398
34523
34372
34370
34357
34388
34403
34421
34474
34455
34482
34478
34503
34517
34495
34500
34543
34558
34559
34573
34575
34577
34595
34601
34612
34631
34630
34631
34653
34663
34630
34631
34630
34631
34639
34663
34676
34677
34685
34662
34702
34701
34702
34695
34710
34707
34657
34575
34715
34724
34727
34730
34735
34735
34741
34735
34763
34791
34776
34771
34763
34757
34765
34754
34759
34767
34742
34677
34695
34719
34686
34807
34823
34802
34839
34740
34692
34672
34851
34854
34860
34868
34878
34871
34871
34885
34919
34924
34911
34915
34916
34927
34939
34934
34936
34942
34949
34948
34935
34919
34932
34946
34935
34876
34805
34982
34983
34991
34997
35012
34985
35023
35020
34996
34989
34883
35045
35039
35045
35047
35044
35045
35061
35093
35071
35079
35076
35060
35005
34948
35079
35111
35114
35123
35118
35118
35119
35111
35143
35167
35177
35172
35169
35170
35156
35079
35034
35183
35185
35204
35204
35207
35193
35208
35223
35207
35154
35171
35079
35071
35261
35252
35253
35277
35279
35278
35269
35277
35303
35308
35301
35309
35279
35252
35247
35230
35205
35135
35348
35350
35335
35367
35361
35365
35357
35399
35398
35391
35383
35380
35335
35286
35407
35425
35423
35435
35431
35436
35431
35455
35455
35447
35449
35467
35490
35484
35490
35462
35435
35386
35335
35511
35511
35519
35525
35509
35530
35557
35562
35532
35471
35403
35556
35575
35583
35567
35591
35579
35500
35599
35612
35591
35639
35617
35554
35500
35444
35647
35650
35659
35647
35687
35663
35637
35532
35681
35695
35682
35711
35722
35695
35627
35516
35732
35743
35714
35759
35751
35692
35556
35763
35764
35758
35791
35811
35791
35735
35645
35810
35818
35809
35805
35836
35814
35789
35747
35663
35847
35863
35870
35847
35838
35871
35887
35875
35871
35919
35919
35935
35919
35866
35927
35943
35906
35962
35919
35743
35970
35948
35965
35975
35964
35891
35991
36001
36004
36022
35903
36020
36025
36017
36057
36041
36028
35900
36065
36087
35868
36053
36093
35878
36093
36095
36114
36091
36087
36135
36117
36060
35900
36138
36135
36167
36142
36005
36167
36138
36186
36162
36080
36188
36183
36180
36201
36086
36215
36225
36194
36214
36244
36223
36141
36250
36244
36231
36239
36277
36273
36266
36231
36159
36054
36293
36302
36292
36279
36327
36327
36317
36277
36175
36335
36351
36327
36359
36343
36247
36359
36359
36337
36404
36391
36354
36239
36404
36399
36418
36404
36430
36444
36450
36448
36439
36434
36224
36460
36451
36452
36494
36479
36456
36324
36497
36495
36495
36468
36508
36535
36506
36369
36529
36540
36503
36557
36533
36359
36565
36564
36598
36583
36561
36536
36478
36391
36367
36615
36627
36647
36646
36629
36610
36543
36452
36647
36660
36669
36664
36661
36639
36704
36710
36701
36682
36653
36639
36610
36480
36735
36736
36751
36735
36711
36780
36775
36775
36769
36777
36765
36687
36585
36804
36801
36797
36773
36815
36830
36844
36831
36834
36823
36769
36673
36615
36866
36852
36844
36899
36895
36903
36869
36775
36903
36909
36915
36895
36931
36959
36941
36902
36799
36941
36951
36959
36961
36935
36999
36994
36975
36847
36999
37010
36999
36983
36991
37041
37048
37013
37046
37058
37042
37034
37059
37066
37067
37075
37063
37062
37101
37103
37095
37098
37103
37079
37135
37137
37127
37111
37015
37143
37148
37159
37151
37115
37197
37168
37145
36962
37197
37191
37161
37211
37200
37119
37221
37223
37223
37245
37246
37182
36991
37247
37239
37287
37277
37239
37037
37284
37278
37249
37314
37294
37246
37109
37318
37312
37343
37157
37326
37324
37300
37302
37364
37373
37363
37343
37161
37373
37374
37378
37406
37399
37381
37191
37404
37418
37426
37383
37444
37444
37426
37363
37444
37460
37462
37414
37467
37487
37471
37383
37229
37500
37489
37495
37476
37463
37535
37532
37495
37302
37534
37541
37551
37543
37524
37533
37527
37519
37559
37587
37599
37583
37519
37595
37605
37601
37618
37600
37463
37628
37635
37613
37662
37471
37647
37671
37639
37668
37694
37672
37632
37486
37458
37698
37715
37702
37719
37733
37715
37605
37468
37742
37745
37695
37767
37722
37548
37778
37788
37750
37797
37767
37630
37807
37799
37834
37838
37799
37759
37844
37839
37843
37839
37870
37862
37711
37615
37894
37883
37895
37889
37871
37927
37927
37926
37871
37926
37948
37927
37940
37967
37966
37918
37767
37980
37990
37994
37959
38018
37982
37893
38023
38034
38007
38053
38039
37919
38047
38064
38055
38036
38097
38090
38063
37895
38099
38123
38071
38131
38132
38122
38015
38148
38159
38071
38166
38183
38170
38046
38182
38180
38175
38183
38218
38162
38031
38235
38213
38253
38240
38170
38271
38262
38215
38298
38301
38252
38219
38119
38311
38311
38311
38311
38295
38338
38359
38357
38330
38203
38372
38367
38333
38405
38380
38265
38394
38423
38375
38426
38398
38279
38457
38450
38429
38471
38471
38433
38239
38492
38486
38501
38483
38458
38535
38535
38525
38527
38503
38407
38293
38560
38575
38574
38542
38543
38535
38597
38628
38631
38631
38613
38458
38644
38639
38647
38660
38652
38639
38639
38694
38703
38694
38647
38535
38716
38735
38735
38724
38751
38759
38766
38786
38783
38778
38767
38767
38735
38711
38724
38703
38823
38831
38839
38847
38852
38863
38874
38876
38887
38876
38844
38877
38919
38919
38929
38935
38950
38934
38919
38883
38847
38810
38719
38991
38997
39007
38967
38989
39044
39043
39039
38999
38979
39052
39073
39028
39039
39039
39079
39095
39084
39119
39141
39142
39107
39075
38948
39159
39173
39174
39175
39175
39206
39220
39199
39158
38989
39231
39247
39209
39277
39261
39055
39294
39271
39310
39316
39271
39163
39323
39333
39347
39348
39322
39375
39388
39383
39397
39405
39391
39349
39195
39423
39423
39393
39456
39418
39253
39478
39481
39463
39505
39326
39513
39506
39504
39537
39519
39365
39559
39559
39569
39533
39589
39619
39598
39527
39615
39631
39590
39661
39653
39639
39366
39678
39670
39669
39686
39725
39719
39701
39646
39431
39742
39751
39767
39751
39738
39742
39796
39807
39815
39831
39843
39863
39854
39846
39855
39853
39839
39803
39677
39638
39892
39916
39925
39938
39938
39903
39916
39959
39983
39993
39993
40007
39983
39860
40014
40029
40011
40045
40045
39863
40086
40039
40089
40094
40071
39873
40117
40124
40085
40166
40148
40055
40163
40167
40150
40215
40196
39967
40218
40223
40223
40230
40249
40270
40253
40269
40301
40268
40103
40308
40301
40295
40343
40336
40135
40367
40371
40327
40391
40406
40337
40113
40421
40430
40447
40455
40455
40449
40375
40199
40492
40501
40503
40518
40473
40551
40547
40446
40419
40564
40581
40583
40548
40604
40629
40623
40622
40510
40645
40663
40647
40671
40639
40646
40709
40711
40732
40730
40735
40702
40517
40570
40773
40772
40739
40798
40805
40750
40807
40820
40799
40773
40847
40864
40771
40863
40871
40883
40839
40922
40903
40857
40684
40935
40935
40887
40966
40981
40939
40702
40988
40958
40988
40709
41024
41031
41039
40999
41015
41084
41087
41093
41108
41087
41108
41127
41132
41084
41142
41151
41121
41169
41191
41178
41066
40995
41207
41219
41160
41253
41151
41249
41258
41274
41255
41295
41269
41291
41327
41292
41343
41330
41009
41359
41351
41371
41071
41383
41393
41351
41431
41431
41439
41439
41394
41470
41407
41471
41479
41507
41511
41284
41532
41479
41545
41551
41342
41569
41543
41605
41542
41605
41591
41636
41618
41303
41644
41621
41664
41660
41405
41687
41679
41710
41708
41607
41726
41749
41743
41679
41773
41773
41769
41783
41765
41692
41471
41827
41815
41788
41863
41863
41863
41767
41531
41894
41903
41876
41927
41927
41783
41951
41949
41958
41912
41985
41991
41984
41719
42010
42035
42023
41991
41989
42060
42079
42044
41792
42087
42097
42055
42127
42133
42140
42039
41933
42167
42159
42183
42133
42144
42207
42223
42223
42231
42215
42183
42111
41978
42047
42023
42301
42294
42311
42310
42307
42295
42348
42340
42156
42354
42367
42386
42347
42404
42421
42431
42361
42436
42439
42447
42401
42486
42486
42502
42370
42503
42503
42468
42534
42503
42535
42551
42487
42582
42593
42374
42588
42596
42560
42615
42644
42617
42278
42651
42637
42669
42679
42532
42676
42692
42631
42726
42732
42631
42741
42727
42741
42703
42780
42780
42715
42399
42805
42804
42808
42759
42845
42839
42831
42658
42459
42868
42887
42811
42915
42748
42911
42917
42870
42932
42940
42946
42621
42958
42903
42999
43004
42787
43007
43015
43015
42999
43046
42966
43049
43046
43047
43094
43098
43071
42759
43106
43117
43124
43071
43115
43163
43156
43010
43175
43185
43181
43199
43227
43100
43215
43239
43223
43249
43247
42939
43263
43271
43282
43293
43249
43236
43322
43327
43346
43349
43335
43193
42980
43367
43383
43399
43396
43399
43329
43428
43443
43447
43467
43420
43344
43292
43211
43075
43494
43511
43508
43476
43487
43527
43551
43563
43245
43562
43571
43527
43597
43619
43616
43527
43266
43639
43638
43663
43649
43609
43631
43695
43708
43716
43725
43734
43663
43463
43748
43745
43764
43759
43774
43747
43815
43818
43780
43391
43835
43843
43839
43758
43872
43887
43892
43901
43879
43604
43911
43919
43924
43852
43951
43983
43981
43907
43825
43628
43998
44005
43974
43930
44039
44054
43771
44015
44070
44091
44100
43943
43828
44103
44110
44071
44095
44159
44082
43711
44167
44164
44180
44215
43989
44210
44214
44163
44260
44153
44260
44263
44205
44231
44295
44318
44287
43975
44327
44328
44273
44351
44366
44261
44391
44375
44382
44370
44367
44343
44430
44445
44215
44434
44466
44396
44473
44510
44503
44423
44116
44524
44517
44535
44455
44573
44572
44540
44295
44594
44590
44599
44580
44615
44644
44639
44295
44655
44647
44679
44687
44687
44250
44714
44700
44665
44761
44760
44731
44391
44760
44775
44764
44750
44727
44731
44775
44844
44847
44764
44379
44864
44863
44888
44860
44794
44908
44920
44895
44679
44950
44951
44958
44956
44960
44927
44886
44994
45028
45028
44966
44551
45031
45043
44967
44999
45102
45090
45092
44983
44647
45108
45127
45146
45142
45052
45163
45189
45179
45017
45199
45201
45188
45147
45148
45255
45254
45271
45279
45159
44861
45287
45295
45311
45242
45332
45359
45317
44892
45361
45367
45359
45310
45348
45409
45428
45428
45333
45076
44951
45445
45463
45467
45479
45414
45414
45498
45527
45445
45119
45535
45538
45557
45551
45529
45533
45589
45602
45575
45151
45604
45575
45575
45669
45671
45593
45167
45671
45684
45655
45711
45735
45711
45423
45735
45750
45751
45750
45701
45742
45805
45822
45831
45823
45815
45679
45406
45831
45861
45863
45852
45781
45887
45911
45918
45908
45785
45447
45935
45948
45949
45926
45878
45957
45996
46003
46027
45993
45880
46021
46024
46018
46070
45922
46080
45999
46103
46040
45666
45615
46119
46104
46042
46160
46162
46021
46167
46181
46191
46194
46127
46177
46231
46230
46247
46228
46066
46268
46275
46265
46220
46311
46302
46308
46319
46332
46311
46246
46252
46303
46363
46385
46380
46399
46419
46275
45880
46420
46430
46422
46409
46358
46447
46487
46499
46523
46509
46452
46204
46196
46516
46535
46549
46543
46499
46479
46573
46599
46487
46599
46599
46599
46542
46583
46652
46663
46687
46673
46692
46662
46685
46703
46686
46599
46630
46719
46743
46759
46764
46767
46599
46206
46789
46780
46794
46807
46798
46803
46766
46795
46804
46783
46743
46756
46852
46879
46887
46895
46911
46830
46911
46909
46919
46927
46855
46837
46868
46919
46966
46981
46990
47003
46902
46503
47006
47015
47010
46982
46919
47038
47063
47064
47079
47025
46897
46664
47084
47095
47052
47023
47111
47143
47165
47079
46913
46711
47154
47150
47066
47196
47207
47127
46911
47207
47215
47212
47159
47165
47239
47261
47252
47253
47263
47208
47175
47247
47314
47323
47252
47317
47317
47343
47298
47253
47317
47364
47383
47382
47111
47366
47382
47294
47428
47438
47431
47407
47175
47436
47431
47415
47335
47468
47487
47470
47159
47466
47503
47412
47517
47511
47535
47406
47524
47527
47518
47544
47454
47583
47018
47559
47591
47590
47599
47585
47527
47535
47079
47609
47671
47638
47623
47687
47655
47557
47683
47687
47611
47644
47694
47727
47716
47715
47527
47711
47751
47719
47623
47766
47751
47765
47183
47655
47623
47775
47796
47751
47782
47820
47654
47813
47845
47215
47743
47863
47847
47863
47397
47852
47903
47486
47879
47910
47590
47903
47920
47591
47924
47932
47813
47943
47959
47873
47958
47948
47958
47964
47860
48007
47969
47967
48004
47873
48002
48028
47726
47999
48052
48025
47923
48071
47431
48038
48067
47758
48050
48079
48036
48079
48030
48108
48081
48007
48127
47645
48092
48116
48111
48126
48039
48127
48135
48039
48163
48150
48127
48181
48167
48135
48191
47535
48154
48207
47943
48195
48223
47809
48199
48223
48150
48239
48210
48263
47790
48247
48250
48165
48251
48164
48207
48279
48299
47623
48268
48309
48158
48299
48300
48237
48309
48191
48340
48327
48303
48317
48325
48319
48348
48354
48246
48380
48354
48341
48389
47780
48359
48367
48405
48387
48391
48373
48391
48415
48391
48418
48159
48405
48429
48390
48418
48308
48455
48055
48445
48411
48444
48460
48332
48487
48463
48413
48497
48468
48361
48505
48477
48358
48526
48495
48390
48517
48215
48495
48543
48198
48519
48436
48562
47939
48542
48535
48542
48516
48436
48519
48583
48591
48364
47951
48575
48591
48588
48591
48519
48591
48628
48621
48596
48516
48340
47956
48616
48621
48630
48630
48516
48625
48647
48676
48676
48677
48617
48319
48647
48663
48667
48673
48559
48694
48708
48606
48687
48692
48711
48702
48603
48719
48743
48687
48071
48722
48620
48753
48767
48718
48485
48739
48731
48748
48748
48771
48662
48677
48791
48803
48727
48793
48775
48679
48796
48755
48167
48799
48796
48806
48785
48727
48815
48855
48829
48730
48702
48827
48820
48817
48743
48831
48863
48879
48836
48334
48855
48863
48743
48871
48901
48868
48239
48868
48885
48775
48899
48924
48876
48407
48887
48916
48903
48863
48948
48903
48919
48927
48903
48879
48957
48943
48942
48959
48935
48835
48967
48991
48967
48680
48967
48975
48967
48983
48903
48895
49007
49009
49028
49013
48871
48415
49007
49007
48903
49012
49030
49036
49023
48955
48519
49028
49041
48940
48391
49042
49031
49054
48932
48943
48978
49084
49085
49031
48430
49063
49044
49047
49101
49079
49079
49100
48978
49100
49095
48564
49087
49095
49047
49125
49090
48977
49143
49135
49147
48827
49044
49123
49127
49103
49013
49135
49158
49177
49124
48639
49146
49140
49122
49029
49159
49110
49175
49159
49071
49159
49207
49143
48751
49183
49172
49187
49157
49063
49187
49215
49095
48519
49196
49194
49118
49223
49213
48593
49199
49215
49090
49238
49239
48975
49212
49215
49111
49247
49243
49103
49221
49231
49223
49130
49239
49267
49180
49236
49236
49130
49255
49252
48707
49263
49147
49260
49287
48893
49271
49263
49253
49159
49273
49310
49269
49159
48759
49274
49266
49181
49286
49319
49319
48973
49283
49287
49248
49316
49287
49199
49331
48804
49305
49279
49239
49327
49268
49314
49307
49311
49326
48839
49326
49287
49255
49340
49340
48759
49322
49287
49335
49348
49335
49319
49223
49351
49359
49215
49321
49324
49327
49286
49375
49383
49159
49330
49349
49235
49372
49375
49267
49348
49356
49282
49316
49375
49385
49372
49230
48735
49354
49348
49351
49287
49380
49404
48743
49378
49305
49377
49399
48887
49359
49315
49383
49415
48789
49383
49378
49285
49411
49287
49389
49389
49284
49399
49414
48868
49380
49372
49367
49415
49423
49253
48775
49399
49383
49316
49317
49402
49415
49436
49327
49391
49391
49402
49343
49294
49415
49415
49068
49398
49415
49390
49342
49406
49428
49453
49431
49228
48977
48775
49415
49415
49391
49357
49415
49430
49452
49391
49251
48813
49426
49415
49397
49311
49406
49396
49439
49443
49465
49381
49079
49415
49415
49391
49383
49431
49460
49294
49412
49423
49415
49407
49343
49443
49301
48879
49412
49423
49415
49402
49311
49396
49452
49372
48863
49404
49415
49415
49326
49397
49415
49439
49431
49443
49367
49190
48887
49415
49406
49335
49415
49415
49437
49244
49399
49400
49399
49375
49303
49407
49435
49393
49119
49389
49391
49412
49295
49391
49411
49439
49383
48879
49383
49399
49277
49415
49388
49137
49383
49396
49312
49383
49415
49407
49287
49375
49375
49307
49351
49407
49311
49378
49365
49380
49366
49274
49376
49383
49395
49279
49365
49361
49263
49380
49391
49350
48957
49367
49365
49359
49311
49261
49383
49380
49287
48754
49348
49357
49332
49287
49356
49367
49380
49345
48791
49335
49332
49319
49242
49347
49359
49303
48751
49334
49325
49318
49247
49354
49348
49215
49316
49319
49316
49317
49215
49319
49347
49127
49303
49308
49303
49284
49246
49245
49311
49318
49279
48860
48715
49287
49279
49283
49271
49183
49293
49303
49287
48815
49269
49253
49252
49159
49263
49300
49255
48942
48716
49255
49254
49146
49263
49255
49271
49174
49231
49241
49215
49127
49239
49254
49245
48980
49221
49223
49182
49200
49253
49151
49218
49199
49208
49191
49125
49214
49220
48976
49190
49185
49175
49209
49181
48941
49173
49159
49126
49183
48948
49159
49132
49052
49158
49174
48972
48574
49158
49126
49126
49079
49156
49151
49012
48543
49109
49108
49103
48991
49093
49111
49096
48798
48467
49087
49079
49063
48968
49022
49086
49093
49095
49076
48975
48447
49055
49042
49031
48967
48927
49031
49037
49047
49030
48724
49015
49013
49001
48910
48932
49006
49006
48990
49007
48999
48993
48994
48989
48983
48964
48949
48828
48647
48935
48948
48935
48931
48876
48887
48943
48949
48903
48855
48364
48894
48879
48879
48772
48891
48893
48885
48647
48861
48863
48772
48844
48854
48884
48775
48823
48820
48822
48812
48743
48812
48831
48834
48828
48796
48711
48599
48623
48719
48702
48215
48757
48770
48738
48687
48647
48761
48711
48734
48639
48751
48750
48745
48695
48255
48700
48717
48690
48589
48612
48698
48708
48705
48448
48661
48669
48663
48671
48670
48647
48644
48607
48639
48647
48636
48255
48607
48586
48615
48639
48567
48020
48585
48591
48475
48583
48597
48519
47975
48551
48543
48436
48549
48572
48427
48532
48531
48501
48469
48535
48516
48199
48490
48477
48508
48519
48361
48198
48476
48468
48470
48487
48486
48391
47895
48444
48446
48340
48424
48439
48175
47803
48415
48391
48381
48314
48391
48412
48415
48383
47999
48358
48372
48354
48257
48372
48380
48279
47787
48335
48327
48280
48326
48327
48324
48251
47678
48274
48239
48284
48315
48156
48263
48263
48151
48257
48270
48244
47974
48237
48217
48231
48214
47618
48214
48195
48119
48207
48197
48207
48199
48036
47836
48165
48175
48116
48102
48175
48135
47719
48127
48103
48135
48135
47847
48111
48111
48052
48085
48125
48119
47751
48077
48079
47999
48010
48080
48039
47555
48031
48023
47927
48039
48034
47783
48007
47991
47886
48022
48017
47879
47973
47991
47892
47978
47989
47682
47951
47932
47846
47943
47927
47924
47911
47830
47919
47926
47916
47863
47492
47879
47878
47865
47847
47751
47868
47876
47773
47843
47837
47727
47823
47847
47687
47799
47799
47811
47807
47367
47773
47781
47699
47759
47783
47774
47556
47745
47742
47662
47724
47749
47732
47559
47703
47719
47662
47621
47709
47698
47475
47677
47675
47573
47679
47679
47614
47079
47639
47623
47594
47623
47648
47532
47058
47598
47599
47525
47527
47604
47599
47239
47575
47566
47542
47501
47521
47564
47508
47178
47531
47516
47519
47407
47507
47511
47505
47183
47486
47484
47447
47367
47461
47478
47450
47427
47271
47062
47427
47431
47431
47367
47356
47415
47174
47398
47367
47407
47343
47111
47367
47344
47271
47367
47357
47298
46765
47332
47317
47207
47327
47279
47287
47276
47199
47287
47303
47234
46700
47260
47247
47180
47140
47231
47260
47199
46759
47223
47212
47111
47223
47228
47058
47183
47191
47188
47135
47062
47170
47175
47087
46681
47147
47015
47139
47143
47142
47047
46535
47103
47083
46979
47098
47100
47084
46773
47053
47036
46940
47063
47070
46983
46490
47025
46940
47007
47031
46903
47002
46980
46925
46910
46980
46983
46982
46751
46524
46942
46935
46826
46951
46934
46725
46343
46895
46892
46884
46798
46886
46911
46683
46773
46855
46854
46829
46757
46847
46838
46523
46824
46812
46739
46812
46805
46702
46782
46783
46671
46791
46788
46524
46753
46727
46743
46751
46737
46713
46644
46735
46340
46711
46679
46692
46719
46665
46366
46676
46660
46645
46623
46677
46492
46639
46625
46516
46625
46638
46591
46292
46588
46583
46539
46481
46573
46587
46487
46556
46555
46539
46526
46494
46418
46484
46526
46516
46455
46208
46496
46471
46461
46450
46477
46377
45959
46449
46427
46335
46442
46425
46101
46407
46376
46394
46406
46215
46364
46377
46323
46260
46343
46359
46343
46343
46278
45820
46310
46223
46271
46301
46284
45751
46263
46251
46158
46257
46260
46247
45728
46223
46204
46231
46172
46206
46189
46196
46199
45617
46167
46087
46165
46166
45658
46142
46023
46135
46135
45799
46103
46079
46055
46106
46086
45815
46069
46047
45974
46066
46054
45490
46023
45999
46002
46039
46018
45567
45987
45959
45959
46007
45946
45487
45953
45940
45863
45912
45956
45883
45594
45908
45886
45796
45893
45879
45771
45338
45862
45842
45783
45847
45778
45831
45782
45831
45831
45439
45798
45735
45693
45783
45767
45376
45735
45775
45742
45663
45743
45721
45668
45703
45717
45627
45703
45671
45575
45689
45636
45663
45642
45639
45639
45614
45095
45616
45575
45599
45623
45159
45575
45567
45528
45519
45558
45556
45521
45540
45534
45062
45484
45535
45500
45503
45495
45503
45478
45382
45444
45447
45470
45447
45359
45423
45431
45429
45135
45397
45415
45389
45287
45351
45351
45386
45371
45253
45319
45341
45297
45231
45311
45319
44800
45278
45311
45287
45199
45220
45247
45254
44788
45135
45227
45215
45228
44692
45135
45199
45187
45191
44671
45063
45031
45139
45146
45125
45135
44999
45103
45119
45095
45044
45047
45063
45092
44583
45008
45063
45054
44951
45035
45012
45027
44753
44967
44998
44983
44994
44962
44963
44954
44863
44862
44919
44927
44903
44807
44875
44876
44901
44487
44771
44636
44838
44850
44829
44773
44756
44799
44817
44415
44749
44795
44767
44775
44511
44735
44750
44255
44671
44727
44247
44678
44719
44598
44679
44676
44572
44653
44654
44463
44615
44631
44140
44597
44609
44115
44574
44594
44551
44454
44543
44535
44471
44535
44276
44507
44439
44503
44060
44367
44223
44398
43974
44414
44463
44423
44330
44423
44396
44309
44407
44374
44282
44383
44356
44279
44359
43887
44285
44323
43870
44295
44314
43820
44251
44278
44263
44213
44266
44005
44231
44247
43764
44183
44202
44197
44092
44133
44175
44180
44156
44090
44151
44117
44100
44131
43639
44015
44103
44084
43982
44071
44060
43975
44063
43545
44039
43949
44020
44007
43917
43983
43980
43924
43978
43471
43943
43949
43847
43931
43816
43911
43899
43814
43855
43883
43807
43866
43871
43806
43807
43835
43839
43798
43817
43805
43727
43782
43686
43705
43672
43306
43751
43759
43735
43645
43721
43631
43730
43687
43668
43703
43188
43660
43671
43215
43559
43632
43624
43575
43615
43609
43620
43391
43580
43594
43399
43566
43558
43526
43543
43447
43551
43116
43487
43525
43015
43422
43494
43302
43465
43383
43471
43375
43443
43351
43346
43420
43397
43365
43391
43296
43393
42965
43269
43367
43347
43271
43351
43207
43303
43239
43311
43156
43292
43206
43291
43253
43255
43239
43244
42972
43223
43239
43092
43215
43143
43214
42884
43159
43189
43181
43159
42999
43146
43143
43015
43119
43111
43087
43100
43002
43094
43083
42997
43077
42599
43047
43055
42965
43015
43029
42912
42992
42973
42951
42975
42959
42983
42972
42951
42884
42962
42924
42823
42923
42906
42892
42898
42841
42885
42775
42876
42567
42847
42855
42716
42831
42740
42826
42759
42791
42703
42796
42628
42759
42684
42772
42455
42732
42711
42734
42615
42703
42686
42716
42671
42683
42644
42668
42612
42668
42583
42658
42598
42622
42596
42639
42462
42595
42503
42604
42165
42567
42580
42319
42543
42555
42487
42519
42427
42518
42501
42487
42503
42411
42479
42453
42486
42235
42449
42453
42439
42338
42444
41956
42404
42411
42362
42375
42287
42395
42227
42363
42256
42351
42235
42319
42239
42324
41917
42307
42229
42295
41839
42258
42167
42271
42051
42247
42174
42241
42146
42219
42118
42220
42005
42206
42109
42194
41868
42167
42167
42111
42151
42095
42146
42127
42039
41679
42100
42087
42023
42085
42085
42074
42047
41965
41732
42039
42029
42045
42023
41990
41935
41975
42004
41978
41751
41973
41967
41958
41956
41878
41859
41931
41938
41877
41914
41918
41849
41885
41879
41809
41875
41863
41558
41858
41751
41852
41825
41367
41819
41713
41812
41749
41377
41783
41775
41758
41666
41762
41351
41687
41756
41733
41687
41732
41479
41703
41703
41687
41615
41681
41644
41332
41652
41653
41605
41652
41607
41621
41625
41511
41607
41516
41579
41575
41507
41574
41427
41547
41458
41551
41532
41495
41455
41217
41511
41503
41479
41477
41383
41406
41473
41477
41463
41347
41447
41431
41431
41335
41429
41407
41223
40967
41398
41388
41269
41373
41308
41365
41367
41333
41341
41351
41167
41319
41302
41265
41205
41310
41301
41258
41053
41266
41260
41160
41214
41248
41239
41212
41014
41221
41199
41188
41143
41201
41057
41183
41172
41140
41047
41158
41157
41147
41111
40986
40875
41095
41095
41090
41039
41021
41076
41071
41031
41009
40796
41031
41023
40967
40960
41023
41005
40988
40535
40967
40967
40898
40879
40967
40935
40495
40930
40860
40935
40884
40494
40906
40838
40898
40879
40444
40839
40872
40668
40839
40828
40771
40837
40828
40821
40790
40647
40447
40788
40796
40783
40757
40742
40641
40663
40742
40743
40709
40506
40705
40692
40705
40695
40671
40575
40668
40677
40669
40631
40519
40291
40625
40521
40609
40613
40516
40612
40295
40583
40470
40583
40572
40542
40353
40252
40122
40534
40547
40515
40519
40501
40455
40394
40455
40497
40484
40167
40455
40455
40421
40421
40436
40419
40319
39999
40415
40391
40295
40397
40396
40343
40063
40367
40349
40290
40245
40307
40345
40327
40263
39943
40309
40301
40295
40264
40180
40230
40270
40263
40263
40244
40239
40246
40228
40189
40108
40119
40059
39976
39762
40180
40174
40164
40160
40149
40143
40100
40037
40015
40030
40038
40070
40047
40095
40092
40092
40059
40031
39980
39808
40031
40039
40020
40007
39956
40031
40015
39999
39962
39751
39975
39876
39975
39523
39932
39958
39673
39937
39933
39803
39908
39906
39890
39814
39894
39876
39500
39851
39854
39797
39796
39847
39823
39797
39559
39813
39798
39687
39804
39797
39782
39719
39475
39755
39741
39742
39733
39686
39644
39722
39725
39711
39709
39683
39687
39668
39645
39593
39429
39412
39319
39626
39617
39615
39591
39607
39588
39572
39559
39542
39507
39457
39470
39554
39556
39547
39533
39492
39243
39495
39495
39455
39455
39485
39483
39418
39196
39447
39431
39367
39373
39428
39430
39412
39372
39215
39007
39364
39359
39257
39279
39345
39343
39343
39324
39164
39301
39279
39300
39199
39275
39258
39215
39261
39151
39231
39170
39239
39227
39227
39199
39016
38787
39167
39175
39174
39167
39155
39152
39141
39139
39135
39116
39044
39015
39015
38993
39047
39063
39083
39079
39068
39067
39067
39047
39031
39004
38989
38968
38957
38791
38597
38975
38983
38970
38966
38943
38919
38871
38858
38852
38917
38932
38940
38919
38901
38897
38900
38884
38820
38883
38807
38752
38831
38841
38844
38831
38798
38692
38436
38791
38791
38781
38782
38759
38695
38655
38763
38766
38743
38749
38726
38722
38710
38689
38663
38547
38301
38407
38663
38674
38575
38645
38543
38639
38644
38631
38612
38596
38392
38225
38595
38591
38515
38582
38330
38556
38507
38541
38556
38503
38532
38527
38463
38270
38487
38492
38487
38477
38463
38447
38367
38436
38470
38455
38436
38439
38422
38407
38407
38407
38407
38394
38396
38311
38383
38374
38355
38327
38183
38023
38335
38343
38334
38292
38221
38289
38314
38295
38279
38242
38115
38268
38257
38239
38151
38135
38161
38226
38239
38231
38212
38151
38068
37895
38182
38183
38166
38180
38150
38073
38116
38159
38150
38143
38134
38132
38124
38125
38119
38103
38102
38063
38002
37794
38071
38050
38055
38045
38047
38023
37989
37951
37948
37925
37922
38008
38015
37991
37993
37983
37970
37927
37781
37951
37946
37934
37932
37878
37927
37852
37692
37895
37895
37892
37879
37855
37779
37883
37860
37819
37719
37839
37839
37836
37791
37775
37831
37802
37711
37535
37795
37702
37783
37767
37684
37481
37748
37663
37767
37742
37735
37703
37634
37390
37703
37697
37700
37681
37604
37687
37684
37525
37653
37651
37639
37556
37639
37610
37383
37603
37612
37603
37584
37523
37564
37599
37591
37591
37567
37509
37245
37546
37533
37538
37479
37502
37533
37521
37495
37338
37489
37487
37482
37463
37406
37406
37479
37447
37429
37359
37123
37435
37423
37420
37407
37414
37351
37310
37409
37383
37047
37379
37381
37175
37351
37303
37351
37020
37322
37330
37322
37311
37311
37301
37239
37285
37300
37287
37274
37254
37143
37258
37247
37255
37242
37195
37247
37233
37212
37083
36902
37200
37191
37188
37191
37175
37155
37135
37097
37098
37149
37171
37167
37159
37135
37119
37091
37095
36967
36791
37092
37091
37068
37008
37091
37081
37071
37063
37031
36927
36772
36711
37027
37031
37030
37013
36940
36949
36941
36929
36947
36940
36943
36903
36908
36935
36927
36894
36871
36869
36857
36937
36936
36927
36911
36924
36903
36891
36879
36866
36831
36793
36715
36855
36847
36839
36799
36775
36847
36831
36687
36804
36791
36749
36796
36775
36755
36628
36763
36762
36751
36703
36719
36754
36743
36687
36495
36707
36711
36703
36643
36686
36686
36653
36662
36679
36614
36659
36599
36615
36651
36639
36591
36375
36612
36607
36572
36613
36594
36548
36438
36568
36579
36551
36493
36567
36555
36546
36487
36268
36519
36455
36527
36433
36511
36487
36420
36500
36461
36283
36461
36456
36418
36463
36414
36252
36431
36421
36393
36409
36415
36380
36299
36383
36383
36327
36382
36372
36321
36222
36340
36335
36325
36333
36276
36132
36296
36295
36279
36221
36295
36281
36253
36214
35991
36239
36244
36230
36178
36231
36134
36196
36188
36183
36123
36199
36158
35967
36158
36120
36163
36134
36099
36068
35822
36107
36118
36042
36123
36092
36056
35999
36058
36063
36049
36070
36017
35845
36012
36021
35975
36038
36015
35943
35994
35988
35975
35961
35918
35919
35975
35959
35877
35811
35727
35910
35903
35911
35847
35871
35895
35863
35820
35743
35581
35847
35847
35811
35834
35831
35791
35743
35627
35789
35802
35793
35767
35734
35741
35785
35760
35765
35735
35711
35636
35491
35711
35700
35719
35585
35684
35679
35655
35617
35681
35646
35555
35426
35637
35612
35586
35615
35605
35531
35327
35582
35573
35519
35548
35567
35548
35500
35444
35508
35468
35499
35262
35492
35479
35455
35497
35479
35471
35430
35375
35241
35183
35421
35431
35415
35359
35415
35393
35380
35313
35263
35147
35351
35335
35335
35332
35327
35284
35255
35270
35279
35311
35299
35267
35202
35029
35247
35252
35239
35239
35215
35189
35197
35220
35194
35179
35151
35117
35036
34945
35155
35147
35091
35143
35124
35100
35031
34983
34823
35097
35071
35066
35071
35042
35036
35015
35055
35038
35030
34990
34982
34919
34941
34888
34890
34867
34783
34686
34933
34925
34931
34900
34670
34669
34658
34686
34875
34866
34871
34842
34853
34835
34805
34812
34778
34807
34815
34788
34758
34664
34583
34758
34743
34732
34692
34727
34736
34703
34677
34645
34616
34561
34487
34471
34410
34399
34636
34625
34621
34598
34588
34559
34530
34551
34533
34527
34567
34559
34543
34523
34511
34503
34492
34459
34394
34271
34452
34456
34431
34277
34276
34247
34205
34401
34390
34392
34375
34367
34367
34345
34310
34330
34341
34300
34276
34322
34303
34256
34258
34247
34232
34215
34175
34182
34159
34115
34001
34198
34180
34171
34167
34151
34156
34138
34127
34119
34110
34109
34092
34055
34053
34084
34082
34077
34018
34008
33971
33847
33789
33995
33999
33983
33970
33971
33957
33940
33935
33904
33903
33940
33923
33901
33882
33812
33766
33700
33703
33669
33847
33819
33828
33813
33807
33793
33764
33765
33772
33781
33760
33743
33693
33660
33557
33496
33694
33691
33682
33674
33639
33684
33638
33551
33447
33615
33617
33583
33606
33562
33470
33367
33569
33555
33551
33527
33540
33399
33511
33486
33463
33327
33469
33462
33463
33445
33423
33439
33396
33335
33215
33395
33388
33387
33363
33334
33381
33359
33335
33287
33191
33303
33287
33305
33265
33298
33254
33127
33053
33239
33239
33202
33215
33222
33188
33130
33021
33170
33167
33156
33146
33116
33151
33117
33079
32914
33110
33098
33071
33087
33063
32973
32847
33040
33031
32999
33011
32972
32902
32807
32975
32964
32943
32979
32938
32860
32748
32914
32901
32903
32887
32860
32889
32889
32863
32839
32775
32735
32663
32804
32807
32802
32799
32775
32758
32751
32767
32749
32711
32647
32597
32700
32700
32701
32695
32661
32676
32674
32631
32574
32633
32631
32622
32606
32595
32578
32567
32570
32551
32551
32535
32533
32508
32519
32549
32524
32510
32491
32479
32451
32391
32331
32258
32444
32435
32415
32414
32413
32392
32371
32372
32391
32369
32356
32317
32277
32255
32140
32310
32301
32284
32287
32258
32279
32263
32250
32222
32187
32127
32055
32197
32034
32033
32035
32175
32167
32166
32138
32135
32084
31994
32111
32104
32084
32087
32095
32083
32087
32060
32043
32003
31950
31862
32007
32007
32000
31978
31981
31993
31967
31852
31951
31939
31924
31925
31911
31880
31806
31726
31878
31868
31849
31863
31813
31718
31829
31811
31799
31820
31799
31764
31737
31687
31610
31738
31743
31739
31715
31718
31695
31717
31693
31669
31647
31653
31604
31558
31633
31628
31636
31620
31596
31583
31591
31599
31584
31576
31562
31559
31530
31510
31459
31430
31378
31493
31482
31480
31463
31461
31451
31452
31429
31405
31348
31269
31394
31399
31394
31383
31391
31301
31359
31334
31311
31220
31310
31319
31300
31317
31297
31255
31265
31271
31262
31239
31239
31239
31238
31227
31223
31211
31191
31174
31166
31151
31131
31111
31071
31008
30980
31111
31099
31090
31081
31079
31064
31070
31052
31056
31052
31021
31001
30982
30940
30867
30983
30979
30973
30981
30959
30905
30810
30933
30927
30922
30901
30796
30891
30881
30879
30867
30829
30765
30838
30837
30835
30807
30821
30807
30759
30693
30767
30776
30756
30754
30727
30644
30713
30705
30702
30695
30708
30686
30663
30636
30613
30576
30514
30629
30629
30625
30622
30589
30545
30471
30575
30567
30566
30490
30543
30541
30501
30517
30503
30515
30507
30455
30390
30466
30462
30460
30435
30431
30327
30417
30423
30347
30399
30389
30375
30311
30279
30363
30343
30335
30340
30319
30311
30309
30292
30282
30292
30287
30269
30242
30215
30171
30137
30220
30206
30204
30202
30186
30187
30186
30164
30143
30111
30080
30017
30118
30108
30103
30094
30087
30084
30082
30068
30032
30034
29996
29941
30023
30005
30007
29991
29980
29975
29982
29958
29954
29925
29932
29933
29919
29917
29903
29884
29871
29858
29830
29809
29783
29787
29751
29749
29806
29799
29796
29790
29780
29772
29766
29757
29751
29751
29727
29732
29719
29710
29703
29699
29689
29682
29668
29673
29668
29653
29636
29635
29605
29589
29591
29556
29434
29583
29556
29572
29557
29535
29541
29536
29524
29530
29519
29503
29485
29479
29471
29464
29431
29395
29359
29433
29417
29414
29403
29394
29391
29383
29375
29369
29367
29359
29348
29342
29334
29325
29326
29311
29294
29287
29286
29276
29261
29254
29243
29239
29212
29180
29220
29191
29191
29191
29199
29175
29164
29151
29133
29142
29139
29124
29125
29095
29105
29087
29093
29050
29043
29007
29055
29035
29031
29025
29019
29011
29005
28998
28953
28979
28973
28971
28958
28943
28926
28919
28907
28893
28874
28863
28838
28874
28868
28855
28772
28804
28839
28828
28822
28804
28801
28798
28780
28778
28767
28765
28754
28749
28743
28734
28711
28695
28706
28692
28676
28677
28668
28658
28650
28643
28631
28623
28624
28618
28615
28605
28587
28582
28565
28565
28551
28547
28527
28532
28511
28511
28491
28483
28482
28471
28463
28459
28454
28446
28433
28423
28420
28414
28404
28405
28383
28383
28367
28362
28349
28328
28279
28315
28309
28303
28292
28281
28287
28279
28268
28260
28246
28243
28244
28231
28211
28202
28199
28194
28165
28150
28132
28148
28137
28133
28126
28123
28119
28101
28093
28084
28069
28055
28044
28036
28036
28026
28015
28007
28011
28004
27976
27975
27971
27962
27961
27949
27940
27925
27921
27889
27889
27884
27883
27865
27868
27847
27847
27754
27828
27821
27816
27799
27805
27796
27780
27777
27759
27727
27743
27735
27719
27715
27719
27703
27703
27687
27679
27679
27663
27635
27630
27636
27619
27623
27605
27591
27594
27592
27578
27586
27567
27559
27543
27549
27530
27519
27508
27519
27495
27493
27484
27474
27466
27458
27467
27439
27450
27408
27398
27399
27386
27381
27372
27367
27363
27355
27338
27346
27342
27325
27323
27313
27291
27309
27295
27287
27282
27247
27239
27225
27220
27222
27207
27207
27199
27186
27181
27177
27179
27164
27164
27160
27154
27143
27135
27124
27071
27039
27079
27071
27076
27063
27044
27039
27041
27034
27033
27012
27007
27004
26997
26983
26983
26978
26958
26950
26949
26941
26943
26919
26920
26919
26903
26900
26901
26866
26869
26862
26876
26831
26833
26821
26823
26811
26806
26796
26790
26778
26775
26781
26779
26759
26780
26718
26726
26725
26711
26719
26743
26688
26672
26677
26669
26677
26690
26631
26628
26619
26623
26611
26604
26601
26599
26599
26597
26588
26596
26572
26579
26567
26527
26515
26495
26508
26503
26495
26485
26474
26474
26471
26449
26478
26487
26485
26476
26453
26403
26406
26396
26398
26398
26428
26353
26354
26348
26347
26345
26335
26348
26366
26297
26303
26295
26314
26318
26264
26263
26260
26247
26241
26247
26246
26247
26249
26116
26198
26190
26183
26182
26177
26175
26180
26179
26196
26140
26119
26116
26107
26109
26101
26091
26086
26084
26077
26086
26107
26090
26031
26028
26024
26021
26007
26011
26010
25999
26011
26022
25966
25956
25959
25951
25951
25956
25957
25975
25903
25895
25895
25893
25880
25869
25879
25855
25863
25839
25837
25832
25831
25831
25821
25820
25803
25799
25797
25823
25847
25754
25757
25756
25743
25748
25747
25748
25742
25740
25738
25735
25763
25573
25664
25671
25660
25671
25655
25663
25635
25639
25644
25642
25651
25671
25597
25619
25574
25575
25571
25562
25569
25561
25562
25548
25535
25530
25530
25524
25518
25517
25530
25561
25469
25483
25485
25466
25463
25455
25466
25452
25492
25415
25415
25411
25400
25398
25399
25399
25383
25377
25373
25369
25391
25429
25325
25325
25317
25327
25322
25319
25307
25303
25308
25317
25298
25339
25252
25263
25247
25251
25241
25234
25239
25231
25213
25213
25196
25228
25263
25183
25172
25171
25167
25159
25155
25146
25150
25164
25205
25120
25095
25109
25105
25090
25094
25095
25137
25059
25072
25063
25047
25050
25065
25024
25039
25031
25066
25001
25006
24999
25062
24980
24987
24996
24957
24963
24999
24948
24946
25027
24926
24930
25007
24917
24916
24991
24898
24903
24933
24871
24878
24879
24946
24853
24847
24858
24829
24831
24826
24839
24807
24806
24807
24815
24890
24783
24774
24759
24835
24759
24766
24753
24839
24736
24727
24741
24715
24711
24718
24690
24706
24695
24777
24683
24677
24686
24661
24679
24660
24739
24636
24636
24687
24607
24618
24626
24593
24602
24599
24599
24564
24572
24561
24604
24543
24552
24558
24620
24528
24524
24598
24504
24503
24543
24487
24493
24497
24463
24471
24461
24507
24453
24444
24442
24499
24422
24423
24505
24407
24401
24429
24384
24391
24390
24483
24372
24364
24399
24332
24347
24343
24326
24327
24316
24390
24299
24308
24316
24279
24298
24284
24390
24270
24261
24295
24228
24244
24244
24227
24231
24223
24225
24338
24195
24202
24202
24294
24177
24189
24183
24283
24153
24155
24170
24132
24137
24151
24103
24117
24159
24097
24111
24132
24078
24083
24145
24068
24076
24044
24062
24103
24039
24037
24094
24031
24015
24101
24010
24015
23989
24007
23998
23980
23980
23980
23952
23974
23975
23943
23954
23943
23934
23939
23925
23989
23903
23922
23910
23879
23898
23889
24017
23871
23869
23909
23849
23860
23887
23831
23839
23956
23833
23823
23922
23812
23809
23871
23783
23788
23814
23751
23766
23775
23747
23764
23751
23870
23743
23728
23764
23712
23730
23720
23687
23691
23692
23750
23677
23685
23723
23663
23666
23663
23744
23641
23652
23663
23616
23635
23626
23600
23623
23607
23732
23597
23591
23667
23559
23587
23574
23699
23551
23556
23628
23535
23544
23541
23612
23503
23524
23502
23569
23484
23492
23527
23463
23473
23467
23499
23441
23459
23441
23444
23519
23423
23435
23415
23453
23391
23395
23391
23399
23515
23374
23364
23371
23385
23495
23353
23355
23351
23444
23310
23337
23322
23300
23310
23296
23384
23277
23283
23303
23259
23255
23268
23264
23346
23237
23243
23238
23238
23366
23213
23207
23214
23201
23188
23189
23238
23156
23174
23164
23279
23141
23151
23151
23204
23127
23135
23129
23228
23102
23115
23091
23151
23070
23079
23070
23065
23103
23043
23047
23052
23036
23043
23111
23008
23007
23013
23007
23044
22975
22967
22981
22977
23075
22967
22967
22955
22952
23061
22927
22940
22932
23036
22919
22919
22919
22990
22879
22901
22887
22919
22867
22884
22862
22892
22833
22855
22852
22874
22820
22831
22820
22919
22815
22825
22798
22914
22791
22791
22765
22783
22766
22842
22753
22764
22748
22793
22727
22738
22730
22727
22639
22719
22715
22732
22693
22705
22700
22775
22669
22687
22676
22786
22654
22663
22646
22710
22628
22650
22631
22661
22613
22618
22622
22652
22595
22615
22606
22661
22575
22577
22582
22576
22724
22559
22558
22567
22645
22535
22550
22535
22662
22511
22535
22534
22663
22503
22511
22526
22473
22500
22479
22597
22469
22471
22477
22454
22463
22458
22451
22580
22423
22443
22430
22456
22415
22426
22425
22470
22399
22399
22396
22397
22372
22383
22372
22463
22361
22378
22363
22515
22343
22366
22354
22507
22340
22330
22308
22337
22327
22443
22311
22367
22305
22294
22332
22300
22374
22294
22294
22260
22278
22279
22431
22245
22250
22293
22231
22254
22236
22330
22224
22238
22250
22206
22200
22212
22205
22204
22188
22194
22211
22279
22166
22163
22177
22177
22179
22164
22161
22156
22172
22191
22247
22134
22119
22127
22135
22140
22133
22119
22115
22120
22104
22101
22095
22109
22186
22069
22071
22263
22071
22060
22054
22053
22054
22071
22059
22050
22047
22043
22062
22073
22205
22011
22007
22013
22022
22023
22001
22005
21996
21992
21998
21994
21990
21980
21973
22005
22078
21966
21955
21958
21968
21948
21951
21967
22045
21936
21943
21951
21927
21935
21935
21997
22079
21900
21909
21897
21922
21923
21910
21917
21898
21891
21892
21895
21928
22020
21965
21985
22038
22069
22055
21842
21838
21831
21836
21830
21827
21823
21821
21830
21855
21826
21830
21849
21883
21799
21812
21796
21794
21799
21819
21803
21788
21787
21798
21799
21819
21875
21974
21975
21753
21759
21749
21751
21751
21740
21735
21743
21739
21742
21746
21746
21746
21740
21732
21719
21731
21748
21751
21772
21871
21918
21693
21694
21703
21703
21692
21685
21685
21681
21738
21818
21819
21655
21664
21677
21681
21654
21649
21657
21658
21652
21653
21644
21639
21638
21639
21647
21662
21652
21634
21646
21665
21680
21727
21727
21696
21631
21687
21706
21720
21668
21679
21679
21758
21814
21581
21570
21571
21574
21578
21561
21564
21546
21552
21559
21567
21563
21554
21553
21563
21556
21553
21548
21554
21551
21533
21525
21527
21521
21519
21519
21518
21511
21516
21511
21495
21495
21491
21492
21716
21723
21712
21671
21639
21612
21572
21583
21695
21461
21455
21460
21460
21455
21458
21459
21452
21445
21453
21443
21448
21447
21444
21440
21442
21433
21423
21428
21422
21420
21418
21414
21422
21413
21415
21415
21409
21407
21403
21404
21390
21390
21402
21393
21386
21384
21391
21391
21387
21383
21393
21392
21380
21371
21367
21367
21361
21362
21359
21359
21289
21351
21351
21349
21346
21341
21355
21361
21344
21339
21356
21460
21349
21315
21319
21340
21325
21316
21334
21438
21301
21297
21305
21311
21325
21325
21295
21299
21351
21479
21284
21285
21291
21297
21280
21278
21345
21323
21263
21276
21289
21264
21267
21284
21341
21463
21235
21240
21241
21241
21252
21258
21251
21239
21231
21265
21388
21215
21222
21229
21234
21239
21215
21223
21242
21386
21205
21204
21223
21223
21200
21207
21214
21271
21370
21182
21189
21195
21201
21185
21199
21371
21174
21180
21186
21196
21170
21172
21255
21357
21158
21153
21170
21155
21165
21167
21164
21171
21169
21161
21159
21152
21153
21148
21155
21149
21161
21189
21278
21352
21314
21126
21118
21135
21146
21150
21127
21127
21123
21121
21143
21196
21275
21096
21095
21093
21095
21094
21108
21119
21103
21116
21135
21131
21125
21151
21148
21192
21173
21249
21306
21281
21071
21065
21076
21071
21077
21093
21066
21067
21064
21078
21093
21123
21180
21245
21053
21053
21058
21058
21060
21068
21053
21039
21044
21163
21272
21033
21028
21038
21053
21055
21039
21030
21031
21037
21047
21076
21195
21002
21015
21014
21011
21007
21022
21011
21013
21007
21022
21015
21012
21006
21013
21010
20999
21038
21071
21100
21134
21137
21153
21148
20976
20967
20973
20967
20977
20977
20962
20964
20964
20970
20974
20983
20966
20967
20967
20967
20959
20964
21020
21121
21163
20933
20934
20951
20954
20971
20956
20955
20943
20945
20943
20938
20935
20925
20927
20918
20925
20966
21067
20903
20906
20919
20930
20915
20908
20900
20900
20910
20928
20964
20995
21047
21095
20879
20886
20880
20889
20901
20892
20878
20868
20881
20884
20869
20884
20871
20899
20910
20911
20906
20905
20973
21079
20839
20846
20845
20843
20836
20847
20831
20839
20851
20845
20846
20851
20846
20844
20847
20858
20839
20845
20844
20839
20828
20832
20857
20937
21029
20814
20807
20807
20811
20806
20800
20803
20796
20802
20811
20812
20810
20810
20855
20975
20799
20783
20786
20785
20783
20777
20786
20783
20791
20812
20790
20791
20799
20812
20805
20798
20787
20778
20790
20830
20903
20966
20773
20777
20791
20785
20783
20779
20771
20772
20775
20787
20853
20936
20758
20746
20747
20751
20771
20771
20781
20788
20774
20765
20769
20773
20796
20799
20838
20945
20750
20748
20754
20773
20780
20765
20769
20787
20883
20964
20743
20750
20743
20746
20751
20751
20757
20760
20764
20771
20751
20758
20765
20794
20851
20852
20861
20918
20896
20931
20940
20957
20951
20950
20858
20873
20828
20820
20820
20778
20791
20803
20895
20910
20966
20736
20742
20732
20743
20742
20743
20749
20755
20765
20767
20747
20751
20743
20753
20750
20746
20755
20747
20751
20746
20757
20751
20752
20743
20756
20753
20754
20753
20756
20753
20760
20784
20853
20743
20742
20748
20735
20761
20765
20761
20751
20767
20776
20807
20807
20826
20885
20895
20752
20743
20742
20755
20750
20768
20773
20775
20773
20772
20765
20755
20758
20778
20809
20935
20750
20751
20757
20757
20775
20779
20781
20770
20765
20773
20789
20931
20764
20766
20763
20756
20764
20754
20766
20757
20775
20759
20777
20779
20772
20763
20767
20767
20764
20775
20777
20774
20792
20788
20799
20790
20779
20781
20810
20789
20807
20807
20806
20812
20800
20796
20807
20788
20801
20801
20805
20805
20802
20794
20807
20815
20815
20807
20810
20817
20850
20854
20971
21012
20786
20798
20802
20810
20813
20814
20828
20839
20839
20834
20839
20820
20827
20826
20831
20839
20841
20852
20840
20860
20858
20880
20871
20847
20886
20895
20893
20986
20961
20968
20928
20999
20993
20935
20964
21043
20849
20836
20846
20857
20855
20870
20870
20878
20874
20884
20880
20877
20870
20879
20875
20873
20877
20885
20896
20897
20919
21035
20879
20883
20887
20903
20909
20899
20899
20896
20908
20906
20911
20948
20980
21085
21123
20903
20895
20887
20910
20926
20928
20939
20921
20931
20924
20924
20943
20945
20972
21025
21119
21127
21146
21124
20932
20932
20927
20939
20945
20950
20961
20967
20955
20972
21071
21178
21112
21005
20892
20956
20954
20958
20972
20968
20971
20981
20991
20996
20988
21015
20986
20986
20991
20991
20989
20987
21010
21013
21017
21012
21024
21004
21023
21029
21094
21151
21214
20999
21009
21012
21023
21031
21025
21034
21033
21114
21215
21238
21244
21028
21026
21028
21033
21037
21024
21041
21050
21041
21053
21043
21055
21059
21063
21074
21067
21069
21073
21078
21063
21071
21074
21071
21079
21095
21117
21105
21103
21095
21101
21107
21177
21279
21295
21324
21314
21318
21303
21105
21119
21118
21127
21131
21139
21148
21149
21154
21141
21132
21139
21160
21159
21152
21155
21148
21157
21175
21160
21204
21189
21311
21163
21154
21158
21165
21170
21165
21167
21159
21171
21194
