EGG
27311
27549
27441
27015
27551
27560
27404
27463
27545
27539
27543
27474
27399
27543
27491
27420
27526
26999
27554
27532
27324
27554
27534
27197
27524
27399
27540
27415
27531
27460
27056
27518
27447
27060
27491
27394
27409
27505
27501
27283
27511
27383
27528
27452
27429
27523
27438
27430
27510
27516
27413
27522
27492
27167
27492
27447
27224
27527
27511
27095
27493
27357
27511
27470
27397
27497
27497
27435
27451
27466
26950
27452
27351
27486
27305
27507
27463
26966
27436
27333
27486
27303
27493
27436
27028
27458
27412
27485
26987
27405
27482
27337
27476
27399
27399
27477
27139
27433
27333
27474
26953
27447
27314
27458
27382
27339
27463
27364
27470
27430
27191
27456
27371
27452
27413
27300
27450
27370
27309
27447
27373
27394
27441
27103
27429
27412
26895
27383
27357
27436
27409
27285
27429
27345
27421
27422
27225
27436
27426
27319
27344
27414
27260
27431
27419
26948
27399
27380
26877
27379
27301
27413
27187
27396
27407
26922
27351
27266
26862
27388
27373
26932
27351
27271
27397
26860
27293
27386
27359
27372
27198
27380
27239
27374
26865
27303
27308
27357
27367
27236
27367
27350
27006
27286
27356
27354
26975
27335
27218
27346
26852
27237
27356
27310
26964
27345
27346
27059
27334
27327
27024
27321
27217
27317
27228
27262
27321
26900
27294
27180
27312
27116
27314
27295
26817
27285
27284
26909
27301
27275
26886
27294
27301
27132
27228
27285
27214
27255
27285
27097
27279
27263
27047
27255
27263
27207
27151
26769
27260
27252
27143
27130
27257
27173
27127
27255
27182
27116
27236
27163
27116
27237
27031
27197
27219
27143
27174
27222
26730
27181
27131
27202
27015
27209
27213
27079
27196
27190
27170
27119
26711
27153
27078
27187
26935
27181
27156
26773
27179
27166
26807
27174
27059
26828
27113
27056
27167
27061
27095
27165
27034
27100
27150
26882
27143
27151
26703
27119
27047
27127
27114
26663
26708
26942
27067
27006
27122
27047
27008
27102
26930
27092
27013
27092
27012
27103
27079
26911
27071
27082
26986
27007
27062
26987
27067
27060
26917
27074
27058
26757
27052
27041
26852
27045
27031
26860
27042
27015
26890
27037
27012
26892
27027
27009
26855
27012
26986
26996
26915
26948
26998
26741
26959
26913
26981
26812
26983
26983
26689
26975
26969
26588
26943
26887
26969
26877
26894
26955
26823
26970
26943
26621
26945
26919
26515
26908
26871
26945
26767
26874
26938
26759
26913
26924
26731
26922
26903
26667
26907
26902
26774
26871
26887
26819
26822
26888
26791
26895
26880
26741
26802
26516
26860
26861
26708
26828
26863
26448
26831
26765
26844
26767
26759
26445
26817
26774
26835
26805
26800
26629
26823
26813
26746
26736
26822
26730
26740
26801
26731
26732
26503
26806
26788
26592
26783
26783
26628
26788
26766
26662
26741
26775
26660
26761
26756
26514
26751
26742
26383
26725
26668
26734
26491
26732
26727
26727
26732
26518
26565
26625
26599
26620
26631
26694
26654
26316
26670
26657
26685
26654
26668
26682
26606
26597
26664
26567
26586
26642
26604
26574
26659
26529
26641
26631
26247
26556
26599
26620
26286
26559
26573
26601
26601
26439
26577
26545
26593
26261
26549
26532
26573
26427
26574
26553
26184
26548
26495
26556
26461
26540
26548
26420
26495
26525
26443
26453
26517
26463
26473
26185
26492
26502
26361
26467
26165
26446
26420
26471
26375
26471
26460
26348
26453
26449
26106
26410
26398
26420
26280
26429
26401
26156
26349
26394
26102
26390
26382
26209
26307
26385
26375
26369
26247
26370
26331
26357
26226
26359
26338
26201
26339
26290
26041
26300
26303
26306
26303
26187
26303
26286
26143
26286
26268
25937
26175
26273
26255
26074
26253
26242
26054
26234
26236
26208
26218
25988
26215
26215
25900
26111
26175
26167
26170
26186
26006
26177
26174
25860
26119
26119
26138
25997
26136
26109
26132
25927
26095
26079
26103
25813
26032
26060
26095
25967
26079
26054
26057
26006
26048
25764
26028
26025
25748
26039
26027
25782
26015
25985
25988
26000
25990
25991
25988
25742
25982
25989
25813
25986
25971
25678
25953
25936
25695
25940
25935
25935
25878
25920
25939
25717
25905
25902
25908
25667
25852
25887
25906
25682
25858
25871
25884
25839
25852
25863
25684
25852
25854
25859
25759
25849
25817
25840
25663
25829
25826
25817
25667
25820
25809
25556
25798
25799
25583
25772
25795
25537
25737
25759
25772
25721
25735
25763
25671
25754
25748
25507
25734
25739
25508
25706
25727
25473
25687
25697
25499
25713
25702
25524
25710
25695
25510
25713
25689
25591
25679
25685
25575
25663
25669
25543
25655
25661
25570
25636
25651
25630
25631
25511
25634
25631
25607
25617
25415
25626
25623
25501
25590
25607
25580
25614
25452
25607
25599
25495
25572
25585
25537
25572
25375
25574
25570
25335
25539
25559
25353
25561
25551
25455
25553
25536
25512
25540
25424
25538
25540
25467
25521
25531
25463
25510
25317
25527
25525
25462
25495
25303
25487
25492
25330
25471
25479
25493
25454
25487
25290
25483
25479
25395
25479
25465
25401
25454
25468
25345
25470
25459
25322
25460
25460
25316
25450
25443
25317
25447
25436
25359
25423
25439
25362
25407
25421
25356
25413
25414
25415
25413
25257
25416
25407
25366
25397
25407
25367
25396
25399
25367
25391
25237
25399
25403
25335
25372
25379
25357
25370
25375
25347
25364
25371
25302
25377
25371
25261
25371
25366
25273
25367
25356
25258
25356
25351
25335
25351
25255
25345
25350
25325
25340
25287
25335
25223
25327
25333
25314
25324
25167
25339
25334
25255
25322
25319
25273
25318
25322
25332
25320
25165
25293
25302
25309
25306
25301
25317
25295
25301
25311
25255
25309
25316
25292
25287
25311
25284
25294
25148
25308
25292
25287
25282
25292
25257
25277
25295
25274
25283
25168
25284
25284
25204
25286
25273
25245
25285
25279
25207
25278
25282
25282
25273
25270
25271
25236
25274
25271
25266
25269
25218
25263
25266
25246
25262
25167
25276
25272
25271
25273
25250
25255
25223
25255
25155
25263
25266
25249
25263
25132
25263
25266
25135
25258
25258
25148
25270
25267
25163
25265
25260
25210
25273
25263
25196
25267
25255
25176
25262
25265
25201
25268
25263
25223
25253
25261
25232
25252
25265
25223
25254
25251
25257
25255
25231
25251
25259
25239
25249
25260
25243
25255
25263
25268
25255
25226
25260
25171
25261
25263
25187
25269
25259
25260
25266
25255
25240
25255
25270
25239
25260
25266
25228
25263
25263
25194
25275
25259
25219
25263
25252
25254
25269
25172
25268
25271
25264
25252
25262
25270
25264
25271
25225
25263
25148
25280
25257
25250
25268
25276
25274
25276
25209
25278
25279
25274
25268
25277
25274
25247
25271
25286
25271
25281
25280
25289
25287
25274
25286
25276
25289
25291
25287
25295
25284
25287
25298
25283
25289
25295
25294
25289
25290
25294
25285
25293
25295
25301
25300
25285
25313
25304
25311
25295
25302
25305
25303
25314
25308
25316
25285
25321
25319
25297
25319
25285
25319
25313
25328
25319
25303
25329
25335
25319
25332
25322
25335
25332
25319
25332
25339
25327
25334
25342
25283
25343
25348
25335
25351
25338
25334
25360
25344
25349
25348
25344
25351
25372
25358
25366
25364
25354
25372
25359
25330
25369
25372
25369
25373
25371
25375
25372
25382
25375
25371
25396
25386
25380
25369
25399
25381
25372
25387
25379
25409
25388
25382
25416
25384
25397
25383
25420
25400
25394
25393
25414
25410
25395
25413
25409
25401
25426
25404
25399
25429
25425
25397
25422
25420
25419
25435
25419
25408
25436
25429
25443
25438
25435
25428
25495
25438
25433
25437
25481
25455
25451
25439
25465
25465
25455
25477
25458
25457
25506
25467
25468
25492
25478
25479
25476
25495
25486
25518
25495
25487
25525
25492
25494
25521
25510
25501
25556
25513
25522
25505
25557
25532
25527
25601
25532
25527
25573
25538
25542
25524
25554
25540
25543
25563
25555
25557
25607
25561
25558
25640
25571
25573
25649
25581
25583
25643
25589
25596
25681
25599
25595
25581
25607
25597
25589
25620
25607
25595
25638
25618
25620
25606
25700
25621
25637
25723
25626
25636
25632
25650
25633
25641
25661
25641
25642
25748
25658
25658
25645
25686
25672
25661
25788
25675
25684
25659
25709
25685
25673
25771
25692
25684
25763
25697
25692
25695
25799
25703
25722
25692
25759
25714
25711
25782
25722
25727
25716
25743
25724
25735
25826
25738
25730
25818
25748
25757
25677
25793
25748
25761
25753
25739
25743
25818
25795
25782
25780
25756
25844
25799
25780
25775
25771
25831
25789
25783
25850
25789
25783
25858
25799
25796
25881
25821
25814
25799
25828
25819
25943
25815
25810
25884
25821
25822
25932
25808
25812
25919
25831
25826
25903
25835
25831
25827
25844
25844
25831
25873
25842
25837
25948
25863
25851
25850
25863
25990
25855
25848
25895
25870
25851
25871
25868
26005
25868
25866
25992
25879
25871
26022
25879
25887
25969
25896
25887
25863
25890
25889
25879
25900
25901
25880
25990
25893
25903
25877
25915
25919
25895
25915
25900
25890
25908
25905
25897
26063
25910
25903
26071
25908
25908
25998
25911
25906
26060
25924
25927
25911
26091
25938
25924
25915
25983
25914
25937
26079
25931
25940
25921
25973
25937
25933
26118
25970
25949
25945
25937
25986
25946
25943
26109
25961
25946
25940
25967
25965
25959
25983
25968
25959
26156
25992
25973
25981
25951
26081
25983
25991
25983
26164
25980
25997
25976
26075
25996
26003
25975
26056
25996
25991
26151
26005
26012
25996
26177
26044
26012
26012
26004
26054
26023
26023
26015
26079
26023
26026
26181
26039
26044
26247
26045
26045
26228
26050
26042
26119
26071
26044
26076
26073
26059
26095
26079
26054
26052
26083
26084
26062
26117
26087
26097
26077
26103
26103
26079
26106
26117
26306
26109
26111
26173
26119
26103
26126
26119
26239
26135
26131
26222
26136
26126
26301
26148
26140
26346
26163
26151
26283
26159
26167
26383
26173
26166
26279
26175
26168
26287
26183
26199
26394
26201
26196
26301
26209
26203
26231
26222
26393
26218
26213
26282
26244
26226
26252
26239
26234
26244
26242
26332
26247
26247
26475
26279
26285
26267
26289
26300
26266
26307
26293
26492
26303
26302
26495
26309
26297
26339
26329
26323
26332
26343
26508
26339
26324
26369
26357
26551
26349
26363
26345
26367
26388
26358
26403
26393
26371
26487
26386
26389
26566
26423
26420
26405
26449
26425
26404
26434
26449
26428
26462
26454
26443
26531
26455
26463
26461
26522
26464
26495
26462
26471
26542
26495
26498
26495
26716
26522
26517
26503
26674
26534
26527
26523
26629
26535
26529
26657
26545
26561
26676
26567
26575
26554
26631
26583
26577
26724
26589
26597
26804
26612
26613
26824
26618
26624
26615
26671
26645
26631
26706
26643
26640
26838
26665
26664
26724
26677
26668
26767
26683
26691
26762
26695
26691
26774
26733
26707
26803
26724
26726
26918
26751
26755
26926
26757
26783
26751
26801
26791
26978
26787
26805
26965
26790
26797
26964
26813
26825
26803
26903
26819
26843
26820
26964
26853
26855
26983
26889
26879
26858
26909
26890
26878
26935
26897
26887
27005
26932
26927
26913
26985
26926
26935
27110
26951
26959
26943
27022
26964
26975
26958
26983
26996
27105
26999
27007
26994
27028
27023
27008
27047
27030
27034
27019
27079
27049
27044
27198
27064
27073
27119
27093
27092
27076
27173
27092
27089
27087
27173
27105
27117
27121
27319
27174
27135
27150
27348
27194
27159
27169
27161
27255
27180
27188
27182
27297
27188
27213
27193
27302
27231
27229
27231
27215
27306
27244
27268
27246
27366
27263
27279
27268
27391
27277
27279
27276
27457
27431
27390
27382
27327
27327
27313
27478
27341
27356
27514
27356
27356
27439
27378
27372
27380
27375
27398
27390
27431
27415
27539
27429
27572
27437
27414
27446
27431
27437
27549
27457
27437
27469
27559
27479
27475
27484
27487
27599
27506
27517
27505
27688
27541
27524
27679
27557
27551
27545
27696
27634
27574
27567
27573
27567
27588
27593
27577
27767
27647
27642
27679
27779
27622
27805
27702
27641
27642
27655
27648
27632
27801
27714
27679
27677
27693
27678
27670
27732
27703
27719
27709
27698
27799
27746
27726
27741
27758
27737
27743
27745
27922
27818
27789
27770
27793
27799
27791
27802
27799
27805
27806
27901
27845
27827
27831
27849
27830
27833
27951
27895
27877
27879
27866
27878
27885
27884
27878
27885
27884
28055
28025
27978
27951
27967
27957
27967
27944
27943
27964
27973
27965
27955
27965
28127
28069
28027
28010
28017
28006
28015
28003
28034
28029
28030
28035
28022
28049
28046
28052
28064
28071
28061
28067
28070
28065
28231
28214
28180
28157
28124
28112
28116
28131
28119
28108
28117
28122
28124
28271
28273
28219
28185
28167
28167
28164
28177
28186
28197
28191
28194
28195
28192
28199
28357
28271
28239
28226
28226
28239
28244
28239
28247
28253
28267
28263
28267
28270
28273
28276
28439
28353
28335
28322
28301
28313
28319
28335
28343
28329
28338
28335
28479
28407
28407
28377
28364
28377
28375
28367
28373
28383
28519
28441
28407
28423
28461
28540
28416
28420
28441
28430
28568
28491
28463
28465
28481
28485
28472
28464
28575
28511
28498
28509
28507
28511
28510
28655
28583
28543
28543
28546
28546
28549
28551
28631
28679
28653
28596
28589
28578
28591
28600
28604
28591
28605
28711
28646
28619
28639
28625
28624
28775
28705
28660
28656
28660
28758
28674
28666
28679
28673
28679
28810
28750
28701
28695
28707
28700
28715
28833
28798
28749
28737
28743
28750
28757
28744
28751
28757
28889
28879
28901
28894
28873
28836
28849
28839
28807
28809
28802
28815
28821
28820
28826
28827
28835
28838
28852
28844
28856
28855
28853
28857
28855
28859
28999
28944
28903
28884
28881
28898
28903
28892
28887
29025
28961
28938
28919
28911
28927
28934
28918
28923
29055
28975
28956
28967
28965
28957
28966
28949
28967
29074
29047
28997
28982
28983
28988
28999
29006
28997
29003
28998
29120
29095
29047
29039
29035
29025
29028
29035
29027
29033
29047
29044
29039
29043
29045
29041
29174
29119
29087
29071
29078
29084
29071
29076
29076
29063
29202
29158
29130
29096
29095
29089
29110
29109
29087
29100
29103
29223
29163
29151
29139
29116
29127
29132
29129
29123
29258
29201
29159
29156
29153
29146
29148
29145
29151
29143
29146
29281
29242
29203
29191
29166
29170
29159
29167
29162
29156
29300
29235
29191
29168
29187
29179
29161
29325
29245
29199
29191
29191
29199
29191
29191
29319
29276
29239
29215
29204
29207
29220
29221
29207
29210
29213
29332
29269
29251
29227
29223
29239
29227
29225
29222
29230
29357
29277
29245
29241
29254
29242
29271
29258
29262
29263
29252
29247
29245
29356
29311
29271
29260
29284
29271
29263
29265
29410
29319
29301
29291
29285
29289
29282
29271
29387
29358
29337
29356
29341
29319
29313
29301
29306
29301
29372
29365
29319
29315
29319
29316
29310
29439
29356
29327
29325
29331
29316
29319
29458
29351
29329
29341
29318
29329
29389
29363
29359
29346
29479
29387
29359
29365
29351
29351
29436
29370
29364
29364
29367
29371
29362
29415
29378
29379
29370
29364
29503
29410
29399
29396
29388
29379
29386
29483
29409
29391
29398
29397
29525
29429
29405
29406
29407
29514
29455
29415
29420
29418
29421
29415
29413
29532
29498
29467
29436
29444
29446
29431
29439
29443
29446
29438
29439
29606
29579
29498
29470
29468
29479
29467
29473
29474
29479
29479
29468
29473
29628
29542
29505
29487
29487
29481
29479
29569
29510
29508
29512
29508
29489
29500
29494
29647
29599
29578
29565
29543
29513
29529
29531
29529
29526
29524
29529
29677
29634
29578
29566
29551
29549
29550
29556
29566
29551
29559
29566
29561
29550
29567
29565
29713
29643
29591
29575
29575
29589
29584
29588
29589
29583
29735
29661
29610
29593
29601
29615
29601
29607
29599
29603
29695
29646
29623
29631
29612
29608
29753
29667
29629
29637
29639
29636
29751
29664
29645
29647
29652
29775
29696
29656
29664
29644
29655
29658
29735
29679
29662
29671
29665
29770
29703
29671
29693
29675
29683
29676
29805
29743
29710
29695
29703
29715
29699
29823
29770
29727
29721
29718
29716
29759
29726
29717
29741
29731
29856
29734
29735
29849
29742
29724
29779
29755
29743
29780
29765
29748
29799
29770
29763
29869
29770
29772
29757
29801
29775
29772
29767
29831
29788
29787
29775
29870
29799
29805
29786
29857
29805
29804
29796
29874
29812
29820
29813
29907
29831
29818
29957
29850
29839
29951
29839
29847
29939
29868
29852
29840
29919
29845
29863
29975
29871
29863
29866
29870
29868
29991
29894
29866
29874
29914
29890
29868
29895
29878
29976
29903
29900
29891
29967
29911
29903
30032
29926
29918
29907
30021
29924
29924
29906
29934
29934
30045
29943
29929
30020
29939
29927
29973
29951
29938
30060
29965
29967
29951
30042
29959
29957
30004
29970
29967
30007
29974
30091
29991
29985
30101
29984
29983
30006
29999
30098
29991
29992
30052
30004
29998
30044
30013
30002
30015
30004
30041
30031
29924
30042
30023
30127
30038
30022
30084
30042
30124
30047
30043
30033
30052
30054
30141
30055
30057
30168
30076
30063
30122
30069
30065
30095
30079
30065
30110
30082
30068
30099
30090
30183
30097
30087
30122
30109
30087
30105
30090
30174
30101
30110
30180
30106
30111
30180
30121
30110
30164
30119
30230
30135
30119
30155
30139
30131
30150
30132
30167
30150
30135
30172
30146
30228
30147
30151
30180
30159
30266
30159
30157
30238
30175
30245
30174
30155
30200
30175
30270
30189
30174
30270
30188
30185
30301
30199
30196
30284
30199
30188
30260
30204
30201
30249
30222
30215
30230
30226
30180
30239
30236
30313
30239
30225
30228
30260
30231
30231
30303
30247
30239
30307
30250
30244
30292
30255
30375
30264
30263
30326
30263
30262
30274
30261
30283
30270
30319
30277
30350
30279
30271
30315
30294
30285
30300
30284
30350
30298
30298
30304
30295
30391
30313
30308
30412
30319
30317
30302
30335
30314
30428
30318
30310
30340
30321
30381
30321
30316
30346
30329
30379
30334
30430
30331
30314
30372
30339
30321
30347
30335
30350
30335
30393
30341
30333
30343
30338
30421
30350
30340
30405
30353
30356
30380
30353
30354
30388
30356
30359
30367
30359
30490
30387
30375
30364
30388
30375
30359
30471
30425
30390
30378
30393
30388
30383
30391
30494
30455
30406
30399
30506
30442
30407
30395
30486
30415
30399
30432
30407
30519
30427
30421
30465
30431
30414
30449
30433
30425
30479
30428
30425
30440
30438
30439
30447
30452
30555
30453
30444
30545
30460
30453
30532
30455
30455
30503
30461
30447
30471
30466
30557
30478
30471
30581
30471
30481
30468
30486
30476
30574
30485
30471
30521
30485
30479
30546
30482
30490
30525
30497
30487
30542
30507
30497
30531
30507
30495
30517
30502
30592
30509
30498
30572
30503
30506
30540
30516
30476
30530
30509
30576
30511
30503
30532
30517
30597
30517
30509
30612
30527
30534
30628
30527
30516
30570
30521
30528
30567
30541
30644
30535
30528
30599
30530
30527
30571
30531
30639
30548
30525
30607
30537
30532
30599
30532
30528
30615
30540
30535
30655
30554
30546
30625
30555
30549
30536
30553
30535
30615
30538
30542
30615
30543
30549
30615
30556
30542
30607
30553
30542
30649
30555
30548
30637
30552
30543
30615
30545
30540
30572
30555
30503
30558
30544
30647
30534
30541
30628
30548
30543
30599
30539
30533
30587
30535
30543
30639
30562
30543
30541
30543
30535
30599
30535
30522
30623
30551
30532
30604
30524
30527
30597
30522
30527
30611
30526
30529
30524
30554
30525
30501
30557
30516
30513
30528
30508
30567
30508
30500
30523
30519
30439
30518
30494
30567
30496
30501
30591
30498
30497
30559
30498
30487
30540
30481
30471
30511
30479
30471
30495
30470
30567
30484
30469
30565
30476
30470
30463
30479
30471
30538
30466
30465
30534
30460
30460
30439
30463
30447
30423
30458
30455
30433
30431
30504
30458
30437
30510
30425
30423
30463
30434
30541
30428
30422
30471
30418
30412
30439
30415
30533
30414
30404
30439
30421
30396
30423
30404
30471
30404
30506
30396
30387
30444
30394
30376
30450
30375
30383
30410
30382
30382
30372
30373
30463
30399
30366
30375
30363
30343
30427
30374
30352
30367
30356
30471
30359
30351
30371
30338
30406
30355
30421
30349
30334
30367
30348
30321
30354
30340
30317
30363
30334
30316
30339
30332
30439
30327
30311
30440
30327
30308
30391
30303
30300
30308
30300
30393
30300
30302
30379
30303
30303
30435
30303
30283
30335
30278
30277
30412
30309
30286
30273
30309
30279
30266
30313
30279
30260
30373
30276
30263
30255
30308
30262
30263
30319
30255
30255
30301
30250
30250
30379
30254
30251
30375
30255
30243
30215
30276
30235
30214
30304
30234
30215
30349
30228
30229
30215
30246
30226
30213
30340
30239
30212
30215
30202
30244
30225
30199
30249
30204
30205
30276
30197
30183
30283
30202
30195
30187
30243
30205
30180
30271
30184
30187
30319
30191
30196
30172
30215
30164
30178
30287
30176
30183
30157
30226
30168
30161
30271
30157
30156
30186
30166
30149
30211
30151
30149
30172
30151
30142
30204
30154
30127
30201
30146
30135
30161
30142
30291
30151
30140
30125
30146
30133
30215
30130
30125
30180
30135
30279
30126
30105
30159
30119
30105
30145
30125
30263
30118
30116
30092
30113
30109
30180
30114
30102
30174
30092
30097
30211
30097
30107
30212
30103
30102
30247
30100
30082
30127
30093
30083
30090
30086
30183
30095
30077
30157
30073
30071
30159
30069
30076
30181
30071
30063
30204
30068
30058
30078
30069
30059
30087
30060
30055
30133
30058
30061
30049
30069
30055
30044
30114
30054
30034
30166
30055
30055
30049
30104
30052
30058
30036
30031
30066
30048
30024
30119
30039
30035
30183
30043
30031
30023
30121
30045
30031
30031
30007
30076
30005
30014
30108
30018
30002
30158
30029
30007
30011
30165
30022
30014
29997
30021
30015
29983
30033
30012
30108
30004
30001
30141
30019
29999
30083
29990
29991
30069
29991
29985
30079
29991
29984
30134
29998
29972
30087
29991
29976
30125
29997
29985
29973
30007
29979
29966
30055
29973
29969
30093
29980
29982
30111
29969
29966
30046
29972
29975
30100
29975
29959
29947
29991
29969
29943
30025
29959
29949
29993
29959
29942
30074
29956
29936
30059
29950
29937
30071
29956
29932
30020
29938
29934
30073
29940
29924
30026
29930
29927
29975
29935
29919
29980
29926
29913
29951
29927
29994
29935
29911
29904
29937
29919
30050
29919
29900
29973
29919
29890
29919
29895
29995
29905
29901
29913
29898
29959
29911
30023
29935
29909
29895
29906
29886
29887
29982
29909
29895
29886
29927
29895
29877
29911
29882
29879
29899
29879
29992
29876
29867
29916
29884
30003
29875
29863
29956
29863
29863
29879
29863
29918
29871
29854
29864
29845
29927
29863
29850
29871
29847
29931
29863
29855
29871
29866
29970
29852
29839
29884
29852
29837
29874
29855
29959
29855
29844
29919
29845
29824
29924
29838
29836
29954
29837
29825
29854
29836
29954
29836
29823
29893
29831
29821
29857
29830
29925
29825
29823
29893
29824
29808
29852
29819
29884
29817
29806
29859
29819
29799
29828
29812
29909
29811
29804
29911
29813
29812
29798
29812
29799
29785
29828
29798
29783
29852
29785
29783
29806
29791
29909
29783
29770
29831
29779
29774
29783
29772
29898
29767
29759
29783
29771
29876
29763
29764
29867
29767
29751
29791
29757
29874
29758
29743
29841
29748
29741
29759
29746
29835
29763
29749
29842
29748
29734
29797
29741
29737
29774
29749
29861
29748
29743
29867
29751
29737
29817
29739
29729
29742
29729
29847
29739
29730
29746
29735
29791
29736
29835
29744
29732
29847
29746
29735
29713
29732
29730
29838
29733
29727
29787
29722
29721
29771
29735
29717
29743
29732
29786
29727
29727
29702
29804
29728
29716
29804
29716
29703
29764
29727
29695
29750
29714
29701
29728
29703
29816
29702
29712
29821
29703
29703
29811
29711
29715
29693
29729
29698
29689
29726
29703
29690
29759
29690
29683
29690
29734
29691
29694
29805
29693
29687
29676
29699
29692
29678
29791
29703
29684
29670
29734
29679
29687
29675
29700
29688
29672
29774
29687
29671
29752
29695
29676
29663
29770
29673
29665
29655
29703
29663
29654
29783
29668
29670
29652
29777
29683
29651
29636
29663
29645
29639
29663
29652
29630
29660
29649
29628
29698
29647
29626
29676
29639
29660
29643
29631
29739
29636
29623
29730
29625
29607
29674
29617
29604
29703
29616
29615
29570
29620
29616
29662
29615
29599
29687
29591
29601
29693
29600
29589
29680
29593
29575
29637
29591
29567
29583
29570
29623
29574
29644
29571
29556
29580
29566
29660
29556
29554
29575
29555
29633
29557
29526
29566
29549
29626
29530
29527
29545
29516
29548
29525
29618
29525
29617
29522
29511
29522
29501
29532
29510
29577
29511
29487
29505
29487
29526
29507
29470
29510
29486
29604
29475
29474
29496
29466
29508
29471
29583
29447
29455
29478
29463
29436
29462
29447
29537
29447
29423
29541
29439
29439
29415
29439
29423
29412
29434
29423
29415
29405
29530
29418
29404
29406
29383
29447
29395
29383
29374
29471
29386
29389
29358
29469
29379
29381
29353
29447
29362
29356
29343
29394
29363
29355
29340
29405
29341
29347
29332
29385
29335
29343
29316
29380
29333
29327
29312
29397
29343
29319
29315
29453
29329
29316
29290
29342
29287
29310
29284
29356
29303
29295
29285
29414
29306
29277
29279
29415
29304
29271
29274
29273
29359
29275
29260
29255
29394
29276
29261
29243
29303
29244
29250
29367
29239
29227
29261
29241
29363
29247
29237
29306
29231
29223
29310
29219
29227
29271
29223
29211
29282
29207
29199
29255
29212
29191
29299
29207
29207
29190
29210
29191
29319
29211
29199
29306
29189
29187
29308
29189
29183
29293
29185
29162
29183
29174
29156
29191
29178
29300
29176
29167
29255
29167
29155
29237
29151
29148
29200
29151
29150
29190
29167
29141
29212
29155
29141
29151
29139
29201
29142
29127
29178
29146
29125
29174
29134
29123
29158
29135
29109
29140
29129
29119
29147
29143
29257
29135
29123
29118
29135
29118
29239
29123
29119
29231
29122
29108
29159
29117
29095
29111
29099
29223
29103
29094
29127
29102
29160
29103
29226
29092
29082
29115
29092
29166
29100
29174
29091
29084
29113
29093
29068
29116
29083
29139
29076
29213
29079
29063
29111
29085
29211
29089
29063
29102
29076
29188
29085
29068
29140
29063
29053
29084
29061
29191
29063
29058
29077
29047
29093
29060
29183
29070
29062
29175
29062
29047
29096
29070
29045
29082
29055
29157
29058
29044
29094
29066
29019
29063
29051
29063
29043
29092
29052
29181
29051
29031
29093
29054
29157
29039
29023
29095
29052
29170
29045
29029
29051
29039
29093
29047
29031
29062
29031
29132
29031
29030
29095
29031
29036
29075
29047
29028
29111
29041
29019
29037
29018
29033
29028
29068
29026
29087
29029
29146
29036
29026
29047
29032
29153
29037
29019
29031
29012
29131
29012
29022
29055
29035
29015
29037
29021
29072
29029
29011
29030
29019
29082
29031
29174
29028
29019
29041
29023
29148
29023
29019
29045
29018
29086
29031
29084
29029
29018
29060
29020
29143
29029
29009
29021
29020
29101
29016
29014
29030
29020
29079
29029
29006
29037
29020
29100
29015
29010
29063
29009
29087
29011
29006
29022
29015
29063
29023
29151
29010
29009
29024
29013
29079
29018
29135
29015
29002
29044
29012
29095
29013
28999
29007
29007
29095
29004
29002
29041
29007
29098
29031
28996
29012
29008
29015
29007
29051
29028
29003
29031
29017
28999
29036
29017
29126
29010
29005
29036
29018
29131
29018
28999
29015
28999
29039
29014
29101
29020
29008
29067
29013
29086
29019
29007
29105
29002
29008
29131
29019
29002
29135
29005
29001
29080
29012
29001
29037
29017
29006
29017
29015
29006
29013
29005
29077
29011
28999
29014
29007
29069
29013
29119
29017
29007
29031
29011
29111
29005
29007
29007
29008
29047
29012
28996
29036
29012
29111
29017
28999
29068
29007
28996
29061
29009
28996
29044
29012
29084
29026
29017
29143
29016
29004
29085
29015
29015
29106
29025
29017
29002
29071
29015
29005
29023
29006
29071
29013
29002
29061
29016
29110
29017
29019
29037
29015
29007
29015
29007
29035
29013
29076
29020
29103
29012
29003
29096
29023
29015
29132
29006
29007
29047
29023
28993
29019
29006
29071
29012
28997
29135
29005
29004
29063
29004
29010
29069
29014
29141
29010
29009
29085
29015
29007
29119
29017
29010
29004
29030
29011
29006
29087
29007
29007
29023
29023
29135
29015
29004
29092
29004
29012
29069
29019
29011
29031
29015
29103
29019
29012
29065
29023
29010
29051
29031
29139
29028
29019
29046
29018
29092
29028
29023
29091
29031
29030
29063
29035
29023
29031
29028
29065
29023
29087
29038
29139
29044
29046
29143
29044
29039
29079
29039
29042
29079
29043
29036
29120
29061
29037
29079
29063
29047
29060
29046
29102
29055
29037
29071
29062
29172
29066
29051
29132
29052
29050
29103
29058
29173
29063
29045
29101
29062
29060
29063
29055
29123
29055
29151
29050
29055
29101
29065
29150
29068
29063
29065
29080
29053
29082
29066
29180
29079
29067
29115
29071
29062
29149
29072
29060
29087
29079
29127
29068
29063
29126
29079
29060
29079
29071
29127
29083
29178
29073
29061
29127
29077
29077
29077
29071
29085
29074
29101
29079
29131
29092
29168
29077
29059
29079
29070
29094
29077
29127
29087
29062
29076
29079
29119
29073
29155
29076
29069
29070
29058
29066
29057
29095
29079
29173
29073
29061
29122
29074
29158
29077
29063
29077
29063
29093
29077
29153
29063
29060
29079
29060
29071
29062
29119
29062
29063
29079
29061
29145
29063
29046
29092
29055
29143
29052
29042
29063
29034
29084
29045
29080
29053
29102
29060
29149
29045
29043
29083
29053
29142
29037
29039
29085
29044
29031
29074
29043
29031
29042
29029
29092
29041
29015
29052
29025
28992
29033
29015
29041
29026
29113
29007
29007
29067
29019
29111
28999
29000
29031
29002
29092
29007
29005
29076
28991
28991
29020
28998
29057
28987
29079
28987
28979
29006
28983
29063
28985
28973
29062
28980
28973
29033
28975
28955
29009
28964
28972
29039
28967
28953
29042
28965
28940
28958
28935
28971
28948
28993
28949
29029
28941
28921
28951
28929
28940
28935
28947
28926
28975
28918
28993
28919
28908
28925
28901
28962
28924
28988
28911
28903
28934
28900
28935
28917
28986
28898
28890
28935
28901
28975
28901
28881
28909
28887
28942
28874
28881
28898
28887
28975
28892
28879
28965
28884
28882
28871
28873
28865
28900
28879
28954
28875
28870
28885
28852
28908
28873
28909
28852
28857
28895
28867
28855
28871
28855
28924
28868
28844
28927
28869
28847
28913
28866
28853
28839
28901
28861
28847
28933
28847
28845
28836
28861
28837
28927
28847
28841
28835
28858
28839
28825
28914
28844
28838
28871
28825
28827
28870
28833
28826
28875
28823
28833
28862
28836
28837
28874
28826
28818
28836
28830
28830
28836
28827
28873
28825
28817
28847
28823
28884
28826
28823
28844
28822
28814
28835
28823
28855
28822
28891
28833
28813
28884
28822
28812
28860
28826
28807
28822
28807
28842
28814
28818
28834
28819
28884
28820
28807
28833
28813
28796
28846
28807
28807
28851
28811
28806
28845
28805
28808
28863
28822
28805
28852
28822
28807
28829
28814
28707
28821
28808
28847
28816
28811
28825
28812
28815
28839
28828
28808
28829
28824
28828
28823
28815
28854
28815
28813
28839
28818
28815
28828
28823
28827
28820
28818
28850
28826
28817
28847
28821
28807
28815
28821
28812
28829
28827
28773
28842
28825
28814
28836
28823
28812
28849
28826
28833
28854
28835
28822
28876
28828
28815
28845
28822
28870
28839
28828
28863
28839
28839
28884
28844
28823
28865
28836
28836
28849
28840
28831
28872
28845
28839
28854
28839
28839
28860
28852
28871
28849
28837
28863
28853
28846
28863
28854
28847
28871
28855
28846
28908
28851
28847
28874
28861
28855
28890
28875
28856
28877
28871
28858
28855
28883
28871
28868
28871
28895
28871
28867
28915
28883
28874
28863
28893
28876
28878
28895
28878
28876
28902
28886
28880
28910
28887
28876
28911
28886
28885
28900
28894
28916
28892
28884
28927
28907
28895
28908
28895
28896
28903
28903
28942
28906
28901
28931
28919
28885
28924
28908
28949
28908
28911
28923
28911
28940
28918
28910
28933
28917
28948
28923
28919
28932
28919
28943
28935
28911
28934
28938
28944
28950
28929
28961
28935
28937
28950
28935
28958
28943
28967
28959
28941
28973
28942
28948
28969
28953
28951
28973
28953
28962
28972
28964
28991
28966
28965
28980
28967
28996
28980
28967
28978
28963
28999
28980
28976
28996
28976
28999
28973
28979
28996
28989
28981
28996
28993
29003
28988
28986
29017
29003
28996
29015
28999
28996
29015
29007
29023
29014
29004
29017
29010
29031
29012
29004
29028
29015
29033
29021
29019
29039
29030
29025
29031
29026
29025
29031
29030
29044
29031
29043
29031
29047
29040
29038
29059
29045
29076
29044
29044
29063
29057
29042
29077
29060
29047
29073
29063
29061
29081
29065
29063
29087
29070
29063
29082
29066
29079
29073
29078
29087
29057
29086
29079
29078
29095
29087
29093
29095
29102
29113
29093
29108
29101
29103
29109
29099
29118
29103
29109
29119
29110
29124
29113
29063
29131
29117
29126
29126
29130
29132
29116
29134
29127
29124
29141
29140
29143
29128
29139
29142
29126
29150
29140
29135
29143
29137
29149
29145
29156
29142
29140
29157
29151
29143
29154
29150
29145
29159
29167
29148
29162
29155
29154
29179
29161
29167
29169
29175
29173
29186
29178
29187
29180
29164
29190
29183
29205
29201
29189
29201
29191
29202
29207
29189
29205
29220
29210
29204
29221
29208
29220
29230
29231
29223
29231
29235
29235
29230
29236
29235
29253
29236
29239
29255
29258
29229
29263
29257
29261
29263
29257
29261
29271
29255
29277
29276
29284
29282
29279
29295
29290
29279
29290
29289
29284
29303
29282
29310
29295
29302
29309
29295
29319
29307
29308
29316
29315
29307
29325
29319
29327
29319
29326
29331
29339
29331
29336
29329
29351
29347
29335
29361
29351
29346
29361
29351
29358
29348
29367
29356
29355
29372
29358
29375
29364
29359
29380
29374
29378
29381
29380
29343
29385
29389
29381
29391
29391
29375
29395
29391
29393
29408
29399
29398
29393
29415
29402
29323
29415
29413
29395
29415
29407
29415
29419
29406
29429
29420
29423
29437
29439
29431
29430
29435
29431
29439
29426
29447
29447
29445
29446
29439
29439
29446
29447
29447
29455
29453
29467
29461
29452
29465
29448
29447
29468
29459
29465
29476
29463
29447
29477
29463
29468
29470
29404
29476
29479
29463
29480
29475
29469
29477
29491
29468
29479
29476
29479
29484
29491
29495
29481
29483
29481
29486
29489
29487
29442
29492
29495
29478
29493
29486
29480
29495
29496
29492
29491
29484
29487
29492
29501
29498
29492
29495
29492
29481
29508
29493
29482
29495
29487
29489
29503
29492
29483
29500
29502
29500
29492
29396
29503
29498
29480
29504
29489
29499
29497
29495
29495
29495
29487
29499
29480
29498
29493
29487
29487
29489
29503
29494
29495
29491
29482
29503
29482
29501
29487
29485
29493
29486
29494
29487
29487
29487
29486
29492
29481
29479
29477
29489
29488
29479
29475
29492
29483
29479
29473
29470
29489
29479
29479
29483
29473
29486
29479
29472
29489
29484
29471
29484
29465
29491
29476
29479
29479
29467
29483
29463
29482
29473
29479
29483
29471
29493
29479
29484
29471
29478
29476
29476
29478
29483
29482
29468
29477
29479
29455
29487
29470
29479
29482
29468
29481
29471
29476
29479
29474
29479
29472
29495
29478
29487
29484
29479
29492
29495
29482
29478
29488
29477
29481
29474
29494
29481
29495
29495
29487
29492
29470
29483
29471
29487
29423
29484
29478
29500
29477
29487
29493
29495
29495
29488
29498
29484
29490
29502
29495
29501
29495
29498
29479
29507
29505
29493
29502
29488
29507
29498
29496
29499
29497
29511
29492
29503
29503
29514
29497
29511
29519
29507
29519
29519
29508
29508
29517
29515
29510
29527
29511
29518
29516
29511
29527
29522
29514
29513
29533
29523
29492
29526
29523
29535
29532
29532
29527
29535
29518
29538
29527
29543
29537
29551
29535
29548
29539
29543
29546
29535
29543
29444
29554
29540
29559
29542
29559
29557
29550
29556
29563
29562
29558
29557
29559
29556
29553
29559
29559
29578
29567
29559
29577
29546
29575
29570
29588
29567
29583
29573
29572
29585
29588
29575
29579
29585
29585
29597
29580
29595
29599
29595
29598
29582
29597
29595
29581
29601
29590
29591
29608
29607
29598
29601
29600
29623
29620
29598
29616
29615
29624
29612
29619
29621
29619
29618
29623
29615
29620
29591
29641
29621
29646
29634
29650
29639
29631
29643
29636
29635
29607
29644
29649
29658
29645
29657
29624
29650
29622
29659
29657
29670
29644
29662
29671
29659
29668
29669
29671
29675
29670
29685
29676
29671
29674
29682
29687
29690
29692
29690
29695
29691
29692
29703
29703
29703
29703
29703
29684
29660
29711
29703
29711
29713
29716
29727
29719
29703
29719
29703
29716
29716
29735
29725
29737
29737
29735
29747
29734
29736
29701
29741
29727
29750
29743
29745
29738
29755
29758
29765
29766
29767
29759
29762
29769
29768
29764
29738
29769
29703
29782
29769
29775
29764
29780
29779
29794
29783
29793
29791
29799
29790
29793
29799
29803
29794
29800
29803
29815
29799
29823
29812
29805
29807
29789
29754
29815
29812
29817
29829
29821
29813
29764
29827
29823
29830
29831
29830
29844
29838
29841
29837
29844
29855
29831
29853
29848
29855
29855
29862
29869
29860
29861
29851
29851
29868
29863
29876
29868
29871
29871
29870
29874
29882
29896
29879
29892
29889
29895
29820
29882
29887
29890
29891
29882
29867
29903
29884
29882
29905
29899
29895
29904
29908
29900
29911
29909
29914
29914
29927
29919
29924
29915
29929
29918
29927
29932
29942
29926
29933
29938
29902
29925
29911
29935
29913
29935
29919
29943
29957
29969
29940
29951
29945
29959
29943
29950
29959
29969
29957
29959
29970
29959
29965
29970
29959
29972
29925
29971
29965
29977
29972
29974
29985
29983
29995
29983
30003
29983
29985
29993
29993
29983
29998
29999
29999
29999
30014
29999
30013
30004
30007
30007
29989
30015
30007
30010
30016
29995
30023
30017
30022
30023
30030
30022
30023
30033
30030
30028
30030
30004
30033
30034
30033
30028
30020
30032
29985
30045
30029
30038
30039
30013
30036
29939
30044
30044
30040
30037
29980
30055
30043
30039
30045
30003
30049
30052
30026
30055
30015
30071
30055
30054
30056
30034
30053
30059
30071
30055
30069
30054
29976
30069
30060
30079
30083
30078
30071
30076
30092
30060
30087
30042
30087
30099
30092
30090
30079
30092
30026
30102
30100
30087
30103
30104
30103
30079
30110
30058
30122
30122
30077
30129
30114
30111
30117
30109
30125
30119
30098
30125
30119
30132
30127
30127
30142
30100
30135
30020
30139
30127
30125
30142
30134
30141
30091
30151
30141
30129
30148
30109
30162
30141
30145
30151
30146
30161
30156
30106
30164
30163
30129
30162
30162
30132
30166
30178
30108
30168
30165
30151
30178
30176
30181
30177
30132
30187
30183
30143
30185
30178
30184
30183
30143
30186
30172
30167
30180
30173
30170
30183
30182
30187
30189
30174
30183
30183
30150
30199
30183
30167
30196
30196
30127
30196
30181
30131
30194
30185
30187
30184
30188
30183
30183
30204
30191
30213
30199
30127
30197
30196
30185
30207
30193
30204
30200
30204
30210
30204
30154
30215
30212
30212
30207
30131
30207
30207
30183
30215
30215
30183
30202
30199
30205
30200
30200
30175
30207
30212
30165
30207
30199
30178
30212
30201
30165
30206
30193
30185
30196
30204
30191
30203
30111
30215
30197
30164
30196
30197
30183
30204
30203
30189
30190
30126
30199
30193
30178
30197
30194
30202
30199
30172
30191
30192
30197
30190
30176
30195
30175
30193
30120
30188
30177
30183
30181
30165
30185
30173
30183
30170
30171
30180
30119
30177
30166
30187
30174
30167
30132
30168
30159
30151
30078
30143
30151
30151
30156
30150
30076
30147
30157
30151
30148
30100
30136
30154
30143
30132
30140
30131
30151
30131
30135
30094
30127
30143
30127
30124
30100
30124
30125
30120
30119
30109
30125
30119
30114
30101
30075
30110
30105
30110
30003
30076
30097
30119
30100
30109
30094
30078
30087
30094
30085
30095
30086
30044
30076
30092
30103
30084
30079
30087
30083
30071
30082
30092
30086
30071
30085
30053
30078
30081
30071
30068
30080
30037
30055
30063
30064
30071
30063
30063
30014
30050
30064
30059
30061
30022
30055
30055
30062
30062
30055
30052
30053
30059
30050
30055
30005
30045
30046
30045
30004
30047
30054
30044
30037
30009
30043
30046
30033
30038
30012
30033
30031
30018
30015
30032
30024
30023
30012
30030
30029
30020
30027
30033
30023
30023
30020
30030
30021
30012
30017
29958
30013
30015
30017
30015
30009
30015
30006
30007
29959
29999
30023
30006
30007
30010
30006
29959
29978
29998
30010
30015
30002
30005
30013
30009
29989
29994
29989
29973
29983
29978
29995
29996
30004
29996
29998
29990
29998
29988
29983
29989
29983
29971
29980
29991
29989
29983
29990
29983
29980
29975
29980
29980
29980
29958
29991
29973
29973
29991
29980
29984
29975
29959
29943
29970
29975
29980
29978
29980
29969
29967
29959
29951
29983
29975
29980
29959
29976
29971
29959
29975
29930
29959
29959
29972
29979
29981
29966
29973
29969
29966
29975
29933
29959
29959
29969
29956
29957
29967
29945
29955
29959
29978
29963
29975
29965
29956
29949
29959
29953
29959
29956
29919
29959
29953
29959
29959
29972
29951
29932
29943
29957
29951
29959
29957
29949
29900
29936
29943
29951
29958
29958
29957
29959
29940
29946
29918
29934
29937
29959
29959
29951
29948
29934
29959
29954
29951
29935
29939
29943
29951
29953
29943
29941
29943
29905
29945
29959
29940
29940
29955
29959
29935
29935
29946
29949
29948
29935
29934
29932
29943
29947
29951
29947
29884
29919
29942
29946
29949
29946
29938
29866
29936
29933
29951
29951
29949
29948
29940
29941
29947
29934
29913
29940
29951
29936
29945
29934
29910
29944
29946
29950
29943
29940
29897
29934
29950
29948
29927
29932
29934
29933
29928
29927
29950
29942
29950
29934
29946
29929
29923
29941
29935
29940
29935
29945
29871
29934
29943
29951
29941
29940
29939
29943
29926
29941
29935
29936
29932
29919
29927
29935
29943
29940
29935
29897
29945
29940
29941
29932
29941
29923
29943
29950
29939
29933
29922
29926
29923
29932
29939
29934
29946
29931
29935
29927
29926
29902
29938
29937
29926
29935
29933
29932
29908
29932
29930
29941
29927
29927
29924
29910
29907
29927
29940
29934
29924
29930
29931
29907
29925
29927
29943
29930
29932
29935
29941
29930
29926
29913
29927
29929
29943
29924
29934
29931
29932
29903
29915
29927
29934
29929
29933
29931
29910
29935
29940
29924
29931
29921
29913
29929
29927
29933
29924
29919
29884
29933
29935
29924
29927
29925
29924
29929
29929
29918
29932
29901
29912
29915
29927
29933
29927
29935
29918
29925
29921
29927
29911
29917
29859
29905
29918
29926
29923
29927
29919
29919
29916
29863
29915
29935
29912
29923
29918
29916
29878
29896
29920
29935
29927
29913
29927
29915
29905
29906
29910
29911
29927
29911
29919
29905
29911
29886
29911
29913
29919
29916
29911
29909
29904
29903
29906
29863
29892
29895
29908
29901
29891
29895
29900
29866
29888
29903
29889
29885
29888
29895
29856
29891
29887
29892
29879
29890
29887
29812
29853
29877
29895
29883
29881
29877
29841
29863
29886
29879
29879
29877
29877
29879
29863
29885
29889
29881
29877
29875
29866
29826
29849
29879
29887
29881
29868
29829
29879
29887
29890
29881
29872
29876
29839
29878
29895
29874
29878
29876
29879
29846
29875
29871
29872
29890
29879
29886
29869
29878
29829
29863
29884
29863
29870
29869
29834
29871
29887
29876
29871
29871
29870
29863
29848
29871
29878
29860
29879
29862
29871
29787
29844
29863
29874
29887
29863
29862
29819
29863
29881
29871
29869
29863
29833
29879
29860
29863
29863
29809
29853
29863
29871
29858
29851
29822
29863
29868
29855
29855
29850
29821
29831
29860
29852
29852
29855
29742
29833
29849
29844
29849
29847
29823
29847
29845
29843
29790
29836
29847
29831
29838
29831
29803
29831
29831
29839
29836
29829
29819
29839
29833
29825
29831
29827
29803
29831
29828
29836
29813
29758
29779
29774
29780
29797
29825
29815
29811
29805
29805
29759
29803
29797
29807
29802
29805
29803
29804
29764
29786
29783
29799
29799
29790
29782
29780
29788
29757
29771
29790
29783
29771
29773
29735
29764
29775
29772
29770
29767
29735
29763
29760
29767
29755
29758
29727
29742
29751
29747
29735
29733
29697
29719
29724
29738
29735
29732
29727
29688
29719
29726
29719
29714
29709
29703
29721
29716
29703
29711
29697
29671
29703
29699
29697
29691
29678
29698
29683
29673
29673
29660
29675
29663
29671
29659
29625
29660
29662
29652
29640
29647
29625
29638
29630
29628
29623
29615
29629
29628
29622
29620
29540
29602
29619
29599
29606
29599
29585
29599
29597
29591
29588
29562
29575
29582
29564
29516
29567
29575
29564
29566
29558
29559
29550
29546
29539
29543
29537
29537
29524
29538
29518
29527
29518
29535
29523
29519
29423
29516
29524
29506
29500
29479
29506
29492
29493
29477
29493
29480
29434
29471
29471
29476
29447
29459
29462
29463
29447
29455
29466
29461
29442
29431
29447
29442
29433
29407
29433
29427
29347
29430
29419
29423
29364
29409
29419
29412
29407
29403
29389
29391
29364
29398
29390
29396
29391
29362
29383
29366
29381
29367
29367
29367
29343
29359
29357
29367
29349
29342
29341
29345
29349
29347
29311
29335
29303
29332
29327
29335
29325
29323
29319
29301
29316
29298
29306
29308
29311
29295
29303
29277
29300
29287
29269
29293
29286
29288
29279
29279
29287
29283
29258
29271
29269
29269
29264
29252
29267
29265
29270
29252
29239
29245
29245
29247
29239
29231
29248
29230
29228
29231
29235
29224
29230
29227
29225
29223
29189
29231
29207
29219
29213
29182
29215
29212
29183
29212
29191
29158
29199
29191
29191
29190
29183
29183
29179
29174
29173
29169
29154
29175
29159
29167
29165
29166
29159
29149
29154
29078
29167
29155
29154
29146
29143
29143
29052
29144
29133
29142
29129
29110
29147
29081
29139
29118
29127
29127
29127
29121
29126
29110
29119
29123
29109
29114
29106
29105
29095
29111
29108
29100
29095
29028
29099
29079
29088
29091
29069
29093
29071
29085
29080
29071
29078
29071
29063
29077
29063
29068
29062
29052
29063
29063
29063
29055
29063
29035
29059
29044
29015
29052
29051
29031
29055
29038
29032
29045
29031
29030
29039
29031
29023
29041
29031
29031
29020
29023
29024
29025
29028
29025
29028
29008
29015
29014
29022
29013
29012
29012
29013
28999
29011
28983
29006
29004
28991
28995
28990
28998
28980
28998
28991
28995
28944
29002
28990
28986
28987
28973
28979
28958
28988
28981
28980
28983
28957
28983
28975
28974
28970
28972
28964
28967
28967
28963
28961
28968
28961
28961
28970
28957
28965
28954
28956
28959
28951
28959
28943
28959
28954
28943
28961
28956
28960
28951
28919
28951
28938
28943
28935
28905
28956
28935
28931
28928
28932
28935
28947
28919
28931
28908
28942
28925
28919
28935
28918
28927
28921
28878
28930
28904
28925
28927
28907
28919
28916
28921
28913
28932
28908
28892
28919
28911
28906
28911
28908
28901
28903
28900
28911
28901
28896
28902
28908
28895
28897
28899
28903
28890
28889
28890
28897
28895
28873
28894
28885
28895
28883
28868
28887
28881
28897
28879
28878
28886
28881
28882
28852
28892
28875
28882
28885
28871
28872
28867
28883
28871
28863
28884
28869
28873
28871
28868
28863
28855
28883
28877
28871
28861
28864
28868
28854
28873
28863
28861
28865
28860
28863
28860
28838
28855
28858
28863
28854
28849
28860
28852
28847
28841
28844
28852
28852
28843
28852
28823
28847
28849
28853
28853
28839
28855
28839
28844
28836
28855
28841
28845
28836
28848
28847
28839
28837
28816
28843
28843
28839
28832
28813
28836
28815
28838
28837
28826
28830
28825
28830
28830
28835
28751
28831
28827
28832
28815
28825
28815
28827
28815
28804
28817
28809
28820
28805
28813
28799
28801
28804
28787
28807
28805
28810
28798
28805
28807
28807
28791
28775
28799
28803
28802
28796
28805
28786
28773
28799
28791
28791
28794
28792
28791
28788
28798
28792
28795
28793
28799
28796
28795
28691
28799
28786
28775
28803
28787
28798
28787
28783
28794
28790
28790
28795
28785
28787
28785
28779
28791
28786
28791
28799
28787
28793
28800
28783
28786
28788
28788
28799
28787
28774
28781
28785
28790
28775
28764
28781
28784
28776
28773
28789
28780
28761
28783
28730
28776
28777
28780
28782
28773
28767
28775
28781
28771
28784
28772
28766
28774
28775
28775
28771
28772
28775
28770
28767
28775
28768
28775
28759
28718
28775
28769
28771
28764
28767
28762
28757
28764
28750
28771
28755
28773
28766
28757
28764
28767
28748
28752
28755
28772
28748
28751
28759
28735
28767
28752
28749
28762
28748
28766
28756
28719
28765
28751
28751
28747
28734
28757
28676
28749
28741
28751
28746
28743
28743
28719
28745
28727
28741
28729
28726
28735
28711
28743
28725
28727
28726
28725
28736
28722
28721
28725
28730
28733
28709
28729
28708
28679
28713
28706
28715
28706
28709
28708
28708
28701
28711
28702
28707
28697
28700
28695
28698
28694
28700
28676
28694
28699
28679
28633
28687
28679
28679
28649
28692
28674
28675
28679
28666
28669
28670
28655
28619
28659
28661
28602
28660
28660
28615
28665
28643
28638
28662
28622
28654
28639
28647
28644
28615
28642
28631
28619
28623
28630
28623
28612
28601
28613
28615
28616
28608
28594
28605
28604
28603
28598
28595
28589
28596
28591
28588
28591
28564
28596
28581
28504
28572
28575
28562
28575
28563
28567
28556
28564
28551
28550
28547
28549
28551
28551
28533
28543
28542
28538
28535
28481
28535
28524
28527
28524
28510
28518
28511
28513
28515
28503
28510
28508
28511
28489
28498
28492
28493
28500
28486
28500
28487
28483
28470
28468
28468
28471
28463
28477
28451
28469
28462
28447
28457
28444
28462
28448
28453
28451
28444
28446
28434
28447
28438
28436
28436
28414
28431
28423
28418
28430
28415
28410
28417
28409
28404
28423
28410
28405
28398
28388
28394
28398
28391
28399
28385
28379
28390
28382
28382
28393
28397
28362
28385
28373
28375
28375
28350
28375
28367
28367
28356
28358
28362
28353
28359
28367
28359
28349
28345
28347
28360
28342
28355
28347
28290
28332
28334
28340
28335
28308
28327
28334
28332
28321
28315
28326
28330
28325
28319
28306
28326
28306
28305
28319
28302
28322
28303
28294
28311
28236
28310
28287
28305
28290
28282
28295
28279
28295
28280
28283
28287
28276
28289
28284
28279
28279
28271
28285
28279
28268
28277
28266
28271
28274
28267
28223
28268
28266
28252
28266
28263
28249
28274
28249
28263
28257
28253
28254
28250
28241
28259
28239
28239
28263
28241
28245
28247
28243
28244
28247
28175
28242
28239
28234
28244
28226
28212
28238
28231
28157
28233
28231
28223
28226
28229
28228
28213
28222
28218
28222
28220
28221
28223
28218
28215
28203
28215
28211
28215
28207
28212
28208
28207
28199
28216
28204
28207
28205
28212
28220
28215
28195
28206
28198
28106
28199
28196
28186
28202
28199
28185
28190
28199
28191
28187
28192
28202
28196
28181
28197
28189
28182
28189
28183
28167
28181
28186
28181
28180
28167
28183
28185
28180
28177
28183
28178
28174
28167
28167
28167
28186
28167
28175
28173
28167
28167
28181
28182
28167
28180
28167
28167
28165
28164
28165
28167
28163
28156
28158
28174
28167
28167
28165
28152
28159
28167
28166
28159
28159
28147
28156
28155
28164
28161
28136
28167
28150
28150
28155
28152
28150
28158
28145
28143
28164
28148
28143
28151
28157
28149
28146
28158
28147
28149
28150
28148
28143
28149
28159
28145
28151
28148
28146
28143
28161
28158
28165
28154
28159
28151
28154
28143
28147
28146
28146
28133
28143
28156
28139
28135
28148
28148
28146
28136
28162
28153
28143
28128
28148
28141
28135
28148
28138
28135
28145
28143
28133
28150
28151
28143
28135
28156
28143
28143
28146
28143
28139
28153
28151
28138
28143
28147
28143
28143
28143
28133
28147
28132
28134
28138
28149
28149
28137
28149
28140
28143
28141
28144
28145
28143
28143
28140
28146
28143
28140
28149
28129
28133
28141
28137
28142
28132
28122
28145
28142
28140
28130
28142
28140
28135
28145
28135
28141
28114
28132
28141
28149
28136
28138
28146
28143
28143
28142
28135
28156
28141
28141
28135
28157
28143
28149
28145
28145
28143
28148
28132
28153
28151
28133
28155
28149
28142
28153
28142
28143
28148
28150
28147
28151
28135
28154
28150
28148
28159
28149
28146
28153
28096
28157
28145
28161
28151
28142
28167
28147
28162
28159
28151
28165
28166
28149
28164
28159
28159
28167
28156
28166
28164
28158
28167
28165
28166
28164
28163
28164
28163
28167
28156
28167
28164
28175
28163
28135
28158
28164
28167
28167
28156
28167
28159
28164
28174
28166
28166
28166
28156
28164
28158
28164
28166
28156
28164
28142
28167
28153
28166
28158
28154
28161
28167
28149
28167
28167
28164
28167
28165
28167
28167
28164
28171
28156
28167
28167
28178
28162
28175
28160
28183
28180
28167
28167
28167
28180
28183
28191
28183
28183
28174
28175
28193
28193
28154
28191
28193
28189
28196
28196
28200
28201
28185
28201
28190
28201
28196
28214
28204
28211
28184
28212
28207
28219
28207
28207
28210
28199
28212
28180
28221
28207
28223
28215
28207
28226
28215
28227
28223
28199
28227
28225
28231
28229
28231
28220
28231
28217
28215
28225
28232
28240
28241
28233
28239
28244
28237
28236
28235
28244
28218
28245
28246
28255
28251
28244
28237
28257
28247
28249
28257
28263
28251
28255
28252
28253
28257
28256
28258
28255
28253
28263
28270
28251
28276
28271
28268
28263
28257
28257
28271
28276
28268
28260
28277
28263
28276
28273
28281
28263
28284
28270
28273
28284
28292
28283
28282
28276
28286
28291
28273
28277
28282
28279
28274
28287
28290
28276
28295
28297
28298
28292
28285
28278
28292
28288
28277
28308
28292
28276
28295
28294
28300
28286
28271
28300
28287
28276
28295
28287
28295
28285
28305
28292
28285
28284
28287
28191
28292
28293
28291
28286
28248
28303
28301
28271
28300
28290
28284
28298
28287
28302
28303
28274
28300
28285
28293
28307
28301
28289
28295
28289
28271
28301
28294
28257
28292
28282
28279
28283
28290
28279
28294
28289
28276
28277
28287
28287
28268
28271
28293
28283
28205
28289
28271
28192
28295
28265
28255
28281
28285
28250
28284
28277
28262
28271
28268
28273
28276
28271
28267
28277
28260
28243
28263
28260
28275
28261
28251
28261
28259
28258
28266
28255
28125
28262
28255
28239
28260
28235
28249
28247
28250
28255
28249
28215
28239
28230
28242
28238
28241
28236
28235
28231
28232
28233
28239
28239
28238
28236
28228
28221
28234
28218
28238
28231
28194
28228
28223
28218
28229
28212
28226
28232
28215
28213
28224
28221
28212
28218
28226
28226
28208
28221
28204
28202
28221
28199
28215
28207
28210
28208
28215
28199
28193
28219
28198
28214
28213
28198
28199
28212
28203
28196
28217
28199
28194
28196
28202
28194
28209
28192
28209
28196
28199
28181
28207
28182
28204
28195
28183
28197
28199
28190
28178
28192
28194
28193
28197
28187
28178
28190
28178
28180
28200
28188
28182
28194
28183
28185
28189
28195
28183
28186
28190
28189
28180
28183
28190
28175
28202
28190
28191
28195
28196
28191
28199
28189
28183
28191
28191
28175
28172
28194
28181
28183
28192
28175
28197
28186
28185
28188
28195
28195
28100
28195
28193
28177
28187
28198
28193
28153
28192
28200
28195
28179
28196
28197
28193
28199
28198
28199
28191
28193
28191
28202
28191
28190
28183
28198
28197
28196
28183
28199
28199
28190
28197
28203
28199
28182
28201
28196
28189
28212
28207
28194
28215
28207
28194
28219
28206
28212
28200
28207
28207
28143
28223
28211
28178
28220
28223
28215
28200
28219
28222
28215
28215
28228
28218
28221
28223
28230
28223
28230
28229
28223
28237
28235
28228
28215
28226
28223
28239
28233
28228
28227
28218
28237
28232
28235
28238
28236
28247
28241
28236
28243
28243
28244
28239
28242
28229
28261
28255
28247
28249
28233
28263
28261
28259
28252
28247
28263
28276
28263
28263
28251
28263
28260
28263
28282
28279
28266
28276
28263
28287
28287
28279
28281
28275
28283
28291
28287
28279
28276
28299
28294
28295
28279
28295
28310
28290
28279
28308
28301
28291
28312
28309
28279
28312
28311
28301
28309
28318
28316
28324
28324
28322
28327
28341
28327
28318
28336
28324
28333
28324
28332
28335
28341
28325
28349
28335
28332
28356
28357
28361
28359
28343
28343
28357
28359
28362
28366
28362
28358
28367
28374
28355
28379
28369
28361
28381
28381
28372
28379
28384
28375
28393
28390
28387
28396
28391
28391
28394
28402
28387
28410
28398
28407
28412
28419
28412
28420
28420
28418
28409
28397
28423
28437
28372
28447
28431
28423
28437
28442
28429
28436
28444
28437
28407
28460
28443
28444
28454
28406
28466
28460
28463
28449
28472
28467
28421
28480
28471
28430
28468
28475
28468
28487
28491
28491
28500
28489
28469
28501
28503
28423
28502
28502
28494
28507
28511
28513
28510
28508
28514
28507
28503
28527
28514
28537
28525
28532
28532
28535
28533
28545
28543
28539
28551
28551
28546
28559
28550
28533
28571
28560
28563
28535
28559
28559
28564
28578
28572
28575
28583
28574
28577
28586
28588
28588
28591
28591
28593
28603
28600
28588
28610
28603
28583
28620
28605
28573
28621
28623
28620
28620
28620
28623
28614
28635
28636
28638
28609
28645
28641
28655
28588
28647
28650
28654
28633
28663
28652
28638
28676
28661
28658
28663
28692
28665
28675
28679
28691
28679
28665
28700
28694
28669
28695
28702
28698
28679
28711
28715
28712
28692
28724
28711
28710
28711
28718
28735
28727
28724
28724
28735
28732
28738
28740
28721
28743
28751
28749
28765
28766
28756
28727
28751
28761
28761
28764
28759
28770
28778
28772
28775
28777
28770
28772
28791
28781
28783
28780
28756
28796
28788
28783
28800
28801
28800
28794
28799
28805
28807
28811
28813
28815
28799
28820
28823
28816
28835
28834
28813
28837
28825
28825
28839
28841
28831
28857
28843
28855
28860
28863
28855
28855
28871
28869
28817
28875
28876
28787
28883
28892
28879
28891
28894
28861
28900
28900
28891
28920
28903
28886
28909
28914
28911
28916
28931
28900
28923
28933
28871
28943
28935
28946
28919
28944
28955
28949
28959
28966
28933
28958
28969
28971
28975
28979
28978
28945
28980
28990
28992
28975
28993
28997
28986
28942
28995
29011
29015
28988
29023
29007
28987
29019
29018
29023
29036
29023
29013
29038
29028
29011
29055
29043
29020
29057
29051
29052
29055
29052
29015
29073
29068
29067
29063
29053
29063
29071
29078
29079
29079
29091
29079
29047
29063
29069
29074
29076
29095
29100
29115
29102
29097
29111
29115
29109
29111
29103
29094
29104
29119
29133
29141
29127
29127
29129
29137
29107
29143
29144
29143
29143
29143
29132
29156
29152
29159
29160
29157
29159
29122
29153
29165
29164
29169
29169
29140
29174
29171
29178
29175
29173
29180
29173
29151
29178
29191
29191
29189
29191
29191
29187
29191
29151
29181
29191
29191
29218
29204
29191
29207
29205
29198
29151
29183
29191
29204
29219
29213
29220
29210
29221
29178
29203
29212
29215
29223
29234
29220
29222
29224
29132
29209
29222
29231
29226
29222
29231
29222
29222
29219
29175
29191
29205
29207
29220
29231
29233
29238
29235
29230
29228
29230
29219
29197
29207
29215
29221
29231
29239
29240
29247
29239
29231
29247
29239
29235
29239
29199
29235
29228
29237
29255
29230
29235
29247
29244
29177
29220
29239
29231
29239
29244
29240
29243
29242
29239
29231
29216
29227
29222
29252
29241
29239
29235
29227
29228
29234
29237
29191
29231
29243
29244
29234
29231
29237
29241
29240
29234
29177
29212
29233
29237
29253
29238
29240
29235
29239
29234
29231
29236
29237
29231
29233
29220
29210
29236
29252
29234
29239
29234
29230
29219
29243
29237
29231
29238
29223
29227
29236
29247
29231
29228
29226
29189
29220
29232
29233
29243
29231
29227
29235
29207
29238
29250
29235
29235
29231
29226
29231
29253
29236
29244
29250
29239
29244
29239
29243
29244
29242
29191
29237
29255
29243
29245
29259
29247
29258
29246
29242
29245
29253
29227
29244
29246
29261
29250
29252
29255
29251
29253
29252
29253
29230
29255
29257
29260
29263
29263
29258
29261
29263
29262
29262
29253
29255
29271
29271
29253
29263
29263
29213
29245
29265
29273
29271
29279
29274
29269
29274
29271
29279
29271
29279
29183
29261
29271
29269
29306
29287
29285
29279
29279
29285
29279
29285
29287
29300
29287
29290
29263
29290
29295
29303
29295
29303
29303
29281
29292
29303
29319
29319
29310
29311
29311
29315
29313
29255
29290
29309
29319
29319
29323
29319
29319
29324
29342
29324
29330
29334
29323
29339
29319
29309
29327
29329
29334
29348
29339
29345
29348
29346
29338
29335
29341
29321
29340
29343
29356
29348
29348
29351
29349
29353
29354
29351
29348
29360
29360
29360
29356
29381
29364
29374
29358
29379
29370
29359
29383
29391
29383
29365
29391
29383
29311
29388
29387
29382
29400
29402
29407
29395
29397
29399
29403
29415
29400
29401
29413
29395
29383
29408
29412
29409
29420
29410
29418
29428
29324
29441
29420
29409
29439
29437
29419
29447
29441
29401
29444
29439
29391
29463
29458
29371
29465
29445
29455
29441
29447
29456
29455
29463
29465
29463
29471
29460
29457
29471
29479
29447
29492
29476
29478
29481
29482
29492
29491
29501
29492
29476
29503
29503
29469
29506
29505
29498
29505
29527
29515
29516
29508
29534
29519
29460
29523
29519
29529
29477
29521
29532
29532
29500
29551
29543
29544
29527
29546
29550
29501
29564
29550
29555
29547
29556
29562
29544
29575
29568
29535
29573
29564
29567
29532
29567
29588
29583
29575
29583
29584
29588
29563
29599
29599
29591
29567
29596
29603
29599
29580
29604
29604
29615
29601
29624
29615
29625
29627
29623
29615
29639
29628
29614
29636
29631
29639
29639
29636
29607
29646
29639
29645
29647
29655
29650
29648
29664
29663
29658
29667
29667
29671
29662
29671
29668
29673
29678
29673
29689
29615
29690
29694
29687
29692
29700
29662
29703
29703
29671
29711
29711
29716
29727
29703
29726
29725
29728
29700
29743
29732
29671
29742
29734
29657
29739
29740
29679
29747
29755
29714
29766
29748
29703
29766
29759
29771
29758
29765
29767
29762
29776
29765
29767
29788
29780
29760
29782
29782
29762
29797
29794
29765
29805
29803
29770
29807
29799
29807
29799
29811
29809
29765
29812
29826
29814
29806
29833
29825
29770
29828
29834
29838
29839
29835
29843
29827
29849
29847
29767
29858
29852
29855
29852
29865
29858
29837
29879
29875
29871
29830
29886
29879
29819
29893
29890
29879
29895
29829
29902
29893
29875
29904
29903
29859
29906
29908
29913
29897
29932
29908
29876
29918
29928
29921
29911
29922
29917
29895
29942
29935
29943
29905
29935
29942
29867
29935
29957
29958
29951
29879
29948
29972
29959
29912
29972
29956
29967
29962
29970
29972
29959
29977
29975
29959
29988
29980
29942
29991
29999
29978
29991
29990
29994
30002
29905
29999
29995
29912
29994
29994
30002
29967
30018
30015
29945
30015
30015
30014
30001
30031
30023
29953
30013
30034
29933
30033
30029
30028
30020
30039
30040
30044
30055
30045
30042
30055
30010
30047
30058
30062
30054
30061
30071
30062
30015
30034
30078
30082
30074
30077
30081
30082
30087
30007
29991
30058
30087
30098
30109
30102
30098
30055
30095
30119
30119
30119
30127
30122
30127
30077
30117
30132
30129
30137
30138
30151
30145
30130
30103
30134
30155
30138
30152
30031
30123
30157
30164
30166
30164
30156
30103
30150
30175
30182
30179
30182
30105
30163
30180
30189
30191
30189
30188
30189
30148
30151
30177
30183
30194
30206
30199
30204
30211
30208
30215
30180
30196
30214
30223
30212
30215
30215
30229
30227
30171
30199
30222
30235
30231
30228
30229
30231
30229
30202
30191
30199
30196
30239
30245
30247
30244
30255
30255
30249
30178
30210
30247
30250
30263
30263
30265
30268
30263
30169
30235
30247
30278
30263
30268
30278
30279
30279
30279
30191
30239
30266
30286
30286
30277
30279
30274
30232
30247
30265
30293
30299
30293
30293
30298
30289
30290
30298
30295
30305
30296
30300
30299
30292
30220
30293
30275
30309
30292
30310
30307
30305
30305
30308
30303
30204
30274
30311
30311
30308
30309
30280
30317
30311
30308
30253
30300
30319
30311
30237
30287
30317
30301
30310
30255
30308
30309
30307
30254
30303
30310
30300
30319
30297
30269
30298
30303
30311
30309
30305
30259
30307
30295
30300
30251
30303
30300
30303
30303
30231
30293
30311
30298
30304
30279
30287
30302
30293
30264
30308
30297
30290
30246
30306
30298
30299
30300
30291
30278
30279
30279
30279
30286
30284
30285
30271
30285
30281
30286
30187
30261
30287
30277
30204
30264
30278
30277
30250
30283
30271
30207
30265
30260
30262
30262
30267
30263
30191
30258
30255
30263
30191
30261
30252
30263
30199
30247
30255
30252
30213
30271
30247
30244
30233
30252
30247
30191
30255
30244
30244
30193
30255
30244
30154
30237
30245
30247
30199
30247
30236
30240
30215
30247
30235
30164
30222
30247
30243
30237
30206
30230
30229
30215
30201
30235
30228
30228
30229
30229
30228
30228
30187
30227
30225
30215
30214
30206
30212
30181
30228
30215
30162
30230
30213
30215
30201
30215
30158
30215
30199
30167
30211
30215
30164
30212
30207
30215
30203
30207
30206
30187
30206
30207
30212
30183
30230
30196
30143
30214
30204
30202
30206
30195
30194
30176
30202
30204
30137
30207
30204
30199
30119
30190
30199
30199
30141
30197
30196
30187
30180
30200
30196
30143
30198
30192
30191
30179
30200
30185
30146
30195
30189
30187
30168
30199
30186
30115
30179
30188
30196
30134
30195
30183
30186
30102
30173
30201
30191
30190
30141
30195
30191
30177
30119
30182
30181
30191
30151
30197
30187
30199
30125
30170
30191
30177
30188
30159
30190
30187
30178
30154
30186
30178
30199
30133
30167
30193
30175
30109
30173
30188
30186
30189
30115
30164
30186
30193
30174
30122
30167
30185
30188
30183
30151
30188
30186
30189
30146
30188
30183
30183
30159
30180
30183
30183
30117
30183
30183
30181
30111
30170
30187
30182
30175
30153
30189
30183
30181
30126
30183
30183
30175
30181
30116
30164
30191
30182
30180
30178
30181
30077
30155
30194
30178
30179
30124
30175
30194
30183
30186
30134
30186
30183
30180
30181
30165
30202
30181
30183
30159
30175
30205
30184
30182
30180
30038
30156
30172
30187
30189
30188
30159
30188
30179
30178
30185
30134
30181
30194
30183
30191
30189
30099
30189
30191
30189
30135
30197
30191
30197
30142
30197
30199
30100
30191
30178
30183
30183
30192
30199
30140
30208
30197
30132
30199
30202
30196
30116
30194
30189
30194
30156
30198
30159
30196
30203
30201
30180
30190
30196
30137
30207
30196
30188
30196
30156
30196
30198
30210
30177
30208
30203
30148
30206
30200
30209
30175
30208
30205
30202
30183
30214
30205
30199
30143
30203
30211
30205
30198
30171
30212
30209
30209
30180
30205
30207
30209
30215
30159
30183
30210
30215
30199
30215
30212
30215
30207
30209
30209
30212
30141
30156
30179
30177
30191
30226
30209
30223
30214
30210
30121
30172
30201
30205
30215
30215
30228
30212
30215
30215
30215
30215
30159
30169
30196
30210
30228
30237
30230
30211
30223
30236
30215
30215
30167
30215
30239
30211
30215
30215
30228
30229
30206
30187
30222
30239
30227
30230
30233
30222
30233
30196
30215
30241
30231
30228
30223
30119
30175
30214
30243
30230
30231
30140
30209
30233
30237
30226
30244
30231
30227
30170
30209
30215
30236
30247
30234
30236
30239
30123
30169
30193
30225
30223
30235
30243
30245
30247
30236
30229
30234
30235
30235
30180
30214
30234
30246
30243
30239
30239
30231
30183
30215
30228
30231
30245
30244
30236
30239
30207
30232
30245
30247
30249
30245
30240
30246
30186
30203
30237
30247
30228
30253
30242
30215
30257
30247
30247
30244
30239
30247
30148
30246
30254
30242
30183
30240
30259
30247
30178
30229
30247
30247
30247
30215
30260
30244
30246
30252
30233
30252
30245
30237
30215
30252
30247
30247
30215
30247
30247
30177
30237
30247
30231
30234
30244
30236
30228
30196
30245
30232
30231
30197
30249
30238
30228
30228
30243
30243
30094
30231
30231
30235
30242
30223
30215
30242
30221
30236
30207
30246
30241
30237
30199
30244
30234
30237
30190
30240
30241
30233
30178
30215
30230
30253
30247
30146
30226
30252
30237
30235
30215
30191
30195
30236
30237
30250
30238
30213
30247
30241
30247
30231
30262
30253
30257
30215
30247
30249
30258
30183
30225
30247
30258
30256
30244
30258
30252
30255
30251
30254
30252
30247
30185
30199
30238
30253
30253
30258
30251
30245
30255
30156
30234
30255
30247
30251
30257
30215
30247
30269
30247
30244
30250
30210
30245
30260
30252
30247
30251
30208
30255
30247
30252
30257
30193
30204
30239
30255
30261
30263
30259
30251
30260
30257
30251
30263
30191
30239
30255
30260
30259
30261
30255
30263
30207
30238
30274
30251
30265
30181
30215
30236
30247
30247
30247
30257
30249
30202
30239
30255
30250
30244
30252
30242
30247
30191
30212
30233
30251
30245
30250
30267
30250
30251
30247
30247
30215
30179
30245
30247
30239
30231
30237
30154
30180
30210
30231
30241
30239
30230
30225
30228
30229
30183
30207
30229
30236
30247
30231
30225
30222
30231
30230
30223
30222
30215
30224
30206
30214
30135
30177
30196
30215
30215
30215
30203
30215
30212
30207
30127
30172
30202
30213
30196
30191
30199
30193
30130
30173
30175
30199
30182
30191
30177
30133
30175
30191
30180
30189
30191
30165
30099
30119
30151
30159
30159
30170
30151
30158
30149
30156
30148
30079
30096
30135
30163
30139
30143
30140
30067
30100
30125
30140
30151
30135
30125
30133
30119
30132
30111
30047
30093
30108
30103
30113
30100
30116
30106
30103
30107
30107
30018
30063
30076
30087
30100
30106
30083
30087
30083
30023
30060
30078
30072
30074
30076
30026
30057
30065
30073
30068
30059
30059
30047
30061
30000
30011
30025
30051
30061
30043
30031
30047
29956
30015
30035
30026
30037
30034
30024
29967
30002
30019
30019
30015
30010
30004
30004
30014
30004
29959
29973
29977
29985
29992
29991
29999
29997
29998
29991
29991
29977
29983
29983
29921
29927
29919
29977
29973
29966
29979
29964
29959
29959
29974
29966
29964
29964
29958
29944
29947
29947
29947
29828
29893
29911
29914
29918
29935
29941
29943
29943
29931
29931
29933
29929
29927
29927
29927
29878
29887
29894
29910
29920
29917
29924
29914
29918
29915
29905
29903
29873
29895
29906
29902
29901
29863
29895
29895
29895
29895
29895
29886
29845
29892
29894
29880
29879
29878
29884
29879
29879
29830
29788
29830
29831
29855
29820
29818
29829
29831
29845
29863
29859
29861
29866
29854
29850
29844
29855
29853
29847
29847
29844
29844
29850
29838
29804
29791
29799
29817
29834
29833
29831
29831
29841
29831
29836
29831
29740
29775
29797
29790
29785
29823
29823
29823
29828
29824
29814
29812
29804
29809
29809
29759
29770
29804
29810
29807
29804
29799
29804
29751
29775
29780
29799
29799
29791
29796
29787
29791
29790
29789
29790
29746
29780
29781
29790
29794
29789
29781
29775
29781
29776
29781
29757
29780
29774
29778
29784
29772
29764
29767
29771
29765
29726
29751
29743
29763
29766
29767
29767
29764
29763
29761
29779
29759
29756
29764
29758
29766
29754
29751
29703
29750
29754
29727
29754
29752
29749
29744
29737
29755
29753
29758
29746
29743
29742
29736
29744
29742
29743
29737
29740
29735
29735
29729
29725
29724
29726
29719
29722
29719
29718
29716
29716
29717
29703
29695
29699
29682
29703
29703
29719
29716
29719
29727
29708
29729
29726
29735
29718
29715
29720
29719
29716
29719
29719
29716
29719
29711
29722
29711
29726
29703
29676
29679
29671
29684
29703
29703
29711
29723
29711
29716
29703
29703
29703
29703
29703
29700
29701
29681
29703
29726
29701
29703
29699
29691
29695
29688
29691
29713
29702
29638
29659
29669
29686
29679
29699
29693
29697
29702
29697
29703
29711
29697
29703
29700
29700
29695
29690
29695
29690
29684
29676
29561
29656
29660
29686
29681
29698
29694
29685
29677
29690
29679
29676
29687
29656
29668
29687
29687
29692
29686
29687
29684
29679
29688
29644
29665
29681
29682
29684
29687
29679
29676
29606
29641
29655
29677
29663
29673
29687
29699
29691
29679
29681
29678
29674
29674
29679
29554
29631
29648
29663
29669
29683
29687
29671
29677
29671
29660
29670
29671
29605
29647
29666
29671
29674
29666
29665
29596
29645
29673
29675
29668
29668
29671
29669
29671
29636
29660
29665
29674
29669
29665
29671
29666
29661
29670
29621
29647
29647
29642
29662
29661
29671
29662
29675
29661
29665
29655
29668
29663
29659
29670
29662
29627
29657
29667
29669
29672
29668
29658
29676
29668
29671
29664
29665
29520
29627
29652
29675
29671
29679
29663
29669
29657
29667
29669
29663
29670
29674
29671
29677
29591
29610
29641
29634
29629
29627
29635
29658
29659
29675
29675
29662
29670
29660
29663
29659
29620
29636
29655
29669
29678
29666
29668
29652
29660
29666
29666
29668
29663
29667
29667
29605
29614
29626
29639
29655
29655
29668
29661
29658
29664
29654
29652
29648
29655
29588
29617
29622
29643
29644
29659
29643
29649
29648
29651
29644
29626
29627
29628
29649
29623
29639
29645
29652
29655
29656
29662
29655
29650
29651
29655
29630
29654
29662
29657
29649
29605
29647
29656
29657
29662
29653
29652
29659
29631
29654
29658
29679
29671
29671
29670
29656
29667
29664
29617
29656
29658
29668
29676
29680
29671
29617
29661
29685
29671
29677
29671
29662
29682
29692
29683
29684
29675
29683
29668
29607
29639
29650
29660
29673
29691
29697
29695
29686
29699
29693
29699
29679
29679
29683
29687
29701
29695
29691
29636
29659
29679
29695
29670
29685
29679
29679
29690
29697
29701
29695
29694
29700
29700
29699
29685
29695
29671
29695
29700
29714
29713
29697
29692
29697
29635
29662
29699
29699
29703
29715
29703
29696
29695
29703
29696
29698
29646
29654
29671
29685
29693
29703
29697
29703
29701
29702
29712
29722
29703
29703
29703
29716
29703
29703
29717
29668
29694
29717
29717
29711
29708
29717
29703
29708
29703
29719
29639
29686
29703
29718
29724
29703
29712
29663
29658
29714
29715
29719
29703
29711
29703
29718
29718
29703
29717
29703
29703
29703
29659
29671
29693
29703
29697
29715
29703
29712
29716
29722
29700
29703
29703
29703
29663
29691
29697
29703
29700
29701
29703
29694
29703
29638
29676
29698
29703
29703
29699
29695
29690
29654
29695
29698
29703
29694
29696
29687
29687
29681
29690
29686
29679
29666
29685
29692
29692
29692
29679
29687
29672
29685
29676
29668
29671
29631
29666
29675
29671
29668
29674
29638
29670
29679
29668
29675
29655
29662
29662
29656
29654
29604
29628
29641
29657
29650
29662
29661
29639
29657
29643
29639
29648
29647
29646
29642
29639
29631
29580
29608
29622
29633
29642
29647
29638
29633
29632
29629
29634
29627
29631
29569
29597
29613
29623
29623
29622
29621
29615
29622
29563
29598
29621
29614
29615
29615
29609
29603
29607
29623
29613
29614
29607
29605
29583
29596
29614
29599
29599
29599
29597
29526
29558
29566
29586
29599
29606
29597
29591
29591
29596
29590
29596
29588
29595
29585
29591
29582
29590
29583
29574
29552
29569
29572
29586
29583
29583
29588
29584
29573
29580
29550
29575
29583
29588
29575
29575
29575
29575
29575
29567
29575
29596
29583
29579
29572
29554
29578
29582
29586
29577
29543
29573
29581
29579
29573
29573
29543
29572
29575
29575
29572
29572
29578
29492
29539
29578
29572
29573
29574
29572
29570
29561
29574
29543
29568
29567
29565
29566
29573
29573
29533
29574
29577
29580
29575
29575
29567
29573
29532
29543
29533
29550
29555
29588
29575
29574
29575
29562
29573
29586
29574
29576
29580
29574
29577
29575
29587
29583
29574
29574
29487
29556
29572
29574
29569
29589
29585
29582
29588
29591
29581
29594
29582
29590
29591
29577
29584
29588
29586
29540
29558
29569
29596
29607
29593
29596
29589
29595
29592
29601
29551
29594
29592
29607
29597
29602
29605
29603
29542
29557
29599
29610
29613
29601
29608
29599
29610
29611
29567
29588
29607
29614
29620
29613
29607
29612
29556
29590
29615
29626
29613
29627
29620
29559
29599
29588
29605
29631
29639
29636
29632
29628
29624
29630
29588
29607
29603
29594
29591
29604
29604
29623
29634
29639
29628
29643
29639
29655
29647
29641
29642
29661
29652
29658
29652
29645
29543
29623
29627
29635
29631
29655
29654
29651
29668
29679
29665
29659
29662
29668
29669
29671
29668
29671
29677
29668
29679
29610
29639
29679
29690
29695
29694
29695
29689
29694
29692
29686
29701
29700
29703
29700
29650
29679
29699
29703
29714
29719
29718
29703
29724
29719
29726
29719
29723
29689
29716
29725
29735
29734
29728
29735
29735
29735
29733
29740
29727
29748
29749
29748
29675
29685
29690
29662
29703
29737
29751
29763
29764
29757
29766
29766
29764
29759
29761
29703
29734
29756
29765
29782
29780
29786
29762
29727
29775
29783
29799
29780
29781
29799
29791
29756
29799
29796
29807
29796
29813
29805
29812
29759
29775
29793
29807
29799
29820
29826
29824
29834
29825
29831
29831
29822
29830
29828
29770
29786
29841
29847
29853
29835
29847
29851
29861
29799
29831
29858
29867
29860
29868
29871
29861
29860
29875
29807
29831
29871
29876
29877
29874
29881
29885
29887
29807
29811
29841
29863
29894
29895
29908
29903
29905
29909
29903
29917
29912
29911
29913
29917
29916
29923
29847
29886
29931
29939
29943
29945
29939
29942
29935
29940
29948
29956
29953
29949
29951
29959
29951
29959
29933
29935
29959
29970
29977
29982
29972
29977
29987
29988
29991
29919
29959
29981
29988
29993
30010
30002
30002
30011
30004
30012
30007
29942
29972
29959
29990
30024
30031
30025
30026
30036
30036
30036
29978
30021
30043
30039
30046
30055
30046
29978
30015
30046
30059
30047
30071
30083
30055
30075
30077
30073
30067
30077
30087
30074
29987
30047
30076
30086
30105
30096
30109
30095
30100
30109
30109
30108
30111
30116
30117
30116
30128
30126
30124
30127
30132
30134
30121
30130
30130
30143
30143
30154
30151
30155
30142
30158
30156
30156
30151
30157
30159
30155
30068
30162
30167
30170
30172
30170
30175
30178
30174
30175
30138
30172
30167
30199
30199
30191
30191
30198
30199
30196
30207
30199
30212
30215
30215
30215
30228
30215
30188
30138
30228
30227
30222
30247
30224
30215
30247
30250
30270
30263
30271
30269
30263
30260
30271
30271
30277
30279
30290
30292
30287
30298
30292
30298
30197
30303
30249
30262
30286
30284
30301
30311
30319
30335
30334
30351
30328
30343
30347
30340
30343
30262
30302
30329
30338
30343
30351
30364
30372
30380
30375
30373
30374
30364
30377
30373
30383
30387
30391
30401
30406
30399
30407
30415
30406
30417
30420
30425
30414
30433
30423
30423
30435
30441
30447
30438
30432
30443
30447
30455
30460
30455
30439
30455
30452
30445
30415
30386
30470
30470
30471
30482
30478
30493
30486
30495
30487
30491
30495
30502
30487
30500
30508
30503
30511
30509
30460
30498
30515
30527
30541
30524
30520
30526
30543
30439
30481
30495
30532
30541
30548
30553
30556
30559
30558
30567
30567
30566
30431
30506
30535
30559
30577
30588
30581
30575
30575
30589
30583
30595
30591
30589
30471
30519
30572
30589
30596
30593
30615
30607
30620
30618
30615
30607
30620
30615
30616
30541
30547
30567
30591
30613
30622
30631
30652
30634
30639
30634
30629
30639
30630
30654
30654
30644
30647
30647
30652
30657
30654
30574
30623
30631
30615
30596
30556
30660
30661
30669
30666
30575
30577
30599
30593
30610
30612
30639
30661
30668
30681
30683
30676
30691
30671
30673
30679
30687
30693
30687
30691
30690
30676
30679
30685
30681
30687
30691
30687
30614
30641
30623
30703
30689
30694
30666
30695
30693
30705
30708
30697
30701
30697
30685
30697
30703
30703
30700
30703
30699
30692
30700
30709
30710
30696
30701
30703
30698
30703
30655
30663
30687
30687
30666
30671
30694
30719
30716
30723
30720
30703
30704
30708
30710
30715
30704
30721
30724
30712
30727
30717
30717
30650
30680
30703
30684
30705
30703
30721
30726
30724
30718
30719
30727
30721
30724
30727
30725
30727
30714
30724
30727
30723
30668
30673
30692
30687
30720
30724
30739
30713
30727
30727
30747
30727
30727
30727
30727
30742
30741
30754
30743
30741
30747
30739
30641
30663
30668
30695
30703
30700
30692
30668
30671
30703
30703
30701
30691
30677
30758
30753
30757
30758
30759
30767
30763
30667
30710
30743
30757
30745
30772
30781
30775
30782
30775
30776
30769
30777
30778
30783
30772
30773
30778
30785
30790
30783
30796
30719
30765
30788
30797
30791
30796
30797
30795
30804
30798
30796
30716
30743
30772
30794
30788
30796
30815
30817
30805
30808
30823
30822
30820
30811
30821
30716
30748
30759
30762
30783
30803
30823
30831
30831
30839
30847
30827
30847
30847
30837
30844
30846
30847
30764
30814
30815
30854
30855
30845
30850
30855
30859
30855
30862
30740
30833
30842
30855
30855
30879
30887
30887
30879
30871
30868
30877
30882
30893
30883
30769
30836
30860
30887
30880
30871
30874
30907
30913
30903
30903
30916
30899
30913
30897
30916
30913
30908
30908
30931
30911
30867
30931
30924
30918
30941
30924
30895
30911
30927
30920
30933
30957
30943
30948
30949
30951
30951
30877
30893
30889
30916
30944
30951
30959
30965
30979
30967
30967
30973
30981
30982
30983
30978
30980
30990
30996
30983
30995
31015
30996
30996
30998
30997
31011
31004
31012
31022
31020
31014
31030
31030
31029
31028
31029
31033
31020
31045
31042
31043
31044
31060
31047
31043
31053
30948
31011
31043
31056
31071
31069
31061
31057
31056
31071
31068
31087
31066
31005
30993
31007
31021
31028
31062
31084
31093
31089
31100
31103
31100
31105
31111
31111
31123
31119
31123
31114
31117
31122
31127
31132
31136
31151
31140
31140
31150
31135
31146
31140
31148
31151
31159
31164
31158
31156
31157
31167
31159
31173
31173
31171
31183
31041
31108
31137
31159
31160
31137
31148
31169
31175
31191
31195
31200
31204
31188
31205
31211
31211
31229
31218
31235
31239
31228
31239
31223
31239
31239
31251
31247
31254
31255
31259
31261
31270
31269
31151
31181
31215
31247
31270
31281
31284
31277
31287
31275
31294
31287
31299
31295
31302
31303
31307
31301
31311
31310
31311
31319
31327
31324
31320
31335
31215
31271
31290
31311
31319
31335
31361
31349
31351
31356
31361
31358
31287
31338
31365
31367
31367
31385
31391
31380
31373
31280
31332
31325
31345
31377
31383
31389
31399
31423
31424
31412
31420
31418
31425
31343
31364
31402
31429
31438
31452
31446
31430
31452
31450
31447
31359
31397
31445
31472
31461
31476
31464
31468
31380
31411
31484
31479
31399
31448
31481
31501
31507
31508
31501
31509
31502
31429
31463
31483
31510
31519
31533
31547
31540
31532
31532
31551
31481
31534
31558
31553
31558
31564
31557
31444
31447
31495
31538
31559
31591
31568
31588
31598
31593
31599
31487
31527
31567
31599
31612
31620
31607
31621
31623
31610
31509
31543
31583
31603
31631
31650
31636
31655
31647
31651
31556
31589
31606
31620
31631
31666
31655
31662
31692
31679
31681
31690
31695
31687
31695
31699
31596
31602
31599
31646
31686
31713
31731
31708
31724
31724
31724
31740
31727
31724
31734
31597
31677
31719
31735
31751
31751
31749
31751
31751
31751
31751
31674
31703
31748
31751
31767
31773
31783
31787
31798
31782
31773
31780
31781
31807
31791
31796
31811
31813
31807
31711
31743
31811
31807
31819
31811
31816
31815
31831
31839
31863
31847
31868
31862
31871
31857
31846
31862
31878
31871
31891
31879
31879
31883
31885
31766
31806
31812
31808
31847
31847
31869
31884
31903
31916
31917
31934
31927
31924
31930
31946
31939
31948
31799
31898
31941
31974
31943
31964
31958
31853
31916
31955
31981
31975
31980
31981
31997
31986
31998
32003
31991
31878
31967
31998
32020
32004
32007
32034
32023
32029
32027
31898
31914
31962
31981
32024
32035
32053
32041
32055
32059
32055
32049
32013
32042
32071
32079
32074
32075
32082
32085
32076
32087
31952
32002
32056
32101
32101
32109
32085
32109
32113
32007
32075
32094
32111
32124
32135
32138
32119
32140
32141
32132
32034
32116
32147
32143
32156
32156
32148
32149
32071
32061
32121
32140
32167
32181
32167
32164
32164
32060
32119
32155
32183
32191
32175
32197
32191
32204
32188
32063
32130
32170
32197
32198
32207
32199
32206
32200
32213
32204
32151
32195
32215
32228
32211
32225
32231
32230
32118
32191
32234
32237
32229
32233
32239
32235
32244
32165
32215
32242
32254
32247
32259
32254
32261
32259
32254
32251
32142
32199
32214
32247
32263
32261
32258
32247
32255
32263
32263
32200
32226
32254
32283
32257
32263
32169
32245
32279
32263
32279
32149
32223
32263
32279
32281
32287
32222
32276
32271
32278
32133
32263
32292
32290
32287
32204
32252
32292
32285
32285
32286
32241
32282
32282
32295
32287
32175
32220
32263
32295
32299
32273
32297
32294
32287
32208
32271
32295
32279
32278
32293
32289
32295
32204
32263
32292
32279
32285
32297
32220
32255
32287
32285
32300
32287
32192
32254
32287
32295
32283
32278
32284
32146
32182
32223
32254
32279
32284
32285
32290
32295
32286
32159
32212
32280
32292
32279
32276
32288
32295
32197
32271
32299
32275
32278
32295
32119
32238
32290
32295
32272
32286
32282
32158
32215
32244
32282
32285
32277
32279
32287
32287
32272
32157
32182
32230
32261
32281
32263
32279
32283
32279
32199
32263
32279
32279
32277
32131
32211
32254
32272
32292
32295
32279
32285
32286
32283
32263
32219
32255
32279
32292
32287
32260
32279
32273
32285
32207
32261
32279
32287
32299
32279
32283
32287
32145
32240
32287
32298
32279
32278
32294
32289
32287
32199
32263
32281
32282
32282
32278
32277
32221
32285
32276
32275
32276
32285
32220
32263
32303
32286
32277
32283
32189
32219
32286
32286
32303
32268
32282
32289
32293
32202
32247
32276
32286
32287
32294
32288
32170
32220
32263
32271
32309
32301
32295
32295
32286
32246
32276
32287
32278
32291
32301
32295
32295
32214
32263
32300
32311
32285
32300
32300
32295
32300
32290
32131
32182
32227
32285
32295
32301
32298
32299
32297
32300
32213
32236
32277
32311
32295
32298
32301
32311
32202
32236
32295
32308
32303
32310
32301
32149
32239
32275
32305
32319
32310
32295
32306
32311
32311
32278
32324
32305
32322
32309
32315
32203
32280
32318
32311
32314
32311
32210
32292
32311
32333
32306
32319
32323
32314
32172
32231
32279
32317
32332
32311
32326
32327
32330
32324
32282
32301
32346
32324
32334
32326
32262
32308
32351
32325
32341
32183
32277
32319
32343
32335
32338
32325
32294
32321
32348
32324
32333
32330
32239
32311
32332
32337
32335
32345
32341
32247
32287
32279
32308
32333
32359
32345
32335
32353
32348
32231
32262
32296
32349
32364
32340
32353
32357
32356
32345
32347
32221
32273
32283
32295
32350
32365
32367
32375
32380
32357
32351
32359
32375
32364
32364
32364
32369
32364
32373
32263
32327
32351
32367
32364
32381
32379
32391
32381
32383
32397
32391
32381
32383
32390
32375
32378
32376
32391
32391
32383
32262
32302
32325
32353
32374
32383
32388
32390
32414
32375
32385
32391
32389
32391
32391
32306
32325
32343
32345
32383
32391
32405
32398
32407
32397
32407
32396
32260
32343
32379
32397
32420
32418
32399
32405
32408
32414
32412
32406
32396
32415
32411
32423
32418
32426
32422
32421
32420
32286
32339
32410
32406
32427
32437
32412
32422
32429
32436
32423
32431
32429
32437
32428
32335
32383
32400
32439
32433
32435
32447
32432
32439
32357
32396
32431
32452
32435
32445
32319
32351
32391
32429
32445
32469
32429
32439
32447
32453
32461
32455
32308
32351
32403
32445
32455
32444
32461
32465
32458
32311
32367
32415
32439
32467
32469
32462
32462
32447
32459
32463
32455
32469
32469
32476
32472
32476
32476
32470
32469
32484
32466
32481
32470
32343
32388
32439
32455
32452
32453
32462
32471
32495
32470
32469
32474
32491
32484
32476
32481
32484
32494
32487
32492
32327
32380
32381
32410
32413
32436
32455
32460
32490
32478
32480
32492
32495
32503
32511
32484
32495
32513
32508
32508
32505
32511
32399
32431
32391
32421
32479
32484
32502
32519
32503
32516
32510
32519
32431
32487
32516
32519
32514
32519
32519
32509
32429
32483
32519
32533
32511
32516
32509
32519
32511
32516
32447
32486
32539
32504
32527
32519
32403
32484
32510
32528
32506
32519
32519
32371
32459
32514
32538
32532
32515
32509
32503
32507
32543
32515
32519
32517
32538
32516
32457
32519
32533
32519
32529
32536
32527
32519
32461
32508
32541
32547
32521
32535
32535
32533
32452
32517
32547
32541
32543
32537
32538
32479
32548
32558
32542
32550
32466
32531
32556
32531
32553
32551
32541
32429
32485
32509
32514
32519
32543
32556
32562
32575
32572
32540
32555
32567
32567
32575
32558
32477
32516
32551
32581
32564
32571
32575
32572
32439
32519
32572
32564
32583
32582
32491
32534
32575
32579
32583
32586
32439
32532
32575
32585
32583
32580
32516
32578
32578
32591
32583
32519
32577
32601
32583
32580
32582
32583
32590
32586
32436
32533
32583
32590
32581
32590
32588
32430
32473
32538
32573
32612
32598
32598
32428
32551
32580
32601
32585
32597
32597
32604
32598
32519
32562
32583
32612
32594
32586
32593
32595
32601
32605
32591
32479
32549
32590
32591
32594
32596
32594
32603
32534
32575
32607
32605
32597
32604
32583
32487
32535
32565
32603
32589
32599
32606
32487
32511
32551
32570
32585
32607
32615
32599
32593
32591
32479
32507
32553
32600
32611
32589
32593
32590
32596
32587
32595
32422
32479
32513
32541
32565
32594
32591
32579
32593
32591
32579
32583
32477
32557
32573
32597
32588
32578
32575
32452
32488
32517
32540
32578
32560
32575
32573
32571
32454
32495
32534
32551
32569
32540
32559
32559
32428
32500
32530
32546
32551
32506
32551
32564
32532
32535
32549
32530
32542
32529
32471
32550
32533
32439
32529
32535
32537
32533
32525
32453
32533
32522
32388
32508
32519
32532
32450
32519
32516
32365
32500
32506
32503
32420
32518
32510
32439
32501
32495
32439
32495
32495
32463
32470
32484
32463
32470
32487
32466
32479
32479
32431
32462
32468
32401
32476
32466
32391
32460
32455
32439
32442
32445
32445
32436
32332
32438
32439
32303
32415
32437
32431
32375
32437
32430
32373
32444
32421
32391
32418
32415
32374
32415
32407
32369
32404
32413
32358
32427
32399
32331
32407
32399
32263
32375
32385
32255
32375
32383
32289
32382
32380
32372
32359
32367
32359
32295
32367
32372
32287
32378
32375
32271
32359
32366
32234
32343
32345
32355
32302
32366
32359
32255
32359
32347
32227
32359
32346
32218
32340
32335
32185
32311
32348
32321
32279
32327
32335
32275
32315
32303
32315
32221
32296
32320
32308
32311
32295
32303
32311
32311
32310
32181
32282
32310
32298
32303
32286
32293
32305
32218
32295
32287
32285
32213
32305
32295
32172
32275
32283
32278
32263
32279
32279
32213
32286
32263
32197
32279
32257
32263
32194
32286
32263
32188
32272
32263
32181
32277
32251
32170
32263
32251
32211
32263
32239
32180
32255
32247
32231
32244
32233
32206
32231
32237
32175
32247
32228
32195
32224
32228
32218
32220
32231
32205
32207
32221
32186
32221
32201
32194
32214
32113
32220
32211
32119
32227
32225
32097
32215
32212
32093
32187
32207
32212
32087
32203
32192
32197
32153
32199
32194
32195
32142
32202
32196
32199
32119
32201
32194
32055
32188
32187
32175
32151
32182
32183
32127
32197
32178
32183
32142
32183
32173
32102
32185
32167
32172
32135
32174
32164
32037
32164
32166
32159
32091
32167
32167
32039
32166
32151
32110
32167
32167
32090
32167
32159
32126
32159
32167
32103
32155
32157
32052
32172
32156
32131
32135
32018
32156
32148
32108
32143
32148
32126
32151
32039
32151
32143
32143
32135
32015
32125
32141
32075
32149
32129
32101
32132
32132
32127
32137
32006
32132
32135
32143
32115
32127
32133
32091
32135
32127
32126
32098
32135
32117
32132
31986
32097
32132
32124
32047
32127
32131
32122
32062
32127
32127
31995
32098
32116
32116
32109
32118
32111
32107
32110
32043
32132
32100
32069
32101
31971
32127
32111
32063
32094
32119
32105
32103
32111
32101
32101
32103
32004
32095
32112
32109
31953
32103
32090
32111
32082
32100
32111
32047
32115
32108
31966
32107
32095
32110
32095
32087
31966
32102
32103
32023
32102
32096
32061
32087
32100
32094
32095
32030
32095
32086
32101
32095
32036
32081
32092
32066
32087
32006
32098
32090
32086
32087
32007
32085
32083
32081
32084
32087
32093
32015
32095
32100
32001
32102
32084
31988
32090
32081
31982
32078
32087
32093
32052
32087
32083
32003
32100
32089
32025
32101
32081
31983
32088
32084
31989
32087
32079
32014
32091
32071
31974
32091
32087
32045
32068
32079
32007
32063
32092
32068
32083
32081
32002
32076
32079
32075
32075
32071
31994
32051
32092
32079
32068
31951
31998
32056
32083
32066
32077
32077
32083
31991
32058
32050
32033
32007
32031
32039
32052
32042
32047
32041
32078
32070
32075
32076
31941
32055
32090
32075
32077
32007
32063
32087
32085
32079
32076
31953
32039
32071
32071
32078
32087
32068
31982
32007
32038
32077
32067
32083
32071
31933
31980
32051
32071
32067
32081
31968
32054
32091
32065
32085
32076
31932
32027
32083
32070
32070
32028
32077
32069
32076
32060
32022
32062
32066
32071
32077
32066
31910
31999
32063
32063
32066
32063
31956
32030
32053
32067
32066
32065
32054
31907
32007
32047
32073
32061
32063
32071
31975
32029
32049
32076
32063
32056
32060
31931
31979
32028
32077
32064
32067
32067
31983
32063
32070
32060
32062
32063
31947
32034
32060
32079
32068
32060
31959
32034
32055
32070
32071
32071
31942
31959
32007
32041
32077
32079
32064
32070
32077
32071
31988
32043
32079
32079
32073
32080
32077
31958
32007
32050
32067
32097
32070
32071
32070
32007
32087
32068
32087
32084
32001
32069
32079
32082
31923
32039
32094
32077
32087
32084
31972
32022
32071
32090
32071
32079
32078
31998
32057
32082
32095
32071
32095
32082
31958
32036
32074
32103
32075
32086
31979
32078
32095
32095
32090
31936
32031
32071
32096
32081
32095
32091
32086
32015
32051
32077
32098
32092
32076
31966
32031
32069
32092
32083
32092
32087
32087
31974
32023
32057
32093
32078
32101
32090
32007
32071
32073
32083
32106
32078
32084
32083
32077
31973
32025
32057
32077
32095
32073
32080
32079
32039
32077
32091
32086
32093
31944
32044
32095
32089
32081
31959
32039
32079
32101
32084
32077
32079
31991
32047
32069
32096
32059
32071
32063
31980
32034
32079
32068
32069
32077
31935
32014
32058
32084
32063
32070
32062
31959
32025
32065
32055
32062
32052
31911
31993
32046
32057
32039
32068
32052
31924
31980
32042
32054
32047
32045
32047
32060
32041
32039
32039
32041
31934
32005
32031
32011
32039
32023
32036
31916
31991
32023
32021
32033
32037
32022
31892
31933
31992
32012
32007
32017
32012
31895
31981
32004
31991
32002
32003
31908
31978
32007
31994
31995
31991
31898
31964
31991
31980
31979
31976
31988
31888
31967
31964
31982
31975
31847
31949
31975
31949
31975
31961
31885
31967
31957
31947
31956
31875
31911
31940
31966
31941
31942
31942
31938
31844
31887
31913
31936
31919
31929
31924
31924
31932
31919
31919
31918
31921
31921
31911
31807
31871
31890
31895
31914
31913
31911
31911
31900
31903
31900
31906
31895
31910
31895
31791
31843
31863
31887
31895
31885
31887
31884
31887
31819
31860
31885
31884
31887
31879
31876
31876
31873
31772
31828
31844
31860
31837
31845
31877
31867
31874
31866
31865
31863
31869
31867
31860
31867
31847
31859
31750
31777
31785
31815
31817
31823
31834
31815
31812
31825
31829
31837
31861
31847
31841
31847
31832
31845
31819
31829
31823
31823
31823
31831
31828
31829
31815
31834
31824
31828
31821
31820
31695
31742
31773
31806
31828
31815
31823
31813
31732
31782
31805
31815
31830
31807
31807
31804
31711
31789
31799
31813
31815
31804
31805
31807
31798
31710
31783
31796
31809
31797
31804
31799
31783
31727
31783
31803
31788
31795
31788
31791
31789
31724
31764
31795
31787
31793
31796
31783
31791
31782
31679
31749
31783
31795
31783
31789
31772
31785
31710
31760
31790
31794
31782
31748
31725
31783
31788
31782
31778
31779
31772
31773
31797
31783
31767
31741
31764
31782
31761
31783
31779
31691
31743
31765
31783
31775
31782
31773
31702
31751
31780
31774
31779
31775
31771
31767
31775
31781
31765
31751
31731
31758
31783
31772
31777
31777
31671
31740
31767
31775
31775
31774
31775
31779
31769
31655
31722
31773
31772
31751
31779
31765
31644
31715
31749
31785
31764
31783
31773
31767
31766
31687
31703
31748
31780
31767
31775
31767
31641
31695
31722
31739
31749
31764
31783
31751
31775
31771
31772
31773
31695
31716
31764
31775
31780
31765
31775
31779
31639
31676
31729
31765
31785
31771
31771
31782
31772
31770
31713
31759
31791
31771
31777
31779
31671
31720
31750
31779
31789
31792
31788
31783
31773
31671
31700
31732
31777
31787
31783
31797
31780
31706
31767
31783
31796
31784
31789
31786
31653
31719
31773
31798
31791
31789
31783
31803
31797
31805
31727
31767
31802
31794
31794
31799
31799
31663
31719
31727
31743
31791
31805
31791
31799
31811
31807
31671
31748
31794
31796
31799
31803
31804
31802
31799
31810
31807
31810
31805
31815
31668
31735
31725
31729
31767
31794
31815
31833
31815
31807
31812
31830
31831
31827
31814
31742
31751
31746
31735
31781
31763
31788
31804
31805
31813
31834
31828
31819
31831
31828
31791
31833
31837
31831
31826
31837
31828
31844
31847
31844
31831
31843
31727
31770
31804
31835
31837
31847
31866
31833
31840
31847
31849
31856
31855
31853
31857
31839
31851
31742
31804
31847
31860
31860
31846
31859
31864
31852
31740
31775
31842
31876
31855
31866
31866
31871
31871
31751
31839
31861
31885
31879
31869
31879
31877
31879
31751
31809
31839
31871
31890
31897
31895
31879
31892
31885
31897
31908
31907
31887
31895
31882
31768
31822
31869
31890
31910
31893
31906
31901
31845
31894
31918
31897
31898
31905
31902
31796
31913
31910
31910
31911
31775
31783
31831
31853
31880
31900
31887
31915
31917
31914
31922
31917
31906
31927
31887
31873
31828
31810
31876
31922
31920
31938
31935
31919
31925
31929
31934
31807
31875
31876
31908
31938
31948
31941
31940
31938
31949
31838
31947
31944
31948
31901
31937
31932
31911
31937
31955
31924
31938
31959
31950
31950
31863
31951
31966
31956
31960
31963
31965
31925
31956
31968
31941
31965
31876
31980
31975
31895
31997
31988
31969
31975
31878
31987
31984
31970
31989
31943
32004
32003
31943
32005
31998
31879
31986
32006
32007
31972
32007
32015
32003
32007
31926
32039
32007
31996
32006
31901
32040
32022
31998
32020
32028
32029
32031
32037
32023
32042
31992
32036
32036
32023
32042
32046
32055
32043
32007
32039
32049
32035
32057
31974
32043
32067
32058
32057
31946
32068
32074
31985
32085
32068
31980
32082
32079
31980
32071
32085
32083
32067
32087
32002
32094
32087
32072
32082
32095
32078
32095
32071
32093
32103
32093
32103
32023
32107
32108
32031
32091
32109
32023
32120
32119
32051
32135
32109
32087
32126
32119
31981
32092
32127
32128
32115
32087
32138
32129
32007
32126
32132
32132
32085
32130
32141
32003
32122
32129
32138
32039
32144
32135
32090
32159
32143
32149
32082
32154
32143
32050
32159
32151
32148
32135
32147
32167
32039
32125
32167
32165
32151
32078
32152
32164
32167
32052
32148
32181
32157
32158
32115
32166
32174
32132
32181
32166
32166
32149
32164
32167
32175
32172
32167
32052
32095
32180
32167
32167
32142
32175
32031
32174
32164
32037
32173
32167
32059
32179
32179
32172
32143
32172
32175
32126
32166
32172
32135
32167
32190
32175
32172
32171
32159
32160
32167
32135
32179
32172
32061
32166
32164
32172
32135
32173
32167
32139
32175
32176
32085
32167
32180
32034
32159
32167
32031
32124
32180
32159
32068
32158
32165
32167
32098
32156
32158
32167
32167
32167
32003
32169
32165
32091
32163
32159
32071
32164
32156
32074
32167
32167
32067
32164
32158
32157
32116
32159
32160
32095
32180
32163
32039
32141
32151
32154
32135
32145
32161
32050
32162
32163
32156
32117
32157
32158
32167
32043
32151
32160
32047
32159
32135
32162
32079
32164
32151
32079
32154
32157
32151
32141
32159
32151
32111
32164
32155
32151
32143
32159
32162
32109
32151
32149
32073
32164
32148
32043
32149
32154
32151
32151
32155
32151
32135
32149
32042
32151
32157
32167
32073
32145
32158
32158
32151
32149
32166
32166
32030
32127
32171
32164
32055
32175
32157
32087
32172
32159
32090
32159
32164
32154
32173
32164
32007
32100
32131
32145
32164
32159
32133
32167
32172
32119
32181
32171
32175
32123
32183
32165
32173
32119
32182
32174
32174
32165
32175
32177
32109
32159
32183
32178
32072
32167
32170
32187
32059
32147
32191
32183
32184
32079
32174
32183
32197
32100
32195
32197
32188
32103
32188
32176
32197
32159
32200
32204
32198
32172
32204
32203
32200
32149
32217
32199
32209
32199
32205
32207
32068
32173
32222
32210
32224
32195
32213
32225
32171
32215
32215
32154
32220
32226
32231
32196
32239
32225
32228
32186
32230
32234
32174
32234
32239
32228
32191
32239
32239
32247
32167
32256
32246
32250
32116
32229
32263
32244
32252
32218
32261
32250
32143
32244
32250
32261
32236
32247
32259
32177
32270
32268
32263
32222
32279
32280
32116
32263
32263
32263
32263
32272
32263
32223
32280
32286
32206
32289
32294
32279
32250
32302
32303
32158
32278
32287
32287
32220
32303
32303
32296
32291
32317
32317
32307
32263
32313
32305
32310
32292
32310
32317
32310
32321
32320
32213
32330
32327
32332
32263
32340
32349
32261
32339
32332
32337
32215
32234
32263
32301
32327
32337
32347
32355
32359
32263
32348
32357
32367
32263
32355
32359
32378
32366
32367
32283
32380
32391
32333
32391
32391
32333
32413
32390
32320
32407
32399
32388
32371
32405
32402
32412
32335
32411
32406
32405
32383
32420
32415
32423
32407
32410
32420
32418
32425
32429
32391
32447
32444
32427
32407
32455
32443
32449
32327
32423
32460
32454
32452
32397
32455
32447
32467
32439
32447
32463
32405
32471
32481
32330
32438
32481
32487
32353
32471
32470
32485
32388
32474
32483
32495
32351
32452
32516
32507
32511
32437
32501
32507
32514
32365
32495
32512
32527
32450
32508
32519
32519
32432
32543
32535
32447
32551
32551
32548
32495
32557
32545
32455
32550
32541
32495
32571
32559
32474
32565
32554
32559
32526
32565
32563
32575
32535
32575
32580
32590
32564
32600
32594
32477
32593
32590
32596
32516
32597
32590
32605
32483
32610
32610
32615
32583
32639
32621
32629
32575
32637
32639
32507
32647
32646
32556
32639
32638
32655
32639
32635
32651
32651
32658
32534
32675
32667
32562
32683
32678
32548
32691
32681
32583
32692
32681
32583
32702
32693
32612
32714
32703
32675
32698
32543
32711
32718
32551
32710
32715
32595
32719
32718
32715
32718
32735
32637
32751
32743
32742
32710
32735
32751
32697
32758
32759
32704
32772
32764
32652
32769
32774
32694
32775
32772
32737
32771
32775
32748
32770
32775
32747
32775
32788
32762
32806
32791
32807
32759
32805
32807
32730
32812
32819
32756
32820
32815
32828
32775
32823
32828
32718
32826
32830
32668
32826
32834
32845
32836
32832
32668
32855
32852
32851
32855
32867
32747
32870
32863
32804
32878
32876
32836
32866
32881
32850
32887
32884
32860
32889
32903
32809
32887
32893
32911
32857
32900
32914
32935
32915
32932
32893
32935
32924
32935
32888
32937
32949
32814
32925
32948
32953
32826
32967
32957
32966
32892
32975
32968
32977
32929
32991
32989
32990
32935
33006
32998
32935
32999
33003
32875
32995
32999
33007
32932
33020
33029
33023
32980
33036
33030
33031
32878
33001
33049
33039
33045
32942
33031
33051
33061
32967
33050
33046
33063
32902
33046
33084
33068
33091
33087
33015
33079
33083
33087
32983
33095
33086
33106
33101
33076
33111
33122
33055
33122
33127
33117
33057
33125
33119
33140
33057
33127
33132
33141
33115
33159
33150
33154
33018
33135
33159
33159
33152
33091
33182
33159
33166
33055
33135
33172
33180
33172
33175
33097
33201
33173
33182
33109
33199
33195
33196
33133
33180
33217
33197
33204
33217
33066
33185
33215
33215
33215
33063
33167
33223
33228
33236
33229
33143
33223
33244
33239
33249
33103
33194
33233
33259
33241
33246
33247
33118
33215
33257
33241
33269
33262
33223
33251
33267
33275
33127
33223
33274
33252
33271
33132
33237
33293
33271
33286
33242
33285
33287
33277
33287
33135
33264
33287
33287
33145
33268
33311
33287
33287
33279
33276
33295
33230
33316
33300
33287
33271
33316
33309
33121
33268
33319
33306
33309
33271
33322
33311
33319
33219
33319
33309
33303
33287
33303
33319
33240
33324
33310
33319
33287
33345
33331
33154
33300
33309
33321
33287
33333
33329
33245
33331
33325
33172
33309
33327
33325
33223
33332
33319
33329
33331
33276
33319
33331
33284
33333
33322
33215
33335
33340
33181
33327
33327
33333
33284
33341
33332
33280
33342
33335
33328
33309
33327
33330
33329
33250
33343
33350
33189
33317
33325
33341
33203
33323
33335
33340
33228
33326
33338
33351
33247
33345
33343
33346
33309
33354
33351
33350
33335
33351
33362
33238
33322
33359
33357
33234
33356
33351
33359
33315
33359
33355
33365
33208
33351
33357
33365
33271
33357
33359
33380
33335
33395
33374
33213
33359
33359
33378
33343
33369
33391
33287
33389
33374
33391
33359
33403
33391
33284
33385
33391
33239
33386
33393
33390
33357
33375
33397
33396
33364
33418
33407
33248
33386
33389
33415
33319
33388
33417
33398
33271
33404
33399
33414
33373
33425
33412
33335
33429
33423
33425
33324
33399
33431
33436
33303
33420
33415
33437
33431
33399
33431
33425
33444
33363
33439
33446
33444
33386
33454
33447
33452
33377
33441
33444
33454
33295
33436
33474
33465
33287
33437
33453
33468
33383
33468
33463
33469
33423
33495
33479
33474
33431
33484
33465
33479
33415
33495
33478
33493
33357
33463
33510
33500
33493
33401
33499
33491
33501
33386
33508
33511
33495
33471
33518
33518
33399
33500
33517
33525
33522
33423
33503
33548
33534
33539
33482
33538
33533
33543
33359
33509
33567
33537
33391
33517
33564
33559
33453
33564
33561
33455
33567
33548
33564
33463
33560
33559
33570
33511
33583
33565
33575
33429
33570
33578
33588
33591
33527
33577
33591
33591
33439
33543
33609
33590
33615
33538
33614
33613
33461
33599
33606
33619
33509
33619
33613
33625
33511
33607
33623
33637
33583
33662
33631
33518
33627
33639
33647
33588
33647
33641
33659
33613
33638
33663
33573
33670
33669
33669
33655
33659
33667
33631
33691
33679
33578
33690
33691
33527
33669
33678
33695
33623
33714
33700
33703
33663
33719
33715
33563
33687
33710
33735
33646
33727
33729
33582
33700
33739
33735
33727
33700
33751
33747
33621
33764
33747
33567
33734
33737
33765
33733
33738
33751
33697
33772
33765
33767
33727
33755
33767
33687
33786
33780
33685
33799
33782
33652
33799
33796
33652
33785
33807
33799
33748
33818
33799
33671
33791
33795
33815
33705
33823
33818
33831
33788
33822
33831
33711
33838
33829
33742
33847
33845
33690
33842
33839
33863
33814
33845
33863
33839
33861
33860
33849
33862
33879
33835
33877
33889
33799
33895
33889
33754
33903
33894
33799
33895
33873
33909
33831
33892
33911
33904
33825
33876
33909
33905
33926
33902
33919
33799
33940
33935
33799
33924
33913
33935
33847
33944
33940
33934
33948
33871
33940
33943
33967
33958
33924
33966
33960
33961
33835
33950
33962
33969
33971
33897
33988
33975
33989
33844
33927
33990
33989
33999
33925
34009
33997
34005
33989
34000
34007
33871
34009
33988
34019
34018
33971
34020
34035
34019
34031
34035
33902
33935
34003
34050
34015
34053
33887
34005
34055
34033
34054
34053
33895
34015
34072
34042
34077
34071
33898
33983
34023
34079
34082
34077
34083
34004
34076
34076
34095
33980
34081
34095
34106
34103
34105
33949
34068
34119
34101
34113
34054
34124
34114
34119
34079
34130
34104
34132
34132
34039
34134
34153
34132
34145
34083
34157
34141
34151
34103
34162
34157
34145
34079
34150
34148
34159
34142
34162
34156
34142
34135
34164
34071
34165
34164
34164
34167
34164
34180
34143
34158
34177
34086
34191
34176
34175
34135
34197
34180
34007
34164
34181
34185
34060
34199
34200
34028
34204
34193
34045
34196
34182
34210
34207
34220
34123
34212
34214
34183
34200
34225
34175
34239
34223
34220
34225
34220
34244
34207
34229
34247
34172
34256
34257
34117
34266
34252
34134
34271
34269
34198
34254
34263
34245
34261
34273
34188
34279
34279
34111
34268
34268
34292
34273
34282
34287
34282
34271
34295
34199
34300
34287
34294
34112
34266
34311
34302
34306
34220
34307
34311
34311
34311
34276
34324
34311
34241
34309
34327
34228
34330
34316
34335
34275
34331
34336
34181
34323
34324
34339
34335
34338
34159
34319
34311
34341
34327
34335
34356
34294
34375
34340
34270
34359
34356
34343
34319
34364
34351
34258
34368
34359
34274
34349
34372
34238
34371
34374
34231
34385
34375
34170
34373
34359
34370
34319
34381
34387
34203
34377
34378
34379
34370
34374
34376
34285
34388
34390
34276
34394
34396
34204
34371
34371
34388
34343
34403
34397
34223
34369
34395
34375
34401
34239
34373
34370
34391
34196
34383
34396
34389
34366
34369
34390
34367
34391
34385
34303
34395
34388
34282
34399
34387
34324
34352
34399
34399
34370
34364
34385
34397
34383
34391
34385
34332
34380
34377
34287
34407
34401
34284
34398
34391
34333
34367
34396
34305
34386
34378
34374
34325
34395
34380
34388
34299
34372
34377
34337
34370
34375
34222
34370
34374
34362
34308
34343
34374
34367
34362
34366
34333
34335
34362
34159
34335
34341
34369
34239
34365
34353
34173
34311
34358
34344
34278
34326
34311
34343
34325
34324
34343
34327
34325
34332
34311
34327
34326
34294
34307
34311
34283
34311
34114
34311
34303
34301
34279
34279
34122
34303
34290
34310
34301
34302
34286
34263
34271
34289
34283
34279
34284
34263
34252
34283
34223
34293
34271
34204
34252
34262
34181
34267
34263
34155
34273
34258
34167
34252
34252
34166
34247
34244
34151
34234
34238
34204
34215
34234
34190
34213
34231
34203
34207
34228
34183
34208
34214
34113
34204
34183
34203
34101
34220
34214
34090
34219
34197
34143
34183
34196
34174
34167
34006
34205
34183
34159
34181
34119
34163
34172
34183
34181
34161
34167
33986
34164
34165
34042
34166
34173
34117
34135
33956
34159
34153
34097
34135
34151
34126
34141
33967
34143
34129
33971
34132
34135
34027
34142
34125
34063
34145
34122
34082
34106
34118
34125
34114
34087
34099
34108
34055
34100
34107
34055
34071
34101
34101
34095
34087
34071
34063
34079
34023
34095
34079
34021
34090
34079
33910
34079
34055
34068
34038
34046
34067
34031
34051
34055
34022
34055
34053
34007
34036
34054
34026
34023
34039
34023
34036
34045
34010
34015
34033
34011
34022
34031
33991
34020
34031
34003
34011
33861
34026
34029
33895
34020
34015
33999
34019
33919
33990
34004
33983
33991
34001
33972
33977
33991
33871
33987
33988
33799
33980
33974
33823
33975
33973
33773
33957
33959
33981
33935
33935
33975
33913
33972
33942
33959
33815
33959
33949
33955
33935
33936
33956
33895
33946
33940
33815
33949
33950
33783
33923
33903
33929
33887
33927
33924
33791
33903
33907
33916
33863
33934
33921
33825
33918
33905
33847
33902
33909
33799
33918
33898
33777
33910
33888
33729
33901
33895
33746
33863
33869
33873
33771
33893
33882
33693
33857
33850
33871
33870
33865
33757
33863
33868
33692
33854
33863
33783
33839
33853
33838
33850
33711
33853
33841
33733
33843
33839
33643
33820
33820
33831
33759
33831
33823
33695
33823
33815
33618
33794
33799
33812
33786
33791
33799
33787
33775
33799
33785
33796
33791
33676
33799
33783
33623
33796
33783
33706
33780
33767
33735
33781
33772
33747
33780
33781
33659
33773
33759
33607
33760
33765
33659
33764
33749
33743
33708
33756
33751
33743
33717
33751
33746
33739
33623
33733
33719
33735
33638
33724
33711
33725
33689
33700
33723
33637
33708
33703
33710
33578
33702
33681
33703
33533
33671
33703
33694
33507
33655
33682
33698
33687
33607
33671
33692
33674
33676
33601
33685
33651
33671
33613
33658
33661
33510
33669
33652
33511
33652
33653
33474
33635
33628
33644
33580
33663
33641
33557
33645
33630
33487
33638
33620
33480
33629
33627
33623
33431
33581
33607
33607
33598
33602
33447
33588
33591
33607
33542
33615
33594
33590
33588
33597
33478
33599
33581
33439
33598
33575
33439
33583
33570
33399
33549
33568
33443
33574
33569
33511
33575
33558
33367
33537
33553
33386
33538
33535
33540
33428
33535
33525
33532
33477
33516
33383
33527
33522
33525
33497
33498
33343
33484
33527
33519
33471
33492
33503
33465
33505
33503
33375
33495
33484
33499
33471
33471
33485
33415
33495
33485
33319
33447
33475
33480
33447
33460
33470
33415
33471
33468
33430
33451
33471
33378
33441
33455
33447
33444
33321
33445
33432
33445
33410
33421
33431
33324
33433
33422
33423
33399
33415
33415
33310
33398
33415
33406
33354
33399
33405
33271
33383
33393
33380
33366
33388
33377
33260
33364
33361
33373
33303
33373
33358
33172
33332
33336
33359
33329
33348
33344
33343
33339
33343
33306
33326
33186
33324
33317
33143
33318
33319
33319
33287
33306
33135
33284
33300
33156
33287
33277
33287
33228
33299
33283
33236
33267
33126
33287
33285
33134
33276
33279
33133
33279
33275
33159
33267
33247
33271
33180
33278
33255
33157
33247
33245
33255
33165
33261
33245
33154
33255
33239
33145
33236
33223
33226
33197
33213
33217
33210
33214
33042
33210
33210
33087
33205
33196
33063
33196
33181
33191
33087
33189
33175
33185
33044
33181
33165
33171
33143
33167
32979
33132
33167
33159
33159
33140
33142
33149
33079
33158
33149
32999
33147
33142
33137
33123
33113
33129
33051
33132
33130
33108
33086
33095
33114
32967
33093
33087
33103
33031
33095
33087
33083
33069
33079
32897
33068
33077
33079
33041
33070
33077
33012
33047
33063
32977
33057
33047
33036
32948
33031
33031
33023
32957
33036
33026
32870
33014
33020
33013
32983
33004
33012
32908
32996
32981
32999
32995
32935
32990
32969
32988
32971
32953
32970
32965
32967
32837
32921
32966
32955
32939
32877
32948
32932
32763
32921
32920
32934
32881
32902
32914
32785
32890
32895
32900
32748
32857
32879
32891
32751
32877
32862
32858
32767
32839
32855
32861
32686
32844
32853
32850
32780
32847
32839
32719
32831
32820
32813
32775
32799
32806
32751
32805
32790
32647
32788
32775
32647
32783
32766
32659
32751
32737
32743
32735
32732
32564
32743
32737
32621
32730
32727
32611
32711
32711
32519
32683
32679
32691
32619
32683
32660
32671
32586
32651
32651
32652
32604
32623
32637
32618
32621
32436
32619
32612
32551
32583
32595
32575
32575
32597
32476
32583
32558
32564
32455
32543
32556
32551
32493
32543
32526
32529
32419
32519
32516
32519
32479
32495
32507
32319
32436
32493
32477
32298
32439
32453
32463
32285
32428
32423
32436
32241
32386
32436
32420
32277
32415
32394
32407
32394
32357
32381
32383
32292
32388
32383
32236
32372
32356
32167
32324
32343
32156
32320
32330
32319
32303
32303
32299
32302
32294
32149
32295
32294
32195
32277
32263
32247
32252
32263
32155
32252
32252
32146
32245
32235
32088
32223
32205
32214
32183
32200
32206
32151
32180
32189
32151
32177
32022
32167
32165
31998
32143
32145
32151
32110
32135
32135
32098
32111
32134
32109
32116
32119
32052
32099
32103
32084
32087
31959
32091
32081
32023
32055
32064
31978
32061
32058
31943
32052
32036
31957
32037
32031
31893
32015
32028
31891
31989
31999
31909
32002
31999
31900
31998
31980
31862
31943
31964
31975
31955
31809
31948
31941
31932
31909
31916
31926
31903
31913
31791
31901
31905
31783
31909
31891
31751
31879
31879
31872
31820
31879
31860
31865
31839
31865
31848
31692
31810
31857
31843
31846
31786
31826
31815
31815
31745
31791
31799
31804
31751
31807
31793
31623
31771
31767
31783
31663
31759
31760
31765
31707
31764
31747
31669
31733
31735
31735
31706
31715
31722
31623
31710
31709
31557
31701
31692
31695
31646
31693
31673
31679
31623
31671
31655
31666
31599
31672
31651
31610
31646
31645
31611
31621
31631
31591
31622
31620
31548
31630
31612
31549
31623
31613
31524
31599
31596
31468
31566
31575
31578
31489
31580
31567
31482
31559
31551
31495
31559
31544
31435
31542
31533
31428
31526
31519
31413
31524
31513
31436
31503
31495
31375
31486
31495
31335
31477
31483
31466
31383
31475
31461
31399
31468
31452
31335
31444
31444
31296
31433
31435
31324
31415
31425
31308
31421
31421
31383
31409
31279
31415
31399
31363
31396
31390
31391
31390
31268
31367
31375
31274
31377
31363
31319
31343
31351
31323
31341
31346
31319
31327
31258
31328
31325
31324
31290
31300
31312
31268
31319
31295
31197
31269
31302
31286
31159
31279
31282
31273
31276
31231
31270
31266
31266
31206
31260
31239
31239
31198
31247
31230
31236
31174
31239
31235
31220
31207
31211
31079
31199
31209
31209
31106
31186
31190
31204
31171
31188
31174
31144
31191
31175
31117
31178
31175
31108
31150
31155
31135
31157
31143
31110
31166
31143
31038
31143
31127
31142
31084
31127
31115
31007
31103
31100
31103
31091
31095
31103
31074
31094
31087
31031
31087
31084
31029
31076
31069
31031
31066
31073
31015
31047
31055
31036
31040
31048
30991
31055
31045
30926
31027
31018
30946
31021
31005
31020
30966
31013
31010
30940
31007
31007
30894
30999
30983
30919
30983
30979
30892
30978
30970
30919
30972
30960
30921
30964
30964
30911
30968
30947
30889
30951
30949
30922
30932
30927
30935
30919
30919
30895
30910
30911
30888
30901
30907
30858
30909
30887
30894
30852
30898
30881
30826
30900
30884
30808
30875
30875
30791
30871
30851
30849
30807
30871
30853
30767
30852
30852
30762
30839
30838
30837
30839
30758
30812
30831
30815
30815
30799
30820
30817
30810
30780
30795
30798
30788
30771
30797
30788
30697
30763
30767
30762
30712
30761
30759
30753
30674
30716
30748
30737
30727
30670
30726
30727
30727
30663
30726
30721
30716
30639
30694
30711
30702
30699
30701
30620
30671
30691
30694
30692
30639
30684
30684
30675
30687
30669
30628
30673
30676
30678
30676
30656
30593
30635
30679
30660
30535
30642
30660
30648
30637
30647
30637
30639
30645
30639
30631
30611
30645
30625
30615
30582
30629
30620
30549
30599
30599
30602
30583
30593
30597
30564
30604
30595
30519
30599
30587
30583
30579
30577
30588
30490
30567
30583
30567
30485
30564
30567
30559
30554
30562
30547
30507
30557
30553
30489
30545
30542
30476
30535
30543
30547
30527
30522
30526
30490
30534
30521
30436
30522
30511
30438
30525
30509
30423
30499
30496
30495
30415
30491
30489
30485
30479
30453
30487
30471
30471
30409
30479
30468
30335
30469
30471
30460
30447
30459
30452
30359
30455
30455
30343
30438
30438
30362
30453
30430
30396
30439
30436
30407
30409
30420
30398
30407
30415
30399
30401
30343
30405
30402
30324
30394
30391
30391
30375
30388
30375
30367
30388
30369
30324
30373
30365
30366
30317
30356
30357
30347
30332
30351
30338
30310
30343
30341
30335
30304
30334
30327
30191
30305
30325
30310
30238
30311
30291
30292
30274
30307
30287
30278
30263
30287
30283
30277
30269
30271
30263
30215
30263
30257
30255
30229
30260
30183
30233
30242
30207
30232
30215
30229
30228
30071
30215
30215
30157
30207
30199
30187
30199
30130
30196
30179
30164
30179
30172
30169
30165
30109
30167
30155
30124
30141
30148
30149
30145
30100
30135
30124
30093
30123
30119
30082
30101
30111
30063
30109
30100
30031
30101
30078
30019
30095
30071
30047
30076
30059
30020
30063
30047
30031
30047
30038
29977
30043
30025
29981
30023
30009
30010
30017
30007
29978
30005
29983
29982
29990
29924
29986
29985
29983
29971
29973
29964
29939
29975
29951
29889
29937
29973
29948
29935
29927
29910
29930
29919
29922
29878
29919
29903
29836
29908
29910
29895
29882
29895
29883
29878
29837
29887
29863
29866
29851
29870
29871
29860
29805
29847
29847
29852
29770
29823
29838
29840
29825
29804
29831
29813
29807
29797
29804
29806
29734
29779
29815
29799
29798
29769
29794
29786
29689
29767
29779
29767
29759
29772
29756
29758
29759
29692
29763
29753
29695
29750
29750
29735
29717
29743
29740
29678
29735
29727
29639
29716
29714
29719
29671
29717
29700
29684
29699
29688
29668
29703
29685
29695
29663
29694
29669
29668
29631
29677
29667
29650
29652
29652
29639
29654
29649
29642
29623
29652
29635
29562
29636
29633
29620
29621
29623
29618
29615
29619
29607
29615
29572
29604
29599
29602
29599
29596
29595
29595
29605
29575
29588
29588
29575
29575
29574
29479
29574
29571
29499
29565
29569
29551
29543
29563
29556
29534
29559
29536
29535
29543
29535
29514
29547
29541
29514
29527
29522
29519
29527
29525
29514
29516
29509
29487
29511
29508
29494
29463
29508
29495
29495
29465
29509
29501
29495
29469
29488
29494
29452
29484
29487
29405
29474
29475
29468
29467
29473
29461
29423
29470
29463
29459
29439
29461
29447
29455
29396
29447
29455
29444
29403
29447
29439
29438
29436
29399
29431
29440
29428
29399
29431
29423
29387
29428
29426
29427
29411
29422
29399
29372
29414
29413
29357
29405
29398
29400
29367
29399
29399
29396
29359
29391
29404
29380
29394
29366
29386
29386
29380
29343
29369
29373
29391
29377
29372
29306
29369
29375
29364
29328
29367
29359
29323
29365
29351
29297
29356
29349
29359
29351
29354
29351
29319
29350
29343
29307
29339
29347
29340
29343
29335
29332
29325
29335
29335
29320
29333
29327
29316
29344
29324
29303
29335
29318
29318
29291
29317
29314
29317
29287
29317
29318
29314
29276
29308
29309
29297
29299
29310
29308
29315
29297
29295
29277
29311
29290
29201
29284
29301
29290
29285
29285
29295
29289
29247
29287
29283
29277
29279
29291
29284
29271
29268
29258
29267
29271
29271
29244
29275
29284
29265
29265
29255
29269
29262
29263
29167
29257
29276
29261
29262
29217
29257
29260
29261
29247
29234
29252
29257
29252
29242
29263
29253
29178
29249
29255
29248
29207
29223
29233
29247
29250
29244
29191
29243
29246
29238
29234
29244
29245
29204
29239
29229
29170
29239
29235
29185
29239
29227
29207
29239
29231
29179
29239
29238
29191
29231
29223
29219
29221
29220
29221
29226
29177
29223
29225
29207
29223
29213
29212
29191
29228
29222
29167
29212
29218
29210
29200
29214
29213
29186
29211
29205
29166
29215
29204
29207
29215
29201
29206
29207
29199
29210
29199
29202
29191
29182
29215
29209
29166
29205
29191
29191
29191
29199
29183
29182
29183
29206
29189
29177
29191
29187
29191
29190
29183
29185
29189
29145
29189
29183
29137
29190
29175
29169
29174
29188
29183
29179
29180
29166
29172
29172
29171
29188
29186
29172
29171
29183
29176
29115
29175
29178
29167
29141
29178
29172
29165
29164
29167
29158
29141
29166
29157
29129
29157
29158
29153
29149
29155
29150
29108
29145
29149
29139
29143
29144
29135
29130
29141
29143
29109
29149
29127
29111
29145
29131
29054
29141
29136
29131
29127
29133
29133
29135
29135
29126
29121
29135
29135
29140
29123
29126
29132
29094
29140
29131
29087
29139
29132
29132
29130
29122
29125
29119
29126
29132
29131
29127
29102
29137
29119
29119
29121
29131
29114
29135
29125
29097
29132
29119
29095
29127
29118
29105
29123
29120
29041
29119
29127
29119
29119
29127
29118
29116
29092
29115
29111
29105
29080
29116
29111
29057
29125
29116
29108
29098
29126
29114
29109
29109
29121
29105
29093
29123
29108
29084
29119
29100
29103
29107
29097
29118
29109
29107
29068
29111
29101
29106
29103
29101
29103
29070
29115
29103
29039
29093
29100
29103
29041
29096
29093
29087
29095
29100
29090
29071
29108
29095
29026
29093
29099
29031
29087
29092
29087
29081
29089
29076
29084
29071
29079
29079
29065
29076
29071
29004
29077
29084
29078
29013
29063
29066
29071
29017
29074
29060
29057
29055
29069
29058
29034
29053
29060
29051
29055
29037
29062
29049
29039
29047
29049
29041
29035
29052
29042
29039
29039
29047
29031
29031
29036
29037
28993
29036
29031
29025
29005
29042
29022
29001
29034
29018
29012
29022
29012
28993
29030
29012
28980
29023
29004
28991
29015
28990
28988
29005
28999
28997
29002
28989
28997
28988
28964
28983
28973
28954
28986
28971
28918
28966
28972
28947
28968
28959
28956
28965
28957
28949
28962
28871
28943
28949
28947
28932
28935
28932
28935
28935
28898
28932
28917
28911
28917
28910
28903
28903
28910
28901
28902
28905
28900
28895
28887
28893
28865
28902
28895
28838
28885
28875
28870
28854
28871
28873
28865
28854
28863
28867
28842
28862
28854
28806
28855
28845
28773
28847
28839
28838
28838
28827
28813
28821
28829
28820
28818
28806
28799
28820
28812
28804
28804
28799
28801
28797
28794
28798
28790
28741
28789
28788
28783
28764
28783
28778
28711
28775
28767
28764
28757
28754
28751
28759
28737
28758
28759
28757
28731
28744
28746
28734
28735
28730
28741
28730
28724
28725
28732
28724
28719
28711
28722
28718
28711
28725
28714
28708
28710
28709
28687
28710
28698
28696
28705
28693
28679
28689
28690
28679
28692
28686
28678
28619
28670
28679
28676
28641
28671
28671
28660
28631
28660
28665
28663
28666
28610
28651
28665
28654
28643
28647
28650
28652
28647
28640
28647
28629
28614
28651
28636
28631
28634
28636
28634
28627
28615
28625
28626
28614
28594
28615
28620
28619
28605
28601
28615
28614
28561
28603
28602
28599
28575
28605
28612
28500
28606
28594
28599
28551
28595
28589
28589
28583
28602
28590
28545
28590
28581
28580
28587
28583
28570
28580
28579
28571
28564
28583
28568
28567
28583
28569
28565
28546
28580
28564
28556
28567
28563
28558
28564
28561
28556
28551
28553
28551
28559
28556
28540
28559
28551
28546
28556
28550
28551
28546
28534
28539
28530
28555
28547
28542
28537
28535
28532
28526
28545
28543
28529
28536
28527
28517
28527
28527
28526
28529
28527
28527
28531
28526
28518
28524
28499
28527
28532
28519
28515
28527
28513
28495
28513
28518
28516
28505
28526
28508
28514
28513
28507
28511
28505
28512
28484
28521
28511
28479
28512
28503
28483
28515
28505
28503
28518
28500
28495
28507
28501
28506
28511
28446
28503
28497
28486
28484
28499
28499
28494
28500
28486
28484
28511
28487
28492
28494
28487
28492
28492
28496
28481
28476
28487
28487
28469
28498
28491
28389
28484
28484
28468
28490
28484
28487
28492
28490
28478
28477
28487
28479
28467
28492
28482
28476
28478
28487
28482
28461
28481
28481
28468
28471
28471
28470
28399
28477
28471
28463
28461
28487
28474
28475
28473
28485
28476
28465
28476
28473
28455
28482
28479
28474
28469
28482
28474
28476
28469
28468
28474
28465
28473
28479
