EGG
65519
65519
65517
65511
65511
65519
65510
65517
65519
65525
65521
65511
65527
65511
65519
65511
65519
65504
65525
65518
65518
65519
65524
65517
65527
65519
65519
65518
65519
65511
65518
65511
65519
65519
65516
65504
65516
65502
65516
65517
65511
65519
65508
65525
65519
65519
65515
65517
65526
65508
65510
65511
65511
65527
65504
65511
65508
65523
65517
65511
65517
65518
65527
65510
65503
65516
65504
65508
65504
65511
65504
65516
65519
65508
65508
65510
65519
65510
65504
65516
65511
65511
65527
65508
65511
65508
65508
65517
65511
65516
65511
65511
65509
65511
65511
65511
65503
65506
65508
65508
65508
65511
65502
65511
65510
65503
65511
65511
65517
65519
65525
65516
65519
65517
65511
65515
65506
65525
65511
65519
65508
65516
65500
65516
65505
65519
65496
65511
65500
65519
65517
65511
65511
65524
65509
65527
65510
65524
65516
65511
65527
65508
65510
65500
65511
65511
65516
65516
65508
65511
65524
65506
65506
65508
65510
65519
65508
65502
65516
65517
65516
65514
65510
65511
65519
65519
65527
65516
65519
65508
65511
65505
65513
65510
65511
65511
65508
65500
65519
65511
65511
65511
65511
65519
65517
65500
65508
65511
65508
65508
65519
65504
65510
65516
65516
65517
65527
65511
65511
65525
65504
65519
65514
65503
65511
65532
65526
65519
65510
65519
65511
65516
65502
65526
65518
65518
65516
65519
65519
65516
65511
65519
65514
65518
65527
65517
65500
65511
65519
65519
65508
65518
65525
65519
65511
65508
65519
65500
65518
65526
65510
65518
65519
65511
65517
65510
65525
65511
65519
65508
65517
65517
65508
65516
65511
65519
65519
65508
65511
65503
65511
65524
65505
65519
65511
65519
65506
65500
65511
65519
65508
65504
65504
65505
65508
65511
65511
65508
65516
65517
65510
65513
65519
65516
65502
65516
65505
65508
65516
65519
65511
65511
65510
65511
65510
65515
65511
65510
65510
65511
65511
65511
65519
65508
65511
65511
65525
65511
65511
65511
65519
65524
65519
65518
65511
65517
65511
65516
65527
65519
65517
65511
65516
65508
65525
65508
65525
65519
65518
65519
65504
65511
65514
65508
65519
65508
65500
65510
65517
65511
65527
65509
65508
65510
65510
65500
65511
65519
65504
65505
65516
65519
65511
65510
65510
65505
65508
65506
65504
65516
65526
65524
65519
65514
65511
65508
65519
65519
65505
65511
65511
65511
65519
65511
65511
65519
65511
65508
65519
65508
65511
65516
65510
65510
65500
65519
65496
65508
65508
65508
65510
65519
65511
65524
65508
65509
65508
65519
65510
65519
65511
65511
65511
65524
65508
65496
65519
65511
65510
65511
65505
65524
65511
65526
65511
65498
65502
65511
65517
65510
65504
65511
65524
65516
65502
65509
65516
65511
65516
65511
65508
65511
65514
65510
65492
65516
65519
65519
65518
65508
65511
65519
65500
65516
65497
65511
65516
65500
65511
65519
65519
65502
65492
65495
65492
65492
65476
65487
65476
65473
65477
65457
65456
65450
65453
65447
65460
65439
65446
65447
65428
65437
65424
65471
65452
65439
65445
65415
65406
65406
65412
65396
65382
65390
65398
65380
65405
65368
65375
65370
65367
65372
65359
65372
65372
65356
65367
65444
65370
65346
65351
65350
65335
65332
65343
65324
65327
65316
65319
65310
65412
65335
65308
65304
65284
65287
65285
65284
65287
65238
65255
65260
65220
65246
65240
65231
65243
65246
65231
65228
65223
65229
65222
65223
65223
65210
65223
65214
65191
65199
65190
65191
65183
65175
65169
65156
65175
65159
65159
65151
65159
65159
65141
65135
65126
65124
65135
65119
65127
65110
65114
65098
65267
65116
65080
65094
65086
65076
65071
65045
65060
64990
65031
65031
65031
65057
65030
65246
65052
65031
65013
65004
64992
64925
64948
64982
64975
64977
64989
64967
64964
64951
64945
64944
64936
64927
64924
64903
64892
64900
64856
64836
64893
64903
64902
64878
64885
64867
64855
64871
64860
64856
64851
64839
64840
64853
64826
64828
64816
64823
64800
64815
64798
64791
64775
64790
64775
64799
64775
64935
64922
64863
64764
64761
64743
64736
64725
64735
64732
64734
64711
64711
64703
64692
64668
64699
64679
64683
64668
64671
64775
64935
64647
64639
64640
64637
64628
64623
64519
64508
64611
64609
64615
64584
64588
64572
64584
64625
64572
64572
64559
64543
64543
64536
64538
64486
64422
64461
64512
64504
64508
64508
64502
64495
64487
64485
64479
64476
64468
64479
64444
64459
64415
64340
64384
64430
64442
64434
64421
64424
64367
64407
64404
64367
64289
64263
64259
64309
64356
64367
64367
64366
64366
64359
64343
64354
64337
64340
64324
64231
64305
64311
64300
64308
64247
64164
64208
64287
64295
64279
64279
64228
64135
64263
64256
64239
64165
64199
64232
64229
64203
64111
64229
64215
64199
64207
64191
64184
64084
64073
64055
64168
64167
64039
64047
64030
64007
64108
64119
64135
64108
64125
64081
63997
64039
64070
64092
64084
64036
64071
64006
63956
63942
63935
63943
64031
63961
63927
63988
63975
64007
64021
64046
64039
64036
64007
64024
64007
63983
63804
63697
63975
63988
63975
63966
63943
63869
63903
63932
63927
63939
63924
63935
63916
63924
63892
63847
63796
63879
63879
63893
63879
63791
63773
63740
63751
63740
63841
63823
63831
63799
63756
63765
63687
63751
63780
63820
63815
63823
63796
63815
63800
63812
63783
63793
63777
63783
63776
63783
63773
63751
63767
63751
63751
63748
63743
63748
63751
63735
63727
63724
63715
63718
63711
63716
63695
63703
63687
63683
63687
63687
63679
63670
63647
63623
63623
63588
63545
63623
63623
63623
63623
63463
63591
63589
63588
63594
63574
63095
63288
63468
63540
63581
63572
63573
63558
63557
63582
63564
63559
63551
63551
63527
63541
63534
63535
63527
63524
63477
63275
63180
63048
63028
63006
63255
63434
63471
63412
63207
62967
63445
63367
63447
63417
63415
63400
63394
63269
63328
63422
63399
63399
63396
63399
63391
63373
63359
63367
63358
63367
63365
63329
63214
63311
63175
63087
63191
63312
63335
63328
63319
63285
63128
63143
63087
63194
62980
62983
62727
63106
63186
63239
63239
63252
63239
63269
63239
63175
63231
63215
63189
63238
63202
63137
63231
63187
63188
63124
63204
63201
63198
63196
63163
63166
63170
63172
63166
63182
63151
63111
63012
62930
63036
63092
63111
63142
63133
63135
63111
63076
62980
62671
62455
63040
63066
62343
63052
63039
62335
63042
63031
63013
62959
62944
62871
62956
63028
63007
62863
62878
62836
62844
62847
62836
62906
62831
62820
62828
62860
62876
62868
62884
62831
62847
62813
62806
62821
62792
62876
62781
62876
62908
62927
62750
62884
62865
62887
62887
62885
62855
62868
62855
62855
62844
62167
62559
62786
62831
62838
62876
62879
62855
62832
62828
62814
62764
62716
62650
62760
62794
62773
62790
62759
62780
62123
62750
62127
62711
62789
62788
62766
62763
62751
62703
62580
62596
62662
62700
62718
62694
62684
62254
62044
62660
62199
62668
62247
62375
62648
62668
62639
62622
62663
62695
62620
62500
62471
62460
62495
62586
62590
62599
62591
61831
62414
62620
62628
62599
62571
62464
62449
62535
62551
62550
62549
62535
61688
62407
62517
62575
62567
62535
62364
62408
62471
62500
62492
61859
62471
62527
62471
62407
62468
61926
62471
62500
62495
62447
62343
62300
62335
62428
62415
62407
61695
62004
62388
62447
62471
62422
62287
62319
62387
62383
62367
62359
62196
62439
62389
62279
62182
62343
62332
62333
61762
62116
62309
62356
62375
62389
62384
62356
62335
62260
62245
62295
62284
61543
62247
62335
62340
62342
62300
62215
62124
62255
62241
62245
62079
62303
62295
62244
62215
62076
62212
62198
62212
62191
61763
62270
62231
62199
62183
62102
62038
62014
62079
62166
62150
62140
62143
61642
62205
62186
62175
62143
61959
62111
62110
62126
61820
62156
62180
62129
62071
61959
62012
62071
62055
61191
61703
62071
62124
62135
62110
62054
62044
61983
61948
61879
61919
62023
62025
62004
61359
61999
62063
62063
62047
61996
61974
61927
61956
61895
61908
61829
61799
61831
61884
61959
61959
62004
61996
61927
61934
61908
61903
61866
61957
61975
61982
61951
61890
61653
61191
61617
61831
61934
61935
61940
61893
61876
61871
61863
61828
61818
61692
61703
61831
61819
61823
61827
61814
61799
61823
61798
61784
61788
61790
61779
61770
61788
61759
61782
61775
61763
61774
61748
61741
61730
61716
61725
61727
61063
61559
61770
61775
61772
61758
61756
61756
61748
61770
61780
61767
61764
61749
61751
61742
61540
61596
61692
61700
61674
61697
61703
61703
61694
61671
61655
61630
61622
61527
61444
61567
61575
61574
61567
61565
61574
61567
61559
61551
61477
61508
61447
61439
61484
61529
61525
61522
61535
61503
61480
61501
61508
61498
61486
61476
61478
60500
61423
61564
61551
61543
61532
61500
61481
61396
61278
61319
61423
61439
61445
61438
60886
61396
61127
61447
61447
61447
61471
61446
61429
61390
61332
61206
61237
61214
61255
61346
61351
61351
61332
61327
61335
61310
61316
60551
61219
61341
61392
61376
61351
61293
61183
61125
61234
61272
61255
61280
61255
61260
61255
61158
61091
61082
61063
61151
61209
61230
61216
61223
61189
61205
61189
61183
61191
60199
61089
61269
61271
61213
61183
61023
61163
61166
61140
60143
60606
61220
61223
61172
61135
60972
61082
61132
61117
61116
61100
61095
60382
61007
61153
61191
61186
61143
61117
60998
60908
60935
61063
61071
61063
61052
61063
61031
61052
61039
61052
61029
61036
61031
61039
61012
61025
61020
61004
60996
60980
60703
60935
61056
61063
61085
61071
61054
61048
61047
61025
61029
61027
61028
60983
60895
60932
60935
60935
60935
60916
60927
60903
60901
60884
59870
60420
60707
60935
60999
60957
60919
60924
60887
60868
60791
60713
60807
60876
60852
60863
60135
60917
60935
60901
60847
60679
60768
60831
60828
60839
60807
60799
60807
60799
60796
60792
60780
59862
60039
60514
60759
60732
60853
60885
60855
60836
60805
60756
60647
60615
60597
60604
60732
60748
60725
60716
60743
59734
60732
60813
60799
60749
60734
60679
60583
60551
60598
60641
60677
60679
60679
60679
60679
60678
60662
59707
60660
59719
60206
60575
60615
60679
60458
60487
60244
60619
60638
60631
60623
60629
60599
60607
59718
60603
60591
60612
60594
60604
60620
59655
60057
60562
60583
59751
60077
60615
60616
60655
60604
60562
60440
60567
60551
60551
60567
60551
60528
60538
60518
60527
60384
60613
60614
60572
60539
60389
60423
60508
60511
60497
60191
60525
60591
60582
60551
60516
60503
60519
60508
60519
60500
60492
60487
60486
60481
60470
60372
60327
60308
60409
60423
60454
60421
60367
60391
60455
60436
60423
60415
60399
60407
60422
60415
60415
60404
59996
60423
60479
60485
60488
60454
60423
60377
60384
59724
60362
60388
60364
60381
60359
60007
60295
60423
60423
60423
60448
60423
60423
60423
60367
60383
60415
60420
60414
60415
60348
60335
60285
60349
60167
59990
59534
59463
59399
59949
59783
60295
59375
60287
60284
60284
60285
60291
60267
60294
60276
59380
59847
60103
60112
60134
60326
60319
60295
60254
60094
60167
60183
60253
60239
60239
60240
60252
60239
60079
60159
60077
60103
60135
60135
60241
60231
60237
60222
60218
60214
60223
60207
60211
60213
60210
60199
60156
60039
60127
60207
60197
60198
60206
60199
60196
60150
60038
60079
60165
60159
60167
60148
60166
60166
59935
60127
60196
60224
60223
60247
60229
60192
60167
60164
60158
60135
60151
60154
60124
60134
60152
60151
60148
60146
60151
60167
60150
60167
60185
60164
60160
60167
60167
60163
60118
60028
60053
60028
60143
60103
60078
60017
60097
60110
60150
60110
60077
59911
60047
60085
60039
60071
60126
60127
60111
60092
60062
60042
60007
60020
60018
59955
59911
59879
59901
59879
59997
59998
60031
60023
59996
59582
59972
60023
60070
60079
60055
60014
59879
59927
59974
59984
59989
59988
59983
59990
59955
59688
60039
60028
59976
59841
59967
59975
59975
59956
59957
59957
59951
59948
59941
59951
59965
59943
59951
59927
59943
59383
59760
59911
59975
59981
60006
59999
59998
59974
59975
59951
59956
59965
59982
59967
59975
59991
59866
59174
59892
59165
59847
59948
59964
59956
59935
59892
59876
59783
59749
59815
59795
59827
59860
59879
59868
59884
59862
59873
59865
59101
59063
59386
58988
59847
59844
59830
59829
59847
59838
59828
59199
59820
59906
59908
59900
59856
59844
59839
59828
59823
59823
59860
59850
59820
59828
59798
59669
59684
59655
59655
59743
59773
59792
59780
59783
59759
59780
59780
59782
59797
59781
59783
59783
59767
59764
59276
59748
59814
59823
59822
59711
59623
59263
59163
59143
59598
59775
59801
59823
59798
59758
59759
59819
59823
59807
59770
59765
59751
59763
59751
59772
59771
59799
59751
59655
59687
59744
59745
59664
59369
59372
59399
59508
59655
59655
59623
59582
59590
59193
59691
59703
59703
59700
59692
59687
59680
59684
59670
59677
59684
58822
59321
59649
59693
59706
59710
59751
59718
59718
59674
59538
59543
59519
59567
59524
59644
59647
59644
59653
59646
59626
58993
59153
59636
59716
59718
59684
59668
59645
59495
59476
59500
59599
59591
59503
59461
59591
59588
59551
59621
59615
59575
59559
59453
59454
59489
59494
59460
59591
59591
59591
59572
59575
59262
59599
59655
59625
59607
59621
59527
59433
59540
59556
59575
59551
59143
59615
59622
59580
59471
59439
59548
59559
59551
59537
59324
59566
59587
59615
59612
59590
59580
59580
59564
59557
59535
59559
59558
59527
59527
59431
59453
59383
59479
59518
59513
59492
59502
59482
59511
59495
59501
59494
59478
59492
59479
59487
59478
59471
59479
59464
59492
59471
59479
59475
59479
59487
59463
59452
59478
59452
59460
59450
59447
59399
59326
59358
59342
59375
59399
59477
59492
59519
59271
59431
59436
59439
59439
59367
59310
59431
59486
59500
59174
59399
59428
59421
59477
59495
59495
59495
59478
59446
59430
59449
59453
59447
59471
59460
59420
59466
59460
59479
59452
59463
59468
59464
59460
59432
59418
59399
59399
59397
59231
59298
59349
59316
59235
59215
59223
59332
59358
59268
59260
59232
59324
59358
59335
59333
59302
59295
59212
59214
59202
59206
59204
59220
59316
59338
59327
59245
59199
59185
59191
59214
59207
59303
59219
59188
59169
59156
59239
59308
59324
59326
59330
59316
59310
59228
59188
59163
59143
59143
59258
59193
59276
59303
59271
59271
59271
59282
59271
59260
59262
59258
58676
59039
59217
59302
59311
59247
59181
59270
59310
59302
59310
59299
59302
59316
59305
59297
59127
59103
58603
58759
59190
59239
59207
59220
59285
59287
59263
59271
59291
59287
59292
59277
59303
59286
59295
59280
59294
59259
59246
59251
59246
59222
59212
59204
59248
59240
59216
59231
59249
59242
59213
59199
59194
59143
59165
59171
59175
59191
59228
59236
59220
59223
59192
59221
59204
58974
59133
59125
59189
58206
59098
59143
58214
59109
59134
59164
59102
59039
59167
59079
59076
59139
58315
59111
59143
59142
59164
59170
59143
59143
59141
59142
59143
59111
58862
58999
59103
59076
58809
58198
59046
59030
58239
58177
58276
59022
59015
59021
59015
59014
59015
59030
58997
59015
59007
58959
58874
58887
58854
58862
58956
59015
59007
59015
59028
59036
59028
58953
58838
58838
58855
58935
58983
58887
58974
58967
58974
58990
58975
58887
58863
58812
58862
58814
58822
58858
58823
58911
58951
58933
58934
58940
58954
58958
58951
58959
58975
58974
58999
58911
58766
58724
58599
58631
58487
58615
58742
58854
58745
58413
58799
58887
58933
58951
58936
58977
58960
58941
58935
58951
58948
58929
58929
58943
58919
58910
58916
58884
58502
58436
57988
57882
58247
58363
58057
58401
58664
58791
58703
58455
58100
58654
58861
58885
58887
58845
58866
58804
58834
58764
58356
58021
57888
58791
58802
58773
58789
58772
58772
58734
58731
58735
58668
58615
58631
58701
58748
58812
58794
58791
58791
58803
58789
58783
58805
58812
58817
58814
58807
58769
58702
58775
58631
58708
58725
58718
58574
58586
58588
58654
58572
58695
58719
58712
58758
58744
58749
58756
58711
58627
57934
58671
58663
58663
57798
58155
58651
58660
58657
58658
58677
58663
58671
58647
58599
58587
58658
58671
58647
58615
58655
58669
58652
58670
58692
58684
58693
58690
58695
58669
58660
58662
58631
58661
58686
58631
58375
57759
58058
58598
58599
58590
58580
58575
58578
58583
58575
58589
58567
58566
58566
58567
58551
58556
58561
58556
58535
58559
58535
58550
58470
58552
58526
58580
58567
58536
58545
58543
58546
58519
58443
58399
58374
58374
58365
58479
58532
58556
58576
58503
57771
58021
58183
58279
58373
57852
58468
58476
58487
58470
58477
58471
58471
58446
57657
58231
58463
58516
58545
58540
58543
58524
58516
58503
58503
58503
58489
58503
58503
58503
58484
58486
58460
58447
58455
58431
58439
58451
58468
58503
58496
58476
58421
58437
58407
58191
58228
57951
58031
58101
57900
57911
58372
58375
58369
58374
58362
58367
58352
58358
58375
58373
58364
58372
58359
58313
58317
58247
58261
58330
58357
58327
58239
58271
58334
58335
58375
58374
58412
58407
58390
58332
57674
57684
57791
57967
57382
58289
58284
58311
58295
58303
58295
58300
58274
58288
58292
58239
58135
58119
58119
58119
58150
58239
58302
58335
58263
57501
58247
58269
58178
58087
58263
58295
58309
58309
58271
58263
58205
58231
58217
58229
58214
58213
58221
58208
58182
58207
57245
58191
58188
58182
58183
58196
58172
58167
58180
58178
58164
58171
58169
58174
58161
58148
58159
58151
58151
58151
58148
57232
57863
58180
58207
58199
58215
58199
58204
58196
58164
58151
58063
57996
58103
58087
58103
58100
58108
57182
58084
58087
58093
58076
58079
58087
58078
58079
58062
58068
58063
58047
58062
58063
58047
58056
58055
58039
58055
58039
58047
58031
58047
58017
57900
57887
57927
58047
58044
58039
58079
58084
58084
58079
58079
58071
58079
58063
58023
57990
57879
57958
57980
57855
57852
57863
57855
57848
57820
57839
57863
57830
57833
57836
57799
57804
57780
57796
57847
57828
57772
57798
57848
57788
57847
57889
57908
57891
57895
57884
57863
57885
57863
57863
57863
57863
57863
57861
57858
57860
57847
57846
57854
57847
57852
57836
57775
57700
57700
57767
57801
57804
57815
57839
57815
57820
57831
57847
57863
57863
57804
57681
57754
57828
57667
57004
57767
57764
57751
57759
57749
57761
57749
57758
57735
57735
57729
57708
57708
57777
57412
57710
57717
57677
57751
57502
57684
57679
57695
57748
56799
57671
57697
57660
57670
57621
57660
57684
57687
56919
57644
57559
57652
57684
57551
57628
57471
57652
57639
57599
57607
57589
57641
57644
57585
57580
57486
57511
57620
57566
56773
57468
57639
57548
57574
57382
57396
57583
57524
57463
57556
57407
57532
57423
57453
57511
57527
57479
57526
57487
57533
57461
57557
57452
57479
57335
57501
57543
56820
57442
57429
57447
57501
57393
56765
57431
57399
57444
57478
57403
57407
57279
57415
57461
56565
57404
57311
57406
57455
56694
57351
57223
57426
56959
57351
57180
57351
57404
56583
57313
57167
57342
57287
57292
57293
57188
57327
57351
56732
57271
57260
57279
57311
57284
56430
57255
57223
57117
57231
57296
57223
56375
57223
57207
57055
57228
57255
57177
57167
57199
57251
56295
57181
57028
57206
57181
57135
57156
57044
57199
56895
57120
57095
57116
57183
56295
57086
56967
57124
57087
57070
57038
57046
57108
57076
57031
57031
56975
57062
57076
56292
56998
56885
57052
57031
56998
56980
56967
56900
56940
56999
57020
56759
56433
56933
56887
56833
56967
56958
56299
56903
56902
56744
56887
56916
56927
56929
56814
55980
56839
56837
56695
56839
56839
56863
56887
56858
56839
56804
55876
56773
56780
56661
56679
56607
56764
56775
56807
56772
56583
56084
56703
56718
56615
56711
56751
56708
56656
56664
56499
56711
56359
56639
56625
56518
56704
56473
56583
56609
56607
56479
56607
56626
56633
56223
56556
56564
56454
56544
56575
56605
56471
55639
56511
56508
56374
56499
56530
56547
56511
56036
56455
56451
56295
56447
56492
56495
56298
56403
56405
56292
56404
56452
56396
56378
56373
56287
56388
56436
56119
56324
56327
56327
56182
56326
56356
56327
55666
56279
56175
56273
56303
56305
56140
55463
56222
56223
56175
56095
56234
56263
56015
56158
56160
56175
56139
56047
56177
56190
56140
55214
56119
56098
56017
56126
55964
56071
56067
55942
56063
56105
55358
56023
55996
55954
56068
55934
55996
55996
55871
56003
56013
55255
55943
55934
55863
55982
55590
55911
55871
55847
55924
55899
55603
55847
55870
55840
55831
55767
55681
55815
55862
55861
55815
55423
55756
55773
55759
55751
55740
55705
55559
55703
55733
55739
55744
55734
55495
54730
55663
55644
55623
55478
55597
55655
55676
55641
55606
54822
55583
55559
55486
55397
55527
55588
55575
55007
55509
55423
55543
55004
55466
55478
55343
55462
55484
55111
55419
55388
55397
55439
55416
55354
55348
55238
55396
55339
55303
55295
55326
55303
55265
55303
55285
55119
55287
55239
55222
55220
55237
54934
55191
55046
55201
55172
55151
55118
55039
55175
55063
55092
55118
54938
55085
55135
54865
55047
55047
54956
54936
55039
55045
55031
54971
54972
54975
54862
54984
54380
54919
54940
54783
54907
54929
54863
54865
54848
54791
54689
54868
54738
54791
54791
54791
54820
54791
54759
54751
54615
54791
54279
54711
54535
54727
54708
54671
54648
54508
54680
54265
54604
54442
54623
54511
54557
54558
54492
54586
54460
54503
54510
54420
54535
54532
53923
54446
54398
54453
54476
53807
54404
54335
54385
54423
53959
54359
54279
54319
54381
54279
54279
54279
54327
53812
54244
54100
54255
54279
53767
54181
54191
54019
54198
53279
53999
54158
54116
54023
54106
54138
54055
54111
53927
53887
53910
53175
54042
54007
54046
53844
53967
54010
53958
53862
53959
53959
53907
53895
53732
53919
53919
52983
53844
53693
53847
53863
53863
53712
52991
53767
53748
53625
53767
53785
53383
53692
53679
53552
53708
53671
52807
53631
53615
53660
52823
53596
53483
53607
52712
53539
53447
53573
52727
53484
53348
53503
53311
53447
53434
53367
53445
53440
53383
53375
53255
53420
53223
53327
53311
53287
53351
53286
53182
53310
52783
53246
53220
53172
53231
53197
53162
53159
53039
53166
53195
52471
53092
53127
52990
53079
52945
53092
52639
53031
52980
53030
52999
52982
52964
52960
52983
52588
52919
52758
52917
52902
52853
52847
52844
52879
52103
52815
52828
52412
52783
52691
52823
52498
52724
52719
52719
52743
51975
52660
52518
52668
52678
52109
52605
52551
52629
52574
52482
52580
52559
52527
52511
52519
52487
52471
52437
52479
52367
52423
52351
52432
52420
52387
52359
52382
52388
51533
52295
52348
51916
52282
52308
51503
52231
52268
52184
52215
52199
52223
52196
51369
52152
52063
52085
52151
52140
51605
52066
51920
52103
51814
52015
51887
52028
51647
51975
51879
51999
51228
51924
51877
51937
51879
51807
51572
51780
51778
51828
51844
51847
51791
51775
51659
51790
51775
51605
51713
51716
51549
51695
51711
51495
51635
51623
51486
51631
51590
51573
51519
51599
51543
51530
51463
51529
51475
51463
51462
51299
51479
51207
51423
51287
51398
51415
51391
50868
51332
51237
51364
51303
51271
51260
51123
51252
51270
51207
50559
51196
51156
51176
51205
50603
51143
50982
51134
51079
51079
51068
51004
51050
51063
51070
51040
50767
50244
50951
50951
50903
50823
50929
50949
50295
50863
50751
50871
50671
50830
50677
50846
50783
50754
50780
50584
50725
50694
50658
50735
50689
50661
50564
50684
49841
50604
50511
50631
50204
50556
50424
50574
50500
50519
50495
50466
50510
50503
49783
50429
50423
50436
50375
50380
50263
50398
50351
50328
50319
50268
50279
50268
50261
50143
50256
49823
50214
50094
50230
50167
50155
50047
50148
50156
50110
50069
50085
49912
50051
49927
50055
50044
49815
49980
49983
49835
49964
49972
49958
49831
49252
49891
49855
49743
49861
49867
49588
49798
49788
49646
49780
49775
49327
49727
49671
49692
49722
49466
49660
49635
49628
49652
48948
49588
49468
49565
49570
49569
49310
49511
49496
49351
49493
49457
48851
49435
49415
49287
49415
49396
49216
48670
49340
49324
49191
49335
49287
49271
49261
49215
49252
49255
49151
48494
49181
49150
49011
49150
49130
49111
49054
49095
49055
48356
49046
48930
49044
48923
48981
48902
48983
48959
48934
48920
48805
48903
48923
48558
48839
48839
48784
48837
48709
48788
48759
48746
48678
48615
48586
48647
48692
48688
48695
48674
48671
48622
48556
48244
48583
48575
48559
48543
48485
48420
48415
48511
48481
48480
48477
48484
48463
48439
48423
48375
48291
47868
48348
48322
48316
48295
48291
48259
48157
48239
48263
48246
48234
48204
47791
48164
48135
48135
48127
48096
48041
48131
47879
47588
47526
48023
48021
47685
47758
47744
47806
47799
47898
47922
47943
47934
47910
47903
47879
47871
47854
47846
47819
47806
47765
47692
47734
47764
47751
47747
47727
47711
47705
47671
47671
47655
47550
47327
47348
47055
47187
47390
47311
47308
47417
47381
47443
47399
47327
46807
47431
47419
47398
47385
47367
47287
47236
47263
47302
47310
47303
47287
47287
47230
47197
46967
46702
46924
47036
46871
46914
46707
46592
46796
47095
47093
47087
47075
47047
47039
47013
47022
46990
46693
46950
46983
46975
46942
46922
46908
46844
46803
46767
46742
46743
46727
46703
46732
46727
46772
46759
46759
46750
46727
46719
46695
46687
46687
46677
46645
46639
46615
46586
46590
46460
46516
46543
46521
46516
46501
46476
46471
46463
46447
46439
46412
46405
46332
46303
46263
46301
46263
46314
46242
46303
46311
46293
46277
46255
46127
46167
46198
46196
46180
46174
46151
46138
46129
46120
46087
46015
46087
46076
46033
45956
45932
45830
45828
45626
45958
45936
45940
45919
45906
45895
45882
45868
45863
45831
45820
45805
45807
45775
45756
45775
45743
45716
45711
45700
45680
45670
45663
45638
45628
45610
45607
45511
45471
45479
45484
45450
45501
45498
45494
45475
45471
45467
45380
45319
45306
45319
45343
45310
45276
45278
45297
45319
45317
45318
45292
45278
45276
45255
45242
45231
45236
45204
45199
45190
45156
45159
45146
45103
45055
45057
45054
45058
45031
45041
44804
44993
44899
44960
44959
44949
44908
44874
44823
44805
44796
44764
44751
44763
44807
44806
44695
44679
44679
44654
44652
44636
44669
44679
44679
44677
44671
44661
44137
44359
44551
44599
44596
44578
44551
44548
44527
44519
44514
44508
44499
44471
44463
44459
44446
44421
44404
44303
44334
44358
44279
44247
44228
44220
44225
44260
44265
44245
44223
43756
43868
43820
43966
44135
44173
44148
44058
44097
44107
44103
44076
44066
44052
44031
44031
44022
43994
43997
43974
43959
43950
43943
43919
43918
43887
43876
43869
43459
43719
43764
43842
43828
43800
43764
43686
43751
43743
43722
43719
43695
43684
43668
43655
43633
43369
43518
43555
43492
43519
43572
43562
43553
43453
43431
43493
43485
43474
43178
43412
43439
43447
43420
43365
43306
43301
43347
43355
43329
43103
43211
43271
43292
43281
43243
43239
43159
43168
43111
43101
43127
43143
43132
43135
43119
43111
43095
43081
43079
43052
42799
42886
42919
42948
42989
42977
42983
42967
42935
42839
42822
42810
42817
42858
42852
42847
42826
42815
42811
42797
42781
42759
42735
42751
42726
42719
42696
42699
42678
42661
42644
42631
42622
42607
42581
42591
42580
42564
42542
42534
42503
42503
42493
42471
42454
42443
42439
42438
42420
42407
42375
42375
42367
42351
42316
42322
42302
42294
42279
42271
42247
41831
42119
42173
42198
42207
42191
42166
42164
42146
42116
42116
42119
42095
42087
42064
42042
42031
41959
41983
41940
41943
41874
41965
41839
41829
41823
41861
41850
41861
41855
41847
41831
41823
41813
41789
41782
41775
41754
41748
41726
41689
41636
41607
41580
41599
41607
41660
41630
41526
41519
41502
41479
41524
41535
41526
41476
41415
41469
41479
41390
41367
41375
41399
41374
41374
41380
41373
41374
41363
41351
41327
41293
41239
41213
41271
41266
41271
41262
41252
41239
41205
41121
41148
41154
41159
41134
41035
40762
41108
41094
41077
41066
41055
41047
41028
41015
40988
40999
40933
40911
40871
40913
40853
40854
40904
40886
40884
40867
40855
40839
40831
40825
40807
40803
40786
40756
40759
40359
40492
40426
40501
40432
40292
40677
40249
40255
40646
40630
40618
40602
40598
40577
40566
40175
40314
40218
40132
40509
40484
40491
40482
40455
40439
40437
40422
40406
40407
40389
40382
40353
40355
40333
40324
40316
40300
40271
40239
40231
40183
40215
40215
40215
40212
40182
40174
40169
40156
40149
40140
40116
40112
40100
40094
40070
40069
40062
40044
40036
40023
39975
39931
39916
39926
39895
39876
39899
39876
39871
39836
39815
39810
39845
39851
39831
39821
39802
39791
39773
39771
39775
39774
39748
39748
39722
39395
39533
39431
39516
39396
39602
39636
39622
39630
39620
39605
39603
39590
39585
39566
39557
39543
39540
39528
39506
39500
39484
39455
39383
39399
39389
39363
39354
39338
39351
39373
39379
39355
39345
39335
39327
39303
39301
39279
39287
39272
39252
39236
39228
39219
39208
39199
39173
39127
39097
39134
39109
39071
39105
39096
39047
39052
39020
39007
38990
38983
39013
38990
38960
39023
39012
38982
38971
38972
38966
38959
38950
38931
38919
38919
38891
38884
38879
38838
38791
38791
38829
38812
38599
38791
38767
38763
38761
38740
38735
38727
38724
38695
38676
38663
38604
38591
38599
38577
38543
38521
38511
38423
38279
38331
38575
38562
38559
38540
38506
38471
38476
38516
38503
38495
38491
38471
38463
38461
38444
38427
38404
38407
38404
38404
38378
38375
38366
38348
38327
38331
38263
38301
38309
38292
38274
38268
38213
38247
38212
38230
38218
38179
38172
38181
38111
38111
38093
38107
38119
38119
38119
38102
38088
37895
37767
37767
37836
37863
37955
38007
38012
38021
37951
37935
37956
37959
37964
37945
37946
37927
37932
37921
37919
37895
37895
37873
37812
37550
37851
37829
37767
37799
37780
37777
37797
37783
37781
37759
37746
37738
37734
37684
37703
37718
37695
37690
37671
37667
37639
37664
37639
37333
37415
37603
37605
37310
37348
37575
37278
37287
37559
37543
37534
37527
37521
37510
37499
37492
37475
37465
37460
37455
37151
37159
37126
37427
37407
37402
37383
37383
37373
37373
37350
37351
37348
37332
37324
37311
37310
37301
37276
37284
37262
37262
37254
37237
37236
37240
37209
37196
37205
37191
37181
37154
37135
37138
37140
37135
37110
37076
37106
37101
37076
37094
37065
37055
37075
37067
37049
37046
37027
36997
36999
36982
36979
36971
36991
36980
36967
36945
36893
36811
36844
36743
36647
36910
36903
36871
36895
36870
36870
36861
36847
36846
36844
36831
36826
36808
36812
36807
36788
36772
36795
36694
36743
36719
36759
36746
36743
36706
36719
36719
36674
36701
36638
36668
36663
36659
36455
36583
36605
36586
36605
36559
36599
36593
36579
36575
36428
36567
36532
36552
36527
36460
36446
36511
36500
36497
36495
36479
36468
36327
36463
36455
36469
36422
36179
36434
36389
36407
36295
36395
36356
36403
36350
36359
36350
36359
36319
36070
36344
36301
36318
36231
36032
36295
36292
36262
36295
36255
36103
36251
36253
36239
36209
36231
36207
36162
36191
36199
36172
36198
36149
35951
36159
36123
36143
35997
36135
36126
36117
36131
36078
36087
36084
36061
36055
35918
36031
36039
36062
36052
36053
36023
36028
36015
36008
35992
35975
35999
35951
35829
35964
35959
35912
35934
35947
35935
35860
35911
35911
35892
35917
35823
35890
35865
35839
35847
35718
35847
35839
35805
35838
35813
35758
35591
35806
35791
35751
35798
35767
35665
35772
35756
35719
35751
35663
35733
35717
35701
35715
35573
35701
35689
35663
35690
35550
35670
35639
35652
35469
35644
35603
35628
35589
35385
35607
35559
35627
35556
35354
35575
35559
35575
35527
35327
35551
35517
35536
35452
35523
35525
35516
35431
35486
35461
35457
35484
35439
35461
35449
35455
35445
35268
35431
35437
35212
35433
35423
35272
35404
35411
35318
35391
35335
35360
35252
35361
35327
35350
35166
35335
35348
35250
35313
35311
35277
35295
35274
35268
35140
35275
35242
35278
35217
35259
35207
35142
35239
35225
35213
35078
35212
35199
35206
35142
35170
35180
35139
35167
34943
35156
35126
35143
35095
35129
35119
35119
35079
34916
35100
35089
35098
35069
34906
35071
35041
35071
35033
34878
35046
34993
35046
34878
35027
35015
34991
35023
34975
34877
34975
34983
34970
34959
34978
34958
34900
34943
34943
34918
34938
34912
34766
34916
34918
34902
34911
34854
34887
34871
34868
34735
34863
34823
34835
34606
34848
34847
34773
34823
34823
34823
34804
34682
34806
34795
34807
34758
34550
34773
34776
34725
34527
34750
34724
34719
34502
34726
34742
34668
34714
34703
34726
34693
34532
34694
34676
34687
34599
34654
34649
34654
34639
34541
34638
34636
34627
34639
34607
34531
34605
34598
34567
34584
34519
34353
34588
34555
34586
34522
34552
34534
34550
34479
34535
34532
34540
34451
34525
34500
34511
34356
34498
34470
34465
34303
34481
34452
34468
34347
34439
34444
34460
34431
34332
34429
34420
34433
34406
34305
34399
34393
34407
34343
34191
34378
34358
34362
34277
34368
34358
34366
34283
34347
34311
34322
34119
34311
34284
34309
34118
34311
34260
34292
34178
34279
34254
34275
34166
34247
34263
34227
34260
34238
34148
34011
34222
34205
34197
34053
34205
34181
34212
34164
34023
34175
34173
34155
34167
34054
34163
34143
34153
34111
33971
34127
34119
34091
34112
34079
34075
34071
34073
34079
34087
34100
34072
34080
34068
34069
34055
34055
34055
34042
34031
34031
34033
34023
34022
33995
34014
34012
33951
33959
33982
33975
33959
33781
33812
33878
33916
33943
33942
33951
33935
33927
33887
33798
33724
33740
33703
33732
33713
33655
33717
33700
33718
33771
33812
33822
33827
33815
33817
33811
33811
33806
33812
33799
33791
33775
33759
33750
33727
33697
33639
33636
33595
33599
33634
33622
33629
33567
33716
33727
33716
33715
33700
33694
33693
33695
33679
33652
33652
33631
33636
33631
33616
33620
33660
33645
33644
33615
33602
33589
33621
33604
33600
33596
33576
33543
33515
33460
33415
33359
33325
33334
33302
33535
33525
33535
33524
33511
33516
33515
33502
33492
33488
33271
33263
33287
33367
33415
33439
33447
33460
33459
33447
33429
33407
33383
33407
33404
33399
33405
33399
33393
33374
33373
33375
33380
33347
33359
33359
33349
33351
33337
33359
33322
33327
33319
33317
33317
33287
33267
33276
33258
33276
33275
33262
33232
33262
33273
33247
33255
33247
33254
33242
33227
33229
33194
33220
33207
33199
33181
33196
33173
33167
33138
33135
33052
33004
33156
33152
33138
33141
33134
33127
33118
33116
33093
33103
33108
33103
33085
33066
33055
33050
33063
33086
33047
33028
33030
33028
33025
33011
33015
33007
33007
33013
33013
33007
32995
32967
32974
32966
32958
32943
32951
32950
32943
32958
32947
32949
32959
32948
32940
32951
32922
32823
32715
32722
32755
32901
32902
32878
32878
32687
32718
32668
32676
32661
32846
32630
32844
32834
32835
32637
32821
32806
32831
32807
32708
32799
32794
32796
32763
32663
32775
32769
32783
32723
32756
32730
32759
32668
32733
32727
32719
32719
32647
32702
32711
32708
32641
32683
32685
32693
32597
32676
32660
32663
32559
32655
32645
32647
32639
32563
32628
32628
32622
32621
32551
32405
32612
32606
32577
32599
32501
32583
32565
32551
32559
32426
32548
32549
32538
32550
32514
32411
32519
32522
32508
32519
32454
32505
32508
32487
32483
32373
32475
32462
32460
32455
32411
32454
32455
32335
32434
32420
32340
32420
32422
32405
32427
32407
32359
32407
32389
32363
32385
32308
32196
32366
32382
32351
32367
32350
32300
32191
32338
32335
32325
32322
32322
32292
32247
32117
32308
32311
32263
32295
32222
32273
32263
32263
32259
32199
32246
32261
32261
32183
32231
32236
32239
32218
32111
32212
32212
32223
32183
32119
32021
32199
32185
32167
32133
32142
32079
32170
32143
32141
32039
32155
32143
32143
32092
31973
32126
32116
32131
32071
31959
32103
32085
32098
32063
31917
32078
32063
32042
31919
32049
32044
32037
31911
32047
32028
32021
31909
32023
32007
32016
31859
32007
32018
31949
31983
31988
31995
31943
31801
31973
31962
31959
31963
31871
31957
31943
31956
31879
31935
31927
31918
31924
31847
31911
31910
31916
31841
31892
31887
31878
31847
31884
31869
31858
31870
31799
31852
31847
31844
31847
31787
31833
31825
31812
31840
31830
31770
31812
31803
31791
31810
31751
31782
31785
31791
31751
31626
31778
31751
31740
31669
31746
31750
31751
31716
31610
31732
31727
31723
31679
31721
31709
31684
31690
31607
31687
31700
31677
31686
31623
31682
31670
31670
31645
31558
31655
31644
31647
31583
31628
31627
31628
31620
31567
31614
31614
31612
31595
31545
31593
31583
31590
31563
31581
31591
31587
31543
31564
31559
31574
31503
31557
31541
31527
31439
31531
31527
31527
31426
31526
31515
31511
31511
31503
31492
31470
31446
31407
31367
31479
31486
31469
31469
31463
31463
31455
31447
31447
31444
31435
31442
31435
31366
31393
31358
31417
31423
31399
31412
31367
31391
31401
31377
31388
31260
31375
31375
31391
31343
31254
31359
31348
31354
31346
31257
31343
31340
31324
31253
31335
31317
31327
31296
31196
31307
31300
31294
31308
31238
31298
31282
31277
31239
31284
31284
31229
31271
31264
31271
31237
31194
31140
31239
31236
31239
31223
31175
31230
31219
31223
31230
31212
31155
31207
31204
31198
31205
31154
31184
31186
31178
31183
31157
31103
31167
31169
31156
31146
31151
31133
31055
31139
31140
31127
31049
31129
31116
31115
31080
31109
31100
31100
31092
31006
31095
31105
31038
30971
31078
31069
31079
31055
31054
31055
31053
31051
30981
31031
31044
31037
31047
31024
30909
31026
31027
31012
30965
31013
31002
31010
30972
30999
30983
30983
30999
30922
30990
30971
30962
30978
30963
30915
30960
30959
30961
30959
30938
30945
30940
30923
30939
30885
30927
30841
30934
30915
30919
30917
30886
30903
30831
30911
30915
30876
30825
30887
30883
30877
30879
30887
30847
30865
30860
30860
30868
30843
30799
30855
30855
30863
30828
30756
30844
30828
30836
30780
30820
30823
30830
30799
30807
30815
30823
30787
30799
30813
30807
30775
30719
30787
30783
30783
30713
30778
30766
30767
30703
30762
30759
30771
30717
30751
30743
30743
30748
30695
30727
30727
30739
30658
30722
30733
30727
30692
30626
30711
30711
30711
30654
30700
30709
30704
30663
30694
30689
30694
30699
30679
30630
30686
30677
30687
30659
30627
30674
30657
30655
30593
30662
30666
30624
30644
30650
30644
30635
30564
30637
30626
30632
30612
30532
30631
30617
30628
30615
30538
30613
30599
30615
30596
30522
30605
30607
30605
30581
30510
30583
30584
30581
30575
30495
30574
30565
30575
30554
30561
30558
30563
30546
30437
30541
30560
30471
30539
30531
30551
30514
30431
30527
30527
30516
30542
30507
30436
30513
30513
30526
30500
30431
30503
30501
30508
30446
30343
30500
30483
30486
30420
30471
30483
30471
30485
30471
30418
30471
30458
30455
30457
30418
30374
30452
30447
30450
30459
30415
30335
30436
30436
30444
30428
30367
30427
30422
30431
30375
30421
30414
30423
30383
30410
30397
30409
30329
30388
30383
30393
30393
30324
30372
30380
30375
30307
30370
30381
30361
30295
30367
30364
30341
30357
30356
30359
30274
30351
30343
30298
30342
30337
30340
30263
30327
30327
30318
30246
30310
30309
30314
30188
30306
30311
30260
30316
30302
30309
30223
30293
30294
30284
30205
30288
30276
30244
30280
30277
30271
30151
30281
30266
30251
30124
30276
30285
30233
30255
30255
30246
30244
30245
30254
30192
30236
30239
30183
30237
30228
30204
30230
30230
30233
30119
30228
30221
30135
30215
30215
30083
30206
30215
30052
30204
30198
30063
30201
30199
30083
30198
30194
30183
30111
30186
30181
30193
30095
30179
30188
30097
30183
30170
30102
30172
30159
30180
30109
30164
30135
30164
30151
30160
30151
30087
30149
30156
30146
30069
30139
30141
30140
30124
30063
30135
30140
30127
30138
30116
30049
30124
30135
30122
30110
30046
30111
30116
30127
30093
30098
30111
30118
30071
30100
30097
30118
30079
29991
30093
30100
30117
30061
30093
30087
30084
30083
30014
30092
30092
30084
30068
30005
30079
30084
30093
30057
29934
30084
30057
30054
29983
30065
30056
30055
30066
30060
30060
29964
30060
30049
30054
30002
30049
30045
30074
30021
30044
30046
30047
29994
30044
30035
30037
30039
30039
30036
30010
30031
30023
30006
30032
30036
30029
30027
30029
30046
30015
29882
30031
30041
29959
30023
30036
29948
30023
30015
30030
30031
30029
29968
30015
30017
30016
29951
30014
30018
30002
30016
30014
30008
29951
30018
30011
30020
29998
30003
30012
30004
30028
29995
29911
30007
30006
30020
29990
29935
29995
30010
29998
29957
30006
30004
30007
29993
29935
29996
29999
29999
29944
29999
29996
29999
29935
29999
29980
29991
29941
29997
30007
30004
29933
29990
30011
29988
30005
29980
29995
29991
29977
29997
29986
29991
29905
29984
29999
29969
29984
29987
29943
29986
29991
29991
29918
29999
30009
29959
29996
29997
30004
29957
29999
30004
29997
29982
29919
29990
29994
29999
29956
29999
29985
30012
29990
30002
29994
29992
29991
29927
29997
29999
30011
29970
30001
29990
30006
29942
30006
30000
30006
29928
30007
30006
30008
29959
29991
30002
30015
29959
30000
30010
30015
30011
29912
30010
29997
29943
30007
30010
29999
30007
30007
30014
29934
30018
30023
29968
30012
29959
30015
29985
30023
30015
29967
30019
30010
30023
29935
30022
30016
30021
30031
30010
30025
30041
29979
30027
30020
30027
30035
30026
30028
30039
29957
30023
30047
30026
30040
30044
30059
30034
29970
30041
30063
29994
30051
30044
30031
30047
30060
30022
30062
30063
29988
30049
30055
30063
30017
30054
30055
30063
30037
30060
30067
30073
30052
30071
30079
30071
30054
30074
30079
30079
30079
30087
30087
30026
30079
30091
30079
30018
30081
30087
30093
30034
30090
30110
30005
30102
30118
30044
30096
30112
30080
30109
30100
30078
30111
30129
30051
30107
30118
30081
30123
30119
30108
30124
30127
30092
30125
30133
30131
30125
30132
30139
30142
30139
30132
30148
30125
30149
30145
30119
30151
30143
30158
30161
30159
30137
30160
30172
30109
30164
30164
30167
30173
30158
30173
30178
30170
30182
30183
30179
30191
30188
30157
30196
30194
30193
30194
30204
30191
30206
30211
30207
30215
30215
30215
30170
30231
30235
30230
30249
30211
30233
30246
30206
30241
30245
30243
30238
30252
30215
30248
30261
30213
30254
30255
30263
30260
30271
30283
30247
30275
30276
30277
30279
30279
30268
30298
30294
30279
30290
30294
30310
30255
30303
30318
30280
30311
30323
30275
30324
30335
30298
30333
30326
30319
30332
30346
30330
30243
30346
30343
30343
30342
30353
30346
30365
30364
30351
30374
30375
30382
30279
30381
30385
30351
30377
30396
30343
30399
30405
30389
30326
30414
30422
30375
30405
30426
30402
30431
30427
30422
30432
30435
30443
30377
30439
30458
30403
30451
30454
30435
30450
30461
30453
30465
30483
30453
30484
30484
30421
30483
30476
30491
30502
30503
30500
30452
30514
30519
30494
30518
30522
30529
30460
30531
30539
30510
30539
30538
30553
30510
30541
30542
30563
30505
30564
30567
30578
30551
30502
30582
30590
30580
30490
30590
30594
30595
30510
30604
30611
30606
30615
30622
30631
30630
30580
30620
30631
30629
30652
30582
30636
30643
30655
30650
30585
30651
30652
30682
30650
30599
30671
30679
30682
30636
30644
30689
30695
30700
30687
30628
30705
30708
30719
30710
30639
30714
30725
30736
30727
30677
30742
30751
30750
30693
30748
30748
30759
30695
30764
30773
30769
30708
30777
30784
30783
30798
30773
30795
30796
30806
30804
30773
30823
30808
30827
30789
30830
30839
30811
30842
30844
30828
30850
30845
30860
30847
30855
30879
30800
30872
30887
30877
30816
30893
30900
30862
30906
30903
30919
30884
30915
30921
30935
30912
30918
30927
30943
30949
30928
30910
30959
30973
30937
30966
30960
30970
30961
30937
30983
30983
31003
30999
30913
30991
31010
30999
31023
30993
31021
31022
31039
30999
31035
31038
31046
31036
31051
31053
31075
31046
31071
31076
31069
31079
31025
31087
31090
31090
31047
31108
31119
31124
31084
31124
31126
31133
31060
31142
31149
31111
31142
31145
31173
31144
31162
31167
31180
31175
31143
31191
31199
31199
31195
31211
31207
31223
31197
31151
31225
31234
31235
31230
31255
31222
31239
31252
31268
31255
31188
31265
31278
31226
31284
31278
31285
31211
31285
31306
31317
31268
31303
31319
31332
31269
31335
31341
31351
31320
31351
31359
31358
31343
31247
31367
31381
31389
31343
31391
31388
31387
31414
31359
31252
31408
31410
31428
31396
31424
31431
31432
31438
31404
31457
31455
31463
31463
31399
31469
31483
31466
31490
31492
31492
31492
31495
31507
31495
31521
31515
31535
31530
31543
31540
31528
31543
31546
31550
31540
31431
31567
31577
31487
31583
31573
31569
31589
31598
31607
31555
31605
31619
31583
31615
31620
31591
31636
31631
31654
31559
31636
31638
31623
31655
31661
31646
31557
31681
31676
31679
31598
31690
31706
31663
31695
31691
31701
31713
31727
31729
31663
31739
31751
31713
31751
31751
31758
31722
31764
31765
31786
31732
31790
31780
31802
31727
31800
31789
31791
31806
31810
31823
31805
31764
31825
31847
31847
31831
31727
31867
31846
31860
31866
31879
31879
31895
31847
31885
31902
31904
31860
31909
31910
31931
31860
31927
31929
31920
31828
31943
31943
31846
31959
31972
31947
31866
31972
31982
31988
31943
31985
31983
32007
31940
32007
32015
32003
32028
32036
32035
32022
32043
32047
32036
31917
32071
32076
32054
31975
32079
32095
32063
32092
32094
32116
32100
32051
32111
32121
32145
32124
32029
32143
32155
32132
32007
32162
32164
32149
32174
32195
32111
32207
32207
32141
32214
32231
32151
32218
32226
32219
32135
32239
32239
32247
32167
32259
32262
32275
32187
32281
32287
32311
32289
32205
32295
32311
32318
32263
32322
32340
32359
32326
32204
32359
32365
32334
32366
32371
32381
32363
32391
32398
32419
32339
32410
32421
32428
32364
32435
32449
32410
32455
32450
32478
32431
32463
32476
32473
32482
32498
32508
32375
32507
32507
32495
32519
32534
32551
32503
32543
32546
32572
32558
32461
32578
32572
32572
32499
32598
32605
32519
32606
32610
32614
32472
32634
32660
32571
32647
32666
32623
32667
32671
32678
32566
32693
32698
32565
32698
32718
32653
32714
32727
32753
32708
32747
32751
32767
32742
32769
32774
32790
32710
32799
32807
32807
32787
32665
32830
32839
32807
32831
32852
32853
32758
32874
32860
32895
32877
32835
32894
32909
32927
32874
32923
32929
32947
32879
32941
32932
32958
32877
32963
32975
32966
32903
32994
33012
32973
33006
33014
33023
32988
33028
33031
33028
33055
33054
33063
33065
33095
33063
33094
33009
33095
33087
32959
33118
33120
33130
33052
33143
33143
33156
33175
33172
33167
33174
33195
33207
33175
33126
33214
33223
33225
33236
33245
33253
33244
33255
33248
33267
33271
33287
33287
33298
33298
33281
33279
33238
33236
33330
33343
33347
33351
33366
33388
33380
33366
33303
33297
33305
33343
33366
33385
33367
33351
33340
33356
33347
33358
33335
33353
33383
33382
33374
33398
33380
33519
33524
33436
33455
33462
33479
33527
33535
33543
33550
33575
33574
33573
33583
33590
33583
33559
33543
33578
33546
33578
33538
33680
33682
33684
33686
33693
33702
33707
33708
33731
33735
33735
33759
33727
33772
33769
33780
33783
33795
33799
33811
33815
33814
33829
33834
33842
33849
33858
33866
33891
33887
33874
33836
33792
33914
33919
33922
33943
33879
33943
33947
33972
33927
33971
33983
33995
33871
33998
34018
34013
34028
34036
34054
34042
34046
34071
34036
33983
34082
34103
34097
34095
34133
34101
34054
34127
34151
34156
34156
34174
34173
34196
34189
34195
34203
34183
34143
34161
34135
34235
34255
34253
34267
34272
34283
34280
34287
34303
34309
34311
34311
34343
34336
34337
34354
34350
34365
34369
34375
34400
34415
34403
34411
34418
34425
34444
34457
34473
34483
34487
34494
34495
34503
34519
34519
34525
34542
34540
34543
34565
34550
34543
34559
34597
34587
34599
34601
34614
34619
34621
34639
34643
34612
34635
34623
34614
34662
34685
34695
34695
34711
34695
34703
34709
34719
34725
34726
34725
34726
34788
34798
34799
34812
34815
34820
34836
34846
34848
34851
34855
34858
34879
34881
34885
34895
34900
34913
34921
34926
34948
34951
34983
34959
34966
34967
34971
34991
34995
34999
35028
35036
35007
34963
34908
35066
35078
35089
35097
35093
35094
35111
35107
35127
35143
35166
35167
35168
35174
35167
35138
35145
35138
35133
35117
35119
35100
35247
35258
35263
35271
35276
35284
35305
35309
35314
35324
35326
35327
35334
35359
35372
35372
35371
35335
35292
35404
35399
35410
35444
35439
35428
35393
35303
35463
35493
35494
35495
35501
35523
35540
35519
35508
35516
35508
35492
35461
35573
35591
35604
35601
35600
35615
35626
35652
35663
35657
35677
35673
35687
35676
35669
35673
35655
35610
35727
35741
35748
35754
35760
35772
35788
35786
35806
35803
35810
35831
35831
35828
35799
35777
35869
35882
35893
35892
35885
35924
35927
35915
35894
35869
35868
35827
35973
35982
35990
35988
36015
35993
36007
36036
36043
36058
36049
36050
36039
36018
35948
36099
36100
36116
36116
36127
36130
36134
36145
36141
36162
36179
36183
36194
36229
36220
36225
36222
36214
36201
36204
36183
36177
36158
36294
36297
36309
36313
36324
36342
36335
36333
36357
36383
36378
36381
36374
36321
36286
36255
36261
36447
36447
36453
36462
36476
36477
36492
36485
36503
36514
36525
36529
36529
36551
36559
36558
36500
36580
36582
36607
36607
36615
36620
36647
36655
36642
36636
36589
36532
36676
36700
36703
36700
36703
36711
36706
36742
36765
36767
36767
36783
36801
36786
36803
36810
36813
36833
36821
36815
36818
36802
36822
36797
36743
36871
36895
36903
36906
36916
36926
36934
36949
36767
36963
36823
36860
36871
36863
36869
36900
36856
36892
36955
37000
37043
37031
37047
37063
37063
37084
37094
37117
37119
37127
37143
37151
37127
37095
37063
37042
37180
37195
37200
37213
37226
37207
37221
37238
37261
37271
37279
37270
37286
37297
37311
37291
37295
37287
37221
37196
37343
37363
37364
37369
37364
37383
37398
37415
37399
37419
37402
37445
37455
37455
37434
37410
37383
37327
37492
37511
37518
37524
37528
37550
37540
37397
37375
37572
37400
37435
37443
37511
37519
37582
37607
37621
37639
37634
37631
37605
37581
37620
37646
37606
37556
37727
37716
37738
37749
37740
37751
37751
37765
37767
37767
37807
37807
37815
37815
37829
37844
37847
37861
37855
37878
37886
37893
37892
37918
37895
37919
37927
37930
37947
37956
37983
37982
37994
37978
37982
37993
37989
38006
38022
38036
38055
38054
38055
38053
38064
38078
38086
38100
38100
38111
38125
38118
38117
38141
38139
38149
38178
38164
38164
38165
38175
38199
38168
38151
38177
38196
38188
38207
38183
38199
38199
38174
38199
38199
38095
38157
38324
38324
38335
38343
38348
38358
38132
38123
38151
38151
38215
38167
38422
38422
38428
38197
38236
38273
38340
38399
38447
38452
38496
38500
38484
38503
38487
38495
38506
38551
38522
38303
38567
38583
38535
38580
38583
38575
38581
38583
38582
38636
38647
38647
38646
38568
38663
38638
38689
38636
38490
38508
38700
38457
38470
38724
38735
38738
38749
38758
38772
38759
38780
38786
38778
38791
38783
38790
38791
38797
38825
38855
38853
38864
38858
38853
38829
38831
38789
38818
38866
38830
38716
38919
38937
38955
38951
38955
38965
38947
38946
39002
39004
38972
38971
38967
39010
39044
39050
39037
39067
39055
39054
39068
39074
39079
39099
39098
39108
39124
39127
39141
39135
39136
39151
39130
39087
39046
39084
39034
38954
39201
39199
39215
39220
39217
39228
39239
39257
39247
39270
39272
39276
39279
39295
39299
39311
39303
39333
39324
39343
39335
39340
39340
39346
39358
39380
39372
39368
39380
39398
39420
39421
39428
39454
39452
39458
39460
39465
39479
39477
39463
39367
39321
39327
39333
39415
39444
39490
39536
39557
39570
39574
39569
39551
39559
39559
39591
39610
39615
39618
39629
39645
39652
39642
39666
39451
39671
39654
39671
39711
39717
39719
39725
39740
39734
39741
39759
39769
39773
39781
39782
39796
39807
39815
39821
39804
39802
39810
39815
39826
39823
39831
39831
39843
39882
39895
39892
39907
39899
39887
39875
39879
39900
39919
39876
39878
39908
39902
39839
39775
39999
39991
40011
40020
40030
40028
40043
40034
40031
40038
40049
40067
40071
40076
40094
40094
40092
40135
40142
40152
40147
40154
40141
40127
40054
39972
40196
40196
40199
40196
40191
40211
40239
40244
40242
40233
40207
40175
40053
40278
40301
40292
40313
40314
40295
40303
40326
40351
40356
40367
40367
40327
40194
40396
40396
40385
40423
40431
40415
40378
40286
40452
40453
40455
40436
40492
40487
40455
40355
40514
40518
40522
40533
40527
40525
40564
40574
40571
40583
40576
40508
40390
40612
40609
40583
40641
40596
40652
40660
40647
40629
40663
40624
40495
40695
40703
40679
40732
40729
40727
40727
40743
40734
40706
40690
40780
40788
40788
40760
40822
40825
40831
40829
40810
40791
40759
40804
40732
40686
40892
40887
40892
40892
40915
40916
40931
40924
40903
40923
40967
40967
40967
40967
40945
40892
40999
40967
41018
40994
40964
40927
40823
40816
41055
41062
41076
41080
41088
41094
41095
41079
41084
41149
41143
41151
41143
41118
40954
41183
41171
41186
41191
41196
41190
41191
41223
41231
41220
41042
41260
41269
41270
41281
41282
41282
41255
41295
41295
41325
41340
41348
41356
41359
41374
41355
41324
41287
41236
41108
41121
41415
41415
41127
41115
41446
41452
41453
41456
41468
41467
41468
41455
41476
41479
41502
41497
41535
41535
41557
41555
41566
41567
41575
41583
41596
41590
41608
41602
41643
41512
41623
41607
41648
41623
41617
41533
41671
41703
41689
41719
41412
41674
41655
41724
41735
41474
41415
41759
41770
41780
41788
41799
41782
41765
41834
41834
41823
41647
41831
41847
41863
41830
41831
41839
41893
41885
41839
41703
41919
41924
41927
41911
41890
41932
41967
41987
41956
41919
41790
41991
42004
41988
41967
42023
42057
42052
42015
41859
41764
42082
42076
42095
42095
42103
42078
42061
42079
42137
42143
42049
41957
42149
42166
42174
42140
42204
42204
42155
42085
41978
42218
42224
42197
42207
42272
42273
42276
42213
42058
42286
42300
42303
42285
42311
42333
42339
42335
42354
42316
42188
42366
42374
42386
42343
42407
42421
42375
42247
42095
42439
42443
42447
42433
42436
42475
42487
42429
42165
42500
42476
42519
42527
42452
42548
42550
42550
42565
42367
42580
42588
42590
42591
42615
42520
42615
42614
42583
42626
42653
42660
42663
42663
42606
42439
42689
42695
42694
42708
42687
42733
42735
42711
42673
42430
42759
42769
42780
42769
42737
42807
42816
42799
42743
42551
42832
42843
42847
42863
42855
42818
42829
42834
42870
42908
42916
42919
42927
42935
42932
42948
42927
42943
42934
42884
42903
42887
42775
42989
43002
43014
43015
42983
43010
43012
43015
43031
43015
43050
43087
43076
43079
43079
42991
42871
42875
42908
42950
42861
42862
43140
43150
43156
43156
43162
43175
43197
43203
43194
43184
43140
42956
43222
43228
43241
43244
43250
43246
43227
43239
43270
43255
43268
43255
43281
43279
43276
43287
43303
43310
43335
43364
43350
43375
43383
43374
43361
43367
43372
43386
43420
43418
43431
43455
43457
43460
43462
43463
43470
43479
43484
43490
43509
43503
43507
43519
43517
43521
43540
43527
43556
43540
43489
43414
43437
43408
43382
43375
43444
43447
43423
43603
43622
43630
43634
43647
43639
43644
43655
43654
43681
43679
43681
43686
43691
43688
43686
43672
43695
43695
43712
43748
43763
43769
43764
43773
43772
43783
43755
43783
43799
43797
43806
43815
43812
43809
43797
43847
43840
43758
43852
43863
43847
43884
43886
43796
43903
43908
43911
43911
43907
43919
43933
43943
43924
43948
43964
43967
43911
43975
43972
43967
43977
43981
44013
44023
44029
44026
44020
43996
43955
43855
43810
44069
44062
44071
44076
44079
44076
44081
44087
44075
44120
44129
44118
44112
44095
44034
44143
44143
44135
44141
44167
44148
44148
44151
44159
44167
44195
44204
44215
44212
44231
44233
44230
44232
44231
44183
44061
44010
44263
44254
44268
44263
44270
44277
44271
44279
44285
44305
44308
44295
44233
44326
44318
44332
44332
44324
44350
44359
44345
44317
44234
44359
44375
44385
44391
44390
44396
44398
44404
44407
44407
44407
44423
44412
44415
44414
44443
44443
44458
44472
44481
44470
44487
44487
44477
44479
44476
44484
44482
44497
44503
44511
44506
44509
44519
44543
44530
44551
44565
44551
44524
44431
44578
44575
44560
44577
44607
44604
44542
44468
44615
44615
44612
44620
44538
44635
44636
44628
44636
44663
44655
44621
44551
44676
44668
44679
44679
44678
44703
44694
44703
44668
44704
44705
44720
44717
44726
44719
44716
44756
44758
44756
44735
44742
44736
44695
44678
44665
44767
44778
44781
44781
44799
44799
44801
44807
44804
44807
44806
44830
44832
44838
44843
44838
44807
44774
44850
44849
44855
44870
44863
44866
44892
44880
44887
44895
44906
44900
44896
44908
44923
44914
44903
44922
44919
44926
44935
44943
44906
44883
44863
44942
44965
44954
44954
44960
44966
44972
44969
44973
44998
44996
44998
45009
44976
44986
44942
44935
44942
44925
44876
45009
45028
45025
45030
45039
45015
45039
45055
45062
45046
45030
45012
44959
45063
45063
45076
45079
45063
45063
45091
45094
45094
45095
45095
45063
45063
45030
45028
45046
45037
45006
45052
45039
44935
45127
45137
45143
45143
45145
45127
45140
45139
45156
45156
45162
45159
45167
45167
45157
45100
45063
45026
45169
45183
45191
45180
45188
45191
45205
45203
45027
45209
45204
45212
45209
45207
45211
45206
45204
45212
45210
45223
45220
45239
45250
45239
45261
45258
45248
45255
45239
45230
45182
45134
45102
45260
45265
45262
45106
45259
45262
45269
45269
45268
45286
45273
45274
45278
45294
45282
45286
45287
45308
45315
45300
45310
45313
45295
45300
45286
45278
45279
45268
45252
45239
45220
45319
45315
45312
45319
45316
45319
45332
45340
45348
45351
45348
45347
45342
45364
45350
45356
45351
45372
45362
45367
45367
45357
45364
45319
45300
45223
45357
45375
45364
45372
45391
45369
45382
45379
45378
45370
45391
45383
45377
45386
45383
45391
45388
45391
45391
45394
45404
45415
45399
45395
45335
45307
45400
45415
45407
45399
45431
45430
45404
45399
45403
45372
45399
45415
45409
45405
45398
45382
45279
45435
45445
45438
45444
45447
45439
45436
45439
45441
45454
45463
45456
45447
45460
45460
45452
45454
45453
45469
45319
45479
45477
45461
45466
45478
45479
45476
45436
45359
45473
45486
45476
45495
45492
45492
45483
45444
45423
45375
45495
45495
45495
45504
45482
45500
45503
45503
45511
45513
45516
45525
45511
45473
45447
45408
45518
45511
45504
45532
45514
45509
45514
45532
45535
45503
45383
45516
45524
45524
45540
45538
45529
45531
45530
45535
45542
45540
45543
45543
45546
45539
45542
45489
45486
45401
45556
45543
45565
45564
45549
45548
45575
45572
45557
45540
45502
45397
45567
45572
45575
45575
45568
45574
45574
45559
45575
45596
45588
45591
45519
45590
45585
45599
45478
45575
45575
45598
45542
45540
45562
45517
45532
45535
45516
45465
45478
45598
45607
45606
45617
45610
45604
45627
45615
45611
45619
45611
45620
45607
45617
45613
45614
45616
45608
45620
45621
45616
45625
45607
45626
45636
45645
45644
45647
45658
45652
45651
45632
45636
45626
45615
45567
45477
45439
45436
45446
45475
45655
45656
45657
45647
45668
45655
45645
45658
45665
45644
45540
45508
45687
45508
45503
45527
45570
45598
45648
45679
45681
45676
45695
45674
45669
45646
45621
45575
45543
45695
45695
45703
45701
45700
45692
45687
45671
45715
45713
45711
45727
45703
45655
45573
45527
45703
45715
45717
45711
45703
45689
45693
45693
45690
45700
45714
45702
45734
45726
45749
45740
45745
45758
45742
45755
45751
45727
45551
45740
45751
45749
45750
45743
45756
45749
45756
45740
45735
45737
45757
45745
45766
45772
45779
45763
45767
45767
45787
45772
45774
45788
45779
45771
45783
45766
45782
45768
45756
45807
45802
45761
45549
45794
45799
45790
45779
45764
45819
45819
45820
45778
45716
45597
45807
45815
45815
45812
45822
45811
45788
45795
45783
45799
45845
45855
45843
45780
45561
45831
45841
45842
45828
45822
45848
45863
45869
45679
45866
45820
45868
45556
45846
45831
45873
45740
45879
45821
45879
45694
45879
45870
45859
45869
45842
45871
45900
45909
45901
45908
45903
45858
45719
45736
45636
45902
45887
45895
45903
45898
45924
45903
45914
45863
45917
45919
45926
45943
45924
45908
45892
45860
45855
45911
45903
45926
45878
45810
45557
45922
45942
45948
45943
45950
45933
45947
45951
45959
45955
45951
45940
45942
45954
45971
45959
45964
45957
45975
45959
45972
45967
45980
45981
45983
45987
45983
45990
45991
45989
45986
45991
46002
45991
46007
45996
45991
46009
46007
46004
45974
46003
45969
45988
45956
45975
45972
45988
46023
46004
45983
45974
45987
45980
45991
46023
45996
46046
46039
46044
46052
46034
46045
46060
46061
46052
46055
45660
45957
46063
46085
46087
46087
46084
46076
46105
46087
46047
46063
46055
46023
45965
46013
45951
45978
46077
46087
46101
46123
46123
46087
46043
46087
46087
46105
46121
46127
46120
46115
46140
45799
46139
46158
46164
46125
46087
46130
46142
46157
46148
46151
46148
46159
46143
46158
46167
46166
45803
45804
45846
45831
45783
46172
46182
46191
46183
46191
46180
46151
46165
46123
46181
46215
46215
46231
46228
46221
46215
46087
46212
46214
46215
46215
46196
46213
46140
46180
46247
46244
46255
46260
46260
46250
46236
46087
46127
46079
45771
46271
46255
46247
46252
46267
46271
46279
46279
46277
46207
46197
46303
46289
46299
46311
46310
46319
46290
46183
45927
45796
46306
46295
46303
46326
46302
46295
46263
46319
46337
46343
46365
46359
46350
46319
46307
46254
46238
46276
46237
46165
45907
46127
46047
45854
46359
46358
46360
46359
46375
46372
46384
46378
46383
46391
46384
46343
46414
46407
46415
46367
46398
46319
46428
46421
46435
46417
46436
46438
46439
46435
46438
46428
46407
46336
46359
46399
46335
46412
46444
46439
46438
46454
46460
46461
46459
46452
45979
46023
45991
46457
46471
46471
46479
46468
46415
46447
46500
46470
46334
46004
46500
46503
46486
46412
46511
46535
46428
46233
46359
46220
46198
46028
46522
46524
46527
46535
46533
46532
46543
46543
46535
46540
46541
46546
46557
46509
46447
46555
46551
46558
46572
46574
46588
46597
46580
46584
46543
46487
46471
46495
46398
46580
46591
46588
46584
46599
46567
46515
46572
46612
46639
46628
46647
46632
46639
46648
46635
46636
46649
46663
46666
46646
46634
46631
46637
46652
46637
46642
46624
46583
46598
46470
46180
46123
46662
46618
46652
46663
46668
46659
46691
46663
46657
46599
46565
46628
46695
46711
46727
46692
46628
46581
46439
46231
46439
46292
46108
46111
46139
46383
46727
46727
46718
46623
46727
46756
46759
46744
46452
46759
46751
46743
46743
46649
46759
46774
46797
46783
46791
46774
46791
46599
46404
46292
46759
46716
46719
46685
46781
46804
46806
46727
46447
46788
46810
46795
46805
46815
46806
46801
46813
46759
46805
46819
46814
46816
46823
46831
46836
46828
46847
46827
46783
46802
46830
46847
46838
46839
46814
46736
46751
46756
46765
46855
46881
46900
46903
46799
46883
46884
46783
46898
46905
46912
46830
46383
46557
46903
46897
46910
46903
46903
46915
46919
46935
46942
46918
46735
46751
46685
46383
46935
46932
46302
46343
46567
46631
46855
46910
46938
46900
46964
46974
46956
46878
46885
46813
46940
46980
46983
46983
46983
46972
47004
47015
46996
47023
46997
46932
46367
46530
46988
46995
46983
46942
46951
47027
47048
47007
46788
47001
47012
47023
47004
47009
46892
46960
47047
47057
47037
46943
46756
46423
47047
47042
47041
47030
47040
47047
47045
47021
46919
47015
47063
47071
47086
47095
47079
47087
47054
46983
46976
46747
46718
47068
47079
47046
46950
46958
46957
46967
46999
46983
46975
46966
46967
46983
47011
46997
47009
47074
47106
47104
47133
47140
47137
47135
47111
47023
46499
47111
47124
47127
47111
47101
47028
47063
47043
47100
47148
47189
47172
47172
47157
47098
46959
46951
46518
46615
46501
46759
47167
47165
47150
47070
47051
47103
47138
47193
47196
47199
47154
47019
46876
47175
47182
47176
47087
47146
47206
47207
47221
47215
47193
47063
46812
47207
47196
47199
47111
47108
47212
47247
47111
47207
47223
47230
47212
47159
47095
47111
47106
47107
47206
47239
47239
47231
47237
47223
47249
46774
47108
47144
47209
47281
47282
47287
47231
47207
47207
47223
46956
47068
46622
47269
47276
47279
47287
47151
47295
47279
46678
47301
47303
47306
47287
47277
47193
47237
47315
47335
47340
47359
47351
47284
47260
47226
47284
47311
47306
47076
46708
47331
47335
47327
47358
47338
47335
47262
47239
47231
47359
47356
47373
47359
47364
47388
47399
47413
47406
47388
47402
47383
47263
47399
47391
47392
47300
47274
47319
47390
47367
47431
47238
47407
47343
47426
47412
47403
47339
47407
47413
47409
47469
47431
47428
47182
47412
47463
47455
47475
47468
47476
47470
47486
47484
47425
47391
47358
46884
47470
47163
46819
46963
46972
47034
47487
47495
47478
47495
47492
47495
47494
47463
47410
47439
47459
47428
47408
47406
47399
47407
47424
47419
47423
47435
47495
47551
47551
47563
47573
47574
47567
47583
47588
47583
47588
47585
47580
47574
47564
47599
47599
47588
47597
47591
47597
47618
47623
47607
47623
47607
47612
47612
47591
47519
47540
47623
47623
47623
47623
47653
47655
47655
47652
47565
47247
47036
47090
47655
47641
47013
47279
47391
47366
47661
47656
47662
47669
47665
47676
47679
47686
47573
47575
47655
47700
47705
47719
47713
47724
47735
47735
47732
47743
47742
47727
47732
47720
47727
47639
47623
47628
47679
47682
47686
47705
47739
47751
47740
47751
47751
47765
47750
47770
47759
47783
47751
47783
47783
47791
47791
47786
47791
47811
47788
47807
47698
47826
47812
47806
47794
47729
47829
47830
47839
47868
47855
47860
47844
47855
47868
47879
47863
47855
47771
47765
47582
47855
47863
47860
47790
47879
47906
47907
47917
47866
47623
47455
47892
47892
47892
47898
47900
47919
47902
47923
47892
47822
47831
47943
47959
47845
47791
47588
47615
47948
47951
47938
47956
47928
47952
47857
47879
47971
47988
47988
47998
47946
47944
47774
47452
47542
47975
47997
47983
48007
47999
47990
48007
48007
48004
47949
47983
48015
48036
47997
47943
47550
48038
48026
48028
47949
48072
48041
47623
48041
48031
48045
47971
48055
48084
48102
48100
48092
48063
47533
48081
48081
47973
48112
48135
48049
47727
48100
48092
48085
48002
48108
48110
48132
48135
48156
48154
48081
47495
48135
48133
48135
48135
48135
48135
48135
48044
48175
48182
48191
48151
47875
48159
48167
48167
48182
48135
48069
48123
48199
48223
48206
48218
48120
47719
48186
48213
48181
48111
48223
48247
48194
47751
48231
48228
48244
48215
48172
48135
48175
48252
48262
48275
48270
48055
47833
48260
48263
48263
48239
48157
48201
48298
48296
48303
48241
47911
47687
48295
48305
48298
48302
48300
48211
48327
48327
48351
48028
48315
48326
48327
48290
48310
48351
48343
48255
48110
47879
48340
48261
48356
48347
48338
48312
48361
48377
48175
47783
48372
48375
48377
48383
48375
48384
48324
48316
48391
48418
48437
48382
47991
48415
48413
48422
48412
48391
48338
48444
48436
48227
48434
48432
48382
48346
48453
48470
48492
48391
48188
48455
48460
48471
48462
48471
48455
48384
48461
48511
48494
48423
48455
48230
47911
48493
48508
48409
48503
48527
48535
48551
48542
48545
48547
48532
48303
47969
48524
48543
48535
48549
48536
48495
48462
48517
48551
48567
48575
48580
48599
48583
48564
48412
48327
48046
48588
48575
48519
48621
48590
48516
48207
48439
48602
48615
48612
48535
48647
48423
48631
48571
48647
48671
48647
48671
48679
48607
48309
48667
48644
48647
48685
48635
48529
48304
48702
48673
48685
48679
48685
48679
48695
48695
48711
48700
48721
48701
48717
48647
48613
48621
48735
48748
48750
48759
48743
48722
48553
48320
48751
48758
48751
48760
48746
48740
48735
48676
48711
48675
48694
48692
48749
48783
48782
48806
48813
48837
48843
48804
48533
48423
48354
48807
48816
48775
48753
48832
48852
48863
48805
48567
48838
48855
48847
48854
48847
48860
48847
48772
48871
48901
48894
48855
48831
48350
48888
48886
48890
48884
48820
48844
48935
48927
48938
48892
48814
48583
48359
48916
48943
48932
48921
48828
48900
48957
48969
48965
48975
48926
48892
48737
48373
48974
48972
48974
48978
48964
48925
48967
48913
48939
48927
48939
48895
48999
49018
49028
49041
49026
48711
49023
49028
49036
49024
49025
49023
49023
49056
49055
49075
49028
48901
48735
49055
49044
49069
49063
49061
49015
48972
49093
49109
49097
48831
49103
49103
49084
49031
49012
49028
49044
49100
49061
49143
49144
49135
49143
49142
49135
49140
49150
49127
48922
48785
49134
49152
49143
49175
49155
49159
49158
49127
49068
49183
49191
49207
49175
49116
48724
49159
49212
49190
49120
49140
49212
49216
49196
48756
49196
49204
49186
49151
49180
49231
49231
49252
49255
49263
49254
49191
48903
48670
49242
49234
49247
49159
49263
49271
49287
49212
48890
48932
49268
49260
49277
49262
49313
49319
49314
49259
49136
48692
49295
49287
49303
49310
49311
49309
49311
49309
49319
49327
49313
49316
49268
49263
49354
49358
49359
49367
49357
49359
49327
49255
48794
48743
48807
49367
49359
49356
49365
49372
49370
49350
49343
49287
49383
49404
49413
49399
49153
48863
49394
49396
49407
49411
49415
49389
49383
49391
49327
49353
49429
49450
49468
49452
49255
49446
49403
49475
49479
49467
49415
49276
48892
49455
49461
49447
49431
49383
49386
49398
49431
49388
49458
49492
49519
49452
49311
49100
48903
49495
49495
49500
49498
49468
49446
49524
49546
49543
49501
49213
49522
49514
49506
49434
49468
49516
49541
49556
49580
49580
49502
48988
49543
49442
49567
49583
49567
49590
49527
49127
49551
49562
49567
49559
49565
49501
49607
49542
49581
49583
49506
49607
49610
49627
49631
49613
49479
49283
49294
49028
49601
49607
49615
49519
49527
49646
49669
49414
49629
49639
49615
49631
49629
49612
49612
49621
49652
49655
49639
49636
49652
49639
49583
49542
49567
49575
49564
49564
49607
49671
49671
49671
49711
49711
49702
49607
49398
49229
49268
49679
49671
49688
49610
49703
49708
49718
49719
49730
49723
49742
49732
49727
49689
49639
49655
49606
49511
49044
49711
49711
49700
49598
49719
49734
49358
49709
49711
49687
49668
49735
49763
49655
49719
49724
49671
49711
49751
49764
49663
49146
49738
49749
49733
49732
49719
49732
49764
49518
49739
49684
49751
49772
49775
49735
49610
49070
49743
49754
49736
49722
49671
49658
49772
49794
49756
49660
49757
49743
49758
49746
49729
49732
49671
49648
49663
49671
49652
49745
49775
49783
49788
49670
49269
49765
49756
49775
49764
49709
49665
49767
49799
49815
49812
49732
49396
49775
49774
49756
49659
49774
49794
49799
49823
49814
49815
49799
49799
49815
49819
49775
49661
49187
49783
49783
49780
49780
49742
49663
49799
49819
49764
49623
49133
49775
49788
49791
49791
49780
49745
49671
49759
49799
49814
49823
49822
49791
49741
49647
49375
49325
49797
49799
49791
49767
49690
49727
49791
49814
49804
49820
49833
49831
49799
49615
49198
49799
49799
49748
49719
49813
49844
49653
49793
49807
49796
49791
49713
49746
49829
49847
49796
49751
49781
49735
49705
49301
49788
49812
49798
49799
49815
49772
49717
49687
49729
49820
49823
49804
49838
49830
49791
49175
49799
49799
49799
49799
49819
49780
49713
49703
49726
49854
49813
49780
49822
49735
49807
49815
49615
49799
49831
49303
49791
49807
49813
49799
49711
49832
49799
49807
49818
49815
49799
49709
49839
49543
49795
49798
49815
49799
49743
49823
49596
49814
49701
49835
49526
49799
49709
49847
49588
49808
49737
49772
49823
49834
49806
49476
49799
49799
49799
49787
49788
49830
49822
49823
49748
49791
49695
49838
49791
49765
49823
49836
49795
49719
49183
49799
49790
49793
49783
49792
49789
49788
49671
49804
49813
49821
49820
49793
49717
49772
49787
49780
49790
49780
49783
49759
49746
49671
49671
49775
49806
49815
49711
49370
49780
49783
49766
49749
49762
49808
49807
49810
49748
49518
49767
49772
49767
49671
49708
49791
49787
49287
49767
49711
49748
49770
49781
49799
49793
49727
49558
49207
49762
49766
49767
49643
49764
49774
49788
49788
49799
49772
49761
49414
49108
49767
49756
49751
49759
49703
49652
49774
49780
49752
49325
49738
49703
49764
49751
49751
49751
49646
49756
49772
49572
49735
49740
49687
49706
49758
49775
49489
49730
49732
49671
49671
49757
49756
49695
49093
49735
49703
49733
49612
49688
49726
49748
49724
49137
49729
49711
49647
49733
49700
49239
49708
49724
49671
49604
49740
49743
49583
49709
49709
49700
49626
49671
49724
49718
49140
49716
49671
49600
49711
49727
49691
49695
49623
49665
49719
49661
49149
49708
49671
49687
49620
49711
49719
49620
49339
49671
49653
49671
49711
49463
49695
49671
49655
49575
49711
49636
49089
49671
49654
49582
49671
49703
49671
49363
49669
49663
49660
49662
49556
49588
49671
49671
49681
49513
49415
48982
49647
49637
49642
49639
49647
49622
49623
49543
49602
49671
49661
49599
49588
49351
49057
49621
49623
49599
49535
49565
49663
49671
49615
49558
49438
49604
49620
49607
49623
49591
49575
49516
49612
49631
49631
49639
49639
49624
49573
49292
49592
49599
49607
49605
49591
49591
49503
49535
49596
49604
49618
49617
49607
49621
49623
49551
49383
48980
49591
49573
49487
49583
49592
49599
49558
49191
49574
49575
49442
49591
49599
49244
49559
49459
49580
49511
48924
49551
49447
49543
49531
49551
49543
49518
49567
49583
49321
49543
49526
49532
49519
49548
49556
49436
49535
49535
49415
49537
49543
49516
49132
49519
49519
49439
49541
49511
49450
49415
49511
49424
49519
49511
48864
49489
49396
49508
49527
49415
48884
49507
49492
49391
49498
49508
49511
49475
49286
49444
49476
49468
49431
49364
49393
49494
49501
49455
49443
49238
49447
49477
49447
49455
49449
49445
49451
49430
49447
49415
49351
49383
49450
49487
49451
49405
49132
49430
49423
49415
49406
49313
49407
49446
49436
49438
49446
49263
48748
49415
49391
49403
49404
49415
49345
49410
49437
49415
49371
49129
49388
49367
49318
49386
49410
49388
49143
49383
49362
49348
49399
49359
48983
49371
49351
49249
49357
49383
49237
49359
49348
49262
49373
48790
49351
49340
49285
49333
49307
49341
49364
48734
49346
49318
49341
48981
49310
49206
49334
49260
49298
49309
49190
49319
49327
49327
49287
48799
49287
49287
49263
49183
49299
49310
49315
49255
48726
49263
49271
49151
49286
49263
48897
49255
49255
49154
49268
49275
48996
49247
49146
49254
49268
49122
48610
49233
49223
49110
49224
49236
49117
48558
49222
49204
49198
49087
49204
49223
49011
49188
49184
49191
49087
49156
49212
49207
49150
48735
48511
49158
49121
49159
49186
49172
48590
49152
49159
49143
49178
49044
49134
48839
49159
49029
49133
49159
49124
49047
49013
49100
49132
49113
49045
49048
48511
49118
49087
49111
49086
48991
49078
49082
49116
49063
49052
48991
48727
49061
49061
49080
49071
48989
48412
49048
49015
49007
49087
48919
49032
49031
48932
49062
48980
49014
49007
49013
49046
48647
48999
48959
49021
49031
48487
48986
48948
48935
48999
49019
48925
48987
48897
48994
49001
48901
48959
48957
48960
48743
48944
48967
48950
48443
48935
48924
48839
48935
48935
48927
48788
48273
48914
48863
48900
48933
48916
48354
48887
48774
48900
48903
48886
48263
48863
48860
48855
48853
48734
48859
48856
48886
48814
48477
48836
48828
48740
48820
48847
48830
48231
48815
48788
48703
48685
48758
48793
48804
48807
48815
48796
48636
48761
48761
48759
48647
48740
48753
48764
48686
48535
48085
48706
48722
48716
48676
48621
48631
48694
48707
48711
48711
48510
48206
48044
48673
48662
48647
48543
48660
48644
48387
48639
48635
48561
48636
48644
48293
48615
48603
48610
48493
48615
48567
48585
48578
48567
48615
48294
48567
48570
48550
48468
48543
48583
48577
48462
48063
48520
48527
48511
48455
48547
48453
48079
48135
48494
48484
48485
48469
48440
48375
48391
48473
48487
48478
48407
48303
47930
47871
48428
48424
48419
48415
48296
48415
48423
48204
48399
48279
48311
48391
48383
48391
48391
48366
48375
48369
48222
47831
48335
48318
48216
48332
48343
48295
47728
48292
48292
48193
48307
48303
47887
48275
48255
48260
48237
48199
48277
48252
47856
48226
48215
48170
48228
48237
48202
47719
48199
48205
48156
48103
48180
48199
48170
48173
48055
47622
48135
48135
48135
48015
48135
48135
48151
48071
48095
48100
48095
48095
48087
47998
48094
47519
48063
47959
48058
48047
47941
47439
48036
48006
47965
48005
48014
48030
48006
47869
47794
47982
47941
47911
47948
47973
47964
47719
47933
47919
47921
47935
47424
47903
47852
47842
47897
47831
47863
47855
47806
47890
47815
47847
47841
47783
47838
47847
47836
47693
47311
47798
47788
47759
47803
47765
47451
47751
47747
47751
47713
47751
47738
47188
47700
47711
47623
47711
47701
47623
47167
47662
47663
47560
47676
47660
47223
47623
47623
47647
47623
47448
47599
47588
47534
47559
47599
47577
47505
47151
47551
47547
47508
47438
47524
47542
47527
47511
47399
46964
47480
47466
47407
47471
47479
47438
47366
47111
47423
47418
47414
47327
47415
47402
47255
46967
47365
47359
47338
47338
47303
47308
47278
47239
47234
47292
47305
47308
47297
47279
47007
47268
47254
47239
47239
47229
47215
47194
47152
47135
47142
47162
47195
47174
47175
47177
47168
47164
47147
47019
47071
47045
46908
46868
46790
46568
47071
47065
47063
47047
47035
47028
47012
46983
46996
46983
46932
46908
46997
46983
46983
46974
46958
46959
46957
46934
46937
46927
46892
46855
46804
46681
46411
46855
46855
46839
46827
46823
46777
46815
46812
46823
46798
46751
46639
46420
46559
46766
46727
46727
46665
46703
46723
46716
46703
46614
46402
46668
46654
46636
46583
46654
46654
46599
46422
46286
46598
46588
46559
46510
46571
46575
46500
46303
46100
46519
46524
46503
46499
46478
46427
46484
46495
46444
46314
46164
46439
46430
46414
46343
46385
46414
46410
46375
46302
46087
45959
46343
46334
46319
46260
46255
46295
46308
46295
46294
46282
46276
45978
46235
46222
46199
46240
46223
46208
46177
45983
46180
46159
46129
46106
46148
46147
46103
45919
45996
46087
46087
46069
46044
46079
46071
46007
45784
46025
46022
45999
45974
45942
45991
45991
45963
45843
45959
45935
45922
45892
45927
45925
45759
45545
45875
45878
45831
45820
45870
45859
45831
45781
45599
45796
45791
45786
45761
45728
45765
45756
45732
45620
45471
45726
45698
45695
45679
45643
45663
45680
45663
45655
45596
45510
45631
45607
45599
45575
45564
45535
45567
45559
45549
45501
45476
45287
45503
45499
45490
45471
45454
45477
45463
45409
45252
45424
45421
45406
45388
45373
45384
45374
45340
45172
45351
45331
45303
45319
45319
45263
45295
45279
45265
45273
45253
45210
45063
45223
45215
45174
45206
45191
45156
45139
45095
44877
45145
45128
45108
45111
45089
45076
45092
45086
44909
45063
45063
45027
45025
45019
44964
44807
44991
44989
44967
44948
44950
44952
44957
44909
44818
44903
44884
44896
44885
44821
44860
44847
44836
44839
44831
44807
44807
44798
44771
44799
44779
44697
44767
44745
44711
44730
44712
44551
44693
44689
44677
44687
44670
44651
44473
44615
44610
44598
44627
44586
44519
44344
44551
44551
44519
44548
44532
44510
44482
44393
44487
44472
44474
44455
44423
44455
44431
44387
44295
44391
44389
44386
44351
44391
44355
44237
44340
44327
44295
44319
44222
44284
44278
44247
44255
44252
44253
44230
44199
44191
44103
44187
44178
44167
44151
44148
44157
44119
44135
44103
44071
44007
44083
44070
44059
44039
44052
44031
44000
43847
43994
43983
43978
43986
43983
43957
43932
43814
43927
43921
43908
43903
43783
43886
43871
43844
43863
43769
43836
43830
43815
43815
43803
43779
43724
43708
43655
43652
43732
43726
43719
43695
43702
43710
43666
43647
43557
43651
43630
43612
43625
43598
43507
43588
43588
43583
43559
43519
43391
43524
43519
43508
43499
43436
43479
43463
43479
43442
43412
43434
43431
43399
43421
43348
43383
43383
43345
43359
43353
43309
43252
43311
43302
43304
43271
43263
43271
43250
43236
43171
43226
43214
43215
43191
43181
43176
43161
43125
43143
43135
43142
43111
43111
43090
43086
43074
43015
43054
43047
43036
43015
42964
42999
42990
42987
42948
42965
42951
42938
42919
42901
42916
42892
42908
42882
42861
42863
42849
42839
42847
42814
42767
42799
42793
42791
42748
42759
42756
42751
42727
42638
42716
42694
42687
42698
42679
42667
42663
42654
42631
42625
42598
42591
42591
42583
42568
42567
42527
42535
42522
42517
42503
42503
42474
42468
42485
42463
42461
42438
42418
42343
42404
42391
42375
42375
42375
42343
42362
42343
42326
42316
42295
42285
42276
42277
42271
42255
42167
42223
42220
42221
42213
42191
42177
42167
42179
42159
42142
42132
42119
42103
42111
42095
42093
42092
42071
42076
42028
42020
42023
41991
41991
42015
41991
41990
41940
41940
41927
41931
41919
41895
41900
41893
41902
41853
41843
41831
41828
41821
41816
41806
41820
41820
41766
41766
41735
41733
41732
41719
41727
41730
41671
41668
41668
41655
41651
41662
41660
41569
41591
41588
41579
41579
41567
41548
41550
41551
41549
41535
41520
41534
41460
41455
41450
41426
41429
41423
41404
41403
41398
41384
41398
41402
41351
41318
41309
41316
41310
41311
41295
41293
41294
41300
41322
41223
41212
41199
41204
41191
41174
41167
41180
41180
41201
41111
41105
41094
41095
41085
41068
41062
41060
41061
41068
41071
40997
40983
40967
40980
40967
40980
40992
40999
40999
40988
40895
40892
40874
40871
40857
40847
40839
40814
40804
40831
40830
40831
40855
40791
40741
40745
40724
40711
40727
40742
40743
40742
40743
40746
40731
40727
40721
40610
40596
40583
40576
40570
40567
40575
40588
40602
40593
40594
40597
40575
40468
40455
40452
40443
40428
40426
40423
40400
40415
40439
40455
40349
40343
40333
40327
40343
40364
40389
40277
40266
40270
40260
40247
40239
40260
40251
40275
40170
40167
40148
40169
40190
40148
40103
40098
40100
40087
40064
40068
40070
40094
40065
40015
40002
39999
39980
39991
39991
40006
40062
39914
39916
39903
39903
39880
39893
39931
39962
39839
39820
39812
39802
39810
39844
39850
39881
39747
39726
39724
39709
39710
39725
39754
39783
39652
39634
39632
39631
39605
39614
39626
39661
39644
39559
39544
39533
39542
39512
39554
39575
39592
39460
39451
39455
39449
39487
39537
39396
39379
39374
39370
39366
39372
39403
39431
39303
39295
39285
39280
39271
39270
39284
39313
39332
39302
39199
39183
39180
39175
39207
39239
39261
39116
39100
39092
39101
39070
39079
39093
39123
39013
39019
39015
39036
39073
38978
38960
38951
38973
39015
39059
38909
38898
38887
38919
38859
38843
38850
38847
38880
38807
38799
38785
38815
38844
38751
38743
38743
38719
38751
38787
38799
38664
38650
38650
38639
38660
38699
38610
38602
38587
38588
38620
38625
38648
38535
38503
38515
38493
38505
38548
38588
38453
38431
38437
38428
38447
38509
38375
38375
38367
38367
38349
38388
38323
38300
38308
38293
38319
38338
38237
38242
38228
38242
38277
38190
38180
38182
38151
38175
38188
38200
38114
38103
38106
38092
38125
38167
38041
38045
38023
38014
38039
38083
37972
37983
37958
37981
38046
37925
37919
37895
37943
37991
37876
37862
37858
37877
37938
37809
37807
37795
37775
37798
37848
37741
37724
37730
37732
37695
37702
37708
37732
37743
37637
37634
37623
37614
37598
37590
37583
37578
37594
37622
37530
37509
37508
37508
37486
37471
37466
37475
37478
37479
37506
37414
37383
37380
37367
37353
37359
37383
37319
37319
37303
37292
37279
37276
37268
37271
37279
37295
37290
37190
37174
37175
37154
37138
37147
37127
37105
37101
37085
37091
37093
37103
37102
37107
37083
37013
36999
36980
36988
36970
36972
36979
36975
36980
36975
36891
36893
36871
36916
36847
36853
36870
36900
36807
36789
36777
36759
36764
36751
36743
36741
36743
36762
36774
36665
36671
36655
36634
36634
36615
36609
36605
36596
36589
36582
36591
36585
36580
36585
36570
36501
36473
36471
36460
36455
36474
36476
36487
36426
36395
36389
36359
36359
36339
36334
36325
36369
36298
36280
36295
36263
36251
36246
36270
36206
36202
36207
36230
36163
36167
36198
36142
36135
36156
36101
36100
36101
36060
36060
36074
36033
36031
36038
36001
35999
35987
36029
35954
35950
35975
35915
35910
35935
35887
35879
35871
35887
35838
35831
35834
35845
35796
35796
35786
35766
35759
35815
35744
35733
35703
35696
35695
35677
35666
35679
35639
35645
35639
35610
35591
35617
35583
35578
35591
35540
35519
35562
35508
35499
35516
35492
35471
35458
35476
35441
35423
35416
35386
35403
35369
35396
35351
35349
35355
35344
35311
35303
35319
35199
35271
35266
35293
35234
35237
35223
35197
35211
35239
35167
35157
35159
35174
35130
35111
35118
35115
35119
35071
35067
35087
35031
35047
35045
35015
35015
34983
35014
34967
34983
34996
34935
34917
34933
34895
34887
34923
34873
34860
34879
34823
34823
34836
34804
34791
34791
34820
34758
34750
34770
34725
34724
34737
34701
34692
34702
34669
34650
34663
34682
34627
34613
34643
34590
34578
34595
34549
34554
34564
34534
34523
34509
34518
34479
34479
34485
34452
34449
34464
34422
34425
34434
34384
34390
34385
34399
34351
34347
34351
34337
34311
34311
34292
34295
34263
34261
34270
34243
34228
34231
34231
34201
34214
34175
34170
34180
34158
34141
34129
34151
34111
34110
34101
34075
34074
34076
34080
34036
34031
34043
34004
34005
33997
33999
33975
33961
33971
33951
33926
33918
33934
33895
33907
33903
33873
33863
33868
33828
33831
33830
33845
33799
33792
33783
33703
33773
33767
33742
33743
33731
33713
33719
33706
33682
33676
33687
33653
33647
33650
33634
33619
33621
33611
33591
33610
33564
33566
33575
33536
33541
33533
33513
33512
33501
33487
33477
33482
33470
33455
33455
33447
33425
33413
33407
33352
33386
33388
33379
33367
33355
33362
33334
33324
33317
33300
33298
33263
33275
33285
33259
33252
33237
33236
33214
33211
33219
33191
33191
33176
33174
33169
33156
33137
33132
33135
33111
33111
33097
33087
33079
33074
33064
33058
33055
33029
33024
33019
33005
33002
33000
32983
32973
32974
32949
32949
32947
32931
32926
32922
32902
32893
32899
32875
32863
32863
32862
32799
32839
32831
32804
32814
32807
32765
32775
32782
32762
32743
32742
32742
32711
32719
32715
32713
32629
32689
32682
32681
32663
32663
32663
32642
32623
32621
32591
32606
32607
32607
32563
32573
32575
32554
32546
32550
32542
32505
32519
32509
32506
32454
32486
32470
32471
32471
32431
32449
32424
32434
32417
32419
32399
32399
32380
32382
32377
32329
32358
32340
32328
32324
32335
32325
32307
32301
32292
32263
32263
32271
32245
32244
32242
32230
32220
32223
32227
32197
32180
32174
32183
32122
32156
32160
32135
32127
32130
32133
32103
32095
32106
32078
32048
32076
32062
32053
32054
32047
32048
32023
31969
32007
32007
32004
31988
31924
31970
31969
31973
31943
31943
31943
31921
31919
31916
31902
31901
31858
31883
31879
31867
31871
31831
31845
31835
31834
31825
31761
31806
31804
31793
31696
31788
31788
31758
31751
31751
31738
31739
31686
31722
31722
31694
31694
31697
31684
31676
31672
31662
31631
31649
31636
31642
31628
31566
31622
31611
31553
31593
31594
31552
31567
31572
31558
31489
31541
31537
31519
31506
31514
31511
31491
31485
31482
31476
31468
31468
31415
31444
31437
31431
31368
31430
31403
31404
31393
31359
31390
31391
31366
31367
31345
31349
31343
31327
31343
31323
31306
31316
31306
31294
31183
31284
31281
31271
31271
31271
31163
31254
31239
31164
31221
31217
31194
31206
31202
31179
31186
31191
31182
31098
31167
31167
31124
31143
31135
31134
31066
31108
31100
31084
31083
31086
31079
31018
31079
31055
31060
31047
31039
30940
31037
31029
30968
31011
31015
30970
30983
30983
30975
30983
30960
30939
30960
30952
30932
30927
30933
30918
30809
30922
30913
30855
30886
30901
30779
30876
30855
30860
30855
30845
30839
30852
30842
30816
30815
30809
30799
30695
30811
30790
30703
30783
30785
30747
30765
30749
30727
30743
30742
30737
30672
30721
30726
30634
30711
30711
30636
30676
30690
30658
30663
30664
30633
30645
30652
30581
30630
30615
30626
30606
30573
30602
30599
30549
30572
30583
30549
30577
30575
30516
30541
30536
30534
30466
30518
30535
30479
30503
30506
30431
30487
30489
30469
30466
30460
30456
30459
30429
30431
30433
30413
30439
30429
30373
30406
30406
30315
30390
30381
30375
30375
30315
30361
30358
30231
30339
30304
30338
30335
30260
30323
30335
30230
30311
30289
30299
30292
30279
30157
30279
30283
30228
30256
30250
30203
30247
30247
30155
30229
30223
30115
30197
30199
30197
30183
30171
30193
30174
30114
30169
30175
30059
30158
30145
30046
30130
30146
30055
30127
30123
29981
30105
30101
29985
30087
30082
30055
30076
30063
30051
30055
30049
30058
29932
30042
30041
29999
30031
30027
29989
30015
30011
29991
29862
29997
29995
29837
29973
29925
29959
29959
29817
29953
29941
29943
29942
29932
29785
29927
29935
29788
29910
29858
29894
29899
29749
29886
29831
29879
29883
29724
29866
29820
29850
29868
29734
29845
29855
29740
29831
29831
29698
29813
29815
29639
29798
29766
29782
29797
29678
29775
29774
29629
29753
29756
29580
29748
29732
29743
29731
29716
29721
29710
29724
29700
29687
29666
29592
29518
29691
29693
29671
29667
29683
29655
29614
29494
29652
29652
29628
29651
29631
29595
29466
29620
29620
29614
29606
29594
29591
29603
29592
29548
29502
29411
29573
29565
29567
29559
29541
29562
29540
29479
29376
29542
29527
29524
29511
29525
29500
29429
29340
29511
29486
29479
29476
29473
29420
29289
29466
29463
29468
29443
29447
29249
29436
29436
29451
29425
29375
29415
29407
29405
29420
29191
29377
29303
29383
29377
29263
29359
29161
29351
29342
29330
29332
29359
29308
29279
29271
29226
29158
29143
29320
29308
29319
29218
29303
29276
29244
29052
29287
29271
29095
29264
29271
29213
29254
29223
29207
29246
29212
29189
29227
29227
29055
29218
29203
29109
29204
29215
29108
29188
29157
29164
28943
29170
29143
29173
29145
29115
28895
29146
29147
28980
29139
29108
29082
29131
29092
29086
29109
29095
29095
28839
29093
29087
29042
29080
29055
29035
29063
29055
28983
29059
29031
28989
29051
29052
28890
29030
28957
29035
29023
28927
29019
29020
28999
28999
28884
28975
28760
28958
28920
28983
28964
28983
28829
28970
28947
28870
28956
28936
28948
28733
28935
28949
28863
28927
28925
28927
28736
28910
28922
28758
28912
28901
28780
28898
28901
28660
28867
28846
28868
28865
28884
28774
28858
28833
28823
28551
28831
28845
28644
28839
28807
28745
28812
28815
28815
28551
28806
28801
28579
28804
28800
28644
28789
28795
28738
28501
28783
28786
28661
28767
28743
28744
28575
28767
28722
28700
28459
28735
28741
28574
28735
28706
28663
28716
28715
28729
28623
28714
28671
28679
28422
28671
28666
28416
28692
28695
28589
28671
28640
28614
28678
28620
28639
28372
28623
28660
28629
28650
28647
28476
28614
28653
28617
28642
28637
28491
28582
28636
28605
28332
28626
28519
28610
28598
28599
28380
28601
28559
28525
28589
28567
28548
28583
28561
28580
28390
28567
28576
28509
28559
28554
28527
28511
28540
28538
28551
28370
28546
28527
28423
28533
28503
28434
28532
28533
28382
28514
28509
28432
28519
28485
28471
28231
28497
28482
28454
28197
28500
28484
28397
28482
28470
28488
28315
28476
28485
28207
28458
28470
28291
28450
28471
28252
28449
28422
28381
28439
28423
28403
28164
28437
28443
28366
28421
28423
28431
28263
28420
28379
28365
28132
28407
28418
28346
28121
28404
28390
28353
28120
28399
28407
28292
28391
28373
28367
28156
28380
28390
28279
28366
28343
28335
28082
28346
28363
28135
28359
28377
28226
28354
28323
28339
28163
28345
28321
28348
28222
28351
28332
28322
28167
28327
28297
28295
28067
28330
28335
28279
28080
28319
28319
28332
28204
28318
28312
28311
28231
28305
28290
28303
28116
28298
28306
28207
28295
28285
28268
28071
28285
28304
28231
28282
28264
28278
28052
28284
28287
28164
28281
28261
28238
28087
28273
28231
27998
28270
28266
28023
28271
28251
28263
28149
28261
28239
28251
28122
28247
28228
28225
28076
28252
28231
28185
28255
28219
28233
28013
28238
28250
28181
28223
28242
28237
28011
28244
28207
28223
28103
28231
28218
28226
28159
28235
28231
28227
28198
28117
28214
28215
28217
28175
28045
28217
28203
28185
28036
28215
28223
28076
28205
28203
28214
28035
28201
28231
28036
28211
28212
28074
28198
28220
28103
28212
28195
28126
28197
28174
28186
27996
28199
28201
28147
27943
28199
28204
28103
27927
28197
28183
28133
28188
28187
28180
28029
28191
28194
27995
28183
28206
28124
28193
28178
28164
27982
28180
28181
28064
28167
28115
28185
28199
28122
28167
28172
28179
28034
28182
28151
28156
27970
28178
28190
28106
28179
28167
28179
27972
28183
28180
28103
27922
28167
28191
28085
28165
28148
28148
27955
28167
28156
28111
28183
28149
28126
28164
28158
28140
27928
28178
28166
28167
28159
28118
27922
28167
28181
28106
28167
28156
28130
27933
28167
28167
28150
28174
28167
28191
28070
28187
28157
28147
28180
28183
28164
28051
28167
28194
28061
28167
28162
28167
28044
28167
28167
28182
28011
28183
28177
28038
28180
28194
28101
28167
28159
28167
27967
28183
28158
28152
27979
28179
28166
28158
28183
28167
28189
28052
28191
28198
28155
28127
28111
28053
27963
28180
28180
28194
28167
28103
28187
28182
28167
28134
27945
28191
28180
28188
28199
28187
28143
28106
28114
27955
28195
28199
28191
28186
28213
28206
28168
28103
28027
28207
28207
28199
28210
28206
28206
28218
28207
28210
28205
28208
28199
28187
28185
28210
28231
28207
28192
28159
28117
28010
28226
28219
28211
28208
28225
28204
28191
28184
28167
28124
28067
28023
28223
28228
28230
28213
28231
28231
28228
28231
28237
28231
28218
28211
28234
28221
28165
28076
28235
28227
28234
28231
28231
28231
28231
28223
28256
28239
28212
28223
28183
28041
28247
28260
28239
28241
28273
28250
28207
28143
28101
28260
28261
28265
28253
28260
28275
28264
28208
28098
28272
28276
28286
28225
28110
28276
28265
28263
28295
28260
28212
28108
28263
28290
28268
28295
28269
28219
28132
28294
28279
28283
28283
28274
28284
28261
28218
28143
28300
28303
28295
28299
28308
28315
28325
28308
28308
28271
28238
28167
28096
28308
28325
28324
28322
28319
28317
28338
28337
28335
28324
28303
28284
28259
28337
28342
28320
28353
28333
28285
28234
28207
28338
28338
28342
28364
28337
28271
28177
28364
28354
28355
28373
28349
28263
28214
28362
28372
28356
28373
28359
28335
28282
28158
28378
28377
28367
28387
28337
28215
28382
28384
28389
28391
28396
28377
28308
28383
28402
28396
28404
28374
28299
28398
28402
28406
28399
28403
28419
28366
28331
28260
28421
28418
28407
28414
28433
28376
28287
28433
28443
28443
28436
28436
28423
28442
28446
28422
28368
28316
28258
28440
28449
28444
28451
28472
28462
28420
28324
28458
28451
28474
28423
28356
28460
28463
28492
28421
28272
28471
28485
28455
28320
28478
28463
28493
28453
28322
28484
28463
28501
28470
28427
28300
28498
28486
28479
28502
28456
28363
28505
28513
28499
28500
28510
28479
28415
28500
28518
28498
28516
28483
28326
28527
28519
28467
28414
28519
28538
28519
28533
28548
28519
28465
28351
28539
28545
28526
28549
28495
28447
28388
28370
28549
28551
28551
28564
28560
28548
28538
28495
28471
28434
28409
28565
28580
28575
28564
28580
28573
28525
28582
28572
28578
28541
28413
28589
28595
28583
28599
28572
28519
28462
28611
28604
28596
28599
28619
28611
28565
28523
28423
28629
28628
28612
28623
28635
28630
28598
28532
28470
28623
28642
28639
28647
28642
28643
28647
28647
28614
28551
28517
28670
28663
28660
28663
28654
28677
28674
28679
28671
28666
28663
28636
28608
28602
28626
28595
28551
28549
28562
28689
28695
28690
28703
28698
28692
28691
28711
28679
28701
28715
28706
28588
28709
28717
28605
28721
28724
28727
28722
28727
28737
28647
28746
28741
28747
28687
28622
28590
28740
28753
28743
28745
28767
28748
28703
28648
28774
28762
28762
28765
28759
28782
28762
28709
28645
28773
28775
28776
28774
28769
28780
28775
28764
28719
28618
28796
28798
28788
28805
28799
28806
28817
28797
28805
28814
28787
28718
28679
28620
28815
28817
28829
28818
28820
28816
28804
28828
28811
28841
28838
28826
28788
28732
28835
28839
28843
28867
28828
28799
28742
28639
28854
28852
28838
28859
28781
28702
28855
28867
28881
28821
28712
28863
28858
28853
28889
28845
28730
28885
28869
28853
28889
28813
28686
28878
28893
28864
28885
28817
28716
28879
28892
28892
28887
28879
28879
28807
28687
28899
28884
28917
28886
28830
28749
28900
28902
28902
28910
28885
28923
28904
28890
28871
28833
28760
28916
28911
28916
28910
28904
28935
28927
28903
28890
28884
28831
28779
28921
28927
28924
28932
28922
28943
28943
28899
28857
28823
28788
28929
28940
28935
28935
28930
28958
28946
28902
28814
28943
28956
28954
28945
28966
28939
28889
28741
28953
28961
28957
28979
28941
28874
28828
28972
28974
28965
28967
28961
28983
28968
28940
28865
28975
28970
28969
28971
28995
28975
28934
28847
28975
28979
28985
28985
28998
28975
28895
28830
28998
28999
28998
29007
28982
29007
28995
28991
28955
28887
28820
29006
29007
28998
29026
29007
28964
28903
28862
29016
29023
29014
29036
29004
28903
29030
29023
29015
29047
28999
28935
29027
29029
29039
29031
29047
29023
28992
28942
28863
29050
29047
29045
29035
29055
29022
29004
28999
28963
28883
29055
29046
29063
29068
29046
29086
29062
29059
29022
28999
28951
29075
29073
29086
29081
29070
29095
29055
28991
29077
29086
29095
29084
29093
29073
29074
29004
28971
29103
29097
29097
29108
29044
28922
29111
29107
29099
29126
29134
29097
29058
29020
28967
29120
29116
29127
29124
29131
29131
29092
29036
28979
29142
29138
29139
29138
29109
29106
29081
29084
29047
29015
29148
29159
29159
29147
29159
29164
29153
29140
29131
29065
29046
29157
29168
29181
29137
29030
29182
29173
29199
29172
29082
29191
29188
29176
29191
29187
29174
29169
29146
29107
29073
29213
29191
29199
29219
29191
29207
29215
29199
29172
29111
29215
29228
29215
29230
29223
29214
29232
29220
29191
29137
29101
29223
29223
29229
29247
29237
29247
29244
29242
29253
29263
29249
29247
29220
29212
29191
29175
29149
29269
29279
29268
29266
29273
29283
29260
29239
29223
29175
29287
29295
29293
29293
29301
29278
29239
29186
29299
29306
29308
29303
29292
29239
29307
29305
29311
29309
29311
29336
29309
29277
29236
29247
29327
29319
29318
29327
29288
29204
29327
29335
29346
29345
29336
29355
29348
29338
29297
29296
29255
29360
29357
29372
29367
29358
29380
29382
29383
29355
29331
29252
29380
29367
29370
29412
29375
29309
29390
29391
29386
29382
29408
29414
29402
29368
29287
29413
29401
29419
29351
29423
29426
29421
29415
29422
29423
29396
29338
29431
29439
29439
29423
29447
29395
29439
29447
29454
29447
29409
29391
29319
29468
29459
29457
29455
29474
29454
29406
29472
29478
29470
29461
29486
29484
29434
29330
29489
29487
29500
29494
29483
29422
29503
29507
29500
29511
29494
29465
29411
29519
29525
29519
29493
29471
29422
29529
29535
29532
29542
29521
29515
29487
29399
29551
29539
29553
29543
29522
29479
29463
29556
29565
29556
29571
29556
29535
29477
29575
29585
29580
29579
29587
29533
29466
29583
29593
29589
29596
29605
29580
29536
29508
29615
29615
29610
29606
29617
29623
29615
29575
29535
29619
29631
29636
29630
29637
29647
29652
29633
29593
29527
29646
29651
29651
29660
29640
29669
29651
29607
29575
29671
29668
29667
29671
29686
29671
29631
29604
29586
29696
29695
29695
29700
29695
29694
29679
29674
29634
29602
29714
29714
29719
29716
29717
29724
29734
29727
29695
29607
29734
29738
29734
29743
29749
29743
29703
29678
29671
29650
29754
29762
29765
29768
29782
29767
29780
29784
29773
29748
29694
29646
29794
29796
29793
29799
29806
29798
29779
29751
29689
29819
29808
29821
29823
29815
29831
29838
29815
29762
29830
29831
29835
29845
29847
29837
29839
29830
29799
29735
29863
29863
29877
29862
29836
29775
29885
29890
29871
29886
29884
29897
29893
29886
29873
29846
29787
29756
29908
29908
29918
29911
29907
29924
29884
29798
29921
29941
29938
29911
29859
29938
29951
29935
29964
29934
29927
29903
29862
29959
29959
29959
29959
29975
29985
29982
29971
29990
29974
29970
29940
29887
29989
29996
29990
30021
29995
29938
30006
29997
30022
30020
30030
30004
30015
29948
29913
30035
30027
30040
30031
30050
30021
29989
29935
30055
30054
30052
30060
30063
30063
30079
30055
30007
30070
30085
30076
30090
30087
30081
30054
30050
30022
29985
29958
30107
30109
30119
30109
30135
30135
30095
30044
30028
30147
30140
30135
30132
30153
30127
30149
30162
30165
30151
30139
30127
30087
30064
30167
30167
30181
30186
30174
30183
30202
30182
30158
30086
30049
30197
30213
30199
30207
30226
30215
30207
30181
30136
30107
30118
30108
30231
30239
30244
30242
30245
30255
30225
30178
30120
30254
30263
30263
30264
30268
30279
30247
30133
30283
30279
30278
30214
30301
30301
30311
30303
30250
30297
30311
30324
30315
30310
30335
30343
30326
30315
30321
30271
30193
30341
30351
30342
30336
30356
30332
30311
30245
30358
30363
30359
30390
30374
30347
30280
30382
30397
30391
30398
30403
30382
30311
30412
30403
30406
30437
30414
30381
30356
30287
30434
30435
30438
30444
30446
30403
30318
30439
30455
30454
30443
30471
30471
30471
30447
30394
30340
30478
30471
30485
30490
30471
30509
30463
30382
30502
30502
30513
30517
30495
30407
30518
30512
30526
30523
30535
30532
30519
30510
30484
30423
30537
30554
30551
30543
30551
30575
30561
30545
30551
30516
30422
30575
30582
30591
30597
30602
30588
30597
30597
30590
30551
30499
30428
30620
30613
30623
30615
30622
30620
30627
30631
30609
30586
30487
30644
30639
30650
30636
30648
30666
30677
30676
30671
30653
30629
30596
30529
30690
30684
30689
30691
30675
30703
30662
30615
30708
30716
30714
30700
30724
30710
30700
30605
30719
30727
30727
30727
30752
30743
30727
30719
30685
30628
30753
30750
30765
30776
30741
30695
30668
30782
30787
30766
30792
30756
30688
30795
30796
30796
30811
30782
30776
30721
30811
30807
30822
30818
30820
30780
30676
30826
30826
30815
30847
30828
30795
30677
30837
30849
30831
30860
30818
30742
30855
30851
30874
30844
30754
30678
30868
30871
30873
30885
30871
30847
30763
30893
30891
30893
30900
30849
30758
30907
30897
30903
30903
30926
30903
30828
30922
30924
30923
30932
30935
30920
30887
30790
30943
30935
30932
30945
30955
30929
30799
30956
30961
30947
30974
30959
30932
30887
30967
30967
30971
30983
30948
30868
30981
30983
30989
30996
30972
30907
30999
31006
30999
31016
31003
30953
30894
31017
31018
31023
31015
30967
31021
31015
31031
31028
31023
30974
31044
31043
31045
31045
31005
31061
31047
31060
31047
31073
31041
31006
31050
31060
31077
31055
30991
31076
31079
31079
31079
31090
31079
31063
30983
31098
31082
31092
31103
31092
31102
31094
31111
31097
31108
31047
31111
31109
31121
31135
31117
31107
31087
31047
31126
31135
31126
31135
31147
31118
31082
31135
31141
31148
31151
31140
31124
31086
31147
31151
31158
31151
31163
31121
31157
31158
31167
31171
31175
31159
31103
31159
31175
31181
31174
31167
31142
31186
31186
31197
31197
31196
31135
31191
31207
31201
31204
31161
31093
31213
31207
31207
31202
31207
31222
31222
31217
31207
31199
31183
31086
31217
31223
31215
31236
31211
31175
31231
31226
31238
31123
31239
31223
31231
31231
31239
31239
31232
31197
31119
31239
31239
31255
31150
31236
31239
31251
31263
31255
31228
31202
31181
31159
31250
31258
31252
31266
31239
31187
31262
31261
31239
31260
31252
31209
31251
31260
31256
31230
31253
31266
31277
31181
31265
31253
31260
31269
31264
31263
31266
31253
31268
31274
31263
31260
31279
31271
31252
31271
31266
31247
31291
31272
31203
31274
31273
31263
31262
31251
31260
31290
31234
31273
31278
31239
31267
31263
31239
31275
31259
31239
31267
31269
31260
31263
31271
31263
31255
31269
31239
31268
31262
31270
31230
31269
31269
31247
31260
31265
31268
31262
31257
31259
31259
31260
31267
31252
31251
31262
31269
31239
31269
31233
31245
31269
31215
31263
31239
31247
31261
31247
31260
31258
31239
31253
31255
31252
31255
31247
31239
31239
31238
31239
31239
31239
31239
31252
31239
31239
31252
31226
31238
31247
31236
31235
31239
31229
31229
31247
31210
31238
31237
31223
31223
31231
31223
31238
31225
31223
31208
31231
31220
31215
31231
31227
31223
31229
31212
31229
31236
31214
31211
31204
31211
31218
31209
31220
31212
31204
31204
31191
31207
31215
31195
31208
31194
31196
31205
31189
31182
31209
31196
31205
31207
31199
31204
31186
31181
31213
31175
31191
31199
31181
31182
31211
31172
31186
31189
31174
31190
31215
31176
31179
31198
31155
31167
31186
31162
31164
31197
31151
31161
31189
31161
31159
31199
31164
31174
31156
31144
31188
31144
31162
31167
31150
31156
31142
31146
31165
31127
31148
31165
31127
31132
31164
31132
31135
31148
31127
31139
31185
31141
31129
31111
31135
31134
31108
31124
31138
31116
31111
31165
31111
31109
31169
31104
31116
31167
31100
31127
31098
31098
31127
31091
31095
31111
31095
31094
31093
31153
31080
31093
31081
31153
31073
31084
31151
31071
31081
31077
31074
31131
31052
31071
31111
31065
31068
31078
31034
31055
31060
31109
31048
31087
31034
31055
31082
31033
31036
31072
31037
31039
31050
31026
31046
31059
31020
31026
31063
31022
31023
31135
31029
31030
31014
31017
31037
31007
31017
31030
30997
30999
31053
30999
30987
31046
30991
30996
30974
30999
31023
30976
30983
31049
30981
30975
30965
30983
31010
30964
30962
31025
30950
30967
30962
30978
30948
30954
31017
30951
30971
30947
30948
31002
30935
30942
31060
30940
30958
30927
30933
31007
30926
30933
30911
30927
30968
30919
30919
31031
30919
30945
30901
30918
30928
30900
30904
30931
30898
30893
30950
30883
30883
30959
30876
30879
30959
30879
30880
30969
30863
30865
30943
30867
30874
30913
30855
30863
30889
30844
30854
30855
30990
30839
30923
30839
30851
30981
30834
30847
30812
30838
30886
30810
30823
30873
30813
30812
30895
30806
30792
30889
30804
30806
30796
30811
30863
30782
30788
30862
30772
30784
30853
30773
30783
30784
30929
30761
30766
30910
30772
30794
30751
30757
30831
30750
30738
30855
30743
30727
30876
30740
30727
30783
30727
30727
30870
30715
30718
30790
30703
30711
30865
30710
30717
30684
30695
30723
30692
30692
30797
30677
30688
30786
30673
30679
30806
30669
30679
30831
30659
30659
30689
30645
30664
30687
30645
30631
30693
30621
30637
30711
30636
30630
30644
30579
30629
30679
30607
30608
30662
30599
30609
30590
30620
30668
30586
30617
30567
30582
30575
30572
30743
30586
30644
30567
30581
30549
30563
30614
30547
30539
30703
30548
30558
30534
30536
30549
30519
30531
30524
30644
30528
30521
30698
30503
30495
30567
30486
30502
30555
30487
30485
30615
30481
30487
30685
30479
30517
30459
30455
30540
30443
30451
30503
30437
30444
30478
30430
30448
30463
30420
30434
30467
30407
30424
30422
30492
30397
30402
30485
30392
30388
30607
30382
30382
30604
30388
30390
30350
30381
30384
30540
30365
30361
30554
30343
30343
30439
30326
30353
30367
30314
30321
30391
30300
30323
30343
30295
30311
30293
30399
30279
30292
30300
30466
30294
30277
30463
30279
30287
30240
30267
30356
30239
30244
30471
30232
30359
30215
30239
30236
30436
30215
30228
30196
30209
30202
30424
30194
30193
30263
30172
30183
30306
30166
30161
30317
30157
30150
30302
30151
30150
30340
30134
30146
30119
30129
30215
30110
30107
30157
30095
30102
30247
30091
30103
30075
30084
30133
30067
30071
30235
30065
30061
30050
30039
30258
30041
30117
30040
30031
30215
30034
30029
30005
30019
30068
30001
30002
30200
29982
29989
29966
29969
30080
29959
29951
30063
29943
29950
29948
30095
29932
29927
30142
29935
29922
30038
29887
29927
29914
29882
29891
29894
30079
29878
29869
30087
29863
29862
30097
29861
29967
29879
30076
29846
29839
30049
29815
29814
29895
29790
29794
29846
29789
29805
29799
29774
29770
29767
29820
29742
29758
29839
29739
29751
29758
29716
29739
29787
29703
29719
29767
29689
29701
29753
29685
29687
29751
29652
29666
29859
29659
29655
29849
29631
29646
29778
29620
29618
29694
29606
29612
29676
29575
29602
29634
29575
29591
29646
29567
29580
29558
29708
29543
29543
29725
29539
29647
29523
29516
29612
29500
29500
29612
29494
29485
29574
29474
29474
29476
29646
29455
29460
29606
29441
29446
29461
29425
29423
29418
29512
29399
29397
29457
29372
29399
29389
29479
29370
29376
29325
29371
29350
29551
29336
29329
29316
29327
29333
29301
29303
29446
29276
29295
29347
29266
29279
29279
29433
29249
29265
29255
29222
29230
29226
29239
29414
29221
29206
29234
29175
29179
29189
29188
29370
29163
29150
29181
29343
29153
29191
29129
29127
29169
29103
29116
29200
29084
29109
29103
29252
29063
29072
29061
29119
29041
29052
29039
29143
29011
29026
29021
29095
28975
28997
29007
29127
28978
28972
29030
28935
28950
28972
28841
28925
28919
28927
28903
28895
28880
28879
28884
28885
28879
28859
28871
28860
28876
28903
28828
28820
28815
28821
28815
28797
28807
28829
28841
28874
28878
28909
28741
28741
28742
28719
28722
28735
28715
28703
28738
28805
28676
28679
28679
28661
28660
28671
28711
28781
28630
28612
28604
28613
28612
28608
28591
28595
28602
28650
28729
28559
28542
28556
28546
28537
28533
28543
28568
28647
28497
28487
28495
28471
28481
28621
28436
28453
28456
28435
28452
28502
28406
28397
28423
28390
28419
28506
28470
28373
28366
28356
28359
28438
28324
28319
28316
28320
28327
28359
28430
28273
28261
28254
28258
28250
28237
28231
28240
28239
28226
28226
28206
28228
28300
28265
28164
28167
28167
28157
28151
28164
28191
28266
28107
28100
28124
28101
28091
28091
28116
28154
28177
28041
28041
28026
28028
28028
28012
28018
28012
28002
28010
28037
28055
28073
28068
28049
27933
27922
27930
27917
27911
27911
27903
27893
27887
27870
27882
27895
27911
27953
27823
27827
27819
27822
27815
27815
27793
27782
27787
27781
27797
27804
27813
27825
27729
27711
27709
27716
27697
27693
27689
27684
27666
27676
27668
27687
27722
27610
27616
27606
27598
27591
27591
27590
27567
27571
27562
27551
27546
27527
27550
27578
27503
27491
27494
27487
27483
27475
27482
27482
27461
27422
27432
27424
27416
27399
27398
27375
27380
27367
27360
27374
27375
27323
27312
27314
27311
27316
27334
27270
27282
27313
27253
27247
27245
27238
27231
27239
27239
27210
27194
27175
27173
27172
27155
27157
27159
27180
27116
27110
27111
27103
27087
27092
27124
27050
27053
27044
27052
27055
27010
27001
27005
26999
27014
26978
26967
26958
26970
26967
26923
26918
26918
26907
26899
26887
26896
26912
26854
26851
26845
26844
26823
26832
26825
26818
26781
26767
26772
26765
26757
26751
26750
26751
26759
26705
26703
26695
26689
26697
26655
26660
26655
26647
26654
26615
26609
26606
26589
26601
26602
26564
26559
26583
26546
26532
26541
26509
26502
26506
26479
26477
26476
26469
26455
26453
26434
26429
26439
26398
26407
26406
26375
26371
26372
26348
26351
26345
26329
26322
26316
26288
26293
26301
26279
26271
26263
26246
26269
26225
26236
26205
26211
26212
26186
26183
26172
26160
26169
26141
26148
26118
26119
26129
26098
26101
26071
26073
26085
26043
26049
26029
26033
26020
26012
26003
25983
25984
25985
25959
25959
25926
25934
25939
25917
25896
25895
25897
25889
25869
25848
25856
25835
25838
25833
25818
25823
25810
25798
25789
25771
25759
25763
25745
25742
25716
25721
25725
25690
25697
25690
25671
25669
25653
25647
25646
25631
25626
25623
25605
25597
25559
25580
25576
25563
25559
25535
25533
25525
25511
25509
25501
25485
25487
25458
25459
25450
25444
25430
25422
25416
25402
25390
25383
25372
25372
25361
25351
25340
25328
25327
25318
25296
25295
25289
25275
25271
25263
25244
25243
25229
25221
25214
25202
25211
25184
25175
25173
25171
25141
25144
25129
25114
25114
25107
25079
25095
25071
25061
25065
25052
25035
25030
25007
25022
24975
24996
24983
24977
24959
24967
24943
24939
24953
24908
24911
24901
24885
24886
24863
24874
24863
24855
24842
24828
24826
24807
24789
24807
24787
24770
24772
24762
24751
24755
24725
24734
24719
24704
24701
24693
24669
24679
24660
24643
24642
24629
24621
24614
24596
24606
24577
24582
24565
24556
24558
24532
24537
24527
24511
24513
24495
24495
24481
24468
24465
24453
24453
24440
24423
24421
24401
24399
24390
24382
24380
24366
24347
24340
24338
24316
24325
24308
24293
24295
24295
24284
24274
24262
24249
24238
24228
24219
24211
24202
24202
24175
24172
24166
24165
24159
24167
24134
24133
24120
24111
24104
24090
24087
24071
24059
24066
24044
24009
24025
24028
24023
23956
23998
23987
23977
23966
23957
23944
23943
23935
23924
23924
23884
23898
23903
23847
23866
23868
23852
23847
23811
23828
23828
23808
23797
23788
23781
23771
23750
23765
23751
23724
23735
23727
23698
23701
23689
23686
23672
23661
23654
23659
23630
23631
23631
23603
23613
23604
23570
23586
23574
23575
23565
23549
23545
23534
23524
23510
23506
23490
23484
23483
23458
23471
23463
23445
23452
23430
23435
23404
23412
23399
23300
23388
23374
23359
23374
23321
23338
23340
23324
23309
23272
23293
23284
23276
23208
23263
23223
23244
23236
23178
23223
23213
23205
23194
23186
23170
23169
23169
23143
23148
23135
23132
23116
23084
23104
23108
23083
23077
23068
23060
23061
23010
23047
23039
22977
23023
23007
22980
22983
22969
22973
22973
22935
22945
22950
22902
22924
22924
22837
22900
22901
22882
22876
22860
22823
22854
22849
22815
22823
22823
22799
22797
22804
22759
22779
22783
22700
22749
22747
22722
22735
22722
22722
22695
22695
22703
22667
22665
22658
22661
22660
22627
22631
22638
22597
22610
22606
22580
22585
22572
22557
22561
22565
22548
22531
22533
22535
22511
22503
22508
22496
22495
22482
22462
22461
22455
22442
22446
22429
22423
22405
22397
22404
22375
22390
22375
22358
22362
22353
22351
22343
22333
22317
22319
22303
22300
22293
22281
22272
22267
22261
22249
22245
22246
22228
22235
22171
22212
22210
22185
22185
22190
22167
22165
22155
22156
22136
22126
22125
22117
22112
22108
22094
22098
22059
22078
22067
22063
22055
22049
22029
22023
22009
22017
22028
21985
21989
21991
21972
21975
21969
21942
21941
21940
21931
21923
21926
21926
21903
21895
21892
21883
21880
21856
21861
21863
21843
21845
21841
21809
21810
21822
21795
21800
21800
21770
21779
21772
21750
21752
21745
21737
21736
21727
21711
21703
21705
21698
21695
21691
21677
21673
21654
21659
21648
21642
21639
21628
21621
21632
21615
21592
21602
21586
21585
21598
21566
21564
21583
21559
21557
21533
21541
21524
21519
21524
21487
21494
21471
21474
21486
21456
21452
21444
21452
21449
21423
21429
21453
21407
21412
21389
21388
21413
21372
21372
21394
21365
21349
21371
21326
21328
21318
21317
21336
21307
21301
21285
21286
21290
21275
21268
21191
21246
21263
21231
21221
21267
21209
21221
21198
21207
21206
21180
21173
21218
21157
21166
21148
21152
21175
21128
21130
21147
21107
21106
21086
21094
21098
21068
21073
21095
21053
21055
21084
21034
21063
21016
21023
21014
21015
21029
20999
20997
20975
20975
20983
20958
20963
20985
20939
20933
20983
20918
20928
20911
20914
20908
20887
20895
20884
20874
20882
20869
20807
20869
20851
20877
20827
20830
20850
20809
20815
20810
20863
20788
20785
20806
20776
20783
20779
20751
20754
20783
20728
20733
20723
20726
20716
20694
20708
20702
20671
20684
20672
20655
20663
20660
20641
20647
20636
20707
20627
20620
20683
20598
20589
20575
20588
20588
20566
20575
20569
20538
20553
20536
20518
20530
20556
20510
20504
20591
20495
20492
20479
20479
20497
20455
20452
20484
20447
20433
20505
20423
20425
20494
20410
20414
20385
20396
20421
20366
20386
20430
20373
20348
20438
20343
20338
20328
20334
20351
20315
20303
20349
20297
20299
20278
20289
20283
20255
20276
20263
20248
20247
20257
20231
20231
20255
20221
20213
20191
20198
20269
20184
20198
20167
20172
20239
20157
20159
20234
20146
20139
20122
20140
20126
20151
20111
20103
20092
20184
20087
20102
20066
20062
20046
20069
20084
20041
20047
20079
20021
20022
20058
20007
20008
19999
19994
20066
19974
19975
20028
19981
20021
19950
19943
20018
19935
19925
19988
19927
19914
19975
19906
19901
19925
19897
19878
19930
19867
19877
19922
19867
19852
19911
19847
19834
19932
19833
19815
19855
19801
19810
19827
19788
19794
19813
19767
19766
19813
19763
19754
19747
19756
19746
19727
19732
19767
19708
19713
19695
19703
19706
19686
19686
19716
19680
19678
19655
19662
19746
19646
19644
19671
19631
19631
19620
19623
19640
19599
19602
19653
19595
19588
19575
19594
19655
19555
19552
19557
19543
19583
19572
19517
19532
19540
19517
19559
19495
19499
19501
19498
19484
19556
19469
19476
19463
19461
19512
19443
19438
19443
19458
19415
19415
19423
19437
19399
19406
19391
19396
19398
19442
19370
19370
19361
19370
19430
19335
19351
19333
19367
19314
19324
19313
19335
19301
19300
19298
19293
19316
19282
19263
19260
19265
19258
19309
19245
19243
19236
19228
19229
19268
19210
19212
19205
19219
19082
19198
19197
19228
19153
19166
19148
19145
19175
19126
19137
19129
19148
19106
19122
19118
19121
19158
19079
19085
19079
19082
19111
19059
19097
19053
19047
19116
19048
19036
19021
19025
19074
19023
19019
18991
18998
18982
18983
19037
18982
18982
18964
18962
19015
18951
18946
18991
18932
18931
18917
18923
18951
18915
18903
18883
18897
18898
18867
18903
18879
18756
18866
18925
18857
18850
18823
18835
18846
18815
18823
18892
18805
18804
18785
18795
18775
18784
18836
18765
18763
18755
18760
18769
18744
18741
18796
18724
18727
18740
18704
18718
18718
18686
18691
18693
18735
18666
18681
18711
18671
18660
18647
18661
18638
18638
18634
18650
18625
18626
18655
18622
18625
18598
18604
18658
18603
18594
18573
18586
18630
18566
18585
18554
18561
18535
18538
18559
18530
18537
18562
18513
18514
18511
18517
18511
18481
18509
18487
18479
18478
18506
18468
18459
18525
18452
18450
18451
18452
18460
18423
18437
18447
18417
18427
18479
18407
18409
18389
18393
18380
18396
18414
18380
18374
18360
18367
18371
18356
18350
18353
18340
18340
18349
18319
18323
18366
18318
18312
18379
18296
18296
18287
18301
18297
18279
18282
18264
18306
18263
18275
18338
18256
18269
18237
18243
18233
18236
18287
18218
18311
18215
18204
18261
18213
18204
18200
18183
18191
18276
18180
18172
18156
18174
18253
18164
18152
18153
18236
18150
18143
18132
18124
18117
18130
18122
18143
18115
18108
18140
18093
18100
18193
18095
18085
18064
18091
18083
18066
18062
18094
18053
18065
18081
18049
18046
18054
18033
18037
18080
18018
18022
18047
18003
18006
18015
17991
17996
17987
18103
17979
18001
17981
18092
17968
17970
17994
17944
17957
17996
17940
17946
17939
17943
17926
17943
17949
17919
17919
17985
17907
17959
17900
17906
17890
17912
17911
17882
17892
17940
17883
17886
17863
17875
17990
17866
17869
17839
17863
17868
17838
17838
17825
17844
17933
17838
17860
17820
17815
17811
17824
17808
17801
17804
17785
17802
17837
17793
17785
17867
17782
17780
17801
17760
17766
17878
17749
17747
17840
17756
17740
17805
17733
17749
17809
17729
17742
17751
17716
17735
17711
17820
17708
17700
17820
17703
17685
17711
17701
17687
17702
17694
17679
17693
17680
17665
17671
17756
17685
17700
17667
17647
17726
17636
17647
17672
17631
17656
17658
17631
17642
17627
17612
17638
17622
17750
17622
17607
17698
17611
17604
17722
17604
17605
17580
17610
17588
17580
17591
17588
17572
17586
17657
17573
17574
17648
17567
17562
17697
17560
17566
17538
17562
17586
17532
17541
17599
17535
17533
17685
17534
17532
17524
17524
17559
17521
17510
17498
17519
17543
17503
17505
17502
17500
17486
17496
17554
17484
17487
17476
17500
17487
17477
17486
17488
17456
17479
17479
17464
17475
17471
17458
17460
17482
17444
17455
17482
17447
17458
17467
17439
17442
17510
17438
17429
17575
17442
17449
17413
17432
17500
17414
17423
17481
17410
17414
17452
17393
17420
17408
17398
17415
17405
17548
17389
17400
17415
17373
17388
17402
17375
17388
17447
17377
17383
17397
17377
17373
17375
17412
17352
17375
17370
17508
17356
17358
17423
17349
17367
17346
17383
17345
17363
17357
17355
17354
17341
17335
17351
17444
17346
17340
17325
17348
17382
17322
17348
17348
17318
17345
17325
17481
17328
17317
17460
17319
17311
17411
17299
17311
17359
17305
17313
17308
17407
17294
17301
17297
17286
17290
17294
17312
17278
17300
17294
17422
17284
17291
17329
17277
17299
17292
17271
17287
17287
17423
17270
17284
17287
17257
17287
17317
17269
17276
17363
17260
17266
17405
17265
17258
17359
17258
17267
17266
17415
17255
17259
17252
17407
17243
17255
17261
17209
17235
17254
17260
17238
17242
17250
17279
17232
17249
17240
17252
17231
17232
17252
17239
17243
17226
17234
17233
17235
17225
17228
17321
17224
17226
17232
17236
17238
17210
17233
17248
17386
17210
17220
17237
17215
17207
17231
17271
17380
17205
17206
17221
17206
17214
17237
17325
17212
17195
17206
17222
17215
17198
17232
17327
17194
17201
17199
17219
17219
17215
17211
17199
17205
17216
17303
17183
17197
17200
17205
17190
17249
17194
17191
17206
17198
17198
17311
17182
17188
17213
17194
17183
17191
17186
17253
17293
17180
17195
17199
17194
17183
17237
17175
17177
17209
17182
17179
17220
17361
17180
17185
17202
17183
17188
17188
17224
17173
17164
17173
17191
17189
17180
17183
17169
17235
17367
17165
17177
17179
17188
17188
17180
17193
17242
17319
17165
17162
17167
17175
17183
17180
17185
17186
17185
17172
17171
17212
17152
17175
17178
17189
17158
17179
17194
17295
17164
17167
17159
17167
17185
17166
17169
17257
17154
17157
17161
17177
17156
17165
17158
17167
17166
17241
17215
17292
17153
17161
17155
17170
17178
17167
17158
17286
17154
17159
17176
17180
17170
17244
17154
17163
17180
17153
17159
17257
17151
17159
17158
17185
17164
17153
17238
17337
17148
17165
17152
17166
17171
17173
17188
17175
17167
17162
17173
17260
17153
17161
17156
17174
17178
17165
17225
17302
17157
17175
17188
17170
17168
17230
17415
17154
17170
17161
17185
17180
17177
17170
17164
17162
17188
17319
17391
17413
17163
17162
17162
17163
17176
17191
17179
17180
17179
17168
17191
17206
17221
17243
17397
17364
17442
17320
17159
17167
17171
17156
17173
17162
17176
17180
17188
17178
17175
17192
17348
17162
17164
17174
17195
17172
17184
17315
17159
17178
17182
17174
17414
17164
17199
17177
17255
17159
17180
17177
17225
17446
17163
17191
17177
17221
17170
17182
17184
17175
17214
17415
17162
17180
17199
17173
17195
17387
17175
17191
17179
17165
17204
17234
17158
17177
17197
17187
17306
17182
17188
17203
17177
17217
17479
17180
17191
17203
17197
17188
17191
17193
17205
17211
17206
17198
17206
17213
17203
17210
17201
17199
17217
17207
17217
17221
17201
17191
17204
17196
17196
17197
17195
17207
17205
17206
17199
17203
17198
17195
17201
17199
17216
17277
17504
17500
17198
17196
17197
17220
17214
17290
17199
17197
17228
17212
17204
17245
17199
17197
17239
17207
17223
17387
17209
17218
17236
17215
17260
17499
17215
17207
17237
17220
17225
17244
17505
17215
17226
17250
17250
17238
17223
17225
17290
17443
17192
17215
17233
17258
17235
17229
17290
17466
17227
17224
17254
17244
17228
17239
17333
17223
17235
17241
17258
17267
17260
17239
17239
17412
17232
17293
17263
17237
17250
17263
17254
17236
17254
17244
17262
17429
17281
17333
17252
17261
17254
17248
17309
17557
17248
17243
17277
17251
17575
17254
17276
17262
17275
17510
17256
17254
17271
17291
17265
17266
17538
17251
17257
17287
17265
17263
17382
17262
17282
17281
17277
17389
17256
17273
17293
17267
17301
17271
17276
17543
17294
17310
17263
17274
17284
17333
17590
17260
17268
17287
17303
17287
17281
17295
17347
17598
17270
17267
17284
17306
17292
17279
17340
17583
17272
17278
17297
17295
17287
17281
17395
17567
17283
17282
17287
17303
17304
17299
17288
17306
17533
17286
17307
17298
17323
17524
17278
17304
17307
17295
17294
17279
17324
17487
17299
17315
17311
17295
17297
17477
17288
17284
17316
17282
17303
17375
17620
17284
17280
17300
17303
17327
17324
17300
17293
17287
17303
17327
17485
17287
17293
17316
17313
17300
17308
17299
17303
17367
17614
17295
17316
17304
17306
17457
17286
17292
17311
17311
17300
17310
17326
17350
17373
17585
17292
17302
17302
17315
17326
17311
17317
17368
17415
17519
17298
17297
17319
17342
17312
17311
17525
17310
17332
17326
17319
17378
17539
17298
17311
17335
17330
17319
17323
17551
17309
17337
17337
17569
17317
17316
17341
17326
17318
17325
17326
17332
17378
17312
17346
17324
17494
17543
17600
17319
17322
17319
17324
17342
17350
17334
17332
17332
17367
17454
17616
17320
17319
17334
17351
17356
17351
17339
17335
17365
17425
17525
17345
17329
17350
17364
17368
17342
17350
17457
17335
17361
17348
17340
17373
17357
17348
17367
17356
17346
17364
17626
17357
17597
17381
17562
17380
17633
17377
17474
17375
17437
17380
17365
17350
17375
17359
17379
17385
17397
17371
17366
17370
17413
17527
17559
17607
17410
17353
17380
17403
17390
17388
17383
17411
17455
17581
17561
17378
17377
17377
17388
17404
17399
17399
17430
17644
17381
17412
17405
17404
17598
17402
17415
17402
17403
17541
17399
17394
17409
17425
17411
17468
17405
17417
17433
17421
17415
17463
17415
17413
17433
17420
17427
