EGG
27932
27928
27869
27968
27979
27986
27985
27994
27992
27972
27995
28015
28004
28017
28020
28003
27963
28025
28026
28026
28021
28038
28042
28041
28044
28047
28050
28024
28010
28055
28056
28069
28062
28070
28074
28086
28072
28088
28101
28095
28103
28085
28087
28084
28063
28065
28010
28118
28119
28116
28119
28140
28137
28132
28133
28156
28153
28157
28152
28143
28122
28070
28167
28167
28167
28179
28187
28189
28183
28185
28167
28142
28190
28200
28208
28202
28212
28216
28196
28165
28215
28231
28228
28232
28240
28239
28246
28236
28223
28188
28250
28263
28265
28260
28277
28285
28277
28270
28252
28223
28281
28283
28295
28295
28295
28278
28298
28308
28321
28316
28284
28311
28320
28332
28340
28343
28340
28329
28329
28331
28355
28349
28356
28357
28361
28353
28375
28375
28375
28381
28374
28369
28386
28391
28396
28401
28393
28341
28414
28404
28412
28425
28419
28417
28418
28405
28423
28423
28435
28439
28437
28454
28442
28428
28447
28451
28453
28454
28459
28463
28454
28464
28467
28475
28484
28482
28462
28472
28483
28479
28480
28484
28494
28503
28493
28498
28506
28500
28488
28478
28516
28504
28511
28528
28522
28501
28519
28526
28539
28534
28529
28548
28532
28518
28536
28540
28548
28544
28543
28556
28551
28560
28551
28559
28559
28541
28507
28550
28561
28563
28561
28574
28573
28570
28577
28587
28589
28581
28560
28583
28579
28586
28580
28599
28590
28565
28587
28597
28598
28599
28601
28591
28569
28593
28594
28609
28606
28602
28607
28599
28588
28559
28600
28604
28612
28615
28620
28615
28596
28612
28610
28614
28622
28620
28612
28616
28628
28615
28626
28614
28613
28623
28622
28620
28629
28637
28629
28620
28621
28636
28630
28623
28632
28642
28593
28622
28632
28645
28646
28631
28628
28629
28644
28638
28640
28631
28624
28636
28631
28638
28647
28636
28639
28647
28634
28639
28651
28650
28645
28640
28644
28642
28644
28639
28641
28641
28646
28650
28637
28642
28647
28655
28643
28639
28647
28641
28650
28653
28662
28641
28644
28644
28652
28642
28660
28647
28647
28652
28652
28643
28646
28640
28646
28653
28646
28662
28644
28647
28653
28650
28654
28648
28663
28674
28663
28647
28644
28644
28652
28654
28660
28651
28646
28652
28646
28661
28661
28676
28582
28634
28646
28650
28646
28650
28651
28647
28659
28671
28668
28673
28633
28647
28641
28643
28647
28647
28653
28646
28653
28662
28661
28634
28635
28645
28639
28647
28670
28679
28622
28636
28633
28647
28671
28630
28640
28628
28632
28631
28631
28643
28636
28663
28647
28661
28644
28662
28663
28676
28628
28618
28616
28622
28628
28616
28648
28638
28607
28610
28599
28601
28612
28617
28612
28620
28614
28623
28607
28608
28619
28599
28588
28607
28598
28605
28606
28607
28619
28648
28650
28583
28597
28591
28592
28605
28629
28573
28578
28583
28591
28590
28625
28671
28564
28562
28582
28583
28582
28569
28583
28597
28606
28650
28565
28566
28566
28567
28550
28570
28599
28617
28642
28535
28543
28559
28543
28559
28623
28524
28538
28541
28538
28530
28540
28561
28589
28581
28510
28519
28522
28519
28540
28629
28504
28516
28513
28572
28490
28503
28495
28495
28498
28535
28599
28484
28484
28484
28487
28479
28484
28493
28513
28592
28458
28462
28479
28476
28474
28562
28446
28451
28447
28451
28482
28573
28434
28449
28432
28470
28544
28414
28412
28423
28410
28423
28504
28398
28402
28416
28407
28404
28460
28390
28385
28387
28391
28382
28414
28459
28372
28364
28367
28481
28358
28367
28349
28357
28372
28343
28348
28388
28335
28351
28399
28324
28334
28329
28330
28322
28332
28366
28423
28453
28308
28295
28290
28295
28299
28287
28286
28287
28293
28279
28282
28268
28300
28342
28250
28247
28248
28255
28244
28234
28249
28261
28348
28303
28215
28211
28202
28218
28202
28223
28288
28358
28174
28183
28183
28179
28191
28228
28334
28155
28149
28148
28152
28162
28150
28148
28123
28127
28145
28187
28277
28108
28110
28108
28106
28112
28210
28076
28073
28084
28092
28071
28074
28075
28115
28231
28049
28039
28047
28049
28039
28062
28103
28145
28012
27997
28002
28013
28018
28006
28063
27967
27974
27975
27982
28039
27952
27948
27965
27966
27941
27987
27999
28104
27911
27918
27910
27919
27918
27919
27963
28036
27877
27884
27897
27885
27861
27900
27968
27865
27831
27847
27847
27839
27844
27876
27913
27801
27812
27829
27812
27852
27987
27791
27807
27787
27817
27957
27759
27772
27764
27759
27809
27935
27737
27743
27737
27726
27735
27767
27907
27710
27714
27711
27702
27723
27759
27676
27671
27672
27684
27725
27655
27650
27655
27644
27694
27783
27622
27642
27621
27642
27655
27797
27586
27592
27588
27596
27608
27583
27588
27595
27632
27671
27707
27647
27548
27550
27550
27550
27532
27530
27526
27540
27555
27572
27644
27492
27498
27504
27488
27497
27510
27580
27467
27464
27482
27467
27476
27516
27590
27444
27441
27446
27436
27451
27524
27418
27412
27415
27399
27398
27404
27404
27502
27367
27381
27389
27367
27383
27405
27353
27355
27397
27342
27361
27339
27350
27381
27455
27314
27316
27313
27317
27319
27305
27303
27322
27383
27279
27287
27287
27281
27287
27322
27265
27260
27260
27259
27298
27239
27241
27246
27231
27252
27338
27215
27233
27221
27279
27206
27197
27207
27199
27206
27230
27265
27172
27168
27182
27169
27171
27186
27204
27226
27135
27143
27142
27133
27116
27125
27124
27155
27206
27100
27091
27082
27085
27084
27084
27087
27095
27132
27060
27045
27039
27043
27039
27043
27033
27031
27041
27049
27048
27054
27046
27076
26979
26986
26972
26964
26965
26964
26962
26960
26971
26984
26995
26926
26923
26908
26927
26923
26919
26915
26900
26893
26895
26887
26895
26901
26916
26855
26863
26859
26847
26860
26876
26870
26855
26826
26815
26818
26818
26819
26805
26823
26844
26786
26778
26780
26776
26788
26806
26803
26749
26759
26759
26749
26745
26765
26756
26730
26721
26713
26716
26709
26708
26703
26705
26698
26705
26677
26667
26670
26671
26655
26664
26658
26660
26660
26659
26596
26631
26628
26627
26629
26623
26625
26631
26590
26591
26588
26591
26575
26584
26590
26577
26553
26561
26558
26554
26559
26557
26519
26524
26521
26527
26519
26524
26519
26518
26499
26495
26492
26493
26489
26479
26469
26472
26463
26460
26455
26462
26444
26446
26444
26443
26439
26429
26430
26421
26412
26414
26414
26405
26416
26403
26388
26386
26372
26362
26375
26356
26369
26362
26365
26351
26353
26356
26354
26338
26340
26333
26324
26318
26293
26301
26307
26303
26292
26299
26290
26282
26287
26289
26286
26270
26268
26240
26250
26247
26238
26242
26247
26243
26235
26247
26229
26223
26211
26196
26216
26199
26209
26204
26193
26199
26180
26144
26117
26177
26165
26170
26165
26164
26144
26118
26147
26148
26130
26119
26133
26127
26103
26060
26110
26110
26107
26102
26118
26090
26089
26064
26033
26079
26068
26081
26076
26071
26048
26015
26055
26043
26047
26033
26044
26025
26006
25932
26015
26023
26014
26013
26007
26010
25952
25999
25982
25975
25985
25975
25969
25982
25966
25959
25965
25957
25945
25910
25943
25934
25945
25928
25927
25928
25918
25927
25917
25916
25893
25888
25851
25849
25884
25879
25883
25879
25862
25882
25863
25847
25791
25855
25855
25844
25852
25843
25850
25828
25797
25735
25824
25822
25822
25828
25802
25757
25701
25800
25797
25800
25793
25799
25778
25733
25676
25772
25783
25770
25767
25767
25767
25745
25739
25693
25658
25747
25742
25745
25732
25743
25739
25724
25688
25725
25712
25721
25719
25703
25711
25690
25646
25701
25697
25694
25697
25682
25662
25628
25614
25607
25677
25671
25671
25679
25668
25663
25638
25607
25651
25660
25653
25647
25650
25660
25646
25623
25577
25630
25635
25636
25625
25621
25634
25607
25577
25623
25620
25605
25604
25607
25607
25607
25604
25583
25577
25536
25585
25591
25594
25583
25581
25587
25581
25571
25547
25517
25430
25564
25567
25565
25563
25564
25554
25567
25550
25542
25506
25471
25544
25543
25543
25551
25528
25509
25532
25537
25535
25530
25523
25525
25492
25471
25524
25513
25516
25517
25518
25511
25525
25511
25494
25468
25511
25508
25495
25508
25508
25495
25457
25493
25495
25492
25491
25500
25484
25490
25454
25428
25473
25479
25471
25471
25479
25474
25468
25451
25437
25410
25460
25460
25471
25457
25459
25458
25454
25453
25418
25409
25442
25443
25449
25441
25447
25431
25447
25443
25436
25404
25380
25395
25429
25428
25412
25422
25417
25421
25421
25430
25409
25413
25415
25418
25415
25404
25383
25365
25402
25407
25400
25414
25401
25399
25381
25324
25391
25385
25390
25390
25404
25385
25385
25391
25398
25378
25376
25388
25391
25387
25337
25382
25379
25381
25375
25310
25364
25377
25374
25369
25326
25369
25351
25372
25364
25358
25351
25365
25351
25204
25361
25365
25351
25353
25343
25351
25362
25348
25311
25345
25335
25343
25341
25351
25321
25292
25343
25335
25337
25342
25349
25323
25341
25338
25335
25340
25337
25316
25263
25333
25332
25340
25327
25316
25249
25325
25318
25319
25334
25327
25313
25267
25223
25317
25327
25327
25325
25321
25327
25309
25277
25318
25316
25316
25315
25316
25273
25311
25319
25316
25307
25239
25309
25315
25303
25322
25301
25263
25300
25311
25309
25319
25285
25269
25218
25308
25314
25310
25300
25295
25331
25305
25263
25302
25311
25308
25301
25302
25300
25305
25319
25290
25288
25252
25221
25306
25309
25300
25302
25239
25301
25299
25302
25303
25305
25285
25247
25302
25299
25313
25303
25283
25243
25294
25302
25306
25306
25312
25277
25241
25306
25298
25289
25301
25298
25297
25302
25308
25311
25303
25306
25303
25300
25282
25259
25223
25186
25305
25297
25300
25308
25304
25315
25294
25244
25298
25292
25301
25308
25307
25275
25214
25300
25309
25293
25298
25311
25242
25309
25295
25303
25305
25303
25308
25306
25308
25285
25305
25304
25311
25292
25267
25223
25303
25310
25306
25310
25308
25306
25287
25219
25319
25310
25308
25311
25311
25296
25247
25311
25316
25303
25315
25287
25254
25192
25319
25323
25311
25329
25310
25271
25215
25312
25318
25326
25311
25280
25219
25325
25317
25313
25321
25331
25319
25310
25255
25327
25325
25322
25332
25335
25323
25289
25231
25334
25334
25327
25324
25337
25327
25310
25262
25328
25338
25337
25325
25351
25340
25321
25305
25209
25343
25343
25351
25354
25338
25344
25348
25348
25329
25272
25351
25345
25351
25343
25354
25319
25346
25360
25351
25361
25294
25362
25367
25373
25351
25256
25367
25370
25380
25367
25321
25225
25382
25367
25389
25368
25314
25379
25380
25383
25397
25391
25363
25348
25263
25384
25390
25391
25404
25388
25355
25399
25402
25399
25398
25419
25388
25362
25404
25410
25409
25418
25412
25428
25407
25383
25321
25409
25429
25414
25423
25415
25415
25431
25433
25420
25412
25358
25430
25435
25426
25436
25424
25398
25342
25435
25418
25430
25428
25434
25431
25430
25446
25431
25420
25377
25325
25443
25444
25443
25451
25415
25345
25444
25446
25444
25431
25448
25428
25372
25447
25446
25438
25442
25452
25444
25434
25363
25447
25446
25450
25457
25463
25454
25430
25385
25460
25455
25455
25461
25463
25457
25471
25469
25430
25404
25358
25341
25458
25468
25476
25465
25461
25468
25473
25479
25478
25453
25436
25436
25358
25482
25487
25479
25476
25479
25488
25487
25492
25460
25396
25486
25484
25484
25494
25495
25470
25409
25484
25493
25509
25490
25474
25495
25495
25501
25510
25451
25508
25500
25500
25495
25499
25512
25502
25487
25449
25406
25505
25509
25504
25530
25503
25495
25476
25420
25505
25525
25512
25519
25519
25503
25471
25522
25527
25526
25531
25530
25540
25539
25535
25534
25508
25470
25533
25538
25531
25533
25548
25556
25543
25495
25547
25542
25542
25542
25551
25555
25542
25503
25432
25551
25561
25556
25549
25515
25555
25561
25571
25564
25565
25561
25502
25571
25567
25564
25559
25566
25576
25564
25525
25488
25567
25564
25569
25583
25567
25575
25593
25568
25528
25567
25578
25583
25588
25585
25589
25561
25484
25588
25589
25593
25599
25574
25516
25596
25599
25607
25592
25594
25599
25615
25607
25578
25553
25596
25599
25606
25607
25607
25621
25612
25614
25604
25549
25607
25616
25620
25607
25629
25620
25615
25598
25543
25628
25629
25616
25625
25607
25564
25626
25617
25625
25630
25639
25614
25591
25558
25631
25636
25639
25625
25647
25639
25622
25618
25580
25570
25639
25652
25639
25647
25639
25643
25652
25648
25636
25637
25585
25598
25596
25565
25565
25534
25652
25650
25646
25653
25653
25660
25659
25646
25666
25667
25648
25642
25626
25624
25582
25537
25521
25671
25671
25671
25668
25671
25660
25671
25662
25671
25657
25671
25668
25673
25671
25685
25689
25684
25673
25678
25677
25679
25692
25703
25693
25694
25700
25693
25693
25701
25702
25690
25693
25681
25637
25703
25701
25700
25705
25713
25699
25663
25580
25702
25701
25707
25703
25725
25719
25678
25604
25713
25723
25710
25711
25719
25695
25646
25723
25731
25733
25734
25738
25696
25630
25740
25739
25749
25745
25735
25759
25750
25717
25653
25743
25754
25751
25774
25764
25749
25663
25773
25771
25766
25775
25775
25780
25760
25726
25709
25780
25787
25791
25791
25810
25790
25767
25740
25701
25807
25815
25814
25820
25817
25820
25831
25829
25819
25767
25703
25824
25821
25834
25836
25830
25847
25846
25842
25828
25764
25853
25862
25860
25867
25868
25871
25876
25878
25874
25875
25874
25885
25897
25888
25886
25863
25831
25908
25905
25907
25918
25919
25919
25925
25940
25928
25921
25863
25932
25943
25938
25948
25948
25959
25962
25966
25961
25973
25975
25973
25960
25953
25967
25960
25942
25929
25926
25934
25907
26007
26002
26007
26021
26013
26021
26022
26031
26025
26047
26020
25982
26049
26052
26052
26065
26060
26067
26068
26060
26080
26086
26076
26055
26090
26095
26102
26092
26104
26105
26119
26103
26076
25999
26132
26132
26138
26144
26146
26145
26151
26152
26156
26173
26171
26152
26105
26183
26187
26185
26208
26192
26135
26210
26215
26213
26223
26222
26228
26215
26166
26241
26231
26252
26245
26273
26255
26263
26251
26190
26282
26284
26287
26289
26287
26317
26288
26311
26306
26315
26319
26307
26306
26298
26277
26343
26341
26353
26366
26361
26374
26367
26391
26383
26387
26347
26322
26396
26406
26415
26417
26421
26436
26436
26444
26431
26359
26451
26454
26460
26468
26471
26490
26495
26498
26495
26474
26472
26421
26513
26517
26534
26525
26542
26543
26540
26542
26533
26503
26521
26516
26460
26595
26595
26591
26596
26606
26606
26607
26614
26641
26631
26601
26541
26647
26653
26658
26660
26665
26671
26679
26695
26703
26698
26681
26674
26650
26714
26719
26735
26737
26740
26744
26759
26744
26765
26774
26774
26759
26727
26684
26807
26798
26804
26814
26827
26834
26839
26821
26839
26804
26775
26743
26860
26881
26885
26880
26887
26901
26918
26906
26876
26831
26929
26930
26940
26953
26940
26901
26969
26971
26981
26988
26989
26998
26975
26932
27006
27010
27023
27033
27054
27030
26988
27050
27056
27071
27076
27092
27092
27061
26991
27111
27119
27111
27138
27124
27079
27151
27159
27169
27143
27094
27187
27180
27198
27141
27204
27209
27222
27217
27182
27142
27240
27242
27253
27253
27226
27204
27279
27283
27290
27288
27303
27311
27315
27330
27321
27245
27335
27354
27350
27375
27373
27373
27348
27300
27412
27411
27422
27420
27436
27433
27428
27389
27362
27460
27459
27478
27493
27500
27485
27474
27444
27420
27519
27535
27535
27543
27544
27566
27559
27583
27588
27597
27588
27602
27586
27548
27526
27623
27639
27637
27649
27655
27655
27670
27692
27687
27689
27694
27698
27690
27664
27645
27745
27748
27751
27751
27766
27774
27791
27771
27736
27695
27804
27808
27822
27831
27833
27852
27875
27847
27818
27783
27879
27882
27889
27901
27925
27908
27903
27858
27862
27843
27959
27965
27975
27966
27988
28004
28001
27990
27991
27983
27966
27933
28037
28055
28047
28058
28063
28086
28095
28088
28069
28048
28113
28122
28124
28151
28153
28147
28138
28107
28073
28186
28199
28199
28226
28206
28157
28156
28244
28246
28258
28258
28268
28284
28299
28297
28308
28303
28303
28303
28286
28254
28334
28359
28357
28361
28380
28393
28390
28399
28420
28422
28412
28396
28364
28366
28366
28366
28479
28476
28485
28492
28495
28503
28534
28518
28503
28494
28461
28452
28546
28570
28572
28584
28588
28596
28605
28611
28607
28631
28622
28621
28639
28633
28657
28660
28574
28670
28679
28700
28701
28698
28694
28636
28710
28724
28737
28730
28746
28709
28691
28678
28774
28783
28776
28788
28791
28800
28814
28821
28826
28819
28847
28845
28839
28845
28823
28872
28867
28885
28881
28893
28887
28915
28909
28911
28890
28927
28940
28941
28940
28957
28964
28990
28967
28933
28989
28996
29012
29001
29021
29027
29031
29044
29051
29041
29029
29033
29020
28999
29086
29092
29094
29096
29109
29111
29116
29121
29143
29140
29158
29149
29159
29167
29167
29177
29191
29186
29202
29191
29222
29226
29231
29237
29219
29191
29254
29252
29255
29270
29271
29274
29241
29215
29295
29313
29309
29311
29325
29343
29330
29344
29356
29358
29344
29322
29380
29383
29397
29381
29403
29400
29392
29351
29307
29432
29439
29444
29463
29457
29466
29472
29491
29486
29497
29506
29509
29509
29506
29522
29527
29538
29535
29545
29547
29562
29543
29554
29579
29588
29597
29591
29597
29567
29537
29616
29618
29628
29631
29636
29637
29655
29644
29656
29676
29684
29683
29692
29687
29695
29669
29674
29666
29604
29724
29739
29726
29739
29747
29751
29767
29769
29763
29743
29696
29782
29786
29800
29803
29788
29813
29824
29820
29842
29844
29831
29817
29770
29724
29863
29873
29875
29887
29876
29901
29905
29887
29863
29804
29913
29932
29934
29932
29941
29956
29933
29882
29836
29959
29964
29966
29987
29958
29908
29839
29991
29998
30006
30022
30012
30018
30028
30031
30028
30047
30042
30068
30069
30076
30085
30064
30080
30084
30076
30102
30101
30107
30109
30117
30124
30124
30138
30142
30137
30119
30123
30094
30063
30048
30161
30167
30172
30183
30183
30196
30188
30188
30187
30191
30215
30215
30198
30188
30191
30148
30136
30095
30103
30255
30246
30263
30265
30276
30279
30268
30285
30291
30279
30303
30308
30316
30317
30319
30311
30295
30257
30263
30237
30214
30332
30351
30356
30367
30366
30364
30375
30383
30381
30390
30389
30387
30399
30416
30410
30376
30323
30281
30434
30435
30431
30445
30459
30447
30433
30378
30332
30467
30311
30471
30481
30492
30495
30503
30499
30511
30511
30516
30535
30538
30534
30534
30543
30556
30564
30551
30566
30559
30567
30543
30540
30547
30546
30575
30580
30572
30569
30599
30607
30628
30628
30635
30639
30650
30654
30653
30651
30663
30653
30676
30667
30679
30687
30685
30709
30700
30716
30709
30718
30719
30727
30724
30727
30588
30668
30690
30700
30711
30708
30703
30684
30690
30777
30788
30791
30798
30802
30805
30805
30810
30753
30749
30750
30716
30838
30773
30844
30855
30863
30870
30866
30881
30879
30881
30895
30887
30908
30911
30918
30916
30927
30929
30935
30941
30946
30948
30951
30940
30957
30965
30972
30863
30878
30896
30927
30947
30949
30945
30942
30935
30914
30959
30951
31025
31047
31047
31053
31060
31065
31070
31066
31073
31078
31092
31087
31089
31101
31111
31117
31116
31113
31126
31127
31132
31140
31141
31159
31164
31157
31143
31140
31127
31118
31178
31187
31196
31196
31207
31204
31209
31223
31222
31232
31228
31239
31252
31249
31255
31263
31269
31269
31279
31292
31296
31287
31295
31299
31300
31291
31300
31279
31332
31332
31335
31349
31351
31359
31361
31367
31366
31351
31376
31376
31383
31391
31400
31409
31418
31423
31428
31429
31417
31367
31439
31439
31446
31454
31451
31463
31463
31469
31474
31489
31491
31498
31503
31495
31487
31506
31503
31531
31526
31534
31534
31541
31563
31554
31558
31575
31558
31580
31591
31595
31591
31598
31606
31615
31611
31614
31629
31645
31631
31628
31637
31648
31647
31650
31661
31673
31674
31681
31680
31685
31706
31700
31705
31719
31727
31734
31734
31740
31750
31751
31764
31751
31775
31769
31778
31788
31779
31784
31794
31792
31802
31807
31815
31823
31831
31829
31847
31839
31846
31852
31863
31863
31868
31875
31879
31885
31894
31895
31918
31886
31886
31892
31903
31909
31932
31932
31942
31951
31935
31941
31935
31951
31969
31963
31967
31973
31981
31983
32002
32013
32032
32020
32027
32039
32036
32024
32026
32039
32037
32050
32061
32068
32070
32046
32050
32068
32071
32071
32079
32087
32092
32107
32116
32132
32129
32139
32149
32156
32148
32160
32167
32163
32175
32177
32141
32155
32186
32202
32204
32198
32182
32172
32169
32189
32194
32197
32199
32196
32223
32254
32263
32214
32215
32229
32227
32227
32239
32249
32247
32254
32263
32271
32279
32310
32315
32299
32321
32263
32283
32289
32290
32300
32299
32300
32318
32300
32324
32318
32333
32328
32337
32348
32342
32359
32359
32364
32363
32365
32378
32383
32383
32397
32389
32412
32426
32446
32393
32389
32406
32398
32415
32407
32419
32434
32444
32478
32428
32423
32428
32438
32454
32471
32492
32519
32455
32455
32455
32469
32477
32488
32511
32475
32468
32484
32498
32495
32507
32531
32540
32503
32492
32495
32511
32515
32515
32518
32519
32528
32542
32565
32572
32536
32541
32543
32548
32551
32543
32559
32560
32571
32578
32602
32604
32613
32601
32602
32615
32612
32606
32623
32629
32647
32666
32591
32594
32599
32599
32607
32605
32612
32613
32620
32637
32647
32695
32698
32622
32634
32641
32638
32639
32653
32647
32641
32655
32690
32678
32728
32703
32647
32654
32658
32654
32659
32668
32678
32681
32684
32694
32699
32713
32725
32764
32765
32674
32683
32687
32695
32687
32681
32688
32691
32697
32695
32715
32719
32734
32767
32712
32708
32708
32717
32714
32721
32730
32732
32748
32753
32772
32793
32711
32723
32719
32731
32738
32751
32783
32739
32736
32736
32746
32742
32747
32741
32750
32748
32758
32763
32759
32769
32775
32791
32797
32799
32829
32749
32767
32761
32765
32775
32796
32806
32807
32820
32840
32758
32764
32767
32757
32755
32758
32751
32751
32758
32749
32754
32754
32753
32759
32767
32752
32765
32758
32752
32750
32750
32756
32737
32749
32741
32751
32748
32743
32749
32749
32751
32742
32737
32734
32735
32739
32733
32725
32775
32807
32821
32807
32801
32807
32788
32794
32757
32753
32759
32754
32739
32724
32716
32725
32710
32708
32716
32739
32795
32702
32695
32703
32772
32773
32784
32689
32687
32687
32766
32771
32756
32759
32754
32744
32732
32742
32731
32760
32769
32669
32711
32673
32710
32756
32748
32720
32733
32744
32739
32727
32732
32733
32730
32713
32703
32703
32710
32710
32637
32631
32637
32629
32622
32631
32619
32629
32628
32626
32604
32619
32620
32612
32614
32609
32599
32605
32610
32598
32601
32592
32590
32582
32589
32586
32577
32573
32563
32563
32559
32638
32623
32631
32628
32604
32593
32591
32581
32581
32572
32570
32566
32563
32558
32554
32547
32545
32540
32546
32531
32551
32543
32548
32551
32547
32569
32550
32495
32487
32476
32487
32475
32483
32487
32519
32463
32455
32454
32446
32455
32447
32443
32436
32431
32431
32423
32428
32423
32425
32431
32421
32419
32414
32416
32404
32404
32403
32396
32387
32383
32380
32382
32378
32378
32375
32373
32372
32356
32350
32354
32340
32345
32340
32337
32316
32326
32323
32324
32327
32311
32325
32309
32303
32303
32307
32289
32279
32292
32282
32284
32280
32273
32263
32262
32263
32254
32247
32236
32246
32236
32231
32231
32228
32225
32207
32210
32203
32209
32202
32196
32190
32188
32180
32180
32160
32160
32163
32155
32147
32143
32130
32136
32119
32127
32120
32127
32121
32118
32108
32111
32097
32107
32108
32098
32103
32069
32050
32054
32063
32043
32035
32033
32036
32021
32031
32022
32010
32007
31997
31998
32007
31980
31983
31975
31968
31961
31964
31964
31954
31951
31932
31943
31925
31928
31919
31914
31911
31907
31899
31904
31895
31892
31879
31883
31876
31884
31867
31856
31860
31852
31847
31841
31828
31831
31824
31812
31815
31815
31801
31790
31775
31781
31779
31718
31764
31751
31747
31740
31743
31734
31727
31729
31708
31716
31701
31706
31692
31687
31692
31684
31673
31670
31661
31668
31655
31643
31648
31642
31646
31647
31638
31628
31615
31613
31598
31605
31596
31584
31591
31580
31574
31563
31567
31546
31548
31526
31524
31516
31523
31511
31508
31503
31500
31515
31507
31488
31466
31481
31479
31469
31467
31462
31468
31449
31452
31435
31444
31435
31433
31425
31412
31407
31393
31369
31367
31367
31359
31350
31340
31364
31367
31361
31351
31345
31348
31333
31324
31335
31326
31292
31311
31303
31294
31303
31299
31290
31281
31260
31235
31207
31255
31255
31254
31258
31231
31180
31236
31215
31216
31208
31208
31177
31102
31186
31175
31183
31173
31157
31118
31159
31149
31143
31148
31150
31122
31110
31076
31062
31063
31031
31108
31097
31087
31087
31085
31088
31078
31066
31055
31071
31069
31064
31047
31028
31030
31008
30993
30944
31006
30999
31007
30995
30983
30999
30966
30940
30887
30956
30950
30951
30947
30943
30944
30943
30898
30853
30913
30924
30898
30894
30893
30902
30893
30887
30879
30848
30836
30812
30825
30791
30727
30841
30827
30830
30823
30801
30700
30805
30799
30805
30791
30755
30716
30778
30766
30764
30755
30754
30744
30758
30743
30738
30730
30727
30727
30704
30694
30682
30663
30631
30585
30679
30671
30670
30676
30660
30663
30641
30643
30645
30647
30631
30625
30598
30581
30541
30503
30591
30583
30583
30583
30567
30581
30567
30545
30497
30549
30548
30545
30529
30502
30441
30401
30510
30497
30500
30483
30503
30471
30447
30409
30459
30456
30455
30446
30445
30444
30441
30431
30410
30339
30402
30407
30404
30401
30380
30340
30247
30375
30367
30362
30373
30343
30289
30343
30340
30340
30334
30316
30285
30215
30315
30307
30303
30292
30276
30310
30278
30239
30173
30264
30250
30253
30255
30247
30225
30187
30226
30215
30215
30205
30212
30187
30142
30084
30054
30164
30179
30174
30152
30164
30151
30111
30004
30138
30142
30139
30118
30101
30119
30124
30097
30067
30024
29933
30077
30073
30079
30061
30055
30051
30050
30055
30044
29967
29897
30027
30023
30008
30004
30023
30011
29982
29898
29995
29977
29969
29977
29924
29822
29959
29950
29962
29932
29809
29937
29929
29924
29921
29875
29846
29903
29898
29885
29889
29851
29767
29863
29868
29855
29862
29822
29703
29835
29843
29828
29813
29830
29804
29735
29806
29796
29799
29799
29767
29703
29626
29777
29767
29751
29700
29751
29743
29749
29709
29647
29724
29729
29719
29703
29703
29697
29649
29606
29679
29679
29668
29654
29565
29505
29654
29649
29641
29650
29622
29591
29557
29495
29482
29610
29602
29594
29605
29582
29560
29515
29439
29567
29572
29559
29556
29551
29541
29531
29532
29543
29530
29517
29509
29492
29494
29466
29455
29446
29390
29391
29383
29468
29466
29474
29471
29460
29444
29436
29428
29414
29401
29410
29423
29422
29413
29394
29390
29381
29374
29367
29351
29315
29291
29239
29243
29244
29255
29234
29213
29196
29210
29212
29235
29276
29274
29259
29255
29234
29241
29258
29259
29259
29247
29219
29231
29222
29239
29223
29204
29156
29144
29119
29076
29078
29042
29222
29211
29034
29191
29184
29191
29191
29167
29162
29185
29166
29157
29151
29132
29116
29114
29093
29061
28999
29119
29121
29114
29100
29108
29096
29099
29095
29079
29075
29063
29055
29058
29073
29070
29058
29028
29030
29031
29028
29009
28985
28977
28991
29002
28996
28983
28962
28981
28927
28897
28876
28829
28799
28965
28958
28952
28942
28951
28932
28926
28927
28914
28911
28903
28903
28889
28876
28857
28868
28878
28871
28838
28779
28679
28837
28827
28828
28811
28831
28802
28780
28744
28670
28788
28775
28764
28753
28762
28727
28639
28746
28735
28734
28731
28717
28722
28704
28702
28683
28680
28692
28694
28656
28644
28620
28605
28540
28641
28636
28638
28628
28631
28610
28609
28593
28589
28607
28596
28577
28572
28557
28541
28526
28527
28500
28486
28421
28420
28371
28355
28344
28317
28495
28480
28484
28487
28466
28271
28466
28455
28449
28442
28430
28447
28412
28381
28306
28420
28401
28391
28380
28391
28333
28252
28172
28366
28355
28350
28337
28337
28338
28337
28295
28276
28111
28295
28298
28295
28295
28285
28256
28240
28207
28143
28088
28239
28233
28234
28223
28223
28207
28203
28195
28191
28180
28189
28177
28137
28111
28103
28007
27991
28151
28138
28126
28133
28105
28102
28093
28085
28079
28079
28097
28062
28028
27974
28062
28058
28045
28026
28028
28042
28026
27978
27924
28003
27997
27992
27975
27990
27934
27906
27857
27957
27946
27947
27932
27919
27930
27927
27889
27866
27834
27772
27887
27748
27879
27871
27862
27849
27847
27840
27838
27820
27780
27777
27793
27776
27762
27724
27700
27613
27780
27770
27762
27748
27748
27740
27751
27718
27692
27642
27708
27702
27703
27695
27687
27686
27677
27687
27652
27625
27583
27503
27454
27647
27628
27623
27615
27614
27602
27600
27590
27573
27559
27563
27578
27562
27551
27522
27477
27388
27358
27526
27516
27520
27481
27438
27392
27306
27483
27471
27462
27463
27460
27409
27398
27343
27279
27418
27418
27404
27404
27394
27396
27382
27343
27233
27372
27353
27352
27346
27337
27343
27320
27260
27212
27179
27202
27186
27158
27287
27284
27276
27263
27252
27236
27268
27255
27228
27183
27116
27060
27207
27207
27201
27204
27191
27183
27188
27180
27162
27159
27140
27143
27151
27127
27110
27076
26999
26949
27109
27092
27079
27095
27061
27007
26900
27069
27059
27054
27054
27039
27034
27046
27025
27046
27031
27015
27008
26988
26949
26929
26908
26840
26972
26975
26954
26965
26950
26956
26952
26935
26930
26920
26912
26919
26931
26899
26873
26868
26843
26802
26739
26719
26877
26860
26862
26851
26842
26849
26849
26832
26782
26757
26717
26661
26812
26818
26799
26793
26791
26799
26777
26725
26679
26616
26770
26756
26754
26743
26764
26753
26709
26606
26739
26719
26732
26716
26679
26617
26705
26700
26694
26695
26711
26683
26647
26591
26555
26678
26667
26668
26662
26668
26647
26599
26532
26643
26645
26631
26628
26625
26645
26613
26583
26582
26559
26534
26502
26476
26466
26595
26601
26582
26581
26581
26578
26577
26580
26570
26545
26490
26561
26556
26551
26550
26554
26537
26540
26555
26543
26530
26526
26502
26488
26447
26407
26524
26519
26519
26502
26503
26490
26497
26506
26508
26508
26486
26468
26438
26404
26405
26383
26383
26332
26463
26468
26471
26461
26458
26458
26440
26452
26459
26426
26366
26449
26446
26437
26439
26439
26431
26394
26350
26298
26423
26427
26418
26412
26417
26414
26407
26407
26405
26412
26405
26413
26407
26396
26404
26415
26415
26398
26405
26375
26355
26321
26287
26398
26385
26380
26376
26376
26380
26367
26371
26389
26319
26366
26367
26363
26303
26276
26367
26362
26361
26363
26358
26356
26350
26366
26356
26354
26350
26363
26353
26326
26276
26345
26353
26343
26351
26342
26356
26340
26321
26276
26223
26351
26340
26332
26335
26353
26336
26301
26245
26209
26225
26335
26343
26334
26331
26337
26330
26343
26337
26349
26341
26338
26332
26322
26335
26332
26289
26263
26330
26335
26327
26326
26327
26333
26336
26326
26325
26335
26341
26329
26321
26342
26338
26330
26302
26263
26223
26325
26334
26330
26323
26341
26341
26335
26351
26332
26321
26316
26321
26278
26327
26343
26336
26333
26328
26336
26333
26350
26353
26346
26333
26341
26332
26319
26315
26257
26350
26348
26350
26351
26348
26343
26357
26348
26327
26316
26298
26289
26234
26351
26349
26364
26364
26356
26357
26362
26372
26356
26367
26356
26344
26351
26337
26309
26288
26260
26374
26373
26369
26375
26372
26375
26375
26388
26393
26372
26375
26354
26327
26246
26394
26395
26399
26385
26404
26412
26394
26383
26383
26351
26245
26407
26407
26417
26404
26423
26429
26411
26402
26342
26421
26424
26402
26429
26407
26367
26375
26314
26430
26427
26431
26429
26457
26436
26436
26405
26354
26446
26455
26458
26463
26467
26453
26462
26468
26452
26429
26440
26432
26434
26383
26361
26481
26492
26489
26479
26496
26491
26503
26503
26485
26484
26476
26452
26424
26382
26510
26517
26518
26516
26519
26543
26504
26500
26418
26535
26537
26533
26544
26558
26556
26562
26534
26489
26544
26569
26564
26554
26567
26535
26467
26573
26575
26577
26577
26587
26578
26535
26487
26607
26599
26596
26604
26558
26483
26613
26607
26627
26573
26495
26627
26627
26636
26604
26514
26637
26643
26642
26650
26604
26523
26663
26660
26646
26663
26602
26668
26675
26676
26683
26612
26694
26689
26693
26706
26698
26667
26613
26707
26717
26711
26734
26735
26668
26740
26739
26735
26738
26699
26650
26758
26757
26761
26764
26759
26695
26650
26777
26786
26793
26777
26805
26763
26695
26811
26815
26813
26783
26688
26812
26817
26833
26809
26776
26725
26834
26837
26856
26849
26871
26860
26835
26797
26871
26876
26875
26884
26887
26878
26849
26794
26900
26743
26908
26919
26915
26925
26925
26926
26943
26921
26907
26887
26870
26898
26882
26853
26818
26871
26859
26974
26981
26982
26991
26982
27005
26989
26964
26933
26868
27013
27023
27018
27009
26936
27023
27024
27030
27031
27060
27021
26963
27043
27046
27054
27060
27070
27070
27038
27001
26950
26930
27085
27080
27090
27092
27097
27093
27105
27082
27071
27015
27113
27117
27117
27123
27113
27127
27143
27126
27109
27095
27071
27049
27014
27153
27153
27164
27163
27172
27166
27173
27189
27187
27184
27188
27160
27156
27111
27084
27203
27202
27204
27216
27208
27228
27217
27223
27207
27186
27228
27244
27228
27231
27239
27247
27268
27231
27163
27255
27279
27239
27217
27278
27292
27269
27285
27291
27279
27295
27298
27311
27263
27316
27303
27311
27184
27327
27331
27295
27330
27335
27332
27338
27348
27336
27341
27365
27365
27357
27333
27301
27260
27368
27378
27382
27383
27381
27388
27391
27415
27398
27399
27330
27420
27409
27424
27422
27422
27439
27438
27441
27388
27351
27302
27333
27444
27449
27455
27464
27476
27471
27470
27491
27482
27464
27452
27430
27370
27500
27505
27453
27505
27507
27517
27434
27442
27430
27443
27399
27534
27533
27536
27542
27546
27534
27557
27567
27558
27554
27541
27527
27533
27557
27534
27559
27549
27559
27492
27590
27601
27601
27599
27609
27620
27628
27607
27598
27576
27524
27631
27634
27634
27622
27647
27632
27612
27585
27554
27511
27647
27655
27670
27663
27674
27691
27668
27607
27687
27691
27677
27708
27702
27669
27592
27697
27708
27716
27704
27726
27702
27672
27620
27734
27728
27743
27726
27741
27716
27685
27638
27629
27753
27756
27749
27757
27762
27740
27726
27665
27772
27776
27784
27780
27788
27781
27767
27708
27798
27790
27803
27798
27815
27819
27796
27778
27733
27812
27814
27814
27823
27814
27826
27821
27846
27845
27839
27814
27819
27823
27817
27789
27731
27724
27684
27858
27860
27855
27869
27863
27875
27868
27875
27879
27869
27872
27890
27907
27889
27871
27809
27783
27892
27900
27902
27903
27902
27916
27903
27911
27917
27911
27903
27870
27847
27833
27916
27911
27927
27935
27934
27944
27927
27892
27820
27943
27945
27945
27949
27954
27959
27942
27930
27906
27895
27885
27873
27882
27885
27857
27967
27983
27975
27977
27981
27986
27997
27991
28001
27991
27969
27940
27879
28015
28005
28010
28014
28011
27984
27954
28012
28023
28030
28020
28030
28031
28030
28033
28011
27973
27961
27940
28041
28043
28054
28060
28069
28063
28061
28068
28070
28071
28083
28057
28015
27975
28083
28078
28091
28093
28079
28092
28093
28103
28093
28100
28119
28107
28113
28117
28107
28096
28074
28030
28124
28114
28112
28127
28134
28123
28130
28140
28108
28068
28130
28140
28154
28135
28104
28101
28046
28153
28158
28160
28162
28160
28159
28167
28179
28154
28117
28177
28163
28186
28176
28178
28189
28161
28121
28190
28189
28191
28204
28199
28139
28199
28212
28212
28208
28205
28231
28216
28209
28198
28160
28135
28227
28223
28230
28237
28238
28228
28195
28237
28238
28241
28237
28252
28263
28227
28200
28187
28160
28251
28262
28258
28261
28255
28263
28268
28276
28230
28209
28271
28261
28279
28279
28273
28277
28255
28284
28279
28296
28280
28284
28302
28289
28288
28268
28247
28292
28303
28295
28311
28301
28304
28302
28296
28276
28265
28311
28309
28321
28319
28298
28268
28319
28319
28319
28306
28334
28322
28332
28326
28308
28292
28286
28342
28331
28335
28340
28342
28336
28339
28346
28337
28350
28332
28343
28324
28307
28351
28346
28349
28349
28347
28356
28342
28356
28359
28359
28354
28354
28342
28331
28332
28365
28360
28347
28366
28367
28367
28359
28342
28344
28368
28352
28363
28367
28372
28362
28372
28370
28364
28359
28358
28329
28345
28362
28363
28367
28374
28372
28378
28372
28364
28348
28372
28363
28382
28375
28373
28386
28378
28357
28383
28370
28375
28373
28386
28380
28383
28381
28369
28370
28370
28375
28387
28367
28382
28381
28383
28380
28374
28353
28378
28380
28380
28375
28372
28382
28388
28389
28368
28372
28369
28372
28377
28379
28382
28375
28353
28340
28364
28381
28366
28369
28372
28383
28370
28370
28377
28375
28387
28375
28370
28353
28343
28361
28358
28355
28358
28356
28364
28359
28359
28358
28342
28314
28359
28364
28367
28352
28360
28362
28351
28356
28359
28357
28346
28351
28350
28343
28340
28337
28318
28342
28344
28342
28343
28342
28349
28348
28343
28335
28320
28327
28334
28331
28341
28340
28327
28316
28321
28326
28321
28327
28316
28325
28319
28324
28327
28312
28313
28309
28304
28309
28319
28314
28318
28317
28293
28268
28260
28292
28287
28292
28295
28294
28291
28295
28287
28302
28293
28282
28269
28275
28271
28287
28283
28276
28284
28276
28279
28277
28279
28276
28263
28262
28259
28256
28267
28263
28257
28255
28259
28251
28216
28236
28242
28252
28244
28244
28244
28227
28223
28228
28236
28231
28218
28218
28220
28215
28217
28220
28218
28218
28229
28220
28226
28223
28199
28188
28191
28193
28175
28182
28194
28196
28178
28176
28189
28191
28191
28143
28131
28162
28165
28173
28151
28154
28156
28140
28143
28136
28151
28138
28139
28147
28152
28148
28158
28143
28145
28134
28113
28113
28110
28108
28103
28111
28106
28092
28105
28100
28095
28108
28099
28099
28107
28111
28079
28081
28085
28069
28079
28082
28085
28062
28047
28058
28057
28049
28049
28063
28066
28079
28014
28029
28037
28035
28028
28031
28036
27900
28013
28007
28006
28011
28001
28007
27998
27986
28002
27991
27989
27995
27998
27991
28007
27998
27967
27958
27957
27959
27955
27962
27975
27971
27948
27943
27940
27936
27937
27933
27937
27925
27943
27945
27876
27898
27907
27902
27909
27902
27910
27919
27890
27876
27876
27865
27875
27860
27866
27864
27863
27861
27849
27856
27871
27870
27865
27903
27828
27813
27821
27822
27823
27821
27812
27811
27804
27810
27818
27828
27839
27839
27768
27789
27767
27772
27770
27757
27758
27743
27745
27756
27764
27774
27726
27719
27719
27719
27711
27709
27735
27754
27684
27679
27677
27674
27671
27669
27679
27703
27713
27630
27638
27636
27631
27621
27612
27625
27626
27651
27670
27592
27579
27575
27580
27579
27574
27569
27559
27561
27540
27548
27542
27543
27548
27556
27495
27514
27507
27503
27502
27506
27540
27463
27465
27463
27466
27459
27452
27452
27463
27479
27487
27500
27505
27410
27397
27399
27396
27397
27375
27368
27394
27427
27363
27348
27349
27341
27346
27339
27336
27342
27343
27361
27359
27383
27237
27279
27287
27308
27260
27263
27255
27242
27251
27252
27239
27234
27245
27253
27279
27309
27222
27207
27204
27188
27196
27211
27252
27175
27166
27169
27154
27175
27221
27118
27125
27133
27119
27111
27118
27118
27132
27099
27083
27071
27079
27068
27061
27060
27043
27049
27055
27052
27026
27034
27032
27037
27063
27062
27092
26976
26979
26975
26975
26965
26966
26985
26935
26935
26943
26938
26927
26940
26974
26895
26886
26892
26884
26884
26876
26864
26872
26855
26895
26926
26954
26826
26824
26809
26807
26804
26783
26799
26795
26791
26779
26775
26761
26765
26757
26766
26743
26743
26727
26718
26753
26748
26743
26741
26737
26719
26719
26730
26733
26731
26715
26692
26678
26676
26709
26676
26663
26663
26676
26631
26623
26599
26587
26612
26653
26543
26540
26535
26546
26525
26527
26533
26559
26562
26594
26570
26585
26566
26461
26459
26448
26439
26438
26447
26438
26414
26418
26412
26412
26431
26468
26493
26484
26356
26350
26342
26330
26342
26334
26412
26315
26308
26364
26286
26298
26365
26268
26266
26278
26247
26248
26236
26242
26214
26215
26204
26215
26202
26199
26181
26183
26160
26182
26178
26162
26174
26163
26228
26231
26211
26100
26093
26079
26086
26073
26079
26065
26055
26041
26038
26041
26026
26018
26028
26028
26045
26105
25970
25959
25955
25956
25941
25940
25945
25923
25929
25931
25940
25982
26014
25873
25870
25865
25869
25855
25862
25848
25834
25835
25823
25839
25901
25925
25903
25777
25775
25760
25760
25757
25749
25747
25737
25740
25727
25714
25732
25752
25798
25798
25822
25807
25794
25642
25639
25638
25635
25623
25614
25601
25604
25605
25580
25586
25572
25556
25556
25547
25699
25625
25575
25583
25587
25575
25662
25495
25508
25487
25527
25607
25469
25472
25456
25509
25431
25430
25429
25438
25463
25446
25435
25450
25423
25481
25529
25519
25350
25350
25332
25324
25306
25309
25311
25300
25298
25303
25299
25292
25278
25272
25252
25268
25286
25276
25270
25260
25252
25241
25234
25263
25268
25287
25263
25316
25338
25156
25141
25148
25159
25151
25146
25127
25117
25120
25111
25106
25107
25106
25167
25191
25188
25053
25043
25029
25029
25033
25031
25025
25035
25015
25007
25003
24989
24993
24983
24974
25015
25140
24943
24941
24947
24925
24927
24958
25076
24898
24903
24893
24919
24962
24867
24863
24863
24862
24866
24875
24908
24828
24812
24818
24813
24804
24796
24798
24853
24906
24933
24751
24759
24771
24753
24773
24826
24909
24718
24711
24726
24703
24707
24714
24754
24677
24663
24678
24679
24669
24662
24679
24724
24721
24811
24614
24609
24607
24607
24602
24583
24591
24591
24593
24574
24572
24589
24567
24608
24674
24524
24532
24524
24517
24522
24519
24509
24498
24508
24566
24671
24473
24463
24474
24477
24467
24440
24442
24436
24447
24428
24431
24445
24468
24486
24501
24523
24581
24557
24553
24541
24351
24355
24372
24360
24358
24388
24429
24517
24316
24309
24295
24303
24310
24311
24300
24295
24278
24281
24279
24306
24334
24400
24439
24396
24227
24226
24221
24221
24415
24347
24315
24308
24276
24218
24222
24212
24218
24250
24295
24270
24218
24194
24175
24188
24206
24127
24139
24131
24125
24153
24277
24101
24100
24101
24097
24090
24087
24092
24079
24087
24079
24071
24079
24060
24052
24045
24039
24030
24030
24027
24026
24045
24067
24134
23994
23987
23981
23970
23976
23966
23976
23977
23971
23970
23962
23960
23952
23942
23932
23925
23932
23929
23919
23916
23916
23907
23904
23902
23905
23916
23939
24001
23986
24014
24002
23841
23852
23844
23834
23844
23845
23837
23844
23823
23813
23808
23808
23804
23799
23801
23791
23793
23781
23761
23770
23780
23762
23764
23758
23759
23783
23871
23723
23723
23725
23721
23728
23724
23716
23721
23752
23841
23681
23695
23690
23687
23687
23724
23796
23654
23655
23653
23655
23652
23649
23638
23642
23646
23709
23621
23620
23613
23610
23615
23604
23601
23593
23602
23602
23607
23676
23707
23556
23559
23567
23577
23559
23545
23550
23546
23539
23548
23534
23533
23526
23524
23524
23516
23521
23503
23510
23503
23500
23516
23527
23506
23501
23501
23501
23482
23474
23460
23455
23457
23440
23448
23431
23439
23439
23454
23477
23450
23487
23467
23457
23485
23503
23376
23382
23380
23379
23370
23377
23374
23366
23356
23353
23362
23361
23358
23352
23348
23348
23340
23342
23384
23363
23386
23293
23308
23310
23298
23287
23296
23306
23382
23277
23265
23270
23282
23271
23260
23281
23343
23237
23241
23247
23249
23257
23220
23212
23230
23220
23217
23260
23316
23196
23197
23206
23196
23194
23191
23213
23265
23160
23158
23172
23167
23230
23148
23151
23158
23158
23167
23210
23124
23132
23125
23126
23120
23120
23115
23157
23185
23090
23083
23078
23090
23087
23090
23074
23083
23085
23127
23060
23047
23060
23047
23059
23092
23031
23028
23031
23031
23013
23029
23020
23047
23095
22993
22984
22987
22978
22983
22985
22981
22964
22968
22964
22983
22942
22927
22948
22929
22931
22919
22932
22935
22935
22940
22895
22881
22881
22901
22872
22878
22877
22868
22862
22863
22854
22852
22858
22890
22822
22813
22815
22817
22814
22805
22809
22823
22782
22768
22762
22780
22767
22762
22764
22783
22823
22737
22735
22724
22734
22764
22711
22704
22714
22703
22700
22719
22727
22705
22673
22662
22660
22663
22665
22665
22638
22641
22689
22630
22629
22644
22657
22683
22606
22595
22604
22599
22597
22578
22577
22578
22580
22614
22589
22543
22535
22529
22531
22533
22526
22518
22516
22522
22542
22499
22488
22524
22486
22479
22484
22469
22469
22497
22497
22445
22436
22444
22439
22437
22429
22435
22444
22447
22401
22399
22393
22393
22383
22382
22416
22360
22356
22356
22344
22343
22343
22359
22348
22316
22313
22306
22316
22309
22294
22300
22298
22316
22267
22260
22256
22259
22250
22279
22297
22231
22234
22226
22228
22230
22211
22218
22199
22199
22212
22235
22169
22174
22161
22162
22165
22148
22140
22150
22145
22162
22122
22115
22118
22109
22111
22093
22099
22096
22098
22122
22062
22057
22057
22053
22053
22055
22069
22076
22022
22010
22013
22003
21992
22002
21993
21990
22007
21960
21959
21962
21955
21945
21948
21940
21934
21930
21927
21927
21939
21894
21894
21893
21892
21886
21871
21895
21887
21860
21865
21855
21838
21841
21831
21841
21839
21842
21828
21796
21789
21781
21774
21767
21761
21757
21751
21746
21745
21741
21734
21733
21724
21724
21714
21712
21705
21673
21676
21666
21666
21667
21660
21650
21647
21640
21629
21631
21620
21620
21626
21591
21584
21575
21574
21574
21568
21558
21554
21550
21545
21543
21535
21521
21531
21519
21505
21492
21478
21472
21462
21469
21455
21453
21453
21444
21441
21425
21428
21420
21412
21412
21378
21391
21380
21375
21368
21356
21359
21351
21345
21345
21336
21316
21314
21311
21316
21311
21300
21282
21285
21274
21281
21275
21273
21249
21232
21236
21221
21221
21220
21215
21206
21203
21202
21186
21186
21167
21169
21155
21154
21155
21134
21130
21119
21116
21110
21103
21103
21097
21095
21086
21084
21082
21065
21063
21054
21039
21040
21039
21040
21023
21020
21006
21012
20993
20994
20999
20994
20966
20970
20965
20961
20958
20953
20948
20942
20917
20838
20904
20908
20892
20892
20882
20890
20885
20882
20870
20876
20883
20867
20853
20855
20807
20828
20825
20825
20815
20807
20809
20810
20806
20810
20775
20782
20771
20774
20769
20770
20760
20743
20750
20748
20742
20744
20751
20708
20710
20710
20703
20708
20705
20698
20693
20694
20677
20666
20660
20662
20667
20660
20667
20644
20629
20638
20633
20628
20624
20610
20610
20602
20601
20607
20608
20610
20579
20571
20584
20571
20565
20566
20566
20566
20542
20534
20543
20534
20539
20537
20539
20548
20496
20503
20509
20503
20503
20487
20503
20495
20483
20477
20479
20478
20487
20455
20453
20459
20453
20462
20436
20444
20434
20434
20438
20423
20425
20415
20421
20407
20422
20429
20391
20396
20390
20385
20389
20386
20403
20369
20361
20372
20367
20360
20363
20382
20333
20350
20347
20335
20337
20337
20355
20312
20313
20311
20324
20310
20311
20303
20305
20311
20298
20303
20320
20275
20276
20270
20286
20268
20277
20276
20269
20274
20279
20236
20244
20243
20250
20252
20236
20237
20232
20251
20262
20225
20231
20219
20224
20221
20216
20215
20214
20225
20242
20202
20204
20193
20198
20202
20209
20190
20173
20183
20185
20170
20190
20167
20163
20152
20164
20164
20158
20173
20169
20196
20153
20148
20150
20149
20155
20137
20153
20159
20143
20169
20125
20121
20129
20132
20135
20129
20122
20122
20125
20141
20163
20096
20095
20100
20101
20095
20095
20101
20099
20100
20101
20116
20075
20090
20087
20089
20090
20099
20088
20116
20116
20080
20069
20072
20074
20074
20071
20068
20074
20079
20089
20116
20060
20060
20077
20071
20071
20058
20055
20053
20064
20063
20068
20092
20044
20062
20046
20064
20058
20055
20052
20065
20070
20085
20034
20042
20041
20044
20047
20037
20046
20038
20048
20059
20073
20030
20032
20041
20039
20037
20051
20026
20026
20037
20038
20034
20038
20041
20047
20068
20029
20022
20028
20029
20031
20038
20031
20034
20033
20028
20023
20038
20022
20025
20029
20036
20045
20044
20064
20052
20018
20024
20027
20021
20030
20035
20034
20025
20031
20034
20034
20036
20025
20043
20048
20070
20071
20066
20021
20027
20025
20021
20026
20038
20034
20030
20033
20029
20047
20045
20055
20068
20021
20020
20036
20031
20044
20035
20043
20035
20040
20053
20047
20042
20052
20051
20054
20050
20047
20047
20055
20052
20061
20055
20066
20085
20036
20046
20041
20037
20039
20047
20054
20052
20053
20055
20061
20074
20109
20047
20060
20063
20054
20070
20072
20060
20071
20062
20076
20075
20093
20121
20081
20059
20079
20064
20082
20087
20079
20088
20090
20094
20145
20084
20082
20087
20077
20092
20087
20102
20101
20106
20108
20113
20111
20108
20111
20109
20116
20119
20130
20129
20135
20165
20175
20177
20114
20130
20124
20134
20133
20133
20139
20151
20167
20199
20138
20146
20140
20163
20158
20156
20160
20165
20174
20191
20212
20159
20162
20167
20175
20174
20188
20175
20181
20191
20185
20190
20199
20201
20225
20224
20256
20236
20235
20277
20199
20200
20205
20215
20218
20218
20236
20234
20242
20231
20243
20254
20249
20273
20290
20249
20245
20261
20266
20278
20266
20277
20277
20299
20354
20277
20276
20295
20295
20300
20303
20335
20291
20312
20310
20303
20319
20361
20319
20316
20330
20326
20329
20338
20359
20396
20319
20333
20348
20345
20349
20351
20369
20337
20351
20349
20356
20361
20362
20367
20367
20388
20446
20367
20372
20370
20380
20437
20375
20390
20394
20389
20397
20428
20462
20395
20399
20409
20405
20404
20416
20414
20409
20435
20454
20474
20406
20415
20425
20435
20435
20446
20442
20452
20454
20519
20450
20460
20465
20461
20467
20473
20499
20462
20466
20471
20479
20479
20501
20551
20479
20487
20503
20503
20521
20555
20495
20499
20510
20521
20517
20522
20532
20543
20588
20520
20540
20540
20540
20546
20551
20567
20613
20550
20555
20572
20565
20559
20581
20590
20571
20569
20580
20577
20583
20593
20612
20650
20586
20598
20600
20607
20624
20615
20636
20652
20615
20630
20626
20628
20642
20670
20696
20639
20645
20650
20655
20698
20641
20657
20667
20663
20694
20655
20676
20682
20728
20677
20689
20688
20724
20686
20708
20705
20769
20700
20710
20719
20754
20708
20709
20726
20736
20741
20743
20759
20807
20738
20754
20756
20759
20762
20765
20759
20777
20780
20778
20775
20788
20782
20799
20798
20831
20793
20803
20807
20813
20804
20818
20807
20839
20847
20887
20821
20825
20833
20842
20839
20845
20847
20857
20866
20925
20852
20871
20871
20871
20874
20891
20897
20909
20943
20881
20886
20902
20902
20895
20902
20923
20922
20931
20967
20915
20918
20933
20924
20940
20944
20957
20975
21011
20945
20952
20959
20965
20967
20966
20986
21018
20991
20973
20971
20989
20993
21004
20999
21012
21009
21023
21023
21035
21064
21020
21015
21020
21015
21031
21046
21065
21092
21100
21115
21037
21047
21057
21059
21071
21072
21065
21073
21070
21085
21129
21130
21072
21084
21087
21097
21108
21101
21109
21098
21127
21140
21159
21183
21174
21116
21125
21119
21133
21154
21139
21151
21153
21151
21160
21177
21216
21221
21161
21166
21172
21174
21188
21190
21188
21190
21198
21196
21205
21212
21257
21198
21196
21215
21217
21228
21226
21230
21240
21238
21240
21245
21247
21245
21245
21279
21266
21275
21276
21297
21329
21275
21280
21279
21279
21279
21302
21308
21307
21311
21321
21322
21325
21330
21339
21343
21346
21353
21351
21348
21349
21351
21370
21380
21403
21363
21372
21374
21389
21391
21403
21396
21408
21415
21414
21436
21457
21470
21444
21415
21430
21434
21442
21441
21456
21455
21461
21463
21474
21483
21497
21524
21529
21484
21493
21493
21498
21511
21511
21525
21533
21536
21542
21540
21546
21565
21567
21583
21599
21605
21575
21580
21585
21594
21599
21615
21620
21621
21624
21631
21632
21639
21660
21681
21644
21639
21658
21673
21682
21686
21691
21692
21700
21700
21711
21727
21766
21713
21733
21740
21740
21739
21762
21761
21793
21807
21816
21821
21804
21788
21795
21798
21820
21822
21822
21829
21841
21847
21862
21885
21849
21866
21883
21873
21909
21878
21890
21916
21906
21919
21919
21939
21964
21935
21940
21943
21967
21975
21974
21975
21990
21981
22004
22012
22013
22023
22042
22047
22056
22083
22097
21991
22059
22069
22095
22080
22088
22106
22111
22118
22118
22130
22139
22146
22158
22160
22175
22207
22163
22173
22182
22196
22199
22204
22223
22229
22230
22239
22249
22257
22286
22264
22270
22279
22289
22300
22300
22308
22326
22346
22323
22342
22348
22367
22364
22365
22382
22389
22395
22397
22422
22436
22452
22415
22428
22447
22441
22463
22468
22482
22481
22482
22503
22500
22510
22525
22535
22546
22542
22565
22581
22597
22564
22572
22586
22598
22610
22618
22626
22636
22649
22649
22670
22673
22705
22705
22689
22703
22715
22745
22711
22728
22761
22741
22744
22767
22765
22780
22791
22802
22806
22817
22840
22849
22850
22862
22846
22855
22863
22870
22888
22897
22895
22905
22918
22933
22935
22944
22968
22971
22980
22993
22984
22983
23003
23011
23024
23039
23029
23055
23067
23085
23084
23073
23078
23093
23106
23114
23125
23136
23141
23153
23163
23167
23183
23193
23204
23216
23225
23221
23239
23244
23256
23268
23266
23287
23285
23279
23294
23305
23312
23329
23327
23345
23343
23365
23371
23381
23385
23397
23399
23412
23434
23437
23446
23463
23460
23466
23483
23487
23490
23503
23506
23508
23523
23532
23551
23559
23559
23581
23582
23596
23596
23575
23620
23623
23632
23641
23658
23675
23683
23684
23694
23679
23709
23711
23725
23733
23744
23758
23775
23783
23777
23786
23804
23808
23821
23830
23836
23855
23861
23869
23878
23884
23900
23895
23911
23927
23918
23934
23918
23948
23959
23971
23977
23991
23999
24010
24023
24024
24038
24048
24063
24068
24086
24091
24094
24098
24103
24124
24128
24142
24144
24161
24178
24178
24199
24190
24215
24212
24221
24215
24234
24243
24250
24269
24282
24295
24294
24307
24309
24311
24333
24346
24346
24368
24371
24375
24399
24405
24415
24425
24435
24440
24446
24455
24469
24471
24484
24497
24508
24513
24520
24516
24546
24555
24573
24563
24575
24599
24613
24612
24623
24634
24637
24655
24661
24662
24675
24687
24681
24702
24721
24695
24743
24747
24755
24759
24768
24791
24769
24799
24807
24827
24783
24845
24862
24839
24877
24887
24885
24897
24915
24929
24920
24935
24959
24966
24945
24973
24959
24996
24995
25017
25019
25030
25045
25062
25059
25079
25064
25098
25102
25113
25127
25135
25145
25159
25165
25135
25186
25210
25191
25206
25223
25201
25239
25264
25255
25274
25282
25292
25262
25312
25327
25303
25336
25346
25377
25346
25385
25402
25372
25406
25428
25405
25444
25456
25461
25471
25484
25491
25447
25503
25531
25501
25535
25559
25542
25565
25577
25577
25596
25598
25618
25616
25572
25632
25637
25662
25642
25679
25680
25699
25658
25711
25704
25731
25647
25741
25756
25694
25761
25782
25737
25786
25804
25799
25813
25827
25836
25850
25852
25846
25866
25866
25890
25893
25906
25925
25859
25930
25940
25931
25884
25959
25980
25983
25919
26000
26004
25991
25959
26036
26041
26037
25990
26073
26084
26085
26055
26100
26108
26128
26095
26146
26149
26167
26130
26044
26187
26184
26209
26158
26221
26228
26225
26157
26250
26278
26242
26277
26297
26304
26257
26314
26318
26335
26343
26335
26247
26361
26388
26339
26398
26399
26420
26407
26429
26445
26458
26442
26465
26475
26485
26442
26495
26515
26527
26508
26537
26540
26564
26539
26570
26568
26587
26586
26543
26603
26613
26631
26607
26639
26649
26663
26666
26670
26679
26621
26709
26715
26717
26663
26746
26751
26774
26748
26681
26773
26801
26766
26812
26813
26828
26764
26833
26846
26775
26863
26865
26855
26880
26898
26909
26830
26918
26923
26927
26840
26956
26955
26946
26970
26982
26993
26962
27015
27027
27022
26957
27031
27047
27050
26953
27062
27087
27071
27028
27108
27100
27109
27044
27140
27139
27141
27068
27159
27166
27180
27117
27198
27218
27162
27225
27229
27218
27164
27247
27253
27277
27236
27283
27292
27307
27271
27316
27316
27323
27333
27280
27355
27349
27354
27361
27380
27396
27318
27406
27405
27429
27361
27430
27436
27455
27377
27453
27468
27486
27399
27492
27494
27487
27516
27511
27527
27527
27538
27538
27559
27559
27491
27575
27600
27463
27599
27605
27469
27624
27613
27636
27648
27528
27650
27641
27667
27668
27629
27690
27690
27636
27703
27709
27727
27743
27614
27746
27745
27592
27754
27751
27782
27769
27782
27655
27799
27814
27722
27815
27829
27718
27835
27851
27801
27857
27860
27778
27868
27895
27834
27893
27903
27878
27911
27911
27785
27939
27935
27965
27967
27938
27966
27918
27978
27867
28007
27999
27885
28011
28006
28020
28023
28033
28045
28039
28036
28063
28071
28078
27943
28095
28118
28044
28100
28112
28124
28018
28135
28164
27982
28147
28127
28167
28177
28098
28190
28198
28141
28198
28211
28183
28225
28231
28256
28190
28273
28257
28242
28269
28276
28225
28299
28292
28299
28188
28316
28340
28277
28343
28348
28367
28307
28365
28371
28399
28350
28391
28401
28375
28420
28413
28407
28435
28443
28423
28458
28455
28450
28479
28478
28468
28492
28506
28460
28521
28543
28479
28554
28551
28551
28558
28549
28588
28590
28467
28598
28579
28618
28634
28568
28644
28647
28626
28660
28679
28678
28679
28598
28707
28705
28679
28727
28734
28740
28638
28750
28770
28647
28780
28795
28739
28804
28799
28789
28830
28827
28800
28847
28843
28831
28872
28862
28853
28887
28899
28894
28789
28927
28936
28935
28830
28964
28983
28926
28978
28995
29023
28962
29011
29021
29016
29033
29044
29055
29031
28935
29084
29094
28943
29095
29119
28999
29133
29147
29118
28995
29169
29166
29170
29109
29191
29207
29220
29145
29223
29236
29247
29247
29222
29122
29287
29282
29299
29223
29314
29311
29327
29263
29349
29353
29356
29351
29255
29396
29399
29375
29274
29431
29447
29423
29308
29465
29495
29447
29341
29507
29501
29537
29510
29439
29556
29548
29579
29551
29477
29588
29586
29627
29543
29621
29641
29662
29624
29658
29669
29692
29631
29703
29700
29726
29692
29563
29748
29740
29765
29747
29657
29787
29805
29813
29713
29828
29851
29785
29862
29861
29862
29895
29895
29892
29729
29925
29922
29788
29949
29969
29930
29994
29990
29900
30010
30011
30035
29951
30054
30061
30025
30081
30087
30040
30100
30115
30065
30138
30152
30068
30180
30167
30111
30201
30201
30164
30236
30229
30225
30073
30263
30271
30147
30302
30300
30319
30237
30343
30351
30324
30380
30363
30332
30406
30404
30414
30302
30455
30461
30399
30484
30464
30455
30505
30513
30534
30488
30543
30543
30537
30471
30396
30589
30604
30607
30615
30635
30642
30660
30662
30502
30690
30702
30702
30721
30737
30746
30756
30767
30764
30780
30789
30809
30823
30815
30839
30847
30826
30810
30815
30767
30907
30919
30919
30916
30946
30931
30976
30983
30956
30933
30927
30893
30823
31039
31049
31063
31068
31070
31100
31119
31127
31149
31151
31159
31157
31163
31183
31203
31215
31221
31220
31212
31223
31239
31263
31261
31271
31296
31311
31327
31315
31315
31271
31278
31196
31183
31398
31415
31428
31439
31428
31439
31468
31461
31466
31424
31388
31316
31335
31531
31550
31556
31572
31562
31604
31623
31628
31613
31623
31605
31588
31560
31491
31689
31699
31715
31727
31729
31751
31751
31773
31787
31789
31796
31814
31822
31814
31829
31852
31855
31857
31886
31908
31905
31895
31817
31731
31959
31975
31983
31978
31973
31996
32032
32039
32038
32017
32030
32033
32033
31994
32023
32055
32084
32078
32024
32038
32003
32039
32097
32162
32167
32188
32181
32207
32195
32155
32177
32133
32325
32332
32338
32356
32367
32373
32383
32388
32388
32439
32451
32456
32463
32445
32422
32444
32451
32432
32374
32351
32327
32551
32570
32583
32591
32604
32604
32628
32645
32642
32652
32643
32698
32679
32668
32677
32695
32711
32750
32745
32743
32715
32687
32581
32816
32835
32846
32864
32869
32873
32883
32871
32868
32894
32951
32948
32969
32975
32991
32996
33002
32990
32990
32999
33020
33023
33063
33085
33095
33108
33123
33103
33127
33133
33135
33151
33159
33145
33115
33099
33119
33116
33079
33031
33141
33196
33231
33237
33140
33085
33328
33079
33099
33139
33132
33220
33324
33343
33350
33366
33415
33447
33460
33487
33487
33496
33506
33515
33516
33535
33557
33567
33562
33597
33591
33623
33587
33638
33642
33643
33639
33657
33652
33655
33658
33677
33693
33700
33694
33700
33732
33721
33687
33649
33599
33594
33799
33823
33838
33826
33819
33831
33866
33878
33900
33905
33924
33922
33934
33937
33909
33894
33925
33888
33895
33890
33812
34009
33989
33988
33841
34055
34039
34038
33856
34094
34105
34036
34106
34087
34121
33972
34143
34119
34150
34012
34177
34149
33975
34199
33959
34235
34218
34188
34236
34063
34266
34269
34175
34286
34311
34255
34311
34317
34344
34196
34359
34337
34339
34375
34366
34391
34329
34419
34397
34450
34404
34450
34423
34469
34311
34491
34468
34496
34357
34519
34492
34523
34295
34563
34543
34527
34567
34583
34585
34322
34599
34638
34527
34631
34612
34663
34586
34679
34647
34653
34692
34676
34711
34534
34724
34748
34583
34748
34770
34718
34772
34758
34788
34625
34807
34795
34758
34823
34799
34800
34855
34811
34865
34671
34893
34903
34815
34902
34910
34943
34874
34676
34948
34967
34916
34962
34940
34983
34999
34983
35015
34829
35012
35015
35031
34875
35061
35061
35051
34832
35076
35045
35087
34895
35111
35138
35079
35134
35138
35152
34967
35156
35183
35091
35177
35147
35206
35140
35217
35222
35223
35225
35060
35247
35218
35247
34991
35286
35292
35274
35061
35303
35273
35325
35234
35321
35335
35335
35303
35358
35308
35106
35367
35374
35351
35387
35343
35411
35420
35412
35423
35175
35439
35449
35347
35455
35420
35471
35295
35485
35469
35503
35348
35509
35478
35519
35399
35534
35513
35551
35455
35548
35513
35571
35371
35581
35602
35526
35599
35591
35556
35614
35603
35642
35358
35636
35648
35546
35657
35629
35647
35479
35682
35702
35441
35700
35671
35712
35635
35431
35732
35701
35751
35695
35751
35743
35759
35719
35479
35788
35751
35771
35569
35799
35822
35751
35817
35788
35825
35704
35828
35847
35804
35847
35833
35864
35770
35877
35854
35886
35774
35881
35893
35718
35911
35892
35903
35679
35915
35940
35840
35943
35928
35967
35924
35953
35961
35989
35945
35975
35977
35992
35831
35994
35967
36004
35747
35986
36033
35941
36039
36030
36068
35999
36054
36061
36031
36071
36038
36081
36085
36046
36055
36095
36084
36076
36106
36091
36140
36079
36137
36128
36160
35989
36155
36127
36157
35970
36186
36193
36071
36190
36167
36169
36206
36175
36219
36061
36234
36224
36231
36087
36254
36268
36223
36260
36237
36290
36125
36293
36263
36279
36047
36297
36335
36207
36323
36300
36278
36349
36319
36308
36354
36377
36232
36359
36335
36375
36391
36359
36388
36407
36383
36384
36427
36423
36437
36209
36436
36467
36301
36457
36469
36436
36465
36441
36439
36481
36503
36430
36504
36469
36497
36518
36510
36540
36270
36533
36407
36547
36517
36571
36449
36571
36551
36551
36589
36567
36586
36493
36607
36574
36583
36615
36588
36626
36487
36645
36636
36639
36653
36550
36639
36460
36691
36671
36700
36644
36699
36665
36687
36714
36685
36711
36735
36725
36755
36679
36740
36735
36737
36756
36773
36788
36717
36783
36775
36790
36799
36775
36815
36660
36834
36823
36612
36808
36794
36847
36860
36852
36871
36678
36847
36860
36887
36861
36900
36730
36912
36926
36807
36918
36936
36729
36915
36903
36954
36951
36804
36959
36984
36703
36937
36885
36990
36999
36999
36980
36999
37012
36981
36999
37029
37023
37031
36871
37054
37034
37002
37061
37068
37092
37028
37071
37054
37057
37084
37048
37096
36879
37115
37127
36995
37143
37151
37047
37147
37159
37039
37159
37141
37166
37009
37172
37181
37111
37189
37156
37202
37196
37204
37165
37222
37214
37140
37231
37251
37244
37255
37162
37255
37270
37151
37265
37277
37284
37265
37244
37310
37305
37303
37106
37319
37285
37324
37170
37343
37318
37348
37276
37362
37341
37367
37191
37378
37383
37199
37383
37413
37343
37407
37407
37420
37373
37423
37412
37444
37412
37442
37446
37461
37338
37463
37446
37445
37469
37466
37477
37273
37483
37476
37479
37503
37473
37475
37509
37492
37511
37292
37536
37525
37519
37383
37543
37556
37372
37572
37530
37569
37370
37581
37599
37487
37599
37575
37607
37502
37618
37592
37637
37567
37626
37610
37638
37491
37639
37657
37606
37652
37638
37686
37670
37454
37676
37660
37700
37607
37711
37681
37707
37620
37722
37698
37729
37597
37727
37713
37734
37627
37743
37732
37774
37716
37757
37753
37796
37740
37778
37767
37790
37701
37788
37790
37805
37790
37617
37799
37802
37827
37801
37661
37824
37827
37851
37814
37631
37845
37805
37861
37759
37856
37831
37850
37871
37871
37887
37871
37708
37895
37910
37839
37903
37886
37895
37706
37910
37922
37871
37927
37919
37946
37913
37778
37945
37941
37957
37927
37749
37952
37984
37936
37741
37960
37977
37867
37975
37960
37988
37864
37990
37975
37978
38005
38004
37990
38012
38004
38020
37909
38009
38031
38007
38023
38023
38047
37882
38045
38022
38055
37855
38050
38064
37975
38070
38045
38026
38075
38054
38065
37879
38085
38061
38063
38079
38087
38108
38068
38090
38100
38116
37932
38119
38080
38119
38047
38114
38095
38108
37919
38132
38147
38102
38133
38140
38149
38141
37986
38159
38151
38146
38150
38154
38179
38147
37935
38175
38165
38142
38170
38170
38174
38140
38183
38159
38186
38190
38175
38159
38191
38180
38206
38102
38191
38204
38215
38046
38207
38207
38220
38150
38209
38215
38226
38211
38234
38228
38201
38226
38151
38230
38237
38238
38233
38050
38247
38223
38258
38199
38251
38233
38252
38114
38263
38276
38187
38266
38239
38267
38049
38269
38279
38186
38246
38264
38284
38271
38261
38271
38252
38292
38086
38279
38297
38214
38284
38293
38255
38279
38293
38275
38276
38295
38313
38135
38279
38287
38095
38309
38324
38268
38310
38300
38316
38311
38233
38311
38287
38311
38127
38313
38286
38300
38317
38313
38300
38321
38209
38311
38292
38313
38106
38314
38291
38301
38180
38305
38307
38312
38249
38306
38305
38310
38291
38143
38301
38311
38292
38196
38295
38295
38311
38232
38298
38271
38307
38287
38291
38271
38190
38287
38278
38279
38095
38279
38264
38305
38279
38216
38279
38279
38247
38279
38255
38110
38271
38285
38247
38263
38270
38255
38253
38205
38268
38242
38285
38155
38260
38236
38276
38243
38120
38255
38236
38246
38167
38248
38255
38221
38245
38206
38021
38229
38232
38247
38196
38229
38226
38203
38232
38196
38036
38215
38215
38227
38204
38071
38213
38198
38209
38143
38193
38191
38188
38220
38177
37989
38183
38202
38174
38063
38183
38183
38160
38160
37999
38172
38182
38103
38163
38190
38120
38167
38147
38151
38151
38139
38150
38151
38128
38145
38038
38141
38151
38106
38134
38115
38122
38122
38110
38075
38127
38121
38111
38094
38039
38108
38124
37980
38101
38095
38010
38084
38061
38060
38082
38063
38078
37944
38073
38087
37988
38067
38076
37972
38060
38069
37985
38053
38023
38036
37920
38031
38036
38009
38023
38026
38039
37982
38023
38012
38015
37968
37993
37999
37997
37959
37823
37982
37989
37924
37991
37989
37895
37975
37943
37964
37742
37948
37948
37949
37937
37953
37791
37925
37927
37940
37943
37844
37918
37929
37799
37905
37914
37735
37895
37895
37892
37884
37861
37892
37879
37874
37855
37863
37857
37834
37810
37857
37831
37841
37660
37829
37837
37674
37828
37839
37697
37809
37799
37814
37783
37765
37794
37807
37662
37785
37794
37767
37753
37748
37759
37735
37732
37750
37724
37704
37727
37739
37685
37717
37719
37663
37722
37719
37575
37696
37685
37692
37676
37639
37669
37639
37648
37667
37630
37639
37652
37639
37639
37511
37631
37633
37539
37614
37603
37599
37602
37604
37605
37536
37582
37574
37525
37572
37553
37538
37554
37543
37543
37541
37535
37530
37351
37519
37551
37428
37519
37519
37412
37503
37508
37447
37493
37460
37455
37476
37465
37436
37459
37374
37446
37434
37450
37344
37435
37407
37405
37407
37383
37415
37205
37383
37367
37396
37239
37383
37366
37357
37216
37357
37356
37335
37351
37327
37342
37263
37327
37296
37310
37127
37311
37317
37142
37307
37308
37247
37287
37252
37271
37054
37255
37284
37175
37255
37212
37232
37151
37233
37209
37229
37092
37228
37183
37212
37109
37207
37174
37194
36975
37180
37176
37175
37132
37140
37157
37148
37158
37135
37116
37124
37142
37110
37111
36943
37116
37091
37116
37051
37098
37088
37095
37060
37083
37074
37057
37056
37071
37029
36927
37052
37054
37012
36810
37032
37004
37036
36999
36853
37014
36991
37007
36785
36998
36997
36775
36983
36989
36860
36975
36929
36959
36855
36957
36935
36943
36951
36927
36940
36851
36935
36930
36893
36906
36917
36884
36900
36782
36890
36884
36895
36815
36885
36852
36885
36692
36861
36827
36855
36764
36836
36842
36844
36821
36647
36815
36821
36828
36810
36703
36807
36804
36802
36694
36791
36780
36788
36743
36540
36770
36762
36777
36742
36701
36743
36743
36695
36743
36685
36485
36733
36693
36735
36669
36551
36698
36686
36697
36677
36579
36676
36676
36693
36663
36564
36658
36647
36663
36559
36638
36607
36647
36580
36641
36615
36643
36589
36615
36615
36615
36573
36589
36589
36588
36407
36575
36548
36572
36420
36568
36536
36559
36519
36426
36550
36548
36535
36538
36533
36525
36519
36512
36524
36516
36508
36503
36487
36497
36497
36487
36483
36467
36435
36416
36438
36463
36451
36436
36459
36443
36433
36385
36343
36421
36423
36415
36423
36401
36393
36375
36411
36405
36405
36391
36359
36331
36244
36167
36373
36125
36357
36356
36352
36342
36319
36350
36348
36349
36350
36333
36287
36274
36292
36303
36319
36322
36308
36311
36295
36285
36276
36278
36273
36282
36276
36221
36230
36215
36215
36212
36253
36236
36243
36239
36228
36221
36192
36181
36159
36038
35984
36190
36184
36183
36169
36148
36178
36172
36156
36165
36140
36103
36025
35924
36143
36141
36127
36125
36121
36124
36091
36103
36095
36084
36102
36063
36069
36038
36074
36084
36086
36081
36069
36083
36027
35917
35806
36039
36038
36038
36023
36026
36032
35991
36002
36031
36010
36007
35982
35879
35763
35978
35980
35978
35958
35975
35951
35943
35879
35948
35952
35948
35909
35949
35934
35899
35877
35709
35907
35901
35909
35900
35892
35900
35895
35884
35887
35871
35873
35859
35861
35862
35856
35831
35827
35839
35829
35827
35822
35836
35821
35823
35823
35807
35819
35803
35799
35536
35631
35618
35594
35731
35743
35764
35769
35767
35773
35724
35716
35725
35719
35708
35687
35719
35699
35703
35687
35677
35660
35717
35695
35661
35644
35649
35662
35678
35663
35646
35655
35661
35663
35633
35633
35627
35615
35605
35591
35543
35524
35452
35431
35548
35560
35563
35557
35535
35500
35497
35495
35495
35512
35524
35510
35463
35462
35398
35327
35292
35281
35263
35374
35375
35423
35359
35425
35421
35399
35437
35428
35399
35386
35319
35306
35198
35205
35263
35455
35452
35450
35447
35401
35398
35438
35438
35430
35423
35356
35282
35191
35144
35205
35142
35222
35188
35142
35143
35372
35358
35362
35348
35343
35308
35311
35351
35348
35335
35319
35274
35209
35159
35044
35044
35309
35294
35295
35244
35268
35268
35285
35276
35247
35231
35197
35147
35079
35030
35028
35236
35222
35237
35215
35215
35197
35197
35185
35204
34923
34943
34939
34991
35028
35013
35011
35034
35095
35108
35119
35111
35079
35024
34997
34881
34860
35111
35100
35100
35092
35079
35059
35070
35098
35068
35061
35028
35036
35037
35026
35016
35001
34956
34934
34778
35013
35034
34979
34970
34948
34951
34940
34935
34926
34942
34933
34940
34919
34946
34951
34940
34943
34886
34870
34865
34878
34887
34875
34871
34855
34881
34904
34881
34863
34823
34852
34834
34823
34749
34851
34844
34829
34838
34820
34805
34808
34783
34767
34794
34791
34785
34799
34795
34778
34743
34724
34743
34733
34718
34717
34723
34756
34750
34740
34724
34715
34701
34689
34659
34529
34703
34714
34695
34687
34679
34641
34690
34687
34690
34663
34666
34658
34652
34649
34649
34639
34643
34603
34596
34567
34514
34502
34564
34551
34539
34498
34418
34412
34567
34566
34567
34567
34535
34522
34540
34563
34559
34548
34527
34516
34489
34402
34311
34510
34511
34503
34487
34455
34502
34451
34255
34469
34471
34477
34466
34471
34463
34460
34461
34428
34431
34430
34404
34399
34391
34431
34439
34431
34424
34431
34422
34419
34409
34402
34376
34367
34353
34335
34275
34176
34151
34359
34362
34351
34311
34308
34349
34340
34324
34311
34295
34304
34277
34275
34268
34268
34250
34277
34281
34263
34263
34241
34230
34207
34149
34210
34232
34210
34183
34140
34116
34071
34006
33972
34196
34207
34215
34196
34167
34183
34201
34174
34151
34080
33964
34169
34153
34159
34156
34135
34102
34154
34151
34107
33956
33852
33828
34123
34116
34077
34085
34120
34088
34041
34023
34022
34031
34007
33974
33857
34071
34052
34055
34046
33996
34022
34054
34047
34015
33966
33884
33772
34019
34007
33991
33997
33990
33935
33979
33995
33988
33955
33918
33847
33764
33759
33679
33941
33947
33937
33876
33895
33934
33925
33929
33918
33911
33897
33858
33828
33791
33588
33876
33863
33853
33831
33852
33707
33851
33799
33822
33543
33824
33836
33781
33826
33783
33811
33807
33749
33753
33789
33799
33655
33769
33767
33775
33727
33735
33755
33749
33745
33733
33719
33732
33748
33634
33723
33703
33719
33532
33703
33717
33543
33693
33660
33641
33682
33639
33659
33687
33631
33606
33663
33671
33585
33655
33636
33607
33636
33603
33594
33633
33578
33578
33615
33573
33543
33603
33561
33582
33580
33553
33572
33591
33555
33554
33585
33578
33482
33575
33572
33506
33557
33529
33535
33260
33556
33527
33470
33543
33559
33281
33532
33543
33425
33524
33532
33477
33514
33467
33484
33230
33496
33516
33397
33495
33491
33451
33495
33412
33483
33462
33503
33406
33484
33459
33471
33469
33362
33460
33425
33476
33391
33460
33444
33451
33431
33278
33437
33437
33396
33455
33431
33263
33439
33439
33375
33422
33412
33387
33431
33399
33119
33429
33391
33426
33356
33415
33368
33391
33135
33415
33422
33284
33411
33367
33381
33414
33343
33380
33123
33404
33373
33377
33199
33399
33343
33391
33287
33382
33390
33348
33383
33242
33389
33362
33396
33300
33375
33333
33386
33287
33368
33358
33363
33182
33375
33351
33372
33323
33380
33367
33378
33298
33373
33363
33383
33281
33372
33342
33383
33168
33367
33329
33311
33367
33319
33342
33108
33370
33376
33300
33366
33317
33359
33361
33362
33344
33348
33105
33364
33374
33296
33371
33346
33377
33287
33371
33335
33375
33255
33363
33355
33372
33244
33381
33365
33373
33089
33371
33372
33177
33381
33383
33234
33367
33335
33367
33203
33380
33375
33340
33138
33375
33381
33343
33102
33375
33375
33303
33380
33404
33303
33388
33351
33382
33111
33393
33415
33295
33400
33383
33365
33388
33371
33308
33404
33415
33239
33410
33426
33339
33414
33388
33396
33406
33373
33367
33423
33437
33131
33382
33412
33429
33393
33385
33443
33396
33414
33148
33450
33444
33303
33451
33450
33413
33445
33428
33444
33453
33463
33468
33355
33471
33427
33485
33420
33196
33477
33443
33494
33361
33487
33458
33486
33362
33489
33455
33503
33236
33511
33500
33478
33511
33507
33534
33331
33519
33535
33287
33525
33524
33279
33543
33543
33541
33534
33559
33327
33546
33579
33405
33588
33588
33462
33581
33591
33407
33575
33602
33596
33542
33522
33602
33618
33380
33596
33605
33612
33596
33606
33638
33636
33543
33639
33660
33615
33652
33607
33607
33644
33633
33607
33681
33639
33621
33679
33652
33670
33415
33695
33701
33426
33711
33711
33671
33725
33700
33711
33479
33735
33690
33710
33745
33703
33739
33532
33756
33740
33734
33767
33743
33780
33482
33782
33799
33518
33815
33799
33577
33829
33829
33721
33826
33816
33794
33831
33796
33835
33542
33849
33871
33693
33879
33822
33867
33638
33889
33913
33809
33886
33852
33885
33909
33895
33935
33874
33924
33893
33925
33938
33951
33959
33931
33957
33925
33955
33699
33980
33943
33975
33987
33983
34007
33949
34012
34007
33975
34031
34006
34034
33894
34047
34014
34034
34055
34022
34055
34087
34068
34036
33788
34109
34082
34075
34114
34074
34104
33903
34132
34146
34111
34155
34151
34167
34125
34182
34143
34198
34116
34194
34148
34188
33973
34209
34175
34205
34235
34191
34234
34005
34247
34263
34180
34278
34201
34260
34281
34273
34310
34223
34308
34239
34301
34015
34324
34337
34311
34346
34279
34311
34354
34295
34358
34076
34395
34338
34396
34351
34406
34391
34431
34320
34435
34364
34427
34126
34453
34471
34463
34182
34468
34412
34488
34474
34287
34502
34485
34530
34453
34524
34536
34551
34464
34562
34526
34556
34567
34518
34578
34588
34551
34586
34284
34608
34644
34514
34638
34591
34652
34507
34662
34615
34684
34599
34702
34658
34695
34373
34710
34734
34591
34733
34703
34727
34476
34759
34730
34751
34783
34770
34791
34751
34801
34794
34823
34787
34697
34820
34804
34861
34749
34852
34794
34878
34831
34860
34886
34852
34879
34742
34919
34838
34902
34919
34901
34944
34746
34944
34966
34894
34949
34933
34999
34852
34989
34924
34980
34839
34999
35028
34982
35015
35035
35025
35015
35040
35035
35067
34802
35017
35079
34964
35078
35037
35125
35031
35111
35079
35130
35047
35135
35135
35095
35151
34959
35170
35095
35175
34903
35181
35125
35215
35172
34871
35231
35157
35238
34887
35244
35261
35223
35255
35201
35277
35135
35291
35263
35298
35253
35301
35324
35293
35319
35057
35335
35300
35373
35269
35375
35371
35365
35381
35253
35393
35320
35422
35399
35253
35431
35383
35450
35399
35454
35455
35393
35479
35423
35487
35441
35503
35447
35505
35510
35509
35511
35258
35546
35463
35541
35231
35557
35580
35412
35583
35589
35335
35590
35623
35467
35620
35581
35628
35628
35628
35655
35591
35670
35585
35678
35380
35692
35669
35676
35706
35717
35670
35740
35428
35740
35663
35732
35463
35765
35794
35711
35791
35735
35813
35753
35804
35796
35843
35782
35835
35758
35843
35872
35847
35863
35885
35790
35887
35847
35899
35869
35911
35923
35909
35940
35898
35618
35951
35959
35891
35975
35951
35841
35991
35967
36007
35941
36007
36012
35975
36031
35875
36024
36046
36007
36030
35826
36013
36082
35799
36076
36095
36103
36092
36044
36120
36004
36133
36100
36165
36039
36162
36100
36157
35953
36180
36159
36166
36192
36148
36193
36207
36167
36231
36094
36250
36242
36181
36244
36260
36239
36258
36103
36295
36254
36315
36284
36303
36311
36324
36284
36319
36334
36260
36343
36286
36005
36359
36309
36377
36277
36383
36389
36359
36407
36383
36110
36420
36394
36444
36409
36132
36447
36442
36435
36430
36138
36471
36423
36455
36245
36476
36511
36467
36500
36503
36485
36518
36156
36538
36505
36539
36382
36548
36475
36561
36329
36567
36538
36597
36551
36601
36556
36615
36422
36629
36615
36591
36637
36660
36591
36648
36591
36670
36401
36671
36676
36700
36580
36695
36711
36646
36711
36639
36703
36739
36679
36698
36480
36748
36693
36772
36539
36772
36705
36759
36772
36772
36806
36692
36810
36773
36822
36508
36827
36847
36574
36825
36868
36610
36871
36800
36871
36544
36881
36891
36895
36577
36906
36871
36902
36589
36929
36949
36898
36946
36935
36971
36964
36735
36996
36914
36983
36991
37010
37019
36999
36716
37023
37007
37047
36957
37043
37044
37069
37024
37065
37048
37095
37085
36927
37101
37050
37113
36970
37127
37078
37127
36807
37119
37161
36967
37179
37175
37133
37173
37164
37183
37189
37162
37223
37028
37214
37243
37175
37236
37212
37221
37250
37223
37276
37287
37271
37295
37114
37310
37319
37284
37317
37319
37324
37310
37339
37332
37346
37306
37361
37303
37364
37086
37382
37382
37383
37404
37406
37364
37418
37158
37436
37383
37444
37457
37443
37474
37314
37476
37434
37487
37303
37500
37494
37490
37312
37492
37524
37542
37502
37536
37277
37556
37551
37542
37575
37582
37600
37548
37596
37543
37603
37612
37596
37623
37374
37607
37639
37639
37615
37652
37668
37639
37646
37687
37678
37699
37623
37698
37663
37709
37708
37735
37737
37694
37740
37743
37765
37741
37779
37767
37781
37665
37786
37791
37807
37787
37812
37807
37831
37671
37835
37828
37847
37743
37864
37863
37832
37876
37852
37884
37671
37890
37853
37925
37862
37914
37886
37922
37652
37935
37903
37943
37703
37956
37971
37738
37959
37987
37983
37967
38013
37767
38004
38021
37772
38033
37996
38038
37911
38055
38007
38063
37870
38071
38087
38023
38088
38087
38119
38087
38115
38111
38135
38095
38127
38140
38160
38072
38160
38166
38151
38171
38171
38205
38166
38199
38198
38215
38208
38039
38229
38191
38236
38079
38233
38200
38249
37971
38266
38223
38273
38055
38284
38237
38311
38199
38311
38279
38319
38180
38332
38300
38327
38031
38338
38300
38352
38052
38370
38319
38383
38391
38389
38407
38372
38391
38407
38428
38365
38438
38449
38463
38437
38171
38459
38476
38478
38279
38479
38463
38503
38473
38183
38516
38471
38504
38237
38534
38551
38449
38541
38533
38555
38506
38567
38501
38572
38572
38567
38604
38547
38604
38597
38627
38540
38628
38608
38634
38542
38638
38599
38663
38587
38663
38607
38679
38654
38695
38692
38692
38703
38660
38705
38663
38708
38722
38676
38663
38737
38694
38764
38711
38751
38741
38772
38756
38775
38773
38796
38724
38791
38733
38813
38746
38820
38801
38791
38836
38839
38772
38853
38751
38847
38859
38876
38868
38783
38878
38870
38903
38862
38895
38866
38915
38689
38918
38846
38919
38825
38940
38887
38959
38935
38653
38965
38916
38959
38631
38975
38919
38998
38980
38718
39006
38986
39017
38989
39015
39023
38957
39037
39015
38716
39060
39007
39073
39047
38842
39068
39027
39094
38997
39095
39069
39109
39051
39100
39065
39115
39114
39110
39152
39023
39135
39116
39153
39098
39162
39143
39172
39111
39156
39101
39192
39105
39194
39184
39151
39196
39023
39212
39135
39221
39079
39223
39205
39214
39224
39212
39255
39212
38902
39254
39205
39262
38993
39255
39223
39272
39186
39281
39215
39289
39080
39289
39236
39311
38964
39319
39246
39319
39311
39317
39349
39175
39342
39358
39163
39355
39325
39360
39058
39368
39325
39348
39368
39362
39390
39051
39382
39331
39399
39403
39390
39418
39396
39044
39429
39335
39425
39036
39424
39431
39399
39454
39459
39401
39448
39380
39463
39079
39463
39473
39415
39463
39422
39479
39079
39484
39404
39469
39496
39497
39515
39431
39495
39452
39510
39204
39513
39525
39511
39516
39520
39460
39526
39406
39528
39476
39529
39519
39520
39538
39379
39538
39447
39524
39541
39495
39504
39555
39466
39547
39166
39548
39458
39551
39205
39559
39535
39551
39138
39556
39572
39527
39199
39558
39580
39564
39288
39572
39498
39573
39175
39559
39587
39559
39568
39558
39575
39597
39503
39588
39223
39587
39604
39521
39594
39572
39613
39559
39584
39567
39606
39582
39302
39594
39503
39615
39582
39604
39598
39535
39602
39445
39606
39545
39602
39204
39600
39623
39559
39604
39526
39614
39209
39583
39608
39615
39615
39531
39615
39240
39618
39537
39625
39535
39617
39610
39591
39622
39335
39616
39636
39588
39620
39591
39635
39579
39623
39621
39543
39637
39577
39611
39615
39625
39623
39400
39623
39541
39626
39348
39629
39532
39638
39431
39634
39546
39633
39559
39617
39626
39534
39631
39521
39623
39575
39636
39606
39228
39629
39559
39639
39599
39615
39618
39569
39631
39231
39614
39639
39365
39621
39559
39604
39628
39556
39628
39469
39615
39538
39618
39216
39615
39610
39604
39615
39547
39616
39259
39605
39623
39553
39607
39607
39620
39565
39609
39594
39533
39611
39303
39597
39623
39592
39269
39604
39500
39571
39593
39618
39196
39504
39542
39551
39562
39601
39559
39612
39365
39581
39515
39599
39327
39595
39506
39591
39298
39586
39508
39578
39420
39585
39559
39583
39569
39492
39525
39573
39580
39356
39559
39576
39564
39545
39577
39566
39466
39570
39134
39542
39563
39143
39494
39559
39138
39547
39550
39541
39457
39551
39532
39431
39540
39118
39516
39537
39167
39530
39532
39111
39518
39524
39431
39518
39526
39367
39515
39426
39501
39140
39500
39505
39124
39495
39460
39500
39076
39490
39501
39391
39484
39417
39469
39493
39431
39491
39373
39471
39412
39463
39464
39462
39481
39380
39452
39357
39465
39314
39462
39396
39452
39167
39441
39359
39431
39431
39374
39452
39387
39429
39414
39335
39419
39279
39422
39426
39318
39402
39322
39404
39227
39404
39326
39398
39367
39394
39378
39407
39241
39391
39285
39383
38951
39350
39383
39247
39375
39287
39367
39285
39359
39351
39359
39364
39317
39362
39142
39343
39303
39327
39356
39279
39351
39254
39347
39271
39343
39060
39334
39272
39341
39325
39308
39323
39338
39271
39333
39130
39319
39223
39332
39031
39324
39255
39332
39175
39308
39300
39327
39319
39175
39311
39258
39326
39290
39277
39298
39215
39318
39175
39303
39231
39312
39059
39305
39317
39231
39311
39220
39316
38919
39295
39303
39095
39284
39306
38867
39287
39311
38916
39245
39307
39086
39295
39204
39311
39063
39297
39303
39279
39303
39201
39319
39295
39087
39306
39219
39309
39271
39300
39303
39206
39307
38884
39303
39308
39236
39306
39231
39313
39031
39207
39317
38965
39252
39330
39329
39217
39324
39313
39226
39261
39317
39310
39296
39319
39225
39334
39325
39227
39327
39001
39330
39313
39310
39327
39310
39363
39267
39332
39346
39046
39341
39360
39100
39342
39350
39332
39356
39263
39361
39047
39348
39359
39271
39351
39376
39319
39363
39286
39370
38951
39374
39302
39373
39084
39370
39319
39397
39308
39393
39377
39399
39375
38999
39389
39324
39407
38981
39415
39340
39414
39151
39415
39445
39317
39420
39339
39428
39236
39431
39348
39439
39407
39022
39454
39362
39464
39135
39453
39431
39471
39055
39474
39431
39471
39069
39463
39420
39493
39319
39488
39405
39503
39485
39063
39507
39454
39533
39479
39519
39519
39534
39527
39095
39534
39558
39516
39548
39527
39559
39444
39558
39447
39579
39207
39575
39589
39559
39578
39489
39612
39164
39588
39611
39238
39605
39623
39504
39621
39619
39606
39629
39549
39648
39483
39652
39621
39660
39653
39609
39679
39668
39568
39684
39303
39679
39700
39657
39696
39704
39658
39701
39656
39730
39681
39722
39742
39741
39746
39322
39740
39750
39770
39764
39764
39319
39759
39796
39431
39789
39730
39786
39796
39756
39828
39750
39815
39765
39839
39791
39828
39742
39852
39422
39846
39867
39850
39420
39870
39847
39888
39572
39892
39908
39855
39902
39827
39932
39482
39918
39847
39930
39938
39884
39974
39589
39956
39876
39970
39975
39957
39996
39847
40013
39903
40021
39866
40020
39925
40045
40036
40007
40049
39923
40058
39989
40077
39663
40084
40039
40090
40096
40019
40123
39999
40108
40018
40130
39687
40122
40123
40156
40162
40057
40159
40159
40056
40167
40181
40106
40199
40090
40199
40172
40231
40155
40234
40191
40255
40220
40245
40251
40279
40244
39837
40292
40183
40300
40188
40297
40318
40235
40332
40292
40007
40351
40349
40365
40351
39960
40364
40348
40391
40257
40395
40410
40383
40407
40423
40346
40436
40447
40358
40452
40068
40448
40482
40028
40436
40499
40029
40473
40530
40436
40527
40423
40549
40171
40540
40555
40392
40580
40516
40584
40094
40591
40607
40468
40605
40520
40617
40387
40637
40573
40663
40566
40663
40636
40679
40647
40687
40594
40708
40509
40719
40631
40734
40495
40724
40703
40735
40755
40676
40775
40775
40668
40761
40771
40687
40701
40798
40830
40836
40839
40847
40871
40538
40868
40860
40879
40876
40875
40855
40908
40911
40927
40884
40939
40939
40935
40962
40870
40967
40875
40987
40583
40983
41015
40929
41015
40909
41031
41033
41022
41062
41055
40990
41071
41086
41017
41088
40620
41055
41117
40671
41117
41151
41135
41151
41090
41140
41166
41125
41191
40863
41199
41123
41196
41209
41127
41240
40807
41254
41199
41271
40789
41275
41292
41246
41312
41199
41324
40830
41291
41348
41300
41351
41260
41381
41372
41366
41407
40949
41402
41431
41310
41418
41423
41445
41430
41454
41345
41468
41351
41476
41359
41499
41156
41511
41398
41530
41421
41519
41422
41559
41548
41377
41548
41556
41563
41582
41288
41589
41479
41621
41523
41615
41599
41636
41612
41647
41604
41670
41645
41157
41663
41674
41594
41701
41654
41695
41709
41679
41732
41735
41754
41735
41767
41753
41662
41711
41764
41767
41756
41809
41573
41807
41724
41828
41830
41471
41837
41751
41871
41461
41861
41799
41879
41734
41891
41830
41916
41666
41903
41917
41927
41942
41430
41940
41835
41969
41967
41517
41978
41979
41999
41999
41991
41944
42029
41725
42024
41940
42048
41521
42063
42028
42069
41662
42079
42041
42106
42111
41845
42099
42081
42141
42119
41716
42146
42071
42164
41925
42167
42132
42172
42187
41871
42195
42214
42199
42206
42221
42119
42244
42245
42235
42271
42031
42268
42171
42307
41972
42295
42276
42244
42311
42311
41951
42321
42346
41860
42327
42314
42308
42391
42391
42391
41906
42383
42302
42407
42375
42412
42404
42438
42288
42431
42357
42462
42402
42457
42393
42482
42471
42139
42495
42497
42503
42535
42223
42503
42503
42547
42532
42549
42544
42557
42549
42042
42564
42503
42593
42168
42591
42607
42610
42100
42605
42612
42632
42575
42246
42652
42612
42667
42655
42668
42671
42615
42694
42631
42682
42676
42692
42728
42492
42724
42719
42626
42751
42558
42759
42714
42772
42767
42237
42758
42754
42799
42487
42802
42672
42818
42743
42807
42811
42836
42831
42834
42821
42799
42877
42629
42863
42767
42877
42732
42895
42783
42916
42911
42534
42895
42892
42892
42935
42831
42940
42946
42950
42959
42951
42695
42972
42871
42994
42997
42550
42983
42978
42889
43015
43015
42751
43006
43015
42957
43062
43044
42749
43044
42976
43071
42779
43064
42960
43092
43095
42887
43093
43110
43096
43007
43130
43134
42982
43135
43127
43102
43157
43076
43156
43151
43111
43185
43094
43172
43141
43206
43201
43071
43206
43200
43154
43230
42986
43231
43231
43127
43244
43266
43178
42732
43254
43214
43287
43284
42853
43271
43202
43304
43319
43316
43332
43335
43341
43343
43347
43351
43340
43310
43223
43236
43176
43087
43207
43210
43015
43357
43396
43389
43423
43411
43430
43425
43431
43430
43427
43404
43341
43341
43364
43387
43359
43463
43380
43373
43455
43475
43445
43523
43511
43527
43527
43527
43540
43444
43461
43567
43581
43470
43469
43564
43580
43581
43503
43523
43602
43643
43647
43618
43567
43600
43606
43514
43359
43236
43678
43661
43592
43178
43169
43690
43711
43718
43719
43719
43623
43615
43626
43759
43775
43764
43782
43783
43806
43796
43800
43727
43549
43289
43811
43820
43827
43827
43731
43852
43865
43866
43871
43879
43836
43569
43701
43636
43413
43903
43919
43925
43935
43940
43945
43945
43966
43961
43958
43971
43925
43951
44004
44012
44023
44007
44033
44028
43988
43807
44039
44055
44039
43974
44039
44084
44097
44107
44086
44039
43876
43628
44117
44127
44135
44140
44141
44148
44145
44130
44079
44062
44110
44199
44207
44223
44220
44228
44212
44178
44079
43959
43911
43759
43729
43743
43828
44268
43759
44291
44295
44295
44295
44220
44308
44341
44356
44362
44330
44282
43967
44359
44375
44377
44380
44311
44420
44423
44423
44160
44405
44423
44431
44348
44465
44460
44474
44472
44415
44251
43967
44487
44495
44500
44436
44533
44540
44485
44250
44020
44540
44551
44549
44500
44594
44591
44577
44245
44591
44598
44613
44525
44620
44651
44634
44482
44636
44653
44647
44663
44657
44572
44693
44708
44701
44575
44197
44719
44719
44727
44621
44743
44751
44760
44735
44733
44719
44606
44660
44771
44789
44794
44798
44793
44807
44783
44734
44784
44799
44846
44863
44867
44845
44518
44865
44870
44807
44817
44895
44906
44911
44916
44837
44468
44910
44920
44902
44845
44932
44963
44975
44974
44940
44444
44990
44978
44949
44895
44999
45004
45031
45035
45041
45002
44872
44566
45037
45055
45047
44985
45063
45087
45106
45087
45086
45118
45119
45063
44947
45111
45118
45141
45143
45000
44643
45135
45149
45156
45063
45118
45127
45182
45209
45199
45157
44710
45199
45199
45153
45217
45238
45244
45193
45102
44725
45223
45247
45207
45181
45280
45279
45276
45300
45303
45243
44845
45302
45300
45311
45307
45256
45261
45336
45346
45345
45319
44998
45351
45351
45351
45303
45381
45383
45313
45295
44917
45383
45401
45362
45306
45385
45436
45431
45421
45375
45198
45441
45431
45445
45444
45444
45447
45447
45452
45447
45389
45412
45493
45505
45507
45506
45511
45460
45366
45302
45257
45122
45052
45034
45207
45172
45475
45498
45503
45381
45375
45492
45435
45402
45156
45103
45262
45573
45570
45575
45575
45063
45108
45278
45415
45372
45262
45076
45228
45397
45526
45604
45628
45638
45655
45652
45659
45667
45676
45670
45654
45669
45676
45669
45671
45620
45551
45567
45552
45597
45527
45660
45593
45566
45626
45636
45613
45687
45668
45663
45693
45735
45673
45700
45700
45619
45479
45207
45733
45735
45735
45735
45727
45671
45674
45693
45753
45777
45773
45771
45775
45772
45788
45783
45781
45783
45783
45784
45800
45761
45732
45727
45677
45521
45492
45791
45796
45799
45799
45804
45807
45782
45769
45762
45726
45749
45771
45788
45838
45842
45847
45825
45754
45759
45479
45831
45831
45825
45848
45831
45847
45853
45844
45831
45860
45852
45861
45868
45854
45871
45860
45771
45893
45839
45788
45628
45497
45703
45751
45860
45892
45887
45877
45885
45903
45895
45889
45895
45893
45860
45791
45807
45807
45798
45799
45805
45855
45885
45886
45900
45909
45903
45927
45901
45897
45911
45908
45926
45912
45900
45908
45911
45914
45902
45919
45915
45915
45911
45909
45903
45898
45895
45911
45883
45821
45415
45870
45879
45863
45864
45821
45798
45855
45847
45821
45863
45872
45831
45860
45860
45866
45872
45868
45871
45862
45863
45862
45869
45863
45861
45861
45858
45863
45858
45844
45815
45846
45841
45845
45831
45831
45847
45823
45758
45344
45819
45812
45820
45797
45799
45777
45711
45783
45804
45806
45804
45794
45740
45719
45702
45521
45436
45765
45761
45750
45754
45748
45683
45744
45759
45766
45772
45763
45759
45764
45751
45719
45732
45663
45654
45636
45564
45340
45256
45716
45697
45695
45689
45702
45679
45654
45638
45635
45631
45666
45677
45684
45650
45660
45659
45655
45596
45552
45531
45415
45415
45366
45447
45492
45575
45516
45333
45206
45591
45575
45575
45575
45569
45572
45567
45549
45542
45480
45477
45476
45559
45412
45079
45099
45079
45510
45510
45512
45523
45502
45497
45488
45483
45447
45419
45396
45460
45478
45466
45444
45447
45402
45409
45279
45053
45415
45414
45412
45413
45368
45407
45412
45399
45367
45126
45022
45351
45362
45359
45339
45284
45263
45290
45340
45319
45325
45319
45315
45308
45258
45213
45082
44863
45260
44815
44829
45247
45237
45236
45213
45199
45215
45181
45182
45178
45127
45139
45148
45157
45173
45167
45172
45159
45148
45135
45134
45107
44995
44775
45092
45079
45063
45034
45030
45052
45063
45047
45054
44982
45023
45005
45004
44999
44988
44928
44988
44999
44716
44967
44950
44935
44930
44910
44906
44897
44831
44877
44908
44892
44783
44574
44852
44847
44774
44836
44842
44686
44823
44799
44781
44739
44699
44783
44767
44671
44413
44335
44487
44719
44700
44693
44685
44679
44661
44637
44593
44588
44583
44631
44636
44619
44621
44607
44551
44540
44423
44263
44286
44238
44223
44295
44224
44287
44202
44278
44183
44111
44457
44455
44437
44385
44364
44382
44419
44420
44399
44354
44262
44036
43964
43911
44335
44316
44324
44310
44252
44273
44286
44286
44240
43847
44251
44230
44223
44221
44194
44140
44125
44178
44194
44174
44151
44070
44137
44121
44061
44119
44097
44030
43974
43879
43717
44039
44037
44029
44013
43990
43955
43953
43975
43978
43969
43960
43903
43895
43858
43909
43886
43850
43860
43791
43854
43847
43836
43847
43847
43838
43815
43815
43783
43799
43783
43764
43765
43756
43727
43685
43591
43482
43701
43671
43679
43652
43655
43653
43645
43630
43620
43620
43591
43543
43527
43580
43576
43567
43518
43431
43235
43527
43508
43495
43474
43474
43461
43457
43455
43437
43412
43399
43415
43399
43383
43271
43006
43358
43343
43335
43332
43316
43263
43304
43305
43296
43271
43215
43175
43242
43215
43218
42894
43205
43175
43177
43173
43132
43171
42993
43142
43127
43117
43105
43079
43092
43068
42746
43049
43050
43039
43036
43007
43011
43012
42996
42978
42973
42968
42957
42927
42887
42897
42924
42911
42916
42887
42886
42871
42863
42855
42826
42823
42780
42779
42765
42731
42688
42572
42452
42423
42756
42727
42711
42708
42700
42687
42668
42658
42652
42654
42652
42607
42620
42639
42608
42607
42596
42573
42561
42557
42541
42532
42503
42500
42477
42430
42363
42476
42470
42446
42415
42455
42436
42431
42415
42366
42271
42119
42214
42036
42344
42334
42332
42310
42310
42303
42295
42247
42286
42268
42151
41939
42245
42212
42233
42210
42195
42182
42187
42157
42151
42140
42089
42102
42097
42076
41983
41933
41819
42063
42054
42047
41991
42036
42036
42021
42004
41969
41975
41945
41935
41854
41668
41938
41924
41911
41906
41897
41842
41845
41887
41857
41853
41828
41815
41792
41757
41714
41687
41655
41658
41578
41540
41585
41498
41409
41709
41684
41685
41633
41677
41668
41670
41663
41649
41628
41607
41570
41311
41591
41579
41532
41570
41557
41528
41479
41436
41509
41506
41479
41443
41479
41463
41320
41238
41429
41443
41383
41352
41343
41346
41391
41375
41364
41351
41332
41299
41285
41252
41255
41092
41285
41277
41267
41255
41262
41237
41223
41220
41206
41198
41197
41182
41175
41164
41148
41143
41118
41105
41095
41063
41055
41091
41076
41083
41075
41045
41055
41031
41011
41003
40988
40930
40684
40983
40967
40967
40956
40940
40928
40869
40898
40911
40906
40881
40871
40852
40830
40828
40791
40805
40758
40687
40583
40749
40602
40588
40769
40751
40756
40743
40727
40679
40692
40719
40700
40653
40423
40669
40644
40671
40530
40628
40626
40597
40615
40588
40296
40588
40538
40569
40556
40509
40397
40249
40524
40511
40487
40437
40495
40476
40455
40412
40327
40189
40435
40415
40382
40367
40391
40365
40278
40159
40348
40348
40324
40295
40327
40321
40286
40135
40275
40279
40259
40217
40244
40239
40230
40237
39879
40180
40199
39847
40150
40179
39847
40138
40151
39896
40095
40121
40115
40071
40110
39831
40063
40060
40055
39988
40033
40036
39991
39935
39999
39988
39980
39998
39943
39960
39942
39964
39815
39924
39929
39590
39853
39903
39593
39857
39875
39865
39799
39765
39821
39839
39683
39811
39814
39715
39781
39791
39674
39772
39681
39743
39423
39719
39723
39660
39703
39643
39640
39651
39621
39629
39640
39641
39620
39615
39620
39615
39582
39566
39581
39572
39564
39559
39554
39217
39533
39469
39503
39431
39493
39490
39418
39461
39458
39431
39447
39158
39396
39431
39335
39396
39329
39374
39102
39367
39292
39349
38984
39325
39245
39310
39041
39287
39293
39247
39254
39231
39241
39170
39232
39152
39196
38889
39180
39183
39148
39157
39126
39143
39036
39108
39047
39075
39079
39001
39063
38839
39037
39020
39044
39001
38839
38989
38965
38986
38967
38887
38933
38941
38887
38919
38883
38892
38884
38850
38853
38849
38839
38775
38838
38798
38603
38791
38709
38791
38646
38756
38711
38732
38607
38706
38695
38710
38660
38334
38663
38591
38658
38575
38622
38606
38620
38583
38239
38574
38535
38570
38540
38214
38527
38532
38493
38487
38483
38407
38479
38451
38351
38432
38423
38337
38407
38335
38366
38382
38319
38366
38339
38261
38029
38308
38278
38299
38287
38230
37920
38249
38209
38212
38231
38159
38208
38151
38174
38119
38162
37816
38143
38075
38123
37944
38100
38023
38092
38022
37812
38043
38014
38023
37852
38004
37985
37994
37945
37969
37948
37927
37922
37628
37909
37895
37866
37875
37839
37867
37694
37847
37770
37828
37754
37799
37799
37763
37775
37619
37743
37701
37698
37711
37726
37665
37690
37420
37656
37635
37649
37345
37630
37620
37510
37598
37549
37575
37559
37423
37198
37537
37508
37518
37480
37492
37479
37485
37447
37106
37455
37361
37423
37248
37405
37333
37380
37212
37362
37286
37348
36991
37327
37311
37255
37295
37251
37287
37146
37254
37203
37251
37179
37205
37207
37207
37166
36865
37156
37161
37139
36892
37127
37054
37106
37094
37071
37079
37044
37055
37031
37044
36815
37007
37010
36935
36983
36911
36982
36899
36935
36871
36934
36904
36615
36891
36812
36854
36550
36838
36851
36754
36815
36807
36756
36783
36591
36775
36682
36740
36535
36732
36636
36727
36677
36614
36359
36662
36633
36657
36561
36641
36564
36615
36530
36226
36570
36493
36565
36479
36197
36529
36457
36509
36469
36476
36445
36469
36423
36110
36433
36378
36423
36179
36389
36404
36271
36374
36300
36359
36276
36315
36298
36326
36268
36292
36213
36266
36183
36244
36167
36199
36219
36140
36201
35887
36167
36179
36043
36140
36160
36111
35821
36103
36047
36094
35917
36072
36075
36039
36057
35814
36031
36025
35813
36002
36007
35935
35975
35973
35965
35884
35937
35870
35921
35855
35909
35876
35895
35651
35871
35867
35823
35847
35763
35828
35546
35807
35815
35581
35783
35777
35713
35765
35675
35735
35749
35660
35703
35703
35642
35680
35684
35604
35660
35645
35655
35661
35523
35630
35556
35589
35599
35538
35567
35261
35579
35582
35487
35540
35559
35367
35532
35522
35441
35499
35519
35367
35480
35488
35425
35466
35460
35463
35423
35116
35419
35430
35292
35404
35377
35387
35196
35380
35379
35289
35354
35290
35335
35150
35335
35335
35264
35311
35271
35270
35287
35222
35286
35079
35279
35280
35239
34943
35242
35187
35207
34911
35223
35228
35142
35207
35158
35175
35178
35175
35143
35164
34948
35159
35092
35131
34855
35132
35070
35129
35075
34908
35116
35079
35111
35055
34819
35081
35046
35075
34961
35052
35055
35063
35015
34799
35041
35002
35015
34868
35020
34959
35018
34986
34730
34999
34941
34991
34729
34980
34919
34958
34646
34951
34967
34927
34709
34937
34962
34871
34935
34889
34921
34663
34922
34919
34835
34903
34854
34911
34755
34895
34895
34823
34869
34863
34883
34767
34874
34856
34879
34823
34728
34844
34823
34861
34791
34823
34823
34823
34675
34822
34786
34805
34555
34803
34819
34759
34799
34805
34759
34792
34725
34791
34748
34789
34575
34779
34724
34782
34734
34770
34774
34780
34735
34493
34758
34711
34756
34698
34749
34712
34732
34662
34735
34733
34725
34751
34719
34668
34447
34724
34692
34723
34551
34718
34671
34679
34703
34703
34687
34703
34644
34417
34694
34667
34700
34685
34535
34695
34686
34701
34674
34623
34471
34679
34660
34695
34673
34567
34674
34674
34628
34690
34628
34453
34675
34676
34671
34671
34612
34384
34671
34613
34671
34635
34479
34660
34631
34653
34524
34660
34637
34671
34583
34655
34651
34665
34580
34642
34598
34635
34514
34655
34610
34655
34487
34663
34625
34663
34606
34393
34647
34631
34641
34367
34667
34653
34615
34643
34639
34663
34510
34655
34675
34593
34655
34604
34661
34611
34660
34614
34640
34476
34657
34655
34629
34364
34649
34679
34631
34486
34662
34647
34669
34648
34473
34670
34663
34682
34642
34659
34669
34695
34598
34675
34658
34687
34620
34664
34669
34645
34663
34470
34684
34644
34695
34596
34682
34668
34695
34655
34695
34703
34671
34679
34436
34695
34654
34714
34695
34567
34700
34692
34727
34683
34471
34717
34666
34711
34581
34733
34668
34719
34591
34725
34679
34700
34502
34741
34725
34708
34445
34727
34749
34695
34735
34719
34751
34766
34695
34766
34711
34727
34759
34774
34687
34755
34772
34596
34763
34772
34543
34769
34758
34791
34780
34791
34567
34791
34783
34789
34795
34807
34565
34775
34809
34612
34821
34793
34812
34663
34823
34789
34820
34533
34823
34852
34554
34844
34846
34839
34682
34853
34854
34814
34864
34809
34857
34869
34836
34875
34711
34887
34875
34908
34866
34593
34906
34881
34872
34705
34901
34867
34907
34810
34916
34919
34895
34937
34907
34654
34927
34951
34935
34737
34949
34943
34935
34951
34927
34787
34958
34972
34965
34749
34980
34981
34966
34823
34993
34991
35004
34874
35023
34965
35036
35015
34891
35033
35004
35044
34751
35034
35063
34939
35047
35044
35070
35030
35073
35062
35100
34963
35069
35055
35103
35073
35092
35066
35115
35076
35105
35107
35127
35010
35135
35094
35145
35079
35126
35140
35158
35098
35157
35143
35174
35124
34879
35175
35174
35168
34983
35189
35201
35202
35173
35199
35182
35225
35111
35212
35173
35239
35180
34934
35228
35184
35241
35194
35254
35249
35261
35265
35269
35263
35243
35042
35238
35263
35131
35273
35234
35255
35279
35279
35305
35247
35297
35294
35317
35215
35310
35309
35330
35279
35026
35330
35335
35271
35334
35303
35354
35316
35131
35366
35356
35316
35360
35375
35345
35355
35367
35380
35397
35351
35383
35389
35397
35276
35409
35393
35358
35398
35420
35399
35423
35270
35441
35431
35449
35327
35445
35457
35332
35457
35463
35335
35463
35438
35423
35479
35429
35463
35476
35447
35478
35492
35500
35463
35476
35500
35468
35524
35365
35515
35527
35495
35527
35506
35548
35519
35543
35530
35557
35447
35551
35551
35511
35558
35572
35489
35574
35575
35546
35581
35587
35567
35298
35601
35614
35502
35615
35609
35631
35553
35621
35575
35609
35360
35634
35599
35596
35647
35607
35652
35386
35657
35655
35609
35655
35662
35647
35660
35573
35684
35623
35692
35652
35692
35685
35719
35676
35463
35708
35668
35713
35551
35711
35690
35748
35613
35734
35743
35751
35724
35732
35731
35759
35676
35761
35709
35774
35620
35775
35724
35745
35505
35784
35789
35756
35783
35782
35819
35732
35796
35806
35775
35814
35630
35821
35778
35804
35560
35831
35788
35847
35796
35538
35846
35823
35847
35684
35860
35838
35884
35828
35631
35830
35859
35606
35887
35837
35892
35779
35895
35847
35903
35775
35911
35911
35911
35887
35637
35911
35887
35935
35883
35931
35940
35887
35949
35887
35949
35901
35919
35956
35914
35963
35889
35967
35927
35975
35926
35982
35967
35990
35975
35807
35984
35983
35967
35989
35844
35989
36001
35975
36020
35996
35887
36007
36020
35983
36003
35820
36030
36004
36028
35891
36022
36003
36025
35893
36039
36036
36036
36030
35958
36047
35999
36076
36046
35946
36062
36067
36031
36055
36079
36014
35765
36086
36073
36062
36101
36020
36084
36062
36100
36063
36103
36090
36111
35985
36099
36039
36119
36047
36111
36087
36129
35876
36119
36130
36047
36133
36132
35903
36123
36148
35886
36137
36150
35948
36151
36148
36071
36151
36167
36095
36165
36103
36143
36167
36127
36157
36170
36158
36193
36132
36183
36184
36207
36167
35975
36196
36191
36156
36214
36125
36204
36171
36199
35916
36231
36175
36231
36148
35927
36224
36186
36244
36014
36257
36191
36255
36094
36268
36239
36278
36228
36273
36239
36288
36249
36283
36226
36286
36013
36291
36307
36303
36284
36324
36294
36031
36319
36276
36326
36223
36323
36288
36335
36021
36327
36372
36277
36061
36359
36313
36375
36319
36369
36341
36391
36342
36375
36324
36380
36397
36390
36414
36142
36391
36418
36318
36420
36414
36422
36418
36423
36447
36349
36438
36430
36470
36418
36455
36452
36479
36349
36481
36452
36500
36223
36445
36487
36250
36498
36513
36395
36508
36479
36529
36439
36527
36465
36518
36534
36518
36551
36455
36548
36527
36551
36276
36567
36592
36505
36585
36580
36559
36585
36556
36612
36583
36623
36595
36627
36495
36627
36623
36596
36644
36650
36653
36626
36666
36661
36636
36671
36607
36679
36669
36703
36633
36426
36711
36663
36718
36652
36725
36715
36746
36644
36743
36734
36748
36658
36767
36735
36772
36543
36775
36739
36788
36510
36801
36821
36673
36817
36771
36820
36832
36820
36852
36754
36853
36838
36844
36582
36856
36871
36691
36871
36890
36700
36881
36914
36708
36914
36935
36764
36928
36951
36901
36951
36933
36967
36829
36962
36951
36989
36947
36983
36994
36998
36996
36992
36989
36967
36975
37039
37046
37042
37045
37044
37060
37047
37054
36999
36909
36870
36782
36862
37093
37113
37107
37077
37075
37142
37148
37142
37109
37036
36850
37159
37163
37159
37148
37127
37184
37214
37209
37214
37205
37140
37117
37209
37247
37194
37204
37247
37223
37275
37279
37239
37287
37118
37292
37310
37273
37012
37317
37329
37285
37303
37351
37356
37348
37335
37228
37375
37381
37377
37338
37415
37409
37359
37252
37428
37418
37431
37404
37383
37421
37471
37461
37447
37382
37167
37476
37500
37483
37444
37511
37311
37511
37520
37550
37535
37523
37362
37569
37547
37575
37573
37575
37583
37558
37550
37581
37628
37633
37639
37639
37663
37650
37655
37628
37557
37567
37533
37583
37490
37381
37710
37716
37730
37727
37735
37735
37717
37715
37703
37727
37791
37799
37788
37793
37799
37799
37791
37783
37767
37676
37719
37654
37535
37855
37868
37556
37644
37894
37895
37895
37895
37906
37919
37918
37873
37877
37883
37895
37942
37982
37982
37998
37998
38012
37958
37951
37996
38014
38031
38033
37711
37759
37840
37870
37927
37756
38063
38082
38095
38087
38111
38113
38119
38116
38135
38132
38151
38151
38164
38172
38170
38180
38191
38194
38196
38208
38219
38221
38223
38238
38233
38240
38239
38263
38276
38279
38286
38259
38044
37978
38031
37987
38315
38342
38017
38019
38351
38362
38367
38375
38375
38383
38366
38339
38407
38422
38427
38396
38305
38175
38445
38454
38463
38448
38407
38436
38479
38495
38517
38535
38526
38532
38531
38520
38534
38535
38535
38564
38569
38484
38604
38599
38595
38618
38623
38620
38639
38647
38652
38653
38663
38675
38671
38692
38700
38687
38706
38703
38675
38686
38686
38727
38767
38748
38759
38743
38623
38436
38799
38805
38799
38811
38791
38759
38787
38847
38847
38807
38687
38520
38878
38899
38903
38901
38914
38919
38929
38919
38947
38955
38948
38967
38961
38976
38978
38996
39002
39012
39003
38729
38863
38934
38988
39020
39033
39076
39068
39078
39083
39023
39028
39087
39114
39120
39133
39132
39139
39149
39167
39164
39170
39183
39173
39191
39199
39203
39215
39222
39233
38889
39038
39252
39244
39271
39271
39270
38919
38919
38932
39300
38948
39319
38964
38966
38978
38988
39358
39363
39362
39361
39376
39388
39380
39386
39327
39376
39428
39431
39429
39431
39425
39382
39223
39102
39476
39476
39478
39483
39449
39431
39499
39521
39543
39535
39548
39548
39547
39563
39565
39588
39495
39501
39544
39562
39526
39516
39613
39624
39617
39623
39614
39599
39534
39281
39659
39665
39634
39623
39622
39687
39421
39702
39627
39718
39586
39721
39649
39744
39748
39758
39748
39716
39557
39767
39775
39783
39792
39811
39807
39815
39804
39833
39815
39840
39834
39845
39847
39789
39868
39885
39848
39814
39682
39884
39906
39898
39913
39923
39892
39918
39952
39927
39847
39962
39967
39943
39927
39908
39986
39993
40015
40013
40020
40023
40029
40031
40006
40007
39956
39862
40071
40060
40007
40070
40092
40102
40100
40111
40119
40116
40135
40131
40116
40092
40050
39859
39872
39930
40167
40175
40175
40166
40166
40142
40140
40127
40176
40199
40231
40236
40244
40242
40256
40266
40275
40271
40260
40239
40276
40263
40277
40325
40314
40311
40318
40284
40303
40294
40143
39993
40341
40351
40362
40332
40358
40297
40391
40396
40419
40421
40412
40414
40396
40359
40233
40068
40424
40438
40455
40449
40455
40431
40404
40397
40446
40487
40514
40511
40516
40525
40522
40526
40536
40545
40549
40542
40557
40550
40556
40527
40482
40487
40439
40326
40581
40583
40597
40605
40615
40611
40609
40564
40564
40562
40559
40619
40663
40661
40635
40669
40673
40683
40679
40687
40685
40690
40702
40711
40716
40727
40727
40731
40710
40694
40653
40695
40701
40740
40756
40759
40759
40759
40774
40778
40484
40605
40522
40595
40615
40647
40709
40711
40757
40796
40828
40844
40845
40755
40764
40783
40775
40836
40798
40791
40776
40793
40783
40805
40798
40807
40823
40813
40834
40851
40828
40880
40884
40909
40928
40930
40938
40932
40924
40894
40954
40804
40951
40967
40965
40961
40959
40967
40923
40935
40908
40908
40941
41013
41012
40980
40853
40580
41035
41031
41039
40956
40959
40980
40978
41069
41079
41071
41066
41001
40633
41079
41079
41092
41009
41103
41101
41111
41059
41116
41055
41126
40737
41116
41128
41119
41116
41068
41061
41090
41153
41166
41166
41179
41175
41192
41198
41030
41186
41164
41221
41196
40917
41199
41174
41223
41003
41223
41238
41141
41247
41244
41223
40887
41258
41183
41271
41215
41151
41291
41287
41209
41305
41317
41303
41123
41301
41310
41295
41327
41335
41250
40914
41335
41341
41327
41375
41350
41079
41354
41356
41383
41380
41274
40967
41391
41391
41351
41393
41418
41391
41004
41412
41397
41439
41284
41447
41437
41453
41461
41157
41444
41460
41391
41495
41501
41467
41171
41503
41475
41519
41490
41509
41499
41526
41538
41478
41528
41538
41524
41563
41535
41300
41556
41528
41575
41559
41307
41591
41541
41595
41583
41367
41602
41611
41604
41329
41628
41596
41631
41239
41633
41580
41639
41653
41662
41607
41669
41289
41671
41685
41702
41581
41679
41694
41674
41703
41639
41709
41708
41671
41735
41717
41580
41751
41735
41685
41764
41767
41671
41775
41753
41721
41799
41796
41727
41402
41804
41783
41722
41827
41804
41562
41815
41818
41811
41837
41663
41845
41837
41799
41871
41825
41877
41874
41847
41887
41892
41888
41577
41908
41895
41835
41913
41860
41513
41916
41895
41933
41917
41935
41951
41934
41925
41964
41951
41715
41967
41959
41919
41991
41975
41758
41990
42005
42010
41983
41748
42015
41991
42026
42031
41853
42032
42042
41964
42054
42068
41982
41646
42055
42026
42073
41743
42071
42075
42020
42075
41821
42090
42084
42100
42119
42111
42015
41759
42131
42132
42063
42146
42156
42079
41767
42148
42158
42148
42169
41927
42172
42172
42184
42167
41812
42188
42170
42215
42204
41854
42203
42227
42158
42223
42173
42247
42223
41975
42247
42239
42170
42268
42267
42159
41991
42270
42228
42287
42277
42140
41934
42298
42302
42284
42247
42308
42320
42270
41934
42311
42311
42270
42363
42325
42116
42335
42343
42345
42295
42365
42356
42313
42023
42083
42381
42383
42372
42311
42393
42402
42380
42127
42405
42407
42388
42413
42407
42046
42415
42424
42430
42425
42446
42447
42462
42446
42467
42460
42454
42460
42455
42474
42463
42439
42351
42287
42175
42246
42197
42475
42497
42495
42477
42500
42500
42495
42503
42503
42490
42487
42503
42503
42527
42519
42535
42533
42119
42229
42255
42196
42407
42503
42548
42559
42570
42549
42561
42534
42527
42529
42561
42513
42524
42575
42562
42524
42503
42513
42579
42560
42554
42567
42605
42606
42605
42622
42613
42622
42596
42588
42581
42347
42628
42615
42631
42630
42636
42636
42631
42638
42637
42305
42431
42503
42607
42564
42620
42581
42567
42578
42545
42463
42503
42558
42551
42471
42525
42479
42534
42496
42343
42375
42684
42335
42668
42679
42686
42680
42684
42693
42695
42688
42696
42697
42689
42692
42437
42609
42655
42699
42710
42708
42719
42721
42718
42727
42727
42716
42726
42723
42714
42717
42735
42709
42687
42695
42662
42503
42357
42724
42726
42735
42727
42733
42724
42727
42718
42732
42743
42722
42727
42718
42724
42719
42685
42708
42751
42734
42711
42711
42726
42737
42698
42699
42714
42721
42743
42744
42759
42759
42751
42759
42743
42748
42754
42524
42655
42736
42783
42772
42779
42783
42743
42741
42695
42743
42755
42751
42756
42759
42759
42759
42752
42759
42759
42758
42759
42772
42758
42759
42758
42767
42749
42751
42737
42711
42710
42759
42735
42750
42726
42719
42701
42719
42742
42772
42779
42759
42773
42759
42775
42772
42768
42767
42759
42759
42759
42770
42759
42775
42754
42716
42759
42769
42751
42756
42756
42743
42712
42631
42495
42748
42748
42740
42750
42749
42756
42737
42693
42685
42742
42756
42759
42735
42733
42719
42741
42707
42628
42710
42710
42735
42737
42732
42734
42727
42693
42666
42663
42671
42685
42707
42706
42711
42707
42702
42701
42709
42688
42695
42705
42700
42703
42693
42700
42388
42440
42382
42405
42340
42685
42470
42404
42364
42599
42407
42424
42454
42471
42520
42575
42631
42636
42636
42633
42644
42647
42631
42643
42630
42631
42601
42562
42585
42596
42599
42607
42588
42583
42591
42595
42582
42575
42575
42239
42375
42486
42557
42569
42541
42487
42498
42533
42543
42530
42524
42229
42341
42434
42503
42503
42526
42503
42519
42444
42479
42477
42476
42479
42230
42244
42324
42407
42435
42458
42471
42455
42394
42434
42430
42418
42439
42422
42416
42415
42134
42293
42375
42375
42375
42359
42375
42389
42374
42355
42204
42365
42347
42068
42079
42274
42287
42311
42327
42320
42322
42311
42318
42297
42300
42286
42291
42290
42279
42286
42270
42220
42213
42214
42247
42237
42235
42220
42225
42204
42198
42211
41862
42183
42182
41855
41991
42137
42163
42167
42174
42145
42138
42129
42124
42108
41986
41967
41945
41919
41852
41773
41764
42071
42071
42060
42061
42047
42044
42039
42030
42023
42024
42012
42007
41983
41954
41948
42009
41990
41980
41972
41967
41953
41949
41956
41952
41935
41937
41923
41913
41903
41852
41863
41847
41834
41830
41830
41831
41807
41858
41838
41839
41829
41833
41800
41785
41707
41563
41502
41772
41772
41758
41767
41746
41745
41735
41727
41721
41724
41705
41693
41677
41666
41653
41623
41623
41636
41628
41591
41639
41623
41625
41572
41563
41560
41567
41551
41549
41548
41513
41522
41495
41527
41524
41512
41515
41488
41495
41468
41477
41407
41311
41283
41300
41270
41270
41198
41233
41206
41390
41381
41367
41351
41351
41162
41039
41045
41319
41318
41300
41300
41278
41276
41267
40989
40962
40966
40984
41076
40996
41012
41059
41036
41031
40965
41013
40967
40868
40875
40967
40962
40938
40967
41055
41044
41060
41060
41065
41047
41051
41028
41020
41023
40967
40967
40938
40887
40892
40879
40791
40839
40861
40869
40881
40884
40885
40876
40868
40878
40855
40811
40791
40807
40807
40797
40791
40777
40767
40747
40575
40679
40729
40719
40701
40703
40703
40684
40676
40665
40667
40654
40639
40620
40604
40605
40510
40583
40567
40557
40543
40544
40523
40519
40495
40479
40471
40470
40486
40482
40445
40430
40407
40351
40258
40319
40292
40271
40175
40134
40140
40351
40327
40314
40317
40319
40293
40279
40263
40247
40223
40259
40247
40228
40232
40157
40123
40012
40175
40175
40154
40151
40125
40123
40093
40071
40114
40095
40065
40004
39940
39828
39838
40034
40009
39999
39971
39972
39975
39967
39973
39956
39943
39937
39933
39918
39884
39877
39870
39861
39847
39822
39794
39788
39748
39734
39695
39613
39551
39761
39770
39742
39751
39733
39724
39708
39708
39693
39679
39670
39663
39653
39641
39628
39637
39623
39599
39589
39591
39358
39382
39404
39471
39500
39524
39520
39511
39508
39490
39486
39463
39452
39448
39428
39410
39397
39396
39399
39388
39383
39369
39366
39332
39330
39327
39317
39303
39290
39273
39276
39271
39111
39153
39175
39207
39191
39175
39189
39185
39191
39175
39175
39142
39133
39093
39101
39084
39079
39075
39063
39047
39039
39031
39025
39015
39030
39020
39001
38994
38998
38985
38967
38948
38933
38919
38919
38911
38900
38883
38856
38815
38759
38855
38841
38831
38822
38799
38791
38789
38800
38778
38774
38743
38698
38676
38592
38567
38595
38646
38639
38633
38638
38639
38613
38607
38578
38575
38574
38573
38561
38556
38567
38562
38564
38559
38555
38539
38517
38493
38475
38487
38463
38453
38455
38436
38447
38425
38407
38399
38268
38297
38356
38345
38351
38337
38330
38310
38303
38239
38179
38122
38271
38266
38259
38251
38247
38239
38068
38086
38071
38057
38095
38085
37999
38159
38151
38140
38126
38119
38119
38107
38095
38093
38068
38063
38055
38050
38032
38028
38023
38005
37999
37995
37997
37997
37967
37938
37948
37939
37934
37919
37921
37916
37893
37880
37870
37868
37852
37850
37859
37831
37823
37812
37796
37796
37775
37770
37769
37767
37767
37748
37735
37725
37700
37691
37695
37687
37668
37653
37607
37487
37502
37635
37610
37605
37599
37591
37580
37575
37566
37556
37543
37528
37511
37513
37511
37505
37484
37487
37463
37442
37455
37451
37446
37415
37395
37370
37341
37279
37367
37355
37357
37335
37329
37317
37322
37303
37310
37292
37263
37246
37230
37202
37178
37175
37093
37226
37222
37203
37193
36999
37023
36973
37141
37141
37146
37141
37123
37109
37099
36910
36933
36973
37022
37022
37039
37052
37039
37041
37004
36999
36981
36964
36966
36945
36942
36932
36917
36910
36910
36899
36871
36871
36871
36862
36844
36838
36850
36841
36825
36820
36817
36807
36794
36785
36774
36767
36575
36748
36743
36735
36719
36701
36487
36690
36505
36559
36603
36615
36647
36644
36647
36603
36579
36592
36600
36575
36580
36572
36559
36559
36542
36311
36454
36472
36456
36471
36484
36489
36447
36455
36455
36442
36335
36383
36388
36386
36393
36395
36387
36359
36327
36327
36309
36306
36306
36300
36296
36297
36295
36277
36268
36047
36033
36232
36051
36209
36207
36213
36193
35959
35967
35996
36159
36148
35940
35996
36023
36028
36005
36004
36023
35997
35974
35956
35946
35918
35911
35846
36005
36007
35977
35975
35756
35959
35739
35935
35932
35911
35907
35894
35891
35891
35879
35879
35869
35845
35839
35834
35828
35815
35813
35799
35782
35766
35743
35728
35756
35753
35740
35735
35630
35700
35693
35676
35674
35668
35644
35646
35628
35625
35616
35605
35586
35583
35570
35566
35558
35551
35537
35535
35527
35511
35498
35492
35497
35466
35462
35459
35437
35423
35401
35391
35397
35385
35388
35391
35373
35364
35358
35335
35335
35316
35305
35294
35285
35284
35276
35212
35252
35243
35237
35220
35206
35207
35198
35177
35170
35143
35119
35104
35103
35079
35079
35093
35087
35063
35055
35053
35029
35021
35012
34999
34999
34986
34973
34962
34951
34943
34935
34917
34905
34895
34895
34882
34854
34855
34846
34836
34823
34815
34823
34799
34774
34767
34756
34751
34735
34723
34692
34703
34700
34700
34663
34661
34635
34646
34638
34643
34619
34583
34556
34564
34567
34575
34551
34545
34539
34516
34477
34459
34452
34452
34450
34431
34423
34423
34421
34388
34366
34354
34351
34319
34311
34311
34302
34299
34293
34260
34271
34247
34270
34263
34260
34231
34208
34189
34145
33977
34158
34166
34154
34147
33917
33900
33943
33969
34003
33962
33981
34001
33999
33983
33987
33972
33970
33983
33967
33799
33719
33711
33932
33692
33911
33894
33886
33883
33863
33857
33845
33836
33817
33806
33796
33784
33582
33583
33754
33735
33732
33718
33698
33680
33702
33678
33653
33571
33439
33640
33597
33621
33603
33566
33499
33414
33349
33543
33535
33521
33517
33510
33495
33467
33460
33471
33469
33447
33424
33351
33267
33220
33186
33135
33375
33357
33354
33327
33319
33094
33079
33287
33279
33276
33255
33255
33237
33208
33205
33199
33207
33175
33175
33149
33124
33115
33118
33095
33125
33108
33095
33079
33055
33027
32975
32945
32903
32800
32758
32987
32974
32980
32963
32947
32938
32919
32909
32901
32885
32866
32855
32841
32846
32822
32824
32820
32823
32807
32791
32782
32770
32769
32740
32733
32719
32714
32711
32700
32679
32675
32655
32662
32647
32631
32614
32606
32609
32591
32589
32567
32541
32551
32431
32527
32509
32512
32420
32353
32341
32315
32308
32335
32311
32331
32336
32359
32363
32356
32358
32378
32359
32351
32335
32325
32327
32298
32281
32236
32205
32069
32244
32244
32239
32227
32199
32194
32075
32186
32149
32119
31923
32135
32119
32055
32122
32071
32067
31878
32065
32039
32057
31884
32030
32007
31968
31833
31980
31965
31770
31965
31966
31863
31934
31919
31924
31863
31687
31895
31846
31869
31749
31845
31839
31815
31831
31751
31596
31797
31788
31708
31769
31734
31742
31667
31732
31727
31690
31716
31685
31631
31548
31660
31665
31655
31647
31638
31590
31495
31623
31619
31581
31604
31563
31524
31567
31566
31540
31559
31532
31444
31386
31510
31486
31510
31460
31351
31476
31463
31468
31409
31440
31434
31407
31429
31366
31413
31400
31367
31367
31223
31365
31343
31340
31255
31329
31327
31332
31263
31104
31304
31285
31303
31257
31087
31284
31271
31246
31236
31151
31239
31233
31205
31238
31154
31204
31205
31177
31168
31063
31189
31181
31162
31172
31095
30991
31148
31130
31146
31092
31003
31118
31099
31116
31032
30900
31092
31079
31093
31057
30983
30878
31055
31055
31047
31015
31037
31014
30918
31023
31021
31022
30974
30849
30993
30972
30991
30919
30975
30976
30980
30923
30772
30959
30927
30926
30855
30759
30938
30915
30924
30842
30922
30914
30888
30918
30887
30855
30836
30795
30740
30881
30879
30863
30860
30823
30718
30855
30853
30858
30844
30795
30722
30847
30834
30823
30815
30748
30668
30820
30827
30806
30820
30789
30724
30805
30801
30802
30767
30599
30791
30781
30794
30787
30711
30776
30778
30759
30754
30610
30759
30743
30753
30692
30612
30742
30748
30727
30738
30660
30743
30733
30750
30686
30591
30735
30721
30717
30697
30565
30717
30706
30699
30627
30701
30698
30722
30668
30596
30699
30693
30687
30687
30594
30701
30695
30687
30689
30589
30693
30692
30702
30647
30677
30686
30684
30653
30559
30678
30682
30679
30660
30689
30626
30511
30678
30672
30696
30652
30599
30522
30670
30648
