RESPIRATION
32180
32186
32172
32180
32178
32180
32172
32180
32172
32170
32172
32172
32172
32177
32176
32172
32168
32164
32168
32172
32165
32162
32158
32164
32164
32160
32160
32160
32156
32156
32164
32156
32157
32148
32151
32148
32156
32148
32148
32153
32144
32150
32145
32148
32140
32144
32145
32142
32144
32136
32140
32142
32132
32130
32135
32132
32128
32124
32132
32122
32118
32128
32120
32120
32124
32125
32119
32116
32108
32109
32104
32104
32099
32104
32103
32108
32096
32100
32102
32102
32094
32094
32096
32093
32094
32088
32092
32084
32088
32090
32084
32088
32084
32090
32092
32078
32086
32084
32088
32080
32080
32086
32084
32088
32092
32084
32080
32084
32088
32098
32097
32087
32094
32101
32094
32097
32096
32100
32098
32092
32096
32110
32100
32100
32099
32104
32100
32100
32096
32104
32100
32104
32100
32106
32100
32098
32102
32096
32101
32098
32097
32108
32104
32104
32100
32106
32098
32104
32112
32116
32117
32120
32118
32124
32126
32126
32128
32137
32136
32140
32142
32151
32153
32152
32162
32166
32157
32172
32164
32175
32174
32186
32184
32186
32196
32191
32198
32203
32196
32204
32200
32216
32218
32225
32222
32226
32228
32233
32236
32244
32252
32239
32248
32254
32260
32260
32264
32274
32273
32272
32280
32281
32284
32292
32293
32304
32292
32298
32304
32319
32318
32320
32332
32324
32326
32332
32338
32336
32351
32348
32356
32357
32358
32369
32370
32377
32372
32373
32382
32396
32393
32399
32401
32412
32405
32412
32414
32420
32420
32428
32437
32432
32452
32448
32448
32458
32452
32465
32470
32474
32476
32476
32480
32485
32485
32496
32501
32503
32502
32514
32512
32518
32524
32527
32532
32532
32542
32548
32548
32549
32553
32567
32564
32574
32578
32576
32580
32584
32584
32600
32600
32612
32612
32616
32621
32630
32632
32644
32646
32652
32650
32665
32672
32676
32684
32676
32692
32700
32708
32720
32716
32721
32728
32736
32736
32740
32749
32756
32762
32772
32776
32780
32788
32786
32798
32804
32813
32821
32822
32829
32834
32845
32852
32863
32868
32868
32876
32884
32890
32897
32900
32906
32920
32917
32929
32936
32948
32946
32952
32965
32970
32972
32980
32984
32992
32989
33004
33013
33012
33020
33018
33030
33038
33044
33052
33050
33062
33064
33070
33071
33079
33092
33092
33097
33108
33110
33104
33116
33116
33132
33128
33136
33146
33156
33160
33160
33169
33170
33179
33194
33189
33197
33214
33210
33222
33228
33236
33236
33252
33252
33255
33263
33284
33284
33292
33303
33312
33324
33324
33341
33357
33356
33366
33381
33384
33396
33404
33422
33437
33440
33450
33466
33476
33492
33496
33522
33528
33548
33560
33570
33588
33596
33622
33632
33637
33660
33676
33688
33701
33718
33732
33746
33764
33784
33796
33820
33830
33844
33865
33874
33900
33916
33934
33946
33964
33988
33998
34022
34040
34052
34070
34100
34112
34128
34148
34165
34182
34202
34220
34238
34260
34280
34293
34316
34332
34356
34377
34397
34420
34437
34445
34465
34492
34512
34522
34544
34566
34588
34606
34628
34649
34662
34688
34702
34724
34736
34764
34777
34806
34828
34840
34862
34880
34897
34924
34948
34966
34982
35006
35025
35044
35060
35094
35108
35129
35151
35167
35180
35212
35234
35249
35268
35296
35304
35324
35342
35368
35384
35404
35424
35437
35460
35476
35498
35520
35528
35544
35568
35582
35609
35620
35636
35656
35668
35680
35700
35712
35729
35740
35761
35773
35788
35806
35824
35828
35844
35858
35869
35892
35902
35908
35932
35940
35956
35976
35976
35996
36004
36012
36036
36044
36060
36084
36085
36096
36110
36137
36138
36156
36170
36182
36188
36204
36228
36232
36254
36270
36274
36289
36300
36320
36343
36344
36364
36376
36394
36404
36410
36436
36444
36454
36466
36486
36496
36508
36512
36536
36544
36569
36576
36580
36604
36622
36624
36647
36645
36660
36676
36686
36700
36716
36717
36728
36740
36750
36756
36766
36780
36780
36792
36806
36812
36808
36824
36829
36840
36852
36854
36864
36869
36877
36879
36892
36893
36900
36900
36912
36921
36927
36934
36939
36940
36956
36965
36958
36968
36972
36973
36976
36989
36988
36996
37004
36996
37001
37020
37013
37016
37022
37024
37020
37028
37028
37032
37036
37032
37040
37036
37044
37041
37048
37042
37041
37045
37052
37052
37047
37048
37050
37062
37050
37060
37050
37053
37060
37058
37057
37052
37063
37054
37058
37053
37061
37052
37058
37060
37054
37052
37052
37045
37048
37050
37054
37040
37048
37040
37039
37044
37048
37046
37052
37048
37048
37040
37050
37038
37045
37032
37032
37038
37036
37034
37030
37028
37034
37018
37024
37029
37022
37020
37008
37014
37010
37007
37006
36996
36991
36996
36980
36981
36980
36984
36968
36964
36960
36960
36944
36944
36952
36929
36924
36930
36925
36921
36908
36909
36904
36897
36892
36888
36892
36884
36871
36871
36861
36860
36845
36858
36836
36830
36828
36826
36820
36816
36802
36800
36804
36792
36783
36776
36775
36773
36764
36759
36756
36744
36741
36736
36734
36720
36711
36704
36705
36692
36681
36686
36676
36672
36662
36670
36648
36642
36644
36632
36622
36616
36619
36608
36588
36580
36584
36576
36572
36554
36552
36544
36534
36530
36519
36508
36512
36508
36489
36476
36478
36469
36464
36452
36448
36446
36432
36432
36424
36417
36416
36398
36400
36396
36384
36380
36372
36372
36348
36348
36348
36342
36335
36320
36324
36320
36316
36308
36292
36280
36280
36268
36268
36257
36244
36238
36225
36220
36213
36204
36192
36186
36174
36172
36156
36150
36138
36132
36122
36117
36102
36090
36092
36072
36078
36064
36057
36036
36037
36026
36014
36012
35999
35986
35978
35972
35964
35964
35940
35936
35924
35920
35916
35895
35892
35885
35876
35860
35856
35852
35830
35836
35822
35810
35808
35800
35792
35780
35776
35764
35757
35756
35741
35736
35717
35716
35713
35694
35692
35689
35688
35670
35664
35652
35654
35645
35628
35629
35622
35612
35608
35608
35597
35588
35584
35575
35572
35560
35556
35554
35543
35542
35536
35530
35524
35516
35509
35508
35492
35488
35486
35478
35465
35468
35460
35444
35450
35444
35446
35428
35428
35416
35404
35402
35404
35402
35392
35384
35376
35368
35362
35356
35352
35356
35340
35340
35326
35324
35318
35312
35306
35304
35292
35292
35282
35278
35265
35270
35264
35268
35252
35248
35240
35239
35236
35236
35226
35213
35206
35206
35204
35184
35180
35176
35168
35166
35152
35142
35140
35136
35140
35120
35112
35108
35100
35096
35087
35076
35065
35068
35056
35046
35036
35028
35020
35014
35001
35000
34985
34980
34972
34964
34960
34945
34938
34940
34916
34916
34900
34884
34884
34869
34860
34852
34845
34838
34822
34808
34808
34789
34788
34778
34764
34756
34749
34737
34724
34716
34711
34692
34684
34664
34664
34654
34636
34631
34617
34610
34604
34585
34584
34564
34556
34540
34541
34530
34514
34504
34488
34484
34465
34460
34444
34437
34428
34412
34401
34384
34372
34364
34360
34340
34324
34320
34300
34292
34284
34264
34260
34246
34224
34216
34212
34196
34185
34165
34156
34146
34145
34124
34108
34097
34089
34084
34064
34056
34041
34028
34025
34009
33990
33988
33981
33948
33956
33942
33928
33918
33911
33896
33880
33876
33865
33852
33836
33828
33818
33809
33796
33780
33772
33760
33757
33744
33727
33724
33708
33701
33688
33676
33656
33666
33642
33630
33624
33616
33602
33593
33576
33576
33566
33552
33536
33528
33521
33506
33508
33484
33468
33464
33458
33447
33433
33430
33422
33405
33396
33396
33380
33372
33360
33352
33341
33336
33332
33326
33311
33304
33292
33292
33276
33268
33264
33250
33245
33239
33228
33224
33212
33204
33204
33188
33184
33182
33176
33172
33159
33153
33156
33140
33135
33140
33124
33120
33108
33098
33098
33090
33096
33068
33076
33068
33070
33056
33049
33044
33036
33041
33028
33021
33020
33012
33010
33000
32996
32993
32988
32980
32974
32969
32976
32964
32960
32952
32956
32946
32944
32934
32933
32924
32932
32922
32913
32910
32910
32902
32888
32895
32892
32876
32872
32874
32864
32857
32844
32844
32840
32831
32833
32820
32824
32808
32808
32798
32792
32784
32776
32770
32764
32752
32752
32748
32735
32726
32732
32722
32724
32706
32696
32702
32688
32684
32676
32670
32672
32664
32662
32652
32648
32648
32644
32637
32638
32630
32618
32616
32622
32615
32614
32604
32597
32599
32596
32586
32578
32578
32574
32570
32568
32568
32560
32560
32556
32550
32549
32544
32548
32536
32542
32540
32525
32524
32519
32524
32524
32508
32509
32501
32496
32500
32492
32489
32484
32488
32472
32470
32472
32462
32468
32460
32454
32452
32439
32442
32428
32438
32424
32420
32412
32409
32410
32394
32388
32386
32373
32364
32368
32356
32352
32348
32341
32329
32326
32318
32314
32300
32294
32284
32274
32268
32256
32244
32245
32236
32220
32216
32215
32192
32184
32177
32160
32149
32142
32133
32125
32108
32096
32090
32074
32070
32058
32045
32033
32025
32012
32009
31998
31988
31978
31962
31950
31940
31936
31924
31912
31908
31902
31896
31872
31868
31860
31852
31840
31829
31817
31810
31804
31789
31782
31780
31768
31748
31744
31736
31724
31726
31708
31700
31689
31684
31680
31672
31653
31653
31640
31632
31632
31612
31604
31604
31588
31580
31564
31564
31560
31552
31532
31534
31525
31516
31501
31498
31488
31480
31470
31465
31456
31449
31438
31426
31424
31412
31400
31392
31388
31370
31358
31350
31344
31335
31316
31309
31298
31278
31264
31261
31247
31241
31223
31214
31202
31184
31174
31163
31148
31134
31130
31112
31092
31082
31072
31057
31046
31040
31016
31004
30997
30981
30964
30958
30944
30932
30916
30908
30900
30887
30873
30852
30838
30820
30805
30795
30784
30768
30756
30740
30724
30700
30692
30684
30661
30650
30636
30616
30600
30590
30570
30560
30538
30522
30508
30502
30476
30465
30450
30430
30424
30400
30386
30376
30356
30351
30336
30321
30316
30297
30293
30280
30264
30249
30238
30242
30217
30220
30196
30188
30176
30172
30159
30144
30132
30128
30112
30100
30093
30081
30081
30060
30050
30048
30036
30020
30016
30010
30004
29988
29984
29968
29964
29959
29938
29932
29933
29908
29916
29904
29897
29892
29885
29872
29876
29862
29856
29858
29850
29850
29836
29828
29826
29818
29808
29809
29806
29804
29788
29784
29780
29780
29764
29764
29762
29761
29754
29740
29741
29740
29728
29728
29721
29716
29708
29709
29700
29688
29692
29694
29688
29676
29672
29668
29665
29660
29656
29653
29640
29648
29636
29634
29626
29620
29614
29616
29608
29598
29596
29600
29588
29584
29580
29580
29564
29558
29557
29554
29550
29545
29544
29532
29532
29527
29509
29513
29512
29500
29494
29500
29482
29482
29476
29476
29476
29464
29460
29448
29453
29445
29442
29438
29428
29432
29428
29414
29412
29408
29410
29400
29398
29380
29383
29378
29372
29372
29368
29349
29356
29354
29336
29332
29332
29326
29316
29314
29314
29304
29309
29300
29285
29280
29277
29277
29276
29268
29262
29252
29253
29248
29248
29240
29236
29224
29222
29220
29212
29207
29197
29196
29196
29196
29191
29183
29180
29173
29166
29169
29166
29160
29152
29152
29144
29140
29133
29128
29127
29125
29116
29118
29114
29108
29098
29098
29092
29092
29084
29085
29080
29070
29068
29064
29063
29048
29052
29056
29052
29031
29028
29028
29026
29022
29009
29012
29008
29000
28996
28994
28994
28986
28988
28981
28986
28972
28972
28968
28964
28968
28964
28964
28960
28960
28960
28956
28956
28957
28949
28950
28952
28956
28949
28956
28944
28950
28948
28943
28953
28944
28940
28953
28948
28944
28948
28948
28950
28948
28948
28956
28948
28953
28959
28954
28942
28954
28942
28946
28949
28946
28960
28951
28948
28938
28942
28944
28936
28940
28940
28938
28936
28932
28926
28926
28928
28928
28922
28920
28912
28912
28916
28913
28906
28900
28906
28896
28897
28902
28889
28888
28888
28892
28876
28877
28873
28874
28872
28864
28868
28862
28866
28860
28850
28852
28845
28844
28840
28845
28848
28838
28838
28828
28836
28832
28831
28831
28831
28822
28820
28816
28822
28816
28816
28828
28820
28822
28820
28817
28820
28816
28816
28824
28812
28820
28828
28823
28824
28820
28822
28818
28828
28821
28824
28828
28828
28836
28825
28837
28836
28836
28836
28824
28845
28833
28836
28841
28840
28844
28846
28841
28845
28833
28850
28848
28861
28852
28860
28848
28855
28862
28868
28868
28862
28864
28864
28868
28870
28872
28870
28872
28876
28874
28876
28871
28866
28874
28873
28866
28868
28876
28874
28872
28869
28872
28868
28866
28869
28862
28872
28872
28865
28868
28860
28870
28865
28866
28864
28868
28864
28866
28868
28864
28868
28868
28860
28864
28866
28874
28870
28878
28873
28876
28873
28873
28888
28888
28881
28888
28885
28884
28892
28888
28887
28886
28890
28894
28896
28900
28884
28896
28897
28894
28892
28892
28893
28895
28900
28892
28894
28895
28885
28896
28892
28892
28891
28894
28898
28884
28884
28880
28885
28873
28880
28876
28876
28869
28868
28866
28869
28857
28852
28848
28853
28845
28849
28838
28848
28842
28841
28834
28829
28832
28828
28840
28824
28832
28832
28824
28828
28832
28836
28828
28832
28837
28841
28832
28844
28844
28838
28842
28844
28844
28850
28849
28849
28853
28849
28844
28858
28848
28848
28852
28852
28852
28841
28844
28848
28844
28838
28836
28837
28828
28824
28828
28820
28809
28812
28802
28800
28804
28792
28788
28788
28776
28768
28764
28764
28754
28753
28744
28740
28738
28728
28726
28716
28712
28708
28706
28694
28688
28692
28684
28672
28676
28668
28665
28668
28649
28652
28652
28628
28628
28630
28612
28612
28606
28600
28596
28590
28580
28580
28565
28568
28559
28552
28549
28544
28532
28527
28516
28516
28500
28502
28491
28480
28478
28472
28462
28462
28452
28452
28436
28429
28430
28420
28408
28408
28394
28388
28376
28376
28377
28364
28356
28354
28348
28341
28337
28328
28324
28321
28310
28308
28296
28294
28292
28288
28281
28284
28272
28265
28261
28250
28260
28248
28244
28244
28238
28234
28228
28226
28225
28220
28216
28212
28207
28210
28192
28199
28190
28193
28184
28184
28180
28180
28172
28174
28168
28159
28161
28160
28154
28154
28146
28148
28141
28137
28140
28140
28136
28132
28128
28130
28128
28124
28129
28128
28124
28120
28120
28116
28116
28118
28120
28114
28116
28113
28116
28113
28116
28116
28121
28118
28118
28116
28112
28109
28120
28118
28124
28116
28116
28120
28120
28116
28121
28120
28132
28126
28132
28132
28126
28128
28122
28136
28132
28134
28134
28134
28130
28140
28129
28140
28140
28142
28132
28138
28142
28138
28143
28152
28146
28146
28156
28157
28152
28160
28160
28160
28166
28164
28164
28166
28166
28164
28176
28172
28177
28173
28174
28184
28181
28184
28180
28189
28194
28191
28192
28196
28194
28197
28198
28208
28212
28212
28212
28216
28208
28220
28220
28222
28231
28226
28226
28228
28232
28224
28234
28230
28236
28239
28249
28244
28241
28245
28244
28240
28240
28245
28248
28241
28240
28245
28252
28236
28241
28238
28256
28245
28238
28248
28246
28244
28247
28240
28244
28238
28244
28240
28240
28241
28244
28236
28244
28240
28240
28229
28228
28228
28228
28228
28218
28216
28213
28212
28212
28204
28202
28194
28184
28180
28179
28168
28172
28159
28158
28148
28142
28132
28124
28116
28122
28110
28101
28098
28084
28084
28080
28074
28071
28062
28054
28046
28037
28032
28022
28014
28016
28004
27999
27985
27988
27973
27968
27952
27950
27938
27933
27924
27912
27896
27888
27876
27868
27862
27844
27844
27830
27813
27809
27800
27780
27778
27764
27753
27736
27722
27716
27704
27696
27680
27673
27660
27645
27636
27616
27613
27594
27584
27576
27564
27544
27530
27518
27512
27494
27478
27468
27457
27436
27425
27416
27400
27381
27372
27352
27344
27326
27309
27300
27286
27276
27260
27245
27228
27215
27196
27184
27164
27156
27140
27124
27119
27094
27081
27071
27053
27041
27024
27008
27002
26989
26968
26958
26940
26924
26908
26897
26888
26866
26852
26837
26825
26808
26800
26784
26768
26748
26741
26728
26713
26692
26682
26664
26654
26640
26620
26608
26592
26580
26564
26542
26536
26528
26512
26492
26478
26462
26452
26437
26420
26412
26388
26381
26358
26344
26332
26308
26297
26284
26272
26250
26236
26220
26204
26184
26173
26161
26144
26132
26116
26098
26088
26072
26056
26040
26018
26012
25989
25973
25964
25950
25938
25924
25908
25895
25876
25860
25850
25836
25817
25812
25796
25784
25775
25760
25744
25732
25719
25719
25701
25688
25678
25664
25666
25645
25637
25626
25616
25604
25598
25588
25578
25572
25561
25556
25544
25545
25528
25525
25520
25506
25504
25492
25487
25489
25476
25472
25468
25454
25452
25443
25436
25430
25416
25408
25408
25396
25388
25386
25368
25368
25356
25347
25340
25330
25324
25312
25298
25298
25284
25276
25263
25253
25244
25236
25228
25220
25208
25197
25194
25176
25172
25160
25158
25148
25137
25124
25117
25104
25110
25092
25092
25078
25076
25064
25060
25048
25038
25044
25024
25020
25016
25004
25001
24992
24983
24982
24969
24965
24961
24956
24950
24945
24932
24932
24924
24916
24913
24905
24897
24892
24894
24887
24882
24880
24868
24873
24864
24850
24852
24849
24842
24831
24830
24828
24824
24812
24805
24800
24800
24797
24792
24782
24784
24775
24766
24756
24756
24749
24742
24735
24733
24734
24720
24710
24704
24700
24692
24686
24682
24672
24666
24656
24652
24644
24638
24640
24628
24616
24612
24604
24599
24590
24570
24573
24566
24556
24544
24542
24536
24524
24514
24504
24504
24488
24480
24474
24473
24452
24450
24438
24433
24430
24420
24417
24398
24389
24391
24378
24378
24360
24354
24348
24348
24332
24332
24314
24308
24298
24292
24282
24273
24264
24256
24256
24241
24240
24229
24222
24218
24213
24198
24192
24181
24185
24172
24168
24150
24144
24140
24130
24124
24116
24116
24100
24100
24092
24080
24070
24064
24054
24057
24049
24044
24036
24026
24024
24012
24004
24000
23998
23990
23986
23982
23972
23974
23970
23964
23950
23952
23946
23946
23940
23946
23939
23934
23933
23936
23926
23924
23924
23926
23917
23916
23914
23922
23914
23916
23908
23911
23905
23906
23904
23902
23898
23900
23898
23904
23897
23908
23908
23900
23900
23908
23902
23912
23916
23916
23929
23934
23940
23940
23946
23960
23966
23963
23981
23982
23992
23996
24002
24012
24024
24024
24040
24045
24060
24058
24060
24076
24080
24087
24089
24094
24098
24100
24098
24104
24100
24108
24106
24108
24110
24110
24110
24110
24108
24108
24101
24098
24098
24092
24089
24084
24080
24080
24080
24064
24062
24060
24054
24042
24044
24034
24033
24024
24016
24020
24016
24002
23992
23995
23986
23986
23965
23967
23961
23957
23951
23948
23936
23932
23926
23918
23912
23906
23898
23898
23889
23880
23882
23872
23867
23865
23860
23855
23851
23844
23844
23844
23834
23840
23838
23836
23836
23828
23832
23828
23830
23828
23828
23824
23830
23836
23838
23836
23841
23841
23846
23845
23852
23856
23852
23857
23868
23868
23868
23881
23885
23891
23897
23904
23904
23916
23920
23926
23934
23940
23945
23956
23954
23960
23969
23980
23986
23984
23994
23994
23998
24004
24005
24014
24016
24017
24020
24022
24037
24032
24028
24036
24037
24044
24049
24052
24053
24065
24068
24072
24082
24084
24092
24100
24108
24120
24119
24133
24142
24148
24162
24166
24180
24190
24200
24208
24221
24231
24239
24252
24265
24268
24284
24294
24303
24320
24325
24336
24350
24353
24368
24378
24384
24400
24414
24420
24433
24448
24458
24468
24474
24484
24500
24506
24526
24532
24538
24548
24560
24572
24588
24602
24606
24620
24628
24644
24660
24666
24672
24685
24695
24701
24708
24730
24729
24741
24754
24759
24768
24781
24785
24784
24802
24812
24808
24824
24830
24834
24841
24850
24856
24864
24868
24873
24876
24880
24876
24882
24884
24887
24886
24888
24880
24884
24892
24891
24892
24894
24897
24888
24886
24890
24887
24888
24889
24878
24878
24877
24880
24868
24870
24868
24866
24860
24860
24854
24850
24840
24838
24826
24825
24820
24815
24808
24807
24788
24788
24777
24768
24756
24752
24730
24727
24720
24716
24693
24687
24676
24668
24654
24640
24632
24617
24608
24596
24578
24568
24556
24536
24530
24508
24493
24476
24470
24453
24434
24420
24404
24393
24368
24352
24336
24321
24302
24292
24276
24256
24240
24228
24215
24197
24174
24170
24141
24127
24116
24108
24088
24072
24058
24034
24030
24019
24001
23982
23965
23948
23943
23914
23904
23896
23876
23864
23848
23836
23816
23806
23796
23780
23765
23748
23738
23720
23712
23694
23686
23668
23664
23646
23634
23627
23615
23608
23593
23586
23569
23567
23552
23540
23533
23524
23520
23502
23496
23489
23480
23476
23460
23464
23454
23446
23439
23434
23429
23423
23420
23408
23406
23400
23404
23399
23393
23385
23384
23374
23374
23372
23374
23366
23365
23360
23358
23354
23348
23352
23354
23344
23342
23334
23342
23334
23337
23328
23332
23334
23328
23329
23324
23317
23324
23326
23316
23324
23319
23320
23312
23316
23314
23304
23311
23304
23308
23302
23303
23297
23298
23292
23285
23290
23285
23277
23276
23268
23268
23262
23256
23252
23244
23236
23238
23230
23218
23205
23209
23200
23190
23184
23176
23162
23159
23148
23144
23140
23117
23114
23117
23104
23096
23088
23076
23076
23068
23068
23054
23050
23042
23032
23029
23024
23018
23012
23013
23008
23001
22993
22994
22988
22982
22978
22976
22974
22964
22964
22958
22961
22962
22956
22943
22950
22948
22946
22944
22936
22946
22933
22933
22932
22929
22935
22928
22933
22924
22926
22932
22924
22925
22920
22925
22916
22921
22926
22916
22914
22909
22912
22909
22906
22908
22900
22902
22893
22890
22894
22884
22882
22876
22873
22864
22860
22862
22860
22851
22846
22836
22830
22833
22824
22821
22814
22812
22816
22807
22799
22792
22789
22783
22783
22782
22773
22780
22776
22772
22773
22765
22769
22766
22768
22768
22772
22768
22772
22764
22777
22774
22774
22781
22780
22780
22788
22780
22786
22788
22796
22798
22800
22794
22800
22800
22805
22803
22810
22814
22814
22820
22821
22821
22820
22828
22830
22829
22840
22833
22836
22844
22844
22844
22845
22848
22855
22860
22854
22852
22858
22858
22864
22860
22862
22863
22861
22866
22859
22866
22865
22862
22863
22860
22857
22849
22844
22848
22846
22841
22832
22832
22818
22816
22817
22808
22800
22788
22792
22781
22769
22764
22750
22754
22735
22728
22722
22711
22704
22701
22692
22677
22665
22659
22641
22636
22628
22616
22610
22598
22588
22588
22576
22563
22554
22550
22540
22524
22520
22508
22504
22493
22486
22480
22468
22465
22453
22444
22444
22436
22420
22415
22407
22406
22396
22388
22377
22373
22371
22357
22356
22348
22340
22330
22324
22323
22310
22300
22297
22280
22278
22272
22266
22248
22246
22240
22222
22216
22212
22198
22192
22172
22174
22160
22152
22152
22134
22120
22117
22096
22090
22077
22075
22058
22049
22040
22024
22018
22014
21988
21984
21975
21968
21945
21937
21929
21916
21908
21892
21885
21876
21862
21852
21847
21836
21824
21824
21816
21796
21792
21783
21764
21766
21750
21752
21735
21730
21722
21714
21712
21701
21692
21688
21678
21669
21660
21656
21652
21636
21640
21624
21621
21612
21601
21593
21583
21581
21566
21556
21548
21537
21533
21524
21509
21508
21496
21481
21468
21464
21444
21441
21432
21428
21403
21390
21380
21372
21364
21359
21344
21328
21315
21307
21294
21282
21276
21258
21249
21237
21220
21210
21198
21190
21170
21156
21146
21121
21114
21098
21082
21076
21054
21036
21021
21000
20984
20972
20950
20932
20918
20899
20884
20852
20846
20825
20804
20789
20770
20749
20728
20706
20692
20675
20660
20628
20620
20592
20577
20560
20546
20528
20509
20496
20476
20462
20444
20425
20404
20388
20376
20353
20342
20329
20310
20296
20279
20261
20244
20224
20212
20203
20182
20166
20148
20140
20124
20108
20097
20087
20076
20058
20046
20032
20013
20004
19986
19980
19966
19945
19938
19925
19908
19897
19884
19876
19854
19840
19836
19814
19811
19788
19784
19768
19748
19744
19733
19716
19700
19693
19682
19664
19656
19636
19631
19623
19604
19601
19588
19569
19570
19556
19541
19530
19528
19508
19492
19484
19476
19464
19454
19440
19430
19420
19408
19396
19385
19376
19357
19349
19340
19332
19322
19306
19298
19294
19277
19273
19265
19252
19250
19241
19228
19228
19217
19214
19206
19196
19188
19191
19181
19175
19171
19166
19165
19157
19161
19156
19152
19156
19147
19151
19151
19148
19150
19149
19147
19147
19152
19150
19152
19157
19154
19164
19162
19166
19170
19176
19173
19186
19193
19198
19202
19207
19214
19220
19224
19233
19237
19241
19258
19260
19270
19285
19286
19299
19308
19316
19330
19331
19336
19348
19364
19374
19388
19393
19400
19409
19420
19432
19444
19449
19461
19472
19484
19492
19506
19512
19532
19540
19552
19560
19568
19582
19594
19608
19620
19634
19641
19658
19672
19692
19696
19708
19720
19740
19758
19772
19784
19800
19812
19828
19849
19861
19875
19897
19918
19936
19948
19970
19990
20012
20029
20044
20066
20082
20101
20120
20144
20162
20184
20210
20224
20241
20263
20286
20306
20323
20344
20373
20390
20415
20440
20454
20473
20504
20522
20546
20578
20596
20621
20637
20662
20694
20718
20741
20768
20792
20814
20841
20872
20900
20926
20950
20980
21008
21032
21068
21092
21122
21149
21181
21206
21244
21269
21305
21336
21361
21402
21428
21460
21492
21524
21556
21599
21615
21651
21688
21724
21756
21786
21820
21864
21892
21924
21956
22000
22024
22064
22090
22136
22164
22200
22232
22272
22310
22340
22388
22412
22452
22484
22520
22558
22588
22624
22668
22695
22728
22774
22796
22842
22884
22914
22948
22982
23024
23056
23090
23136
23170
23201
23244
23277
23314
23354
23397
23426
23468
23505
23543
23573
23616
23654
23696
23724
23768
23808
23845
23877
23916
23953
23992
24028
24064
24096
24133
24170
24212
24246
24281
24313
24349
24388
24418
24453
24484
24521
24555
24596
24624
24670
24692
24729
24764
24789
24824
24852
24892
24925
24956
24992
25019
25058
25088
25120
25149
25184
25210
25244
25278
25312
25345
25369
25404
25433
25464
25500
25527
25556
25584
25624
25662
25681
25716
25742
25768
25794
25830
25854
25893
25914
25944
25972
25996
26028
26056
26088
26116
26136
26168
26191
26224
26250
26276
26304
26338
26354
26383
26408
26433
26460
26488
26520
26542
26562
26592
26616
26640
26672
26692
26724
26744
26772
26808
26824
26852
26876
26904
26925
26956
26980
27008
27036
27056
27084
27108
27124
27161
27184
27208
27239
27260
27280
27304
27334
27356
27377
27408
27428
27460
27478
27508
27529
27548
27585
27596
27624
27656
27681
27698
27725
27749
27774
27800
27820
27840
27868
27890
27910
27936
27956
27978
28000
28029
28048
28069
28098
28112
28140
28154
28176
28204
28226
28240
28260
28288
28311
28335
28352
28376
28398
28413
28434
28458
28482
28500
28524
28548
28572
28583
28606
28628
28652
28670
28685
28710
28732
28749
28772
28797
28818
28844
28858
28873
28900
28921
28940
28970
28978
29005
29026
29044
29074
29080
29108
29128
29144
29168
29190
29209
29228
29248
29272
29292
29313
29332
29349
29368
29400
29405
29437
29452
29480
29508
29526
29539
29566
29583
29608
29630
29652
29665
29682
29718
29732
29752
29776
29804
29824
29845
29864
29889
29918
29937
29958
29984
30020
30022
30052
30076
30096
30121
30144
30166
30188
30212
30238
30265
30287
30312
30335
30361
30380
30402
30430
30460
30484
30516
30524
30556
30585
30607
30634
30661
30692
30720
30748
30768
30808
30830
30854
30886
30910
30940
30974
31002
31028
31054
31089
31123
31157
31181
31210
31247
31272
31304
31336
31368
31404
31429
31464
31496
31532
31569
31596
31632
31668
31696
31737
31780
31801
31841
31868
31910
31940
31972
32000
32036
32072
32116
32144
32175
32210
32242
32272
32320
32345
32382
32414
32449
32472
32518
32538
32574
32601
32642
32673
32706
32742
32768
32806
32832
32868
32895
32929
32960
32990
33018
33056
33084
33110
33144
33180
33220
33246
33274
33304
33334
33368
33392
33432
33461
33485
33524
33556
33597
33608
33649
33677
33712
33736
33772
33796
33837
33857
33894
33920
33953
33986
34010
34044
34072
34093
34132
34160
34184
34212
34239
34266
34300
34316
34348
34380
34406
34428
34459
34484
34514
34536
34566
34588
34620
34640
34661
34688
34716
34740
34756
34780
34808
34824
34852
34868
34888
34908
34934
34964
34965
34988
35012
35019
35044
35068
35086
35108
35121
35141
35160
35174
35185
35204
35216
35236
35248
35264
35276
35306
35312
35329
35342
35358
35367
35388
35397
35412
35422
35430
35455
35469
35470
35492
35501
35511
35521
35538
35550
35559
35569
35573
35588
35598
35612
35618
35617
35638
35648
35664
35672
35664
35676
35688
35701
35709
35716
35728
35737
35748
35754
35764
35764
35788
35784
35804
35798
35810
35817
35825
35836
35841
35852
35860
35876
35884
35888
35901
35906
35920
35936
35936
35951
35952
35960
35977
35989
35996
36001
36014
36028
36028
36044
36066
36072
36086
36095
36113
36120
36132
36148
36156
36174
36184
36202
36212
36222
36236
36248
36262
36279
36292
36296
36313
36328
36340
36358
36364
36375
36384
36397
36406
36420
36436
36440
36448
36470
36484
36492
36500
36506
36533
36536
36541
36552
36564
36574
36590
36598
36608
36618
36626
36642
36648
36664
36674
36688
36685
36710
36709
36720
36748
36748
36752
36769
36772
36788
36800
36804
36820
36822
36836
36842
36848
36864
36876
36876
36892
36904
36908
36916
36916
36930
36940
36946
36952
36964
36960
36968
36980
36988
36997
36999
37008
37012
37020
37028
37044
37041
37040
37060
37066
37061
37072
37080
37088
37104
37109
37116
37116
37124
37138
37138
37149
37156
37159
37166
37170
37172
37196
37192
37197
37208
37217
37216
37220
37232
37236
37233
37244
37250
37256
37253
37262
37264
37276
37280
37287
37285
37308
37297
37308
37314
37318
37324
37320
37328
37328
37334
37344
37336
37344
37349
37354
37348
37356
37360
37361
37352
37381
37369
37370
37376
37380
37372
37388
37388
37385
37383
37386
37388
37384
37391
37390
37388
37396
37390
37388
37393
37399
37388
37397
37396
37400
37398
37396
37393
37404
37397
37392
37384
37384
37396
37388
37377
37383
37383
37380
37384
37372
37376
37388
37380
37368
37366
37373
37368
37362
37357
37353
37357
37352
37360
37358
37359
37352
37352
37344
37344
37356
37342
37338
37344
37340
37342
37340
37333
37340
37332
37340
37330
37332
37335
37328
37332
37332
37337
37336
37324
37332
37338
37328
37329
37325
37332
37332
37318
37326
37321
37326
37314
37316
37316
37313
37316
37312
37310
37295
37312
37305
37292
37292
37300
37293
37288
37284
37281
37276
37278
37260
37260
37264
37248
37247
37244
37240
37230
37232
37228
37214
37205
37202
37188
37183
37176
37174
37165
37164
37156
37150
37136
37128
37120
37116
37111
37098
37088
37093
37074
37072
37065
37044
37048
37016
37020
37017
37012
36996
36988
36981
36972
36960
36961
36956
36940
36924
36914
36908
36897
36892
36880
36876
36865
36852
36838
36836
36816
36816
36804
36800
36788
36784
36772
36764
36752
36741
36738
36736
36736
36720
36712
36700
36689
36684
36677
36672
36670
36660
36653
36636
36633
36632
36622
36612
36601
36596
36592
36581
36580
36568
36564
36564
36548
36548
36533
36532
36516
36516
36514
36504
36492
36492
36488
36480
36473
36468
36456
36462
36444
36430
36430
36428
36420
36412
36409
36400
36384
36380
36376
36368
36358
36345
36340
36326
36320
36308
36308
36292
36284
36272
36260
36254
36250
36232
36221
36212
36196
36185
36176
36172
36164
36140
36128
36120
36116
36100
36094
36073
36068
36052
36040
36025
36016
35998
35991
35980
35959
35949
35944
35928
35909
35900
35897
35876
35862
35861
35848
35828
35817
35809
35800
35781
35768
35766
35746
35736
35733
35716
35706
35687
35688
35680
35676
35660
35645
35638
35624
35615
35608
35596
35576
35580
35562
35560
35552
35536
35528
35516
35509
35500
35485
35472
35476
35462
35455
35440
35432
35424
35412
35406
35396
35384
35375
35368
35364
35341
35348
35336
35324
35319
35310
35308
35292
35286
35280
35276
35268
35260
35247
35237
35230
35224
35220
35212
35199
35192
35190
35172
35172
35166
35160
35156
35144
35144
35128
35120
35124
35108
35106
35098
35096
35088
35088
35081
35076
35069
35062
35053
35057
35046
35040
35048
35037
35036
35022
35024
35020
35016
35010
35007
35000
34997
34992
34988
34988
34981
34980
34980
34976
34972
34968
34957
34960
34960
34952
34949
34942
34940
34944
34943
34942
34940
34942
34933
34932
34932
34940
34924
34932
34936
34928
34928
34932
34930
34928
34920
34921
34920
34920
34912
34908
34916
34908
34908
34902
34900
34895
34904
34892
34892
34888
34890
34882
34878
34880
34874
34868
34868
34862
34857
34850
34853
34855
34852
34848
34842
34836
34840
34833
34836
34830
34823
34833
34823
34820
34828
34823
34830
34821
34820
34820
34820
34820
34816
34820
34830
34821
34824
34827
34836
34830
34828
34828
34836
34844
34839
34840
34844
34844
34846
34848
34849
34856
34856
34852
34856
34866
34861
34863
34868
34872
34872
34877
34878
34884
34884
34888
34890
34892
34900
34896
34908
34912
34904
34908
34916
34920
34912
34914
34922
34926
34926
34924
34932
34925
34920
34932
34937
34930
34936
34936
34940
34936
34936
34934
34934
34944
34940
34948
34944
34940
34936
34940
34942
34946
34942
34948
34951
34938
34941
34942
34943
34937
34940
34940
34925
34936
34927
34936
34921
34926
34916
34910
34909
34912
34912
34902
34897
34892
34886
34888
34884
34880
34880
34872
34880
34872
34864
34866
34860
34853
34856
34841
34847
34845
34833
34829
34828
34823
34828
34815
34814
34812
34812
34807
34807
34798
34800
34792
34799
34791
34793
34788
34788
34780
34772
34774
34764
34772
34766
34769
34759
34760
34760
34758
34753
34754
34744
34754
34756
34748
34746
34748
34742
34736
34741
34732
34736
34732
34727
34729
34725
34729
34740
34720
34729
34724
34722
34718
34724
34718
34720
34720
34720
34720
34724
34709
34708
34713
34717
34716
34712
34708
34703
34716
34701
34702
34697
34693
34702
34689
34698
34692
34692
34686
34680
34689
34688
34678
34670
34676
34679
34673
34672
34669
34664
34663
34661
34656
34658
34656
34650
34652
34650
34644
34644
34644
34640
34629
34629
34628
34624
34626
34628
34624
34620
34613
34608
34612
34597
34600
34596
34588
34590
34590
34576
34580
34572
34576
34564
34556
34552
34556
34552
34540
34536
34535
34528
34532
34532
34519
34516
34519
34510
34512
34508
34500
34508
34500
34496
34496
34496
34492
34488
34486
34492
34486
34481
34478
34476
34468
34461
34466
34454
34452
34452
34444
34440
34436
34431
34414
34420
34417
34414
34412
34404
34396
34391
34386
34392
34380
34372
34370
34368
34368
34365
34364
34362
34342
34342
34342
34339
34342
34325
34328
34324
34322
34314
34304
34305
34308
34302
34287
34281
34282
34276
34274
34274
34270
34256
34257
34249
34248
34234
34232
34236
34228
34220
34218
34206
34204
34204
34204
34196
34184
34177
34173
34173
34156
34160
34148
34142
34140
34130
34128
34120
34112
34108
34092
34096
34088
34076
34064
34065
34054
34054
34044
34032
34032
34030
34024
34014
34016
34000
33998
33985
33979
33977
33965
33964
33952
33960
33942
33936
33926
33924
33916
33908
33890
33892
33878
33868
33858
33860
33834
33839
33828
33820
33817
33804
33796
33784
33780
33772
33764
33756
33748
33732
33720
33708
33704
33692
33688
33676
33662
33652
33646
33633
33618
33608
33608
33596
33584
33576
33564
33560
33544
33530
33532
33508
33500
33489
33486
33476
33469
33447
33445
33432
33426
33420
33406
33392
33386
33368
33368
33356
33346
33335
33324
33316
33304
33296
33280
33274
33260
33260
33246
33236
33228
33214
33207
33196
33188
33176
33164
33156
33148
33132
33123
33115
33112
33088
33084
33064
33060
33052
33044
33026
33012
33005
32993
32984
32976
32958
32943
32935
32929
32920
32908
32892
32876
32872
32857
32849
32838
32820
32810
32799
32787
32785
32772
32761
32748
32732
32724
32704
32704
32686
32680
32672
32656
32644
32628
32616
32606
32604
32582
32572
32564
32552
32540
32532
32516
32504
32496
32477
32473
32453
32444
32428
32416
32406
32385
32372
32360
32348
32336
32318
32303
32292
32274
32252
32242
32224
32208
32192
32182
32164
32140
32128
32108
32094
32080
32064
32044
32028
32014
31980
31972
31959
31940
31918
31902
31873
31860
31836
31820
31804
31788
31766
31740
31722
31704
31678
31656
31648
31618
31604
31580
31554
31532
31508
31493
31469
31444
31418
31396
31372
31352
31329
31312
31280
31256
31242
31222
31198
31180
31161
31136
31112
31092
31068
31048
31020
31006
30980
30966
30948
30916
30900
30881
30860
30839
30818
30793
30776
30754
30734
30710
30689
30676
30652
30636
30610
30602
30572
30556
30534
30520
30493
30484
30462
30438
30420
30408
30382
30367
30346
30334
30308
30300
30278
30260
30240
30222
30208
30189
30172
30156
30142
30116
30109
30082
30080
30052
30040
30016
30001
29993
29985
29966
29946
29920
29912
29898
29888
29871
29856
29844
29822
29816
29799
29792
29776
29769
29752
29749
29729
29716
29706
29698
29679
29668
29653
29644
29630
29620
29606
29594
29583
29568
29559
29554
29532
29532
29516
29509
29500
29488
29476
29468
29452
29444
29436
29416
29408
29389
29394
29380
29376
29352
29348
29344
29326
29324
29313
29300
29287
29274
29272
29254
29242
29236
29221
29210
29197
29188
29174
29164
29150
29136
29123
29118
29106
29090
29077
29069
29052
29045
29030
29024
29005
28996
28985
28980
28959
28948
28936
28932
28920
28904
28890
28882
28876
28868
28854
28846
28836
28828
28817
28808
28804
28790
28784
28766
28769
28764
28756
28744
28740
28734
28729
28724
28712
28708
28689
28705
28684
28677
28677
28672
28666
28660
28652
28653
28644
28640
28640
28628
28614
28615
28609
28600
28593
28593
28583
28575
28569
28560
28560
28542
28536
28530
28524
28514
28514
28508
28494
28484
28474
28465
28460
28452
28444
28444
28432
28424
28416
28405
28396
28386
28388
28383
28368
28369
28359
28352
28346
28336
28329
28324
28314
28308
28295
28296
28288
28284
28278
28268
28264
28258
28248
28246
28241
28236
28224
28222
28210
28218
28198
28191
28191
28184
28168
28172
28159
28148
28152
28140
28140
28136
28124
28119
28108
28104
28100
28098
28086
28084
28077
28069
28068
28061
28068
28052
28058
28050
28052
28038
28040
28044
28028
28032
28024
28025
28018
28018
28020
28012
28016
28012
28016
28008
28002
28013
28006
28004
28012
28000
28001
28001
28001
27996
27993
28000
28004
27998
28000
28000
28007
28002
28002
27999
28004
28004
28001
28005
28004
28004
28002
28002
28012
28004
28016
28014
28001
28008
28016
28020
28009
28013
28016
28016
28012
28012
28018
28020
28016
28020
28021
28026
28024
28026
28028
28032
28030
28036
28038
28037
28040
28048
28044
28054
28056
28060
28072
28058
28068
28068
28078
28080
28076
28087
28084
28090
28100
28098
28102
28112
28114
28120
28132
28134
28136
28138
28152
28148
28160
28167
28176
28182
28182
28196
28196
28208
28216
28222
28224
28230
28242
28245
28256
28265
28270
28285
28287
28292
28304
28310
28316
28332
28330
28340
28348
28364
28372
28378
28384
28400
28412
28416
28438
28444
28453
28458
28478
28494
28504
28514
28528
28534
28549
28570
28581
28592
28608
28616
28630
28648
28660
28674
28679
28708
28708
28725
28740
28748
28757
28776
28786
28798
28808
28820
28832
28846
28846
28864
28874
28876
28894
28900
28921
28932
28943
28950
28965
28965
28975
28994
28996
29006
29020
29034
29045
29056
29069
29078
29092
29100
29112
29124
29140
29152
29164
29180
29194
29204
29218
29230
29254
29262
29276
29296
29312
29325
29342
29362
29376
29392
29410
29428
29447
29470
29484
29501
29516
29540
29556
29572
29604
29608
29628
29648
29674
29692
29708
29726
29750
29772
29794
29806
29822
29842
29868
29880
29897
29924
29940
29956
29984
30000
30018
30040
30052
30070
30090
30108
30118
30148
30160
30176
30197
30220
30224
30252
30264
30276
30292
30304
30324
30338
30353
30370
30388
30400
30414
30434
30440
30460
30469
30480
30492
30510
30529
30544
30544
30566
30577
30593
30598
30616
30634
30645
30660
30670
30688
30692
30709
30716
30736
30746
30756
30772
30784
30799
30817
30828
30840
30860
30868
30880
30896
30904
30925
30936
30948
30962
30968
30977
30996
31013
31025
31044
31053
31066
31087
31093
31112
31116
31132
31144
31148
31172
31176
31196
31204
31210
31231
31244
31260
31266
31270
31292
31306
31320
31338
31340
31358
31368
31384
31392
31400
31409
31424
31436
31451
31465
31469
31485
31490
31504
31514
31524
31532
31552
31560
31576
31584
31588
31604
31612
31624
31632
31639
31647
31660
31668
31688
31692
31696
31708
31718
31732
31740
31756
31752
31773
31781
31780
31793
31809
31808
31824
31840
31844
31845
31855
31865
31872
31880
31890
31900
31910
31918
31932
31930
31940
31958
31956
31972
31972
31980
32001
31996
32012
32013
32024
32024
32036
32041
32060
32056
32068
32072
32078
32090
32085
32100
32104
32108
32118
32124
32132
32140
32149
32149
32158
32161
32172
32172
32188
32198
32200
32206
32212
32220
32226
32226
32245
32246
32256
32260
32274
32276
32284
32280
32302
32305
32308
32320
32320
32326
32337
32348
32352
32356
32368
32384
32380
32385
32388
32400
32404
32412
32416
32421
32430
32433
32444
32444
32456
32456
32470
32464
32472
32476
32488
32485
32492
32500
32510
32516
32524
32520
32521
32530
32536
32544
32542
32559
32561
32564
32566
32584
32583
32585
32596
32589
32604
32608
32616
32620
32628
32621
32638
32644
32652
32647
32648
32663
32664
32656
32672
32673
32674
32676
32680
32687
32688
32692
32703
32702
32708
32708
32708
32720
32718
32724
32722
32728
32728
32732
32730
32745
32742
32744
32758
32754
32756
32762
32766
32762
32772
32772
32767
32767
32772
32784
32786
32780
32782
32788
32788
32796
32791
32792
32796
32790
32796
32809
32804
32801
32808
32804
32808
32812
32814
32814
32816
32808
32806
32818
32822
32820
32816
32812
32806
32812
32814
32804
32814
32804
32809
32809
32798
32790
32784
32789
32780
32775
32772
32768
32756
32753
32744
32738
32726
32717
32710
32706
32698
32685
32669
32666
32649
32649
32628
32625
32608
32592
32576
32569
32556
32536
32527
32512
32488
32484
32460
32449
32438
32407
32398
32376
32362
32348
32328
32309
32290
32269
32250
32236
32209
32192
32172
32166
32140
32120
32106
32084
32064
32046
32020
31993
31977
31952
31934
31914
31888
31860
31840
31818
31794
31772
31742
31712
31694
31663
31633
31620
31589
31560
31528
31504
31468
31450
31414
31388
31364
31326
31294
31270
31236
31204
31172
31141
31108
31086
31045
31008
30976
30944
30910
30886
30844
30812
30784
30750
30708
30685
30639
30613
30572
30545
30516
30466
30440
30408
30376
30332
30308
30264
30238
30204
30168
30138
30102
30060
30040
29998
29959
29924
29882
29852
29816
29788
29750
29714
29678
29632
29614
29576
29537
29504
29470
29437
29412
29370
29329
29297
29260
29232
29198
29162
29134
29090
29060
29031
28997
28965
28928
28900
28868
28836
28812
28776
28749
28716
28685
28654
28628
28600
28576
28546
28516
28492
28462
28438
28416
28381
28356
28340
28314
28288
28260
28242
28212
28190
28174
28146
28124
28099
28072
28058
28032
28012
27986
27962
27950
27930
27901
27884
27858
27840
27824
27800
27776
27760
27744
27730
27696
27692
27666
27649
27629
27616
27588
27577
27554
27545
27523
27500
27492
27464
27457
27438
27416
27416
27396
27377
27365
27344
27334
27322
27302
27295
27274
27268
27253
27244
27229
27212
27200
27192
27182
27170
27148
27143
27132
27124
27116
27098
27098
27084
27079
27058
27052
27040
27040
27020
27021
27008
27001
26996
26986
26977
26968
26956
26956
26948
26946
26932
26927
26926
26908
26904
26906
26887
26888
26884
26869
26872
26854
26857
26854
26844
26846
26828
26825
26825
26812
26818
26810
26805
26800
26796
26794
26793
26784
26784
26780
26776
26778
26772
26768
26764
26760
26760
26768
26754
26762
26768
26756
26767
26764
26768
26768
26767
26765
26768
26772
26775
26780
26776
26777
26782
26780
26788
26792
26798
26800
26808
26806
26812
26823
26830
26826
26836
26837
26848
26852
26852
26865
26865
26870
26883
26885
26888
26908
26908
26920
26918
26932
26944
26944
26948
26962
26973
26980
26984
26996
27006
27017
27022
27032
27048
27052
27064
27075
27089
27094
27104
27108
27124
27142
27154
27164
27167
27183
27198
27200
27214
27228
27232
27245
27252
27264
27276
27292
27308
27320
27324
27344
27342
27361
27376
27384
27394
27408
27420
27436
27440
27456
27464
27476
27493
27508
27516
27534
27552
27558
27573
27582
27596
27609
27620
27638
27648
27669
27673
27690
27704
27716
27734
27748
27773
27778
27795
27809
27828
27844
27860
27870
27891
27906
27918
27937
27958
27966
27990
28007
28021
28044
28056
28076
28096
28124
28132
28152
28175
28196
28208
28228
28245
28265
28273
28304
28313
28344
28361
28377
28388
28412
28424
28456
28470
28484
28503
28524
28536
28556
28580
28596
28616
28622
28646
28664
28685
28705
28713
28738
28748
28764
28780
28802
28815
28832
28849
28868
28877
28898
28908
28924
28935
28952
28980
28984
29002
29008
29020
29038
29048
29067
29076
29096
29104
29120
29132
29148
29160
29170
29192
29197
29215
29234
29246
29253
29271
29281
29300
29312
29322
29336
29348
29368
29390
29396
29413
29429
29442
29456
29468
29486
29495
29512
29534
29544
29557
29568
29580
29592
29604
29613
29637
29653
29660
29672
29687
29703
29715
29728
29748
29762
29774
29777
29788
29804
29816
29826
29844
29856
29871
29889
29897
29912
29920
29940
29938
29962
29975
29978
29991
30004
30021
30038
30039
30057
30060
30075
30088
30098
30108
30124
30128
30133
30152
30166
30180
30186
30200
30212
30226
30237
30246
30253
30262
30280
30284
30300
30308
30309
30329
30340
30349
30348
30369
30370
30386
30388
30397
30408
30424
30426
30437
30445
30464
30458
30472
30482
30492
30504
30506
30524
30528
30536
30551
30564
30564
30584
30590
30597
30607
30612
30628
30628
30645
30656
30661
30673
30682
30694
30700
30710
30720
30728
30730
30744
30765
30765
30774
30780
30788
30800
30805
30812
30834
30833
30841
30852
30858
30873
30880
30890
30897
30912
30928
30936
30930
30943
30952
30960
30969
30976
30984
30996
30990
31015
31020
31025
31037
31040
31048
31054
31072
31080
31080
31086
31097
31108
31108
31128
31120
31140
31142
31150
31160
31161
31177
31180
31186
31188
31204
31197
31204
31212
31228
31234
31238
31246
31254
31256
31266
31273
31278
31292
31296
31298
31309
31312
31310
31324
31333
31340
31344
31350
31359
31368
31372
31374
31384
31389
31386
31408
31412
31412
31428
31428
31439
31446
31452
31450
31460
31464
31478
31472
31487
31505
31504
31512
31517
31524
31528
31528
31537
31548
31559
31557
31564
31559
31576
31584
31580
31591
31594
31604
31610
31611
31616
31616
31621
31623
31640
31644
31645
31648
31660
31660
31665
31669
31674
31680
31680
31684
31694
31686
31704
31706
31708
31716
31718
31718
31726
31732
31730
31748
31748
31748
31764
31768
31770
31780
31769
31784
31792
31801
31811
31806
31820
31820
31844
31840
31850
31852
31876
31874
31884
31888
31900
31900
31919
31920
31940
31940
31952
31958
31960
31968
31973
31986
32000
32007
32018
32023
32016
32036
32036
32050
32052
32058
32066
32068
32075
32080
32088
32101
32104
32111
32108
32120
32124
32135
32144
32148
32146
32148
32161
32168
32172
32184
32190
32192
32192
32209
32209
32214
32228
32226
32232
32241
32256
32257
32257
32273
32276
32286
32292
32288
32300
32311
32313
32318
32324
32328
32336
32337
32346
32344
32348
32354
32368
32368
32369
32372
32380
32386
32385
32394
32392
32407
32408
32412
32420
32417
32432
32424
32436
32437
32444
32448
32457
32460
32468
32464
32474
32476
32480
32496
32489
32495
32506
32506
32517
32516
32524
32532
32540
32532
32552
32548
32560
32560
32572
32570
32584
32589
32600
32597
32608
32612
32624
32624
32632
32644
32656
32664
32669
32682
32696
32688
32701
32706
32724
32732
32738
32742
32758
32759
32780
32784
32794
32806
32815
32824
32836
32844
32852
32869
32877
32892
32904
32904
32929
32940
32945
32959
32964
32990
32997
33012
33020
33044
33052
33054
33072
33094
33096
33114
33120
33144
33157
33172
33188
33198
33212
33227
33244
33253
33264
33284
33304
33318
33329
33348
33370
33380
33397
33406
33423
33434
33456
33476
33484
33499
33516
33527
33542
33556
33576
33594
33605
33630
33632
33648
33662
33676
33697
33704
33721
33732
33740
33756
33772
33788
33810
33822
33830
33840
33860
33876
33900
33893
33916
33930
33941
33956
33968
33996
33996
34016
34033
34041
34054
34072
34092
34092
34112
34136
34142
34165
34180
34185
34206
34218
34234
34248
34276
34286
34300
34314
34332
34351
34368
34381
34400
34416
34436
34449
34460
34474
34492
34508
34516
34532
34542
34564
34584
34590
34604
34616
34624
34641
34660
34666
34678
34694
34709
34719
34724
34732
34756
34766
34770
34781
34788
34804
34817
34821
34828
34852
34854
34868
34876
34882
34892
34904
34914
34924
34934
34942
34952
34960
34966
34980
34984
34993
35000
35012
35028
35032
35036
35044
35054
35073
35070
35076
35088
35097
35097
35106
35106
35116
35122
35130
35136
35140
35136
35148
35151
35160
35167
35169
35173
35180
35178
35180
35181
35189
35188
35190
35196
35198
35193
35196
35202
35208
35200
35207
35208
35208
35207
35204
35214
35206
35216
35212
35213
35212
35220
35220
35222
35220
35228
35224
35218
35224
35222
35216
35221
35228
35228
35228
35237
35228
35224
35233
35230
35226
35228
35222
35228
35224
35220
35224
35221
35220
35224
35231
35220
35220
35215
35236
35221
35222
35220
35220
35220
35220
35222
35223
35220
35222
35213
35225
35212
35228
35213
35212
35228
35224
35220
35220
35214
35215
35216
35218
35226
35220
35212
35218
35228
35232
35217
35220
35228
35222
35216
35214
35217
35226
35224
35220
35220
35220
35223
35224
35225
35228
35236
35228
35221
35228
35229
35228
35224
35238
35220
35228
35224
35226
35229
35228
35232
35222
35222
35224
35228
35225
35221
35228
35220
35230
35216
35222
35229
35222
35225
35216
35222
35225
35214
35220
35222
35220
35216
35216
35214
35212
35215
35204
35210
35212
35206
35208
35204
35200
35207
35196
35202
35196
35185
35188
35188
35184
35180
35178
35180
35180
35172
35172
35164
35170
35166
35157
35148
35146
35152
35148
35138
35136
35132
35132
35124
35122
35120
35110
35106
35112
35110
35092
35097
35090
35088
35086
35080
35078
35070
35062
35052
35052
35048
35048
35044
35037
35028
35032
35024
35012
35008
35006
35009
35001
34999
34986
34990
34984
34984
34982
34972
34968
34954
34948
34948
34940
34940
34936
34932
34930
34930
34916
34916
34908
34911
34901
34900
34900
34894
34885
34888
34877
34864
34872
34868
34850
34853
34850
34852
34844
34840
34836
34838
34824
34817
34814
34816
34812
34808
34796
34796
34793
34784
34790
34776
34772
34776
34776
34769
34764
34762
34756
34753
34752
34744
34741
34752
34743
34736
34737
34724
34724
34734
34724
34724
34719
34718
34709
34714
34717
34704
34703
34712
34702
34696
34695
34698
34689
34686
34692
34692
34696
34688
34688
34688
34678
34682
34676
34672
34676
34670
34676
34672
34668
34668
34664
34664
34664
34660
34663
34664
34644
34656
34652
34652
34638
34640
34648
34648
34644
34648
34648
34632
34628
34632
34632
34632
34625
34614
34624
34620
34622
34608
34597
34592
34604
34588
34590
34582
34578
34570
34564
34557
34552
34548
34536
34534
34533
34520
34520
34508
34500
34488
34492
34486
34480
34468
34466
34463
34456
34440
34436
34436
34436
34424
34424
34407
34406
34400
34392
34392
34385
34376
34370
34362
34369
34358
34360
34352
34345
34340
34331
34332
34324
34321
34319
34314
34308
34297
34298
34300
34286
34284
34274
34276
34277
34274
34262
34268
34266
34253
34248
34256
34248
34244
34235
34244
34228
34232
34232
34225
34214
34216
34204
34212
34204
34200
34196
34197
34182
34178
34186
34172
34174
34164
34164
34156
34152
34149
34136
34137
34134
34126
34124
34118
34117
34100
34106
34092
34097
34094
34078
34084
34071
34072
34064
34060
34047
34044
34033
34032
34020
34027
34022
34012
34010
34000
34002
33980
33984
33976
33968
33968
33956
33952
33952
33940
33936
33927
33930
33918
33916
33912
33908
33909
33892
33886
33872
33880
33868
33872
33863
33862
33856
33852
33844
33846
33845
33840
33828
33840
33828
33828
33820
33818
33809
33802
33806
33804
33797
33802
33796
33796
33796
33790
33784
33786
33788
33782
33788
33784
33780
33784
33777
33780
33773
33774
33781
33780
33776
33776
33774
33776
33773
33784
33772
33772
33768
33766
33777
33770
33768
33772
33768
33772
33765
33761
33760
33765
33768
33760
33756
33757
33766
33760
33758
33756
33756
33754
33759
33758
33756
33740
33759
33744
33754
33749
33756
33744
33749
33756
33748
33756
33744
33740
33743
33753
33750
33750
33744
33748
33749
33748
33753
33752
33750
33749
33744
33753
33748
33756
33762
33759
33760
33749
33750
33752
33748
33753
33758
33748
33744
33758
33756
33750
33748
33756
33752
33752
33749
33748
33740
33742
33757
33744
33736
33752
33744
33740
33736
33740
33740
33748
33742
33738
33736
33733
33734
33738
33736
33724
33727
33738
33728
33732
33724
33724
33725
33727
33735
33728
33728
33732
33732
33729
33729
33738
33732
33734
33732
33740
33740
33749
33738
33742
33742
33740
33744
33744
33740
33744
33740
33744
33749
33742
33748
33746
33741
33745
33740
33748
33748
33748
33752
33749
33744
33736
33744
33742
33742
33744
33736
33736
33732
33730
33736
33743
33740
33740
33732
33736
33738
33743
33732
33726
33732
33735
33728
33732
33735
33730
33736
33727
33724
33724
33720
33726
33720
33720
33717
33708
33710
33704
33704
33694
33700
33692
33692
33696
33686
33684
33684
33674
33668
33672
33676
33666
33671
33657
33655
33656
33660
33658
33644
33648
33636
33636
33640
33636
33628
33636
33626
33632
33624
33624
33622
33624
33616
33620
33616
33614
33614
33608
33615
33610
33604
33604
33610
33604
33612
33604
33610
33604
33608
33614
33612
33620
33616
33608
33624
33612
33620
33621
33624
33608
33615
33610
33622
33615
33620
33620
33616
33620
33623
33614
33616
33616
33616
33612
33616
33620
33611
33609
33610
33612
33608
33608
33600
33600
33604
33594
33602
33592
33598
33596
33592
33602
33598
33592
33592
33600
33592
33590
33584
33592
33573
33584
33580
33578
33580
33580
33576
33576
33573
33574
33568
33570
33567
33564
33560
33558
33558
33562
33552
33557
33552
33552
33542
33537
33544
33536
33532
33529
33532
33521
33522
33519
33517
33508
33515
33500
33504
33508
33492
33496
33490
33492
33484
33488
33476
33480
33476
33477
33476
33470
33468
33464
33464
33464
33454
33448
33449
33448
33446
33442
33440
33430
33437
33426
33424
33426
33422
33421
33420
33416
33409
33415
33406
33404
33394
33388
33390
33382
33374
33376
33375
33377
33364
33364
33365
33351
33359
33344
33345
33345
33349
33338
33340
33332
33332
33326
33332
33321
33316
33312
33308
33308
33300
33302
33306
33289
33290
33292
33289
33280
33278
33269
33273
33272
33268
33261
33261
33260
33248
33252
33252
33246
33244
33232
33240
33232
33233
33228
33224
33218
33216
33212
33214
33204
33208
33201
33204
33204
33192
33196
33194
33184
33188
33184
33174
33165
33173
33164
33160
33152
33156
33156
33152
33148
33144
33140
33136
33127
33122
33124
33116
33116
33119
33104
33100
33101
33096
33100
33090
33096
33087
33078
33076
33080
33069
33064
33061
33057
33044
33048
33052
33044
33044
33044
33040
33028
33032
33018
33024
33018
33014
33015
33015
32998
33012
33012
33012
33007
33004
32996
33000
33004
32996
33000
32994
32998
32984
32990
32984
32984
32980
32984
32979
32976
32980
32977
32980
32972
32976
32974
32974
32972
32972
32970
32977
32968
32976
32960
32964
32964
32964
32964
32962
32956
32954
32960
32956
32954
32944
32953
32942
32940
32937
32940
32932
32932
32929
32928
32924
32916
32911
32909
32904
32904
32900
32892
32885
32885
32883
32873
32884
32872
32868
32876
32860
32853
32854
32844
32836
32848
32836
32832
32836
32830
32828
32825
32812
32812
32808
32796
32804
32796
32796
32789
32781
32788
32780
32784
32774
32772
32760
32758
32764
32750
32756
32756
32743
32744
32744
32738
32744
32734
32732
32743
32726
32737
32732
32736
32732
32724
32717
32725
32728
32728
32720
32726
32721
32724
32718
32722
32718
32714
32725
32726
32719
32712
32717
32704
32710
32702
32705
32712
32704
32712
32710
32711
32713
32700
32700
32705
32694
32696
32698
32695
32693
32696
32693
32688
32686
32680
32676
32682
32676
32674
32674
32658
32664
32657
32655
32652
32652
32648
32639
32640
32629
32625
32608
32620
32617
32608
32605
32596
32602
32596
32580
32582
32564
32572
32559
32552
32554
32542
32548
32536
32540
32538
32515
32516
32520
32512
32514
32504
32495
32494
32490
32496
32484
32481
32480
32464
32472
32468
32456
32456
32452
32452
32448
32444
32443
32440
32433
32440
32429
32428
32420
32422
32408
32412
32408
32404
32400
32407
32396
32396
32392
32384
32382
32384
32384
32375
32374
32360
32360
32362
32356
32352
32350
32343
32340
32352
32332
32334
32332
32322
32320
32317
32324
32308
32308
32298
32300
32296
32290
32284
32276
32282
32274
32266
32256
32257
32254
32246
32236
32236
32229
32228
32218
32220
32215
32214
32204
32198
32196
32185
32182
32180
32176
32174
32164
32157
32156
32152
32141
32151
32142
32140
32130
32128
32125
32120
32111
32109
32111
32101
32097
32094
32096
32092
32081
32076
32072
32068
32072
32068
32064
32052
32050
32054
32048
32041
32040
32037
32038
32031
32028
32028
32017
32028
32020
32009
32008
32002
32012
31991
32008
31992
31993
31984
31980
31980
31983
31965
31973
31968
31964
31966
31957
31956
31964
31956
31954
31952
31952
31946
31948
31940
31940
31933
31932
31932
31934
31934
31928
31928
31919
31924
31920
31917
31916
31914
31913
31908
31910
31900
31896
31905
31892
31897
31884
31885
31884
31889
31876
31872
31876
31868
31871
31860
31860
31856
31854
31856
31841
31844
31844
31844
31839
31838
31834
31840
31844
31838
31836
31832
31833
31828
31828
31828
31826
31829
31822
31824
31830
31816
31824
31812
31812
31817
31816
31814
31804
31814
31804
31792
31798
31802
31790
31784
31796
31791
31781
31787
31774
31772
31780
31769
31758
31756
31761
31757
31750
31745
31736
31736
31732
31727
31724
31712
31716
31710
31702
31704
31700
31693
31685
31692
31688
31685
31680
31672
31668
31665
31662
31660
31658
31654
31650
31640
31644
31630
31624
31624
31628
31620
31614
31617
31614
31604
31605
31592
31593
31596
31584
31583
31584
31579
31574
31565
31557
31566
31558
31548
31553
31544
31542
31527
31530
31526
31528
31516
31516
31512
31512
31510
31496
31504
31484
31487
31487
31484
31470
31468
31461
31461
31460
31450
31452
31449
31446
31438
31438
31436
31436
31428
31428
31424
31412
31412
31408
31404
31396
31393
31396
31390
31386
31385
31378
31378
31372
31372
31368
31364
31362
31360
31353
31349
31341
31341
31328
31338
31330
31332
31328
31324
31320
31321
31308
31308
31306
31296
31302
31298
31300
31292
31292
31290
31285
31277
31278
31264
31268
31260
31257
31249
31244
31244
31246
31236
31238
31228
31230
31220
31220
31228
31214
31200
31204
31200
31196
31200
31191
31194
31184
31181
31180
31170
31170
31169
31160
31164
31166
31159
31152
31148
31148
31148
31140
31138
31137
31138
31125
31128
31120
31116
31116
31112
31112
31106
31108
31108
31100
31104
31098
31100
31088
31087
31084
31084
31084
31092
31072
31072
31076
31070
31070
31072
31063
31068
31060
31058
31057
31060
31049
31052
31049
31046
31044
31045
31048
31034
31044
31037
31036
31033
31038
31040
31032
31037
31034
31028
31029
31033
31026
31031
31030
31030
31022
31024
31021
31024
31023
31027
31024
31012
31028
31016
31017
31018
31020
31024
31028
31021
31022
31024
31021
31016
31016
31012
31016
31012
31014
31016
31010
31004
31010
31016
31008
31018
31012
31006
31002
31004
31012
31000
31006
31004
31008
30997
30993
31009
31004
31006
31004
31004
31000
31012
31000
31002
31004
31006
31008
31000
31010
31008
31008
31002
31020
31020
31016
31012
31012
31024
31012
31024
31020
31024
31020
31029
31027
31040
31036
31034
31036
31040
31044
31049
31049
31048
31052
31050
31052
31055
31068
31064
31068
31068
31072
31078
31079
31078
31084
31087
31085
31092
31092
31092
31100
31100
31103
31100
31096
31106
31113
31097
31105
31108
31108
31108
31104
31116
31111
31106
31101
31124
31108
31111
31110
31116
31108
31108
31101
31104
31108
31108
31103
31109
31105
31104
31119
31116
31112
31121
31118
31114
31119
31121
31122
31124
31132
31132
31140
31135
31140
31138
31140
31144
31150
31152
31150
31156
31160
31165
31169
31166
31176
31178
31177
31182
31180
31184
31196
31207
31201
31208
31208
31212
31220
31229
31225
31234
31236
31238
31240
31244
31252
31264
31260
31268
31272
31278
31278
31287
31288
31292
31292
31296
31304
31308
31318
31316
31326
31334
31334
31333
31342
31343
31340
31354
31350
31356
31360
31369
31372
31380
31380
31376
31376
31388
31386
31396
31398
31392
31400
31404
31396
31397
31409
31412
31414
31412
31406
31418
31420
31416
31416
31420
31422
31424
31428
31428
31432
31436
31428
31442
31436
31448
31444
31452
31461
31460
31461
31464
31468
31473
31476
31480
31481
31480
31493
31487
31500
31504
31514
31518
31522
31518
31528
31532
31544
31554
31556
31556
31560
31574
31580
31581
31592
31588
31607
31614
31612
31622
31629
31638
31644
31652
31658
31674
31676
31680
31693
31690
31716
31718
31717
31735
31733
31742
31748
31756
31777
31777
31780
31784
31796
31808
31812
31813
31825
31837
31832
31844
31848
31846
31868
31870
31872
31884
31893
31896
31904
31913
31915
31920
31934
31930
31947
31948
31948
31962
31970
31968
31978
31977
31988
31996
32012
32016
32018
32020
32032
32038
32040
32052
32063
32060
32069
32084
32088
32092
32097
32102
32111
32110
32125
32128
32136
32152
32152
32152
32160
32170
32177
32188
32188
32196
32198
32208
32216
32220
32231
32239
32238
32244
32254
32256
32265
32271
32281
32280
32292
32301
32313
32316
32318
32324
32332
32329
32344
32346
32357
32364
32372
32378
32381
32380
32392
32401
32404
32410
32424
32424
32440
32447
32443
32462
32460
32469
32479
32484
32492
32500
32503
32516
32525
32528
32538
32541
32556
32564
32565
32570
32579
32588
32597
32614
32620
32609
32620
32628
32637
32653
32658
32660
32668
32672
32687
32690
32698
32698
32705
32716
32722
32727
32728
32740
32744
32748
32756
32770
32756
32778
32776
32784
32791
32804
32808
32805
32816
32819
32825
32832
32837
32846
32854
32850
32864
32872
32860
32872
32880
32886
32892
32897
32894
32897
32912
32912
32912
32914
32910
32916
32918
32924
32932
32928
32940
32936
32936
32944
32946
32948
32950
32951
32956
32948
32952
32956
32954
32960
32962
32957
32958
32958
32960
32972
32968
32970
32964
32968
32972
32974
32964
32974
32972
32976
32975
32972
32983
32978
32970
32978
32980
32964
32976
32988
32977
32980
32994
32993
32982
32992
33000
32996
33006
32996
32998
33002
33000
33004
33006
33012
33012
33016
33022
33020
33016
33024
33032
33024
33029
33046
33037
33044
33038
33046
33044
33054
33058
33056
33060
33070
33068
33066
33074
33072
33090
33086
33090
33092
33092
33100
33092
33104
33101
33112
33118
33120
33125
33128
33130
33130
33140
33144
33148
33148
33158
33158
33164
33168
33172
33180
33182
33184
33192
33190
33200
33196
33204
33208
33214
33222
33233
33218
33228
33232
33244
33240
33244
33256
33256
33256
33268
33264
33268
33280
33286
33293
33292
33300
33300
33304
33300
33309
33318
33320
33316
33332
33324
33328
33329
33336
33340
33340
33344
33348
33352
33356
33368
33362
33364
33372
33372
33384
33381
33376
33393
33391
33397
33396
33401
33412
33412
33408
33422
33425
33429
33424
33436
33441
33436
33442
33449
33452
33456
33468
33472
33465
33484
33488
33484
33490
33492
33501
33502
33509
33511
33509
33512
33520
33532
33530
33537
33540
33554
33556
33564
33564
33570
33572
33576
33580
33591
33598
33598
33600
33612
33614
33613
33622
33628
33626
33634
33637
33649
33644
33652
33664
33662
33669
33664
33676
33676
33682
33688
33692
33702
33700
33697
33704
33708
33717
33710
33716
33732
33728
33735
33732
33744
33749
33751
33752
33759
33772
33765
33768
33780
33780
33769
33788
33782
33796
33792
33800
33806
33812
33812
33817
33824
33821
33832
33830
33836
33845
33844
33855
33860
33862
33860
33860
33868
33864
33878
33880
33884
33874
33888
33884
33892
33894
33900
33900
33902
33892
33912
33900
33912
33918
33916
33913
33914
33917
33932
33912
33925
33924
33924
33929
33926
33926
33924
33932
33932
33936
33932
33932
33928
33936
33932
33932
33942
33932
33940
33940
33932
33940
33944
33940
33936
33950
33944
33941
33937
33945
33948
33945
33944
33951
33956
33948
33948
33948
33948
33953
33956
33958
33960
33965
33965
33960
33965
33958
33957
33961
33965
33964
33964
33961
33960
33967
33962
33960
33976
33962
33960
33964
33956
33961
33966
33960
33956
33952
33958
33953
33952
33941
33940
33940
33941
33930
33920
33924
33921
33912
33908
33898
33895
33892
33885
33884
33872
33865
33858
33852
33840
33832
33828
33828
33814
33812
33798
33793
33788
33781
33770
33760
33756
33749
33748
33734
33738
33737
33716
33712
33708
33696
33692
33690
33692
33676
33677
33664
33672
33654
33655
33644
33644
33636
33628
33624
33632
33628
33621
33610
33598
33600
33596
33586
33585
33584
33576
33568
33566
33570
33556
33545
33549
33544
33548
33536
33526
33532
33520
33524
33508
33511
33508
33492
33485
33481
33486
33484
33476
33473
33477
33460
33460
33460
33456
33444
33442
33436
33437
33433
33422
33423
33413
33409
33406
33407
33400
33399
33388
33388
33381
33374
33372
33372
33360
33353
33356
33344
33336
33337
33332
33320
33314
33311
33308
33288
33292
33286
33272
33262
33261
33260
33256
33242
33240
33236
33228
33224
33218
33212
33212
33204
33199
33188
33188
33193
33184
33177
33185
33172
33172
33174
33173
33172
33156
33160
33158
33156
33156
33157
33156
33154
33158
33157
33157
33148
33152
33152
33157
33152
33157
33164
33164
33161
33176
33168
33167
33172
33180
33186
33188
33194
33184
33194
33196
33204
33204
33212
33216
33210
33216
33224
33232
33230
33244
33240
33248
33252
33256
33256
33268
33264
33276
33284
33284
33294
33290
33300
33308
33318
33324
33320
33340
33340
33349
33355
33356
33370
33366
33380
33392
33388
33406
33414
33416
33424
33444
33445
33457
33477
33479
33488
33502
33508
33520
33524
33540
33548
33564
33575
33581
33592
33614
33620
33628
33636
33656
33669
33672
33692
33692
33710
33713
33728
33739
33748
33764
33766
33784
33800
33812
33824
33817
33832
33844
33864
33860
33880
33885
33894
33908
33914
33925
33928
33945
33948
33972
33966
33974
33994
33998
34010
34017
34024
34033
34049
34048
34060
34072
34076
34084
34088
34104
34106
34117
34121
34136
34136
34152
34165
34168
34172
34186
34192
34205
34216
34213
34220
34238
34248
34246
34258
34276
34276
34274
34300
34304
34308
34321
34336
34338
34348
34352
34363
34368
34380
34377
34398
34404
34415
34416
34426
34432
34441
34448
34455
34462
34468
34468
34484
34490
34498
34500
34516
34518
34528
34528
34540
34556
34560
34565
34562
34578
34585
34596
34601
34612
34614
34620
34632
34639
34648
34648
34660
34668
34676
34676
34692
34692
34704
34713
34712
34724
34728
34743
34744
34748
34756
34759
34765
34767
34780
34784
34784
34788
34788
34797
34804
34812
34812
34813
34821
34826
34820
34828
34836
34840
34838
34840
34852
34844
34847
34852
34852
34857
34860
34860
34869
34864
34864
34868
34868
34860
34872
34868
34868
34869
34868
34882
34878
34868
34880
34878
34876
34878
34880
34880
34876
34880
34884
34881
34882
34880
34880
34884
34876
34884
34884
34890
34879
34892
34884
34892
34887
34892
34893
34885
34896
34898
34896
34900
34900
34904
34904
34911
34909
34905
34906
34920
34916
34920
34916
34920
34921
34918
34924
34920
34924
34932
34927
34932
34938
34942
34943
34936
34948
34949
34954
34948
34964
34958
34957
34966
34972
34972
34972
34972
34974
34972
34975
34980
34981
34981
34984
34989
34988
34990
34996
34996
34996
35004
35001
35004
35004
35014
35008
35005
35015
35012
35017
35014
35012
35020
35012
35019
35016
35016
35030
35026
35016
35024
35024
35028
35027
35032
35028
35025
35036
35028
35030
35033
35028
35033
35036
35028
35028
35032
35045
35032
35034
35033
35036
35044
35044
35044
35042
35048
35040
35038
35044
35040
35055
35044
35048
35056
35044
35052
35044
35053
35052
35046
35044
35052
35044
35046
35048
35049
35048
35048
35056
35053
35050
35052
35044
35044
35044
35044
35052
35044
35055
35046
35051
35052
35040
35044
35041
35040
35044
35041
35040
35048
35040
35045
35038
35036
35028
35032
35032
35038
35024
35029
35041
35024
35031
35034
35028
35036
35034
35032
35033
35036
35034
35028
35032
35034
35037
35036
35032
35040
35042
35044
35044
35040
35042
35046
35036
35046
35050
35044
35052
35054
35056
35052
35056
35056
35052
35052
35052
35064
35065
35060
35057
35068
35066
35060
35068
35076
35073
35068
35069
35064
35076
35061
35076
35080
35071
35077
35076
35084
35080
35086
35080
35084
35089
35080
35086
35084
35088
35092
35092
35086
35096
35092
35092
35096
35086
35100
35092
35090
35096
35098
35088
35095
35085
35092
35088
35093
35088
35092
35088
35081
35079
35088
35081
35088
35079
35090
35076
35080
35078
35069
35068
35082
35076
35068
35072
35068
35072
35063
35072
35070
35071
35069
35066
35070
35072
35060
35068
35060
35074
35071
35061
35071
35068
35071
35064
35062
35068
35072
35060
35075
35061
35076
35070
35072
35072
35069
35068
35064
35062
35076
35063
35060
35063
35060
35056
35057
35068
35064
35052
35053
35061
35052
35048
35050
35044
35040
35036
35030
35038
35032
35028
35022
35022
35020
35017
35007
35000
35001
35002
34992
34999
34988
34974
34968
34968
34969
34957
34948
34952
34950
34937
34920
34919
34908
34908
34900
34890
34886
34880
34864
34856
34849
34845
34840
34836
34828
34823
34808
34804
34789
34788
34788
34768
34770
34759
34756
34750
34744
34728
34724
34724
34708
34700
34692
34692
34677
34676
34660
34660
34649
34646
34633
34628
34622
34618
34608
34608
34596
34588
34588
34572
34568
34558
34556
34552
34544
34544
34536
34534
34528
34528
34517
34520
34509
34508
34500
34489
34492
34484
34488
34468
34479
34476
34472
34456
34470
34454
34449
34445
34452
34436
34431
34432
34433
34424
34416
34410
34408
34400
34404
34392
34401
34380
34388
34382
34386
34368
34372
34370
34364
34357
34349
34350
34340
34336
34324
34332
34320
34320
34304
34298
34298
34288
34281
34282
34272
34268
34254
34253
34252
34249
34230
34236
34225
34220
34212
34206
34209
34196
34196
34188
34188
34180
34180
34180
34172
34172
34160
34158
34162
34148
34146
34144
34144
34139
34133
34132
34144
34124
34126
34134
34120
34120
34118
34118
34116
34116
34116
34112
34112
34100
34101
34096
34100
34100
34096
34092
34092
34089
34084
34092
34084
34085
34080
34078
34084
34086
34077
34084
34080
34080
34074
34076
34076
34074
34072
34068
34072
34065
34060
34074
34070
34064
34060
34060
34062
34061
34061
34052
34056
34060
34053
34053
34048
34052
34046
34052
34044
34049
34052
34044
34052
34052
34048
34036
34048
34045
34048
34044
34048
34041
34044
34044
34032
34044
34038
34040
34030
34043
34036
34034
34040
34028
34032
34028
34028
34037
34028
34032
34032
34030
34024
34022
34016
34020
34028
34018
34018
34022
34020
34010
34012
34006
34000
34004
34008
34007
34004
34002
33998
34002
33994
34004
33992
33992
33994
33984
33984
33985
33980
33980
33976
33968
33956
33965
33964
33962
33950
33952
33956
33945
33955
33944
33934
33940
33929
33928
33934
33924
33932
33920
33913
33916
33905
33909
33904
33903
33908
33902
33900
33903
33900
33892
33900
33889
33888
33890
33892
33881
33890
33872
33868
33877
33884
33886
33870
33866
33865
33868
33872
33855
33852
33858
33846
33836
33838
33837
33836
33836
33836
33834
33828
33828
33822
33814
33817
33808
33804
33804
33805
33805
33799
33792
33796
33796
33783
33788
33783
33778
33778
33775
33768
33768
33768
33764
33764
33760
33760
33760
33749
33752
33752
33742
33740
33736
33740
33742
33734
33732
33728
33720
33716
33720
33720
33713
33704
33704
33706
33694
33698
33694
33688
33684
33679
33684
33672
33670
33669
33661
33660
33660
33658
33656
33648
33654
33647
33636
33634
33639
33636
33620
33634
33624
33616
33626
33620
33620
33620
33614
33616
33621
33604
33612
33602
33602
33612
33610
33606
33607
33602
33608
33601
33598
33604
33592
33596
33593
33600
33601
33600
33604
33592
33602
33599
33592
33594
33596
33598
33597
33588
33590
33594
33592
33588
33594
33584
33589
33594
33588
33592
33586
33586
33588
33584
33584
33590
33588
33576
33587
33580
33576
33581
33578
33576
33578
33581
33583
33574
33572
33574
33577
33570
33572
33572
33572
33568
33569
33568
33564
33564
33568
33566
33554
33558
33551
33562
33552
33552
33553
33544
33544
33550
33534
33544
33536
33534
33540
33534
33530
33522
33528
33533
33524
33522
33513
33524
33510
33508
33510
33510
33502
33497
33500
33504
33493
33492
33488
33488
33496
33488
33476
33478
33473
33472
33476
33470
33460
33468
33453
33456
33452
33448
33447
33444
33440
33445
33436
33430
33428
33418
33422
33422
33408
33412
33401
33404
33400
33409
33396
33388
33385
33396
33364
33377
33368
33366
33366
33368
33352
33348
33349
33348
33342
33346
33338
33329
33334
33320
33334
33320
33316
33316
33312
33310
33317
33298
33304
33292
33292
33284
33292
33292
33281
33278
33273
33284
33270
33264
33272
33262
33260
33256
33248
33248
33248
33236
33252
33236
33233
33236
33232
33228
33222
33218
33212
33215
33200
33208
33208
33200
33202
33198
33200
33190
33192
33180
33184
33177
33176
33166
33168
33173
33160
33156
33156
33156
33148
33156
33142
33145
33136
33140
33127
33125
33128
33118
33112
33108
33106
33098
33098
33100
33092
33088
33074
33084
33076
33070
33061
33056
33059
33054
33047
33044
33041
33035
33030
33033
33032
33025
33022
33017
33016
33018
33009
33008
33008
33007
32998
32990
32996
32992
32988
32980
32976
32975
32968
32964
32964
32960
32956
32954
32948
32948
32948
32943
32932
32934
32928
32926
32921
32918
32920
32919
32906
32900
32900
32892
32900
32892
32886
32892
32881
32870
32880
32868
32864
32856
32860
32844
32860
32846
32836
32844
32836
32836
32832
32832
32822
32820
32819
32810
32816
32809
32810
32803
32804
32801
32796
32796
32789
32780
32786
32780
32768
32774
32769
32774
32756
32764
32752
32752
32753
32746
32740
32744
32730
32732
32729
32724
32720
32712
32716
32704
32704
32705
32704
32698
32690
32684
32694
32687
32676
32680
32673
32670
32668
32664
32650
32656
32644
32644
32644
32628
32636
32632
32612
32614
32605
32598
32600
32594
32580
32588
32577
32569
32553
32550
32548
32540
32536
32526
32519
32514
32504
32508
32492
32490
32480
32479
32470
32464
32469
32456
32454
32446
32437
32436
32436
32424
32430
32432
32414
32416
32414
32408
32408
32396
32393
32388
32390
32388
32383
32381
32378
32372
32368
32368
32364
32357
32353
32356
32348
32350
32344
32340
32346
32332
32334
32332
32331
32332
32324
32324
32324
32320
32324
32324
32324
32316
32320
32311
32312
32304
32308
32310
32308
32308
32298
32300
32304
32304
32300
32302
32298
32301
32316
32297
32296
32300
32296
32296
32292
32292
32290
32296
32288
32290
32285
32292
32281
32293
32284
32283
32282
32282
32270
32268
32270
32272
32271
32264
32260
32254
32257
32255
32249
32244
32248
32244
32234
32233
32233
32226
32224
32222
32218
32210
32204
32208
32207
32200
32202
32194
32194
32193
32184
32188
32192
32188
32180
32181
32180
32180
32176
32177
32181
32182
32180
32168
32168
32168
32172
32164
32172
32161
32168
32172
32168
32170
32177
32168
32172
32172
32168
32167
32178
32168
32172
32183
32183
32172
32182
32178
32180
32180
32180
32178
32188
32185
32176
32188
32186
32188
32180
32183
32178
32186
32184
32188
32181
32186
32192
32192
32184
32188
32188
32191
32185
32196
32193
32190
32188
32196
32190
32196
32196
32197
32193
32192
32198
32200
32200
32197
32192
32202
32208
32208
32203
32212
32214
32205
32209
32208
32202
32210
32210
32210
32216
32218
32220
32222
32214
32225
32224
32220
32222
32225
32226
32220
32234
32228
32228
32227
32232
32224
32228
32232
32230
32236
32232
32228
32236
32229
32229
32236
32236
32230
32233
32233
32237
32228
32228
32228
32232
32231
32226
32229
32222
32220
32224
32224
32225
32221
32220
32224
32220
32220
32216
32212
32222
32220
32220
32220
32218
32208
32220
32208
32212
32217
32228
32218
32220
32215
32208
32220
32214
32216
32212
32222
32216
32224
32222
32220
32220
32224
32224
32224
32228
32234
32238
32237
32238
32235
32241
32240
32230
32244
32241
32244
32242
32241
32248
32248
32240
32244
32244
32234
32242
32239
32244
32248
32240
32252
32244
32245
32236
32245
32240
32242
32234
32236
32236
32236
32236
32232
32230
32233
32232
32232
32239
32228
32230
32236
32232
32230
32231
32230
32232
32231
32228
32228
32228
32232
32232
32225
32224
32229
32224
32230
32221
32220
32212
32220
32212
32206
32204
32209
32201
32200
32200
32199
32200
32204
32196
32189
32190
32196
32180
32186
32182
32180
32180
32188
32186
32174
32170
32180
32175
32180
32176
32168
32172
32172
32168
32166
32180
32169
32164
32173
32170
32172
32164
32164
32164
32160
32164
32164
32160
32164
32170
32169
32162
32158
32168
32161
32159
32164
32156
32160
32164
32158
32160
32154
32161
32152
32157
32156
32149
32152
32156
32148
32154
32156
32144
32148
32152
32149
32148
32146
32152
32158
32148
32151
32150
32149
32148
32154
32149
32148
32164
32158
32164
32156
32153
32162
32162
32159
32158
32160
32161
32164
32164
32164
32167
32170
32168
32172
32169
32176
32180
32181
32182
32178
32190
32180
32190
32194
32204
32200
32204
32200
32207
32206
32201
32214
32220
32212
32220
32220
32224
32226
32225
32233
32236
32238
32246
32230
32240
32244
32254
32250
32252
32253
32266
32254
32262
32273
32272
32268
32272
32276
32284
32284
32276
32292
32286
32289
32292
32297
32298
32302
32296
32302
32300
32312
32313
32312
32318
32320
32314
32320
32328
32328
32328
32324
32340
32336
32332
32338
32346
32338
32344
32345
32352
32356
32357
32354
32360
32360
32368
32374
32374
32376
32381
32383
32388
32384
32390
32392
32390
32396
32391
32407
32405
32412
32410
32410
32416
32420
32420
32420
32429
32429
32428
32436
32432
32436
32437
32444
32450
32444
32454
32455
32452
32470
32462
32460
32468
32470
32475
32464
32476
32487
32488
32478
32487
32492
32489
32500
32502
32495
32500
32508
32508
32508
32516
32511
32516
32525
32522
32519
32525
32532
32536
32542
32535
32537
32537
32540
32546
32548
32545
32552
32561
32564
32558
32561
32558
32564
32560
32562
32574
32572
32572
32574
32572
32572
32580
32580
32577
32581
32583
32594
32592
32590
32590
32600
32598
32600
32592
32596
32600
32600
32594
32596
32601
32604
32612
32606
32602
32606
32602
32606
32614
32612
32612
32608
32606
32606
32604
32612
32608
32616
32608
32612
32601
32612
32610
32604
32608
32608
32613
32607
32610
32612
32610
32612
32602
32612
32604
32601
32612
32600
32606
32599
32604
32600
32604
32596
32601
32608
32609
32614
32604
32604
32604
32608
32612
32608
32608
32614
32609
32613
32610
32612
32612
32612
32612
32608
32612
32612
32613
32616
32616
32612
32614
32612
32612
32613
32612
32614
32615
32612
32618
32612
32616
32609
32613
32620
32612
32613
32614
32622
32625
32624
32616
32624
32632
32620
32624
32622
32616
32630
32628
32632
32628
32634
32636
32629
32630
32644
32638
32637
32644
32638
32640
32647
32649
32648
32644
32638
32648
32644
32656
32654
32658
32665
32660
32664
32659
32660
32668
32663
32676
32669
32672
32676
32679
32674
32692
32684
32684
32688
32687
32692
32696
32694
32700
32698
32706
32702
32700
32706
32701
32704
32709
32710
32710
32700
32706
32704
32702
32704
32696
32700
32701
32702
32701
32704
32694
32696
32681
32685
32676
32681
32677
32678
32672
32668
32666
32668
32662
32654
32648
32648
32656
32649
32648
32648
32645
32634
32645
32636
32632
32631
32637
32637
32640
32636
32634
32640
32628
32638
32632
32628
32628
32638
32636
32630
32638
32640
32636
32641
32638
32646
32638
32646
32645
32644
32645
32652
32653
32648
32652
32652
32660
32668
32662
32669
32673
32676
32681
32675
32677
32688
32684
32685
32684
32685
32701
32705
32702
32708
32712
32716
32720
32722
32728
32733
32738
32748
32748
32743
32761
32751
32764
32773
32772
32784
32792
32794
32796
32804
32804
32812
32814
32820
32828
32830
32836
32838
32842
32853
32852
32857
32870
32868
32873
32872
32881
32887
32878
32892
32900
32908
32908
32915
32914
32925
32928
32932
32930
32936
32931
32936
32940
32948
32957
32958
32960
32964
32975
32978
32976
32984
32994
32996
32997
33000
33014
33015
33012
33020
33044
33033
33042
33060
33058
33060
33073
33072
33088
33092
33092
33102
33108
33113
33122
33120
33137
33144
33154
33156
33166
33168
33182
33181
33195
33200
33204
33212
33218
33232
33230
33232
33238
33252
33263
33268
33270
33273
33284
33293
33296
33304
33312
33316
33324
33328
33336
33344
33348
33356
33352
33360
33372
33377
33385
33388
33385
33400
33404
33416
33420
33420
33428
33444
33445
33446
33460
33468
33466
33473
33476
33488
33492
33492
33494
33508
33508
33521
33521
33524
33532
33536
33546
33550
33548
33564
33560
33573
33582
33578
33584
33588
33584
33596
33596
33604
33604
33612
33620
33618
33632
33624
33628
33636
33640
33644
33642
33653
33656
33646
33661
33660
33666
33660
33666
33668
33678
33665
33668
33676
33678
33676
33676
33680
33686
33676
33681
33687
33692
33678
33685
33689
33684
33682
33688
33684
33692
33686
33679
33685
33692
33684
33697
33693
33698
33692
33696
33695
33695
33697
33693
33701
33708
33706
33702
33706
33704
33708
33700
33706
33714
33712
33720
33719
33705
33724
33721
33724
33728
33728
33735
33728
33740
33732
33742
33742
33738
33748
33738
33738
33751
33748
33739
33742
33748
33741
33749
33742
33748
33744
33750
33744
33758
33749
33751
33752
33744
33751
33753
33760
33754
33756
33757
33758
33756
33756
33756
33764
33750
33768
33760
33758
33758
33766
33767
33767
33764
33765
33759
33758
33764
33764
33761
33751
33765
33756
33756
33760
33756
33758
33752
33749
33745
33740
33744
33742
33745
33740
33732
33740
33741
33736
33740
33732
33728
33728
33725
33728
33724
33724
33722
33713
33714
33717
33711
33716
33714
33708
33708
33708
33704
33708
33712
33706
33700
33704
33701
33713
33700
33702
33700
33700
33704
33692
33700
33700
33694
33694
33692
33692
33695
33680
33680
33696
33685
33682
33688
33686
33692
33693
33694
33685
33689
33684
33680
33692
33678
33678
33684
33688
33685
33681
33680
33676
33676
33671
33670
33673
33678
33679
33668
33677
33668
33672
33668
33666
33676
33668
33677
33668
33669
33668
33670
33668
33668
33676
33672
33668
33669
33670
33682
33674
33676
33680
33677
33680
33681
33681
33676
33686
33693
33696
33680
33685
33692
33686
33689
33692
33700
33692
33696
33695
33702
33701
33704
33700
33708
33716
33712
33710
33716
33721
33724
33732
33728
33728
33720
33730
33727
33733
33732
33734
33733
33741
33737
33751
33742
33741
33748
33750
33744
33744
33750
33760
33756
33758
33756
33756
33760
33765
33760
33760
33761
33767
33766
33772
33774
33777
33772
33776
33772
33786
33789
33783
33788
33790
33788
33792
33788
33796
33799
33796
33797
33800
33804
33794
33800
33802
33804
33805
33806
33808
33820
33812
33810
33818
33808
33822
33812
33822
33825
33824
33828
33830
33829
33828
33824
33838
33830
33836
33836
33833
33837
33841
33848
33841
33844
33852
33846
33845
33848
33854
33856
33848
33858
33857
33860
33860
33860
33866
33870
33866
33868
33868
33876
33870
33869
33876
33876
33887
33876
33876
33864
33876
33880
33872
33885
33876
33874
33880
33882
33878
33876
33880
33888
33888
33872
33881
33884
33889
33878
33884
33884
33891
33888
33888
33892
33877
33889
33888
33888
33893
33893
33889
33903
33893
33908
33904
33900
33908
33904
33908
33902
33903
33908
33900
33904
33908
33908
33918
33909
33912
33909
33904
33904
33912
33900
33908
33914
33908
33904
33904
33909
33908
33904
33912
33908
33905
33906
33908
33904
33904
33908
33908
33901
33904
33906
33912
33897
33898
33901
33908
33901
33895
33910
33899
33894
33893
33895
33900
33892
33900
33893
33889
33896
33892
33889
33893
33892
33884
33886
33892
33890
33885
33888
33880
33878
33882
33884
33877
33876
33880
33868
33876
33872
33873
33877
33870
33862
33865
33860
33856
33864
33854
33854
33856
33852
33849
33850
33840
33844
33845
33828
33844
33832
33828
33826
33828
33824
33815
33817
33818
33815
33797
33796
33804
33802
33796
33796
33790
33784
33775
33784
33780
33772
33772
33776
33772
33764
33760
33756
33756
33754
33760
33753
33742
33744
33729
33737
33736
33732
33728
33727
33726
33724
33728
33719
33718
33722
33716
33718
33719
33712
33710
33704
33708
33708
33704
33704
33705
33700
33704
33702
33696
33698
33700
33696
33700
33695
33697
33697
33708
33702
33692
33696
33697
33695
33697
33700
33702
33700
33702
33704
33703
33704
33704
33703
33708
33700
33716
33719
33716
33710
33712
33720
33712
33720
33719
33712
33713
33712
33713
33710
33709
33706
33706
33710
33704
33697
33696
33696
33696
33692
33696
33692
33692
33693
33693
33678
33692
33687
33684
33686
33684
33680
33679
33684
33686
33686
33688
33684
33691
33694
33704
33696
33696
33689
33700
33700
33702
33704
33701
33712
33704
33722
33716
33717
33721
33733
33736
33736
33737
33743
33740
33749
33756
33761
33753
33764
33760
33762
33764
33773
33780
33788
33777
33784
33793
33790
33793
33799
33798
33798
33804
33812
33812
33814
33818
33821
33824
33824
33826
33834
33832
33832
33832
33841
33856
33855
33852
33852
33862
33860
33860
33860
33868
33869
33873
33872
33884
33876
33876
33884
33884
33873
33888
33884
33893
33876
33889
33892
33892
33889
33902
33892
33892
33895
33893
33892
33894
33888
33892
33895
33902
33900
33892
33897
33892
33897
33895
33896
33895
33892
33904
33908
33905
33903
33904
33908
33904
33914
33910
33912
33908
33924
33924
33909
33913
33924
33928
33925
33926
33933
33933
33932
33932
33936
33936
33940
33952
33948
33945
33956
33964
33970
33964
33982
33969
33972
33982
33980
33990
33996
33988
33998
33996
34002
34016
34010
34013
34023
34018
34024
34032
34032
34032
34034
34030
34038
34052
34042
34048
34054
34061
34056
34062
34066
34069
34070
34080
34080
34076
34086
34089
34080
34100
34092
34094
34100
34100
34104
34112
34112
34122
34116
34124
34128
34128
34132
34137
34138
34142
34153
34150
34148
34161
34156
34168
34172
34176
34176
34185
34178
34186
34189
34196
34196
34212
34207
34212
34214
34220
34230
34220
34240
34244
34240
34248
34254
34252
34262
34254
34272
34280
34276
34276
34280
34296
34292
34296
34296
34305
34308
34311
34316
34316
34330
34336
34329
34336
34336
34340
34340
34358
34353
34371
34368
34375
34368
34372
34384
34388
34392
34398
34406
34406
34420
34412
34420
34426
34420
34432
34432
34436
34442
34448
34455
34468
34460
34480
34473
34488
34484
34490
34504
34497
34508
34516
34517
34524
34530
34536
34540
34544
34553
34556
34561
34570
34575
34576
34592
34583
34588
34600
34596
34600
34608
34620
34612
34620
34616
34630
34630
34630
34641
34644
34648
34648
34652
34657
34656
34668
34668
34681
34679
34685
34688
34692
34692
34700
34704
34712
34712
34724
34726
34724
34730
34732
34748
34740
34752
34748
34752
34756
34768
34760
34780
34765
34772
34773
34784
34772
34784
34792
34788
34786
34786
34784
34792
34797
34798
34798
34793
34798
34798
34796
34791
34804
34802
34797
34801
34796
34800
34804
34792
34807
34800
34801
34796
34804
34799
34801
34794
34800
34800
34804
34799
34796
34796
34806
34797
34788
34804
34800
34792
34796
34789
34792
34801
34785
34796
34788
34788
34790
34788
34782
34792
34788
34786
34774
34788
34778
34788
34776
34772
34772
34779
34772
34768
34766
34777
34768
34774
34772
34768
34760
34760
34765
34760
34764
34764
34756
34752
34757
34754
34764
34758
34758
34756
34756
34752
34753
34741
34756
34748
34752
34742
34742
34748
34740
34748
34753
34735
34728
34740
34737
34737
34740
34744
34743
34737
34740
34736
34732
34732
34736
34732
34736
34735
34732
34732
34732
34724
34728
34725
34724
34732
34732
34728
34735
34724
34724
34721
34724
34728
34725
34726
34730
34734
34720
34720
34720
34724
34716
34719
34719
34712
34725
34710
34717
34713
34710
34700
34704
34705
34709
34705
34700
34703
34706
34700
34695
34700
34696
34698
34700
34693
34690
34684
34684
34684
34689
34684
34676
34681
34685
34671
34676
34676
34676
34680
34680
34676
34671
34662
34669
34668
34664
34664
34666
34663
34660
34660
34649
34661
34658
34652
34649
34650
34640
34640
34646
34644
34637
34636
34632
34630
34625
34624
34626
34628
34622
34620
34622
34606
34608
34612
34614
34606
34604
34608
34606
34597
34605
34594
34594
34589
34588
34589
34596
34582
34584
34582
34574
34568
34572
34580
34573
34564
34561
34560
34551
34556
34548
34558
34545
34544
34544
34538
34529
34540
34525
34520
34520
34518
34510
34518
34512
34504
34504
34496
34492
34492
34488
34480
34476
34470
34469
34471
34472
34461
34448
34448
34442
34450
34441
34436
34430
34424
34416
34420
34404
34404
34404
34404
34392
34394
34388
34389
34377
34372
34376
34370
34368
34364
34372
34352
34354
34348
34348
34335
34340
34336
34336
34336
34332
34321
34308
34316
34312
34310
34310
34302
34292
34300
34292
34288
34283
34286
34276
34274
34269
34268
34272
34268
34257
34254
34252
34248
34256
34248
34240
34241
34234
34241
34236
34236
34229
34228
34228
34233
34213
34213
34213
34209
34216
34212
34206
34206
34201
34196
34190
34196
34182
34184
34184
34180
34180
34172
34176
34169
34168
34168
34152
34156
34158
34151
34144
34142
34144
34148
34136
34134
34124
34128
34118
34113
34116
34110
34113
34112
34100
34092
34091
34085
34082
34078
34078
34076
34070
34065
34066
34062
34053
34062
34046
34044
34045
34040
34042
34027
34032
34028
34024
34021
34016
34020
34019
34009
34020
34006
34006
34007
34000
33996
33996
33992
33996
33989
33980
33988
33985
33984
33980
33976
33982
33972
33980
33964
33976
33964
33970
33968
33958
33969
33966
33960
33968
33957
33950
33956
33956
33958
33956
33953
33949
33955
33967
33952
33948
33947
33952
33954
33952
33952
33942
33944
33948
33940
33941
33944
33934
33928
33932
33926
33927
33920
33922
33928
33916
33912
33910
33896
33904
33893
33892
33898
33896
33886
33889
33880
33884
33872
33878
33868
33870
33860
33864
33865
33864
33864
33856
33854
33862
33858
33860
33860
33850
33850
33856
33860
33856
33856
33857
33856
33860
33860
33860
33864
33861
33864
33868
33862
33875
33876
33866
33876
33872
33874
33885
33885
33893
33892
33892
33892
33896
33902
33900
33916
33916
33921
33920
33924
33924
33938
33940
33948
33944
33944
33944
33954
33956
33966
33964
33972
33980
33976
33982
33986
33988
33992
33994
33990
34000
33992
34004
34012
34008
34012
34024
34019
34029
34026
34033
34033
34036
34032
34036
34044
34044
34049
34052
34049
34047
34050
34063
34054
34060
34060
34068
34056
34064
34058
34062
34070
34068
34069
34062
34064
34056
34064
34068
34072
34064
34068
34072
34065
34068
34072
34072
34076
34072
34080
34085
34080
34081
34086
34084
34085
34092
34094
34092
34091
34096
34096
34108
34104
34104
34116
34112
34102
34118
34116
34116
34132
34118
34128
34132
34136
34142
34140
34144
34144
34148
34154
34156
34168
34166
34166
34168
34165
34174
34174
34176
34180
34181
34180
34188
34186
34193
34196
34200
34204
34208
34204
34212
34212
34216
34214
34212
34216
34224
34216
34222
34231
34229
34224
34244
34240
34237
34240
34246
34250
34248
34244
34256
34262
34257
34264
34272
34265
34277
34278
34280
34274
34283
34284
34284
34290
34292
34305
34293
34303
34296
34308
34308
34309
34308
34304
34306
34306
34308
34308
34320
34312
34318
34316
34320
34316
34320
34325
34324
34322
34327
34324
34316
34325
34320
34326
34321
34312
34316
34326
34316
34312
34318
34320
34317
34316
34310
34308
34312
34312
34310
34302
34302
34292
34296
34302
34292
34304
34297
34280
34290
34292
34284
34284
34280
34276
34280
34271
34276
34268
34266
34264
34264
34255
34260
34255
34261
34260
34252
34254
34244
34248
34252
34244
34252
34240
34244
34244
34236
34238
34237
34236
34233
34228
34229
34232
34224
34222
34214
34223
34212
34209
34212
34204
34204
34204
34200
34196
34184
34174
34177
34178
34169
34160
34164
34164
34149
34152
34144
34140
34138
34136
34128
34121
34118
34120
34112
34110
34108
34100
34096
34090
34082
34088
34082
34080
34084
34076
34060
34060
34062
34056
34052
34044
34040
34034
34036
34032
34021
34010
34016
34008
34000
34002
33992
33980
33982
33976
33970
33958
33948
33956
33948
33941
33932
33932
33932
33920
33916
33914
33908
33896
33895
33893
33881
33878
33874
33874
33868
33855
33861
33864
33840
33845
33845
33840
33844
33836
33833
33832
33828
33828
33820
33808
33812
33810
33810
33813
33800
33806
33800
33799
33791
33800
33798
33794
33796
33788
33791
33798
33796
33796
33785
33788
33776
33791
33780
33781
33788
33784
33784
33785
33788
33782
33776
33789
33782
33780
33780
33780
33780
33776
33776
33781
33770
33772
33776
33777
33784
33772
33776
33775
33772
33784
33773
33776
33772
33783
33774
33764
33774
33772
33764
33780
33769
33772
33768
33764
33772
33765
33764
33764
33760
33768
33772
33760
33764
33759
33764
33756
33754
33756
33754
33742
33744
33748
33736
33751
33744
33740
33744
33732
33732
33733
33736
33732
33724
33724
33720
33718
33709
33704
33712
33704
33709
33704
33704
33700
33696
33696
33693
33692
33692
33685
33688
33688
33684
33676
33670
33665
33674
33666
33664
33668
33660
33658
33660
33658
33652
33660
33654
33641
33638
33639
33637
33638
33632
33632
33634
33626
33636
33624
33636
33628
33626
33630
33620
33620
33621
33628
33615
33616
33620
33620
33612
33616
33612
33612
33614
33608
33612
33617
33612
33616
33621
33616
33612
33612
33613
33612
33614
33616
33616
33622
33615
33618
33617
33620
33626
33618
33630
33630
33632
33634
33632
33628
33637
33637
33639
33636
33638
33640
33644
33641
33652
33644
33652
33652
33662
33660
33660
33658
33652
33656
33668
33666
33665
33668
33656
33664
33669
33678
33672
33672
33673
33665
33676
33677
33676
33675
33680
33673
33682
33684
33692
33684
33692
33685
33693
33684
33694
33684
33692
33688
33688
33679
33692
33684
33688
33688
33688
33692
33688
33680
33684
33692
33689
33684
33688
33688
33680
33687
33678
33684
33674
33679
33670
33665
33680
33676
33673
33660
33664
33660
33660
33665
33668
33662
33649
33649
33652
33652
33658
33644
33649
33656
33644
33647
33644
33644
33633
33641
33628
33636
33642
33638
33634
33632
33631
33628
33622
33620
33620
33624
33620
33620
33613
33614
33616
33615
33612
33616
33608
33617
33606
33604
33600
33597
33596
33598
33592
33588
33586
33597
33584
33583
33588
33577
33583
33582
33583
33574
33580
33588
33572
33578
33574
33576
33577
33570
33576
33584
33576
33572
33568
33576
33568
33568
33568
33570
33573
33572
33586
33578
33576
33572
33577
33582
33585
33582
33581
33580
33574
33586
33588
33590
33586
33589
33596
33592
33598
33592
33602
33596
33604
33612
33612
33620
33621
33609
33624
33628
33621
33626
33624
33632
33636
33644
33652
33644
33644
33650
33647
33666
33660
33660
33662
33670
33668
33664
33672
33678
33682
33686
33692
33676
33677
33687
33692
33686
33687
33686
33684
33694
33681
33692
33684
33686
33688
33688
33688
33681
33682
33678
33692
33684
33680
33676
33676
33684
33684
33692
33672
33681
33676
33672
33679
33681
33684
33689
33684
33685
33686
33692
33696
33689
33696
33696
33703
33697
33704
33700
33704
33713
33708
33703
33722
33712
33719
33711
33724
33716
33726
33717
33725
33729
33736
33744
33734
33742
33756
33760
33760
33764
33768
33776
33777
33781
33780
33796
33799
33797
33797
33817
33822
33828
33836
33831
33848
33844
33856
33857
33869
33872
33872
33892
33886
33892
33902
33911
33912
33916
33912
33932
33928
33940
33935
33942
33948
33950
33954
33956
33956
33958
33962
33975
33970
33976
33980
33980
33984
33984
33986
33988
33997
33996
33994
33997
33992
33992
33994
33992
33996
33990
34000
34000
34000
33996
33992
34004
33992
33994
33992
34004
33990
33992
33992
33990
33994
33992
33998
33994
33984
33984
33976
33988
33986
33982
33972
33977
33980
33981
33984
33980
33986
33982
33980
33980
33976
33976
33976
33982
33976
33988
33980
33986
33980
33988
33984
33984
33988
33985
33987
33988
33992
33992
33988
33988
33990
33992
33991
33988
33990
33986
33984
33988
33985
33996
33984
33992
33983
33984
33978
33984
33976
33984
33986
33970
33975
33968
33970
33965
33972
33960
33963
33962
33960
33952
33954
33943
33948
33940
33940
33936
33933
33940
33926
33932
33924
33921
33912
33917
33896
33903
33902
33900
33884
33888
33886
33881
33874
33876
33865
33857
33861
33852
33844
33841
33833
33836
33830
33828
33820
33820
33809
33809
33796
33797
33788
33796
33780
33776
33780
33764
33764
33748
33756
33748
33733
33732
33737
33716
33720
33710
33709
33712
33709
33700
33692
33692
33692
33684
33674
33672
33668
33664
33649
33650
33648
33644
33636
33638
33636
33632
33624
33620
33620
33612
33610
33604
33600
33604
33590
33592
33588
33580
33578
33572
33570
33564
33562
33569
33561
33556
33551
33548
33540
33540
33540
33532
33532
33532
33533
33527
33522
33527
33519
33521
33516
33512
33508
33506
33504
33501
33490
33498
33492
33488
33481
33492
33472
33472
33478
33472
33462
33456
33453
33445
33454
33448
33445
33442
33428
33431
33422
33416
33416
33418
33412
33412
33400
33396
33390
33393
33383
33376
33380
33380
33374
33372
33367
33369
33358
33356
33358
33356
33345
33348
33348
33335
33340
33344
33332
33338
33335
33327
33324
33332
33325
33326
33321
33316
33320
33316
33312
33311
33305
33310
33306
33300
33302
33292
33301
33292
33286
33287
33286
33286
33293
33282
33286
33278
33280
33278
33274
33260
33268
33268
33260
33260
33256
33256
33260
33256
33252
33249
33246
33241
33244
33244
33236
33236
33233
33234
33236
33237
33222
33224
33230
33223
33220
33226
33220
33212
33216
33214
33212
33213
33208
33206
33210
33208
33206
33200
33196
33192
33196
33194
33186
33192
33186
33182
33188
33183
33177
33180
33176
33180
33165
33168
33168
33177
33174
33166
33160
33156
33153
33156
33152
33153
33152
33152
33141
33142
33145
33140
33136
33132
33140
33136
33124
33124
33124
33126
33116
33118
33116
33112
33104
33108
33100
33108
33096
33092
33093
33092
33083
33092
33084
33083
33084
33080
33063
33068
33064
33058
33050
33056
33050
33053
33041
33038
33029
33028
33022
33016
33016
33008
33002
33001
32991
32992
32984
32972
32972
32964
32965
32954
32952
32948
32940
32932
32930
32924
32931
32919
32914
32908
32905
32898
32892
32890
32880
32876
32874
32864
32857
32852
32848
32846
32844
32838
32836
32828
32825
32812
32816
32810
32806
32805
32794
32796
32794
32782
32778
32775
32772
32768
32752
32758
32750
32748
32741
32734
32730
32720
32720
32708
32720
32708
32705
32706
32689
32696
32679
32685
32676
32665
32665
32660
32653
32654
32655
32641
32638
32640
32630
32632
32617
32621
32614
32614
32606
32600
32604
32593
32591
32584
32578
32580
32580
32580
32561
32572
32556
32552
32559
32550
32551
32542
32532
32526
32532
32530
32529
32527
32520
32521
32510
32508
32512
32496
32504
32501
32497
32484
32482
32488
32480
32482
32472
32476
32476
32474
32458
32462
32458
32452
32460
32444
32440
32442
32430
32432
32428
32433
32430
32414
32410
32408
32404
32399
32396
32386
32386
32384
32380
32380
32371
32372
32373
32366
32357
32361
32356
32356
32348
32348
32345
32343
32334
32340
32335
32332
32320
32326
32321
32314
32322
32314
32305
32310
32304
32304
32305
32293
32292
32292
32296
32293
32293
32276
32284
32280
32272
32280
32268
32264
32272
32269
32260
32271
32256
32258
32242
32245
32241
32249
32238
32234
32233
32228
32231
32220
32220
32215
32214
32213
32204
32208
32197
32193
32194
32193
32189
32190
32181
32180
32172
32172
32174
32172
32162
32168
32169
32161
32166
32157
32156
32156
32153
32154
32148
32148
32148
32140
32137
32144
32140
32140
32140
32138
32154
32134
32137
32127
32132
32140
32132
32128
32124
32128
32131
32124
32121
32122
32124
32128
32118
32124
32132
32117
32122
32113
32111
32115
32109
32109
32112
32112
32097
32100
32100
32101
32098
32100
32098
32088
32096
32084
32092
32092
32088
32084
32072
32077
32070
32061
32073
32061
32069
32049
32053
32048
32045
32044
32033
32038
32034
32026
32034
32028
32028
32020
32022
32020
32014
32012
32016
32010
32007
32004
32007
32006
32006
32006
32000
32016
32004
32004
32015
32004
32002
32004
31998
32004
32004
32015
32010
32006
32005
32008
32016
32006
31996
32020
32012
32008
32008
32014
32016
32020
32009
32008
32015
32013
32016
32012
32012
32016
32013
32006
32020
32012
32024
32016
32017
32017
32016
32014
32017
32018
32013
32012
32008
32017
32009
32012
32016
32015
32014
32008
32012
32004
32004
32013
32004
32006
32008
32008
32000
32008
32007
32005
32007
32000
31996
32004
32000
31992
31989
31988
31988
31976
31981
31976
31972
31966
31968
31964
31967
31950
31949
31952
31940
31942
31946
31928
31934
31920
31928
31908
31912
31912
31904
31902
31896
31896
31894
31885
31884
31876
31873
31860
31862
31860
31849
31848
31850
31852
31840
31836
31825
31828
31825
31824
31815
31809
31808
31805
31808
31812
31794
31800
31796
31796
31792
31794
31792
31780
31788
31782
31784
31782
31790
31785
31780
31781
31782
31772
31780
31776
31776
31774
31774
31772
31768
31772
31768
31764
31761
31767
31759
31765
31764
31756
31760
31753
31756
31759
31761
31752
31752
31760
31756
31756
31748
31756
31756
31753
31752
31750
31748
31748
31751
31752
31752
31748
31750
31753
31744
31740
31741
31750
31748
31740
31756
31750
31752
31749
31754
31752
31748
31746
31753
31750
31756
31752
31756
31754
31758
31756
31760
31751
31760
31762
31759
31765
31760
31768
31764
31772
31768
31768
31764
31768
31773
31769
31764
31769
31764
31768
31764
31756
31776
31765
31760
31762
31767
31772
31764
31768
31760
31762
31758
31760
31756
31767
31756
31751
31758
31765
31756
31756
31748
31756
31746
31752
31759
31748
31748
31761
31752
31751
31756
31750
31750
31748
31756
31753
31756
31756
31752
31756
31760
31752
31758
31761
31760
31760
31764
31756
31764
31764
31768
31778
31772
31772
31777
31780
31783
31781
31790
31797
31798
31791
31796
31800
31808
31812
31808
31808
31820
31808
31812
31813
31816
31815
31812
31820
31823
31824
31830
31824
31828
31826
31825
31832
31829
31834
31832
31844
31841
31845
31844
31847
31856
31856
31857
31854
31864
31857
31871
31876
31876
31884
31888
31884
31894
31896
31892
31901
31900
31904
31909
31903
31914
31916
31916
31920
31927
31933
31928
31925
31936
31934
31940
31937
31940
31941
31944
31948
31948
31948
31950
31954
31958
31954
31953
31964
31960
31960
31964
31964
31966
31972
31967
31972
31972
31973
31981
31980
31977
31980
31978
31980
31984
31984
31984
31982
31992
31982
31996
31994
31992
31993
31996
32001
32000
32000
32003
32008
32007
32007
31997
32002
32008
32006
32012
32012
32020
32012
32020
32014
32020
32024
32024
32028
32020
32022
32022
32012
32026
32028
32028
32029
32033
32034
32034
32024
32030
32036
32039
32033
32038
32040
32036
32040
32036
32032
32041
32044
32040
32049
32044
32044
32048
32044
32057
32049
32056
32052
32052
32054
32056
32058
32060
32060
32064
32064
32074
32064
32066
32076
32068
32069
32076
32064
32081
32079
32076
32080
32076
32080
32076
32088
32081
32086
32084
32089
32082
32084
32090
32085
32084
32086
32087
32085
32088
32100
32082
32092
32084
32088
32085
32085
32080
32086
32090
32088
32090
32088
32086
32088
32087
32088
32092
32084
32098
32085
32086
32087
32080
32092
32088
32084
32088
32080
32092
32089
32088
32093
32092
32093
32096
32089
32096
32092
32096
32100
32095
32098
32100
32092
32096
32100
32095
32100
32103
32096
32104
32096
32094
32098
32100
32100
32094
32104
32108
32100
32106
32104
32102
32100
32104
32100
32104
32102
32097
32104
32100
32102
32105
32104
32102
32111
32108
32106
32109
32116
32100
32112
32108
32108
32111
32112
32116
32114
32116
32112
32118
32112
32118
32119
32114
32120
32122
32125
32124
32121
32124
32118
32128
32129
32127
32133
32126
32133
32134
32146
32135
32134
32134
32130
32140
32144
32129
32138
32142
32142
32156
32141
32148
32144
32148
32149
32148
32152
32148
32145
32152
32152
32148
32153
32152
32162
32156
32156
32164
32159
32152
32165
32160
32168
32168
32172
32168
32160
32169
32176
32170
32180
32182
32169
32180
32175
32172
32175
32168
32172
32180
32178
32172
32167
32184
32180
32189
32181
32184
32184
32180
32192
32188
32190
32186
32190
32193
32188
32196
32194
32190
32198
32192
32200
32204
32196
32206
32204
32212
32206
32208
32214
32208
32210
32218
32209
32221
32224
32224
32222
32230
32229
32225
32232
32228
32236
32236
32234
32229
32234
32233
32242
32238
32242
32246
32248
32244
32252
32254
32260
32256
32266
32260
32264
32269
32263
32268
32268
32272
32280
32280
32280
32272
32284
32288
32288
32288
32292
32292
32296
32300
32292
32296
32304
32304
32302
32313
32316
32318
32324
32316
32326
32324
32324
32332
32332
32324
32336
32332
32332
32337
32342
32352
32344
32348
32350
32357
32352
32356
32364
32364
32364
32372
32374
32368
32376
32380
32380
32377
32378
32384
32382
32392
32390
32394
32396
32400
32396
32390
32400
32390
32396
32392
32396
32404
32406
32396
32400
32393
32400
32399
32391
32388
32388
32390
32388
32385
32389
32381
32377
32373
32378
32366
32364
32365
32367
32359
32358
32352
32354
32348
32357
32353
32356
32352
32356
32356
32356
32360
32360
32360
32361
32366
32368
32364
32364
32374
32375
32372
32382
32380
32376
32380
32376
32380
32389
32396
32389
32389
32402
32398
32404
32409
32406
32405
32412
32416
32416
32424
32426
32425
32436
32416
32430
32432
32440
32440
32432
32436
32436
32444
32444
32449
32452
32448
32450
32457
32465
32460
32460
32454
32460
32472
32476
32476
32484
32486
32485
32484
32484
32489
32496
32502
32496
32508
32504
32513
32516
32516
32516
32526
32538
32534
32521
32528
32540
32540
32544
32544
32548
32549
32546
32558
32554
32556
32556
32557
32566
32558
32564
32570
32568
32572
32580
32576
32588
32586
32584
32584
32590
32585
32604
32596
32604
32602
32604
32613
32613
32612
32620
32624
32631
32630
32631
32642
32633
32641
32644
32653
32662
32660
32670
32664
32665
32676
32670
32678
32685
32699
32696
32704
32706
32708
32718
32716
32726
32726
32732
32740
32750
32748
32752
32769
32766
32772
32775
32777
32778
32786
32800
32804
32804
32806
32818
32815
32823
32830
32836
32838
32850
32853
32860
32861
32868
32868
32878
32886
32896
32895
32898
32904
32917
32921
32916
32930
32932
32943
32958
32949
32960
32966
32972
32982
32988
32996
32992
32998
33000
33017
33016
33030
33033
33046
33052
33053
33062
33060
33068
33082
33080
33086
33096
33110
33104
33104
33125
33124
33137
33130
33136
33144
33149
33164
33164
33172
33178
33180
33184
33193
33204
33200
33200
33208
33220
33220
33221
33232
33244
33246
33248
33253
33252
33260
33264
33280
33276
33272
33297
33284
33296
33300
33304
33316
33308
33318
33326
33329
33328
33333
33340
33342
33352
33356
33352
33360
33376
33374
33378
33380
33385
33394
33399
33400
33402
33414
33416
33429
33424
33428
33441
33441
33460
33457
33452
33465
33470
33474
33489
33492
33492
33504
33516
33508
33520
33524
33527
33540
33536
33548
33548
33556
33559
33572
33577
33572
33576
33581
33589
33585
33600
33600
33610
33614
33619
33620
33634
33630
33632
33644
33652
33644
33652
33653
33655
33669
33672
33685
33673
33687
33697
33694
33682
33709
33708
33716
33716
33720
33725
33732
33740
33740
33752
33741
33750
33765
33757
33768
33776
33772
33772
33780
33780
33796
33796
33799
33797
33812
33814
33812
33822
33824
33828
33825
33833
33830
33836
33848
33844
33852
33861
33864
33864
33869
33876
33874
33886
33884
33893
33898
33897
33909
33912
33917
33922
33930
33932
33940
33945
33950
33950
33953
33956
33972
33971
33976
33989
33982
33996
34009
34008
34016
34020
34020
34030
34033
34044
34052
34052
34056
34062
34066
34080
34072
34092
34092
34100
34111
34108
34118
34120
34128
34144
34138
34149
34149
34152
34165
34160
34168
34172
34183
34188
34192
34196
34196
34204
34212
34204
34214
34220
34232
34232
34248
34240
34247
34258
34263
34268
34265
34276
34276
34284
34284
34295
34303
34308
34305
34324
34333
34332
34340
34340
34346
34352
34366
34357
34374
34383
34377
34390
34400
34400
34408
34409
34412
34420
34433
34432
34436
34444
34442
34448
34462
34469
34468
34468
34477
34488
34484
34488
34490
34508
34500
34506
34518
34524
34517
34536
34532
34544
34544
34548
34560
34564
34564
34563
34568
34576
34577
34591
34592
34592
34596
34601
34604
34614
34608
34620
34627
34620
34634
34632
34636
34648
34648
34654
34656
34661
34669
34669
34682
34673
34682
34688
34694
34695
34700
34705
34707
34702
34720
34717
34724
34725
34732
34740
34742
34746
34748
34752
34752
34760
34768
34772
34774
34780
34783
34794
34797
34789
34791
34800
34809
34808
34808
34817
34814
34822
34830
34826
34830
34836
34859
34842
34848
34849
34852
34850
34866
34870
34874
34874
34880
34882
34884
34896
34894
34903
34900
34905
34910
34904
34916
34920
34920
34925
34932
34927
34932
34934
34948
34948
34952
34959
34950
34952
34964
34964
34965
34972
34976
34984
34985
34988
34988
34993
35002
35000
35004
35012
35005
35013
35020
35029
35028
35032
35040
35044
35047
35048
35052
35052
35066
35068
35070
35074
35081
35089
35092
35092
35098
35113
35108
35109
35110
35120
35124
35132
35134
35136
35130
35148
35153
35156
35158
35172
35166
35172
35177
35180
35188
35183
35192
35204
35201
35204
35208
35212
35220
35226
35224
35233
35236
35240
35247
35248
35252
35256
35262
35268
35266
35270
35278
35276
35286
35290
35296
35292
35292
35296
35308
35305
35311
35316
35320
35316
35330
35336
35326
35340
35340
35348
35350
35352
35353
35364
35359
35364
35356
35369
35375
35374
35372
35375
35376
35382
35384
35381
35388
35382
35384
35390
35392
35396
35396
35388
35396
35404
35400
35404
35404
35410
35400
35414
35412
35424
35416
35414
35420
35421
35426
35420
35428
35424
35432
35430
35429
35435
35438
35434
35444
35438
35444
35442
35444
35452
35448
35456
35448
35453
35448
35464
35456
35470
35464
35468
35468
35484
35472
35481
35476
35480
35484
35492
35496
35492
35492
35504
35496
35508
35511
35512
35517
35520
35520
35521
35522
35532
35524
35528
35530
35538
35538
35537
35544
35536
35544
35548
35548
35540
35540
35544
35544
35556
35538
35552
35556
35548
35548
35544
35549
35542
35544
35548
35544
35542
35529
35540
35532
35534
35534
35543
35544
35544
35542
35544
35544
35544
35544
35548
35550
35548
35564
35549
35560
35560
35568
35565
35560
35568
35578
35588
35586
35580
35592
35590
35609
35614
35614
35614
35617
35620
35624
35625
35648
35652
35648
35641
35652
35652
35654
35656
35656
35668
35668
35674
35668
35680
35679
35685
35684
35692
35682
35689
35704
35690
35696
35708
35700
35712
35708
35714
35726
35720
35724
35731
35725
35736
35733
35738
35741
35744
35752
35760
35756
35766
35766
35776
35772
35777
35788
35782
35788
35789
35780
35792
35796
35796
35804
35797
35800
35804
35816
35812
35808
35816
35820
35816
35816
35816
35813
35828
35820
35828
35820
35821
35824
35822
35817
35824
35828
35826
35829
35830
35831
35828
35832
35838
35838
35836
35836
35838
35838
35839
35838
35847
35841
35852
35844
35850
35855
35852
35852
35860
35860
35865
35876
35872
35872
35872
35873
35876
35880
35888
35887
35886
35888
35896
35900
35900
35911
35910
35920
35916
35921
35921
35930
35936
35936
35941
35942
35950
35962
35958
35960
35964
35972
35980
35980
35989
35992
36002
36008
36008
36016
36008
36024
36032
36040
36040
36048
36056
36058
36065
36068
36072
36086
36100
36103
36106
36116
36116
36120
36130
36136
36152
36156
36160
36166
36176
36180
36188
36201
36196
36213
36213
36221
36236
36230
36239
36252
36254
36268
36273
36272
36278
36284
36286
36295
36296
36304
36302
36316
36324
36326
36322
36328
36334
36343
36340
36358
36344
36352
36360
36360
36356
36364
36364
36370
36373
36377
36368
36375
36375
36384
36380
36376
36380
36384
36386
36389
36384
36380
36384
36386
36384
36384
36376
36388
36384
36384
36385
36388
36374
36384
36382
36382
36380
36385
36381
36382
36384
36388
36373
36380
36377
36388
36393
36388
36390
36383
36388
36390
36392
36388
36385
36396
36398
36399
36400
36396
36394
36404
36393
36400
36404
36396
36400
36394
36404
36398
36396
36404
36390
36390
36400
36392
36396
36400
36396
36396
36394
36388
36392
36384
36391
36384
36388
36392
36384
36382
36392
36388
36385
36384
36386
36391
36385
36390
36388
36389
36381
36385
36396
36392
36388
36388
36390
36398
36394
36396
36399
36400
36398
36400
36404
36408
36397
36397
36396
36414
36399
36404
36400
36412
36404
36408
36406
36407
36408
36414
36417
36408
36408
36410
36404
36420
36420
36416
36412
36417
36412
36420
36420
36416
36416
36420
36424
36425
36420
36424
36414
36427
36424
36431
36426
36432
36430
36424
36436
36431
36436
36436
36438
36430
36428
36434
36442
36441
36440
36441
36437
36437
36442
36434
36436
36432
36436
36442
36436
36438
36437
36436
36428
36432
36430
36432
36432
36430
36428
36433
36430
36432
36434
36430
36428
36421
36424
36420
36418
36420
36416
36416
36424
36419
36420
36420
36416
36414
36408
36408
36412
36412
36408
36404
36408
36400
36399
36404
36400
36400
36393
36404
36392
36385
36397
36392
36390
36386
36388
36382
36388
36373
36380
36384
36372
36375
36382
36376
36380
36377
36376
36376
36375
36374
36368
36360
36380
36370
36372
36364
36361
36367
36370
36364
36356
36368
36366
36364
36360
36368
36364
36364
36361
36358
36357
36355
36360
36364
36364
36358
36360
36364
36364
36354
36368
36362
36351
36356
36352
36365
36357
36353
36358
36360
36356
36356
36352
36345
36358
36352
36352
36344
36352
36348
36344
36344
36351
36339
36345
36340
36342
36348
36340
36336
36346
36340
36344
36336
36327
36336
36332
36332
36328
36332
36328
36332
36326
36324
36324
36324
36316
36320
36308
36306
36306
36306
36296
36304
36294
36300
36295
36292
36281
36280
36272
36276
36276
36272
36272
36265
36265
36252
36252
36245
36238
36236
36244
36238
36228
36229
36230
36222
36220
36208
36212
36204
36198
36196
36196
36182
36182
36185
36182
36177
36170
36167
36160
36164
36149
36148
36140
36136
36144
36132
36124
36116
36116
36104
36101
36095
36086
36078
36080
36064
36064
36064
36062
36060
36048
36036
36032
36032
36013
36016
36012
36014
35996
35998
35994
35985
35968
35972
35964
35949
35941
35937
35932
35928
35932
35908
35900
35902
35892
35887
35872
35876
35868
35858
35848
35838
35846
35830
35820
35820
35806
35804
35808
35788
35780
35776
35772
35756
35756
35748
35732
35734
35733
35721
35720
35709
35700
35692
35686
35695
35680
35672
35665
35656
35650
35646
35628
35632
35624
35616
35612
35600
35592
35590
35580
35566
35559
35552
35545
35529
35522
35524
35510
35498
35492
35485
35472
35472
35462
35456
35442
35437
35428
35422
35415
35404
35384
35377
35370
35362
35359
35343
35330
35332
35316
35310
35298
35280
35276
35264
35264
35262
35248
35244
35226
35230
35221
35213
35204
35201
35196
35188
35184
35172
35173
35159
35156
35148
35140
35135
35136
35130
35118
35116
35108
35108
35098
35096
35080
35086
35074
35072
35064
35064
35055
35057
35052
35045
35042
35030
35036
35020
35016
35013
35004
35010
35004
34996
34988
34979
34984
34982
34981
34972
34960
34961
34950
34948
34942
34944
34930
34928
34922
34916
34912
34906
34892
34890
34880
34874
34872
34860
34855
34852
34844
34829
34822
34814
34804
34799
34788
34788
34780
34768
34760
34752
34750
34748
34736
34724
34720
34724
34713
34700
34698
34692
34682
34684
34669
34671
34668
34660
34652
34652
34644
34644
34636
34636
34628
34626
34616
34606
34615
34616
34600
34604
34590
34596
34577
34588
34568
34576
34584
34568
34564
34567
34564
34564
34552
34556
34548
34544
34540
34532
34536
34521
34528
34520
34520
34516
34504
34500
34505
34500
34496
34496
34486
34488
34484
34484
34480
34480
34472
34468
34468
34452
34462
34453
34446
34452
34440
34442
34432
34425
34432
34420
34424
34414
34410
34408
34410
34396
34397
34396
34390
34381
34374
34373
34362
34366
34352
34356
34352
34340
34336
34324
34326
34312
34311
34308
34292
34288
34280
34279
34276
34268
34266
34248
34240
34240
34240
34228
34218
34220
34212
34205
34197
34194
34186
34185
34181
34178
34166
34158
34156
34154
34151
34150
34140
34136
34136
34133
34127
34118
34116
34106
34106
34100
34097
34100
34097
34088
34088
34082
34074
34081
34072
34068
34061
34052
34062
34056
34040
34036
34036
34040
34024
34016
34020
34020
34008
34016
34012
34001
34004
33996
33994
33992
33990
33996
33982
33976
33972
33965
33962
33972
33956
33960
33948
33948
33944
33941
33932
33932
33930
33924
33926
33916
33916
33912
33905
33905
33904
33897
33893
33886
33887
33876
33872
33868
33868
33861
33864
33856
33852
33856
33848
33844
33838
33843
33828
33828
33820
33828
33812
33816
33807
33802
33796
33784
33784
33777
33774
33782
33776
33764
33760
33758
33748
33748
33736
33734
33732
33720
33708
33724
33710
33704
33704
33688
33682
33688
33679
33668
33668
33664
33660
33655
33652
33640
33636
33636
33630
33622
33624
33616
33608
33608
33601
33588
33584
33582
33578
33572
33569
33568
33562
33556
33560
33552
33551
33542
33544
33536
33548
33533
33525
33524
33528
33519
33514
33522
33512
33512
33506
33508
33508
33504
33492
33496
33485
33486
33482
33490
33476
33472
33468
33465
33456
33457
33460
33444
33444
33434
33444
33424
33420
33422
33412
33416
33404
33404
33400
33397
33394
33389
33384
33388
33384
33368
33373
33365
33368
33366
33364
33364
33354
33345
33344
33349
33338
33342
33336
33335
33336
33336
33327
33327
33326
33320
33316
33316
33316
33311
33312
33308
33298
33310
33304
33304
33301
33300
33306
33294
33293
33294
33294
33284
33286
33276
33282
33287
33276
33276
33274
33274
33276
33276
33276
33276
33265
33261
33268
33260
33276
33264
33257
33260
33264
33255
33256
33256
33252
33252
33263
33248
33244
33253
33252
33256
33252
33249
33252
33252
33248
33244
33240
33244
33240
33246
33244
33240
33236
33239
33243
33236
33236
33231
33233
33232
33229
33231
33224
33234
33233
33228
33224
33226
33226
33228
33218
33214
33224
33220
33212
33221
33220
33216
33216
33220
33218
33216
33213
33214
33213
33211
33209
33213
33212
33222
33212
33217
33220
33218
33220
33220
33216
33212
33216
33222
33220
33224
33218
33220
33216
33222
33216
33224
33220
33217
33224
33225
33226
33221
33226
33224
33221
33228
33229
33229
33224
33228
33232
33228
33224
33217
33226
33229
33226
33225
33224
33229
33222
33228
33225
33216
33222
33214
33216
33212
33216
33216
33216
33216
33204
33198
33204
33205
33201
33196
33200
33194
33196
33186
33183
33188
33176
33178
33172
33170
33176
33173
33160
33164
33156
33156
33156
33153
33142
33144
33140
33135
33140
33129
33128
33125
33130
33119
33114
33106
33112
33112
33106
33108
33104
33104
33104
33090
33090
33085
33084
33084
33082
33081
33080
33068
33072
33068
33064
33062
33061
33060
33057
33054
33056
33045
33052
33040
33044
33034
33036
33029
33028
33016
33016
33022
33012
33008
33000
32998
32990
32993
32986
32980
32980
32972
32972
32974
32964
32956
32953
32952
32949
32944
32949
32934
32928
32932
32924
32926
32919
32914
32912
32924
32911
32900
32898
32892
32901
32892
32892
32888
32884
32881
32878
32872
32877
32872
32864
32860
32860
32856
32854
32860
32852
32852
32848
32841
32845
32836
32843
32828
32842
32830
32836
32836
32826
32820
32829
32817
32820
32816
32822
32812
32815
32820
32810
32815
32813
32813
32812
32805
32806
32812
32804
32804
32800
32802
32799
32801
32808
32800
32800
32804
32797
32796
32796
32804
32805
32806
32800
32802
32796
32798
32800
32804
32806
32804
32796
32792
32800
32804
32802
32805
32799
32812
32808
32798
32800
32792
32797
32796
32798
32804
32808
32800
32800
32800
32796
32801
32799
32800
32796
32809
32812
32802
32796
32800
32800
32796
32794
32800
32800
32806
32797
32804
32800
32800
32796
32793
32808
32799
32796
32800
32797
32793
32796
32796
32788
32788
32792
32801
32793
32794
32799
32780
32798
32790
32784
32780
32780
32776
32776
32774
32782
32772
32772
32772
32769
32769
32768
32758
32760
32756
32760
32756
32756
32753
32750
32752
32748
32748
32740
32740
32740
32740
32740
32732
32726
32726
32728
32720
32720
32716
32716
32705
32708
32701
32694
32692
32684
32676
32676
32676
32660
32661
32656
32646
32647
32641
32640
32632
32622
32618
32625
32612
32620
32609
32617
32607
32612
32600
32597
32593
32594
32588
32596
32596
32586
32590
32590
32581
32589
32590
32588
32586
32584
32588
32584
32582
32585
32591
32589
32584
32594
32599
32596
32596
32596
32600
32605
32612
32609
32614
32620
32622
32624
32624
32638
32644
32645
32652
32654
32656
32660
32661
32672
32676
32676
32682
32688
32697
32696
32703
32704
32709
32716
32728
32726
32736
32745
32745
32748
32748
32756
32760
32772
32772
32774
32788
32791
32797
32801
32800
32805
32815
32812
32830
32829
32841
32844
32840
32852
32856
32857
32861
32868
32885
32884
32880
32896
32900
32904
32901
32912
32916
32910
32915
32932
32928
32932
32940
32941
32944
32953
32956
32962
32953
32964
32964
32968
32972
32976
32980
32984
32980
32988
32994
32997
33000
33002
33012
33014
33024
33022
33026
33022
33038
33038
33036
33052
33048
33056
33068
33064
33064
33076
33077
33080
33084
33092
33098
33093
33102
33097
33112
33108
33108
33112
33116
33120
33136
33122
33124
33128
33128
33130
33136
33132
33136
33140
33132
33152
33141
33140
33144
33140
33156
33140
33146
33148
33148
33145
33148
33145
33146
33144
33148
33146
33144
33140
33138
33142
33134
33136
33136
33140
33135
33134
33136
33129
33127
33132
33124
33124
33124
33120
33120
33116
33116
33118
33109
33109
33103
33100
33102
33092
33092
33088
33084
33082
33068
33076
33065
33058
33063
33060
33044
33042
33046
33044
33036
33024
33020
33017
33004
32997
32990
32987
32976
32967
32964
32958
32952
32944
32940
32928
32932
32916
32908
32900
32894
32884
32876
32864
32860
32853
32852
32836
32828
32814
32812
32814
32800
32796
32782
32778
32773
32758
32748
32744
32733
32724
32722
32720
32709
32696
32694
32693
32686
32680
32676
32654
32648
32650
32640
32630
32632
32620
32613
32608
32598
32589
32596
32578
32576
32561
32558
32548
32540
32536
32520
32518
32504
32498
32492
32484
32480
32468
32458
32460
32444
32430
32430
32424
32412
32408
32392
32388
32388
32383
32375
32359
32353
32351
32342
32334
32328
32324
32316
32308
32308
32295
32284
32282
32284
32278
32264
32265
32253
32253
32239
32232
32232
32222
32216
32212
32204
32192
32191
32183
32168
32168
32156
32157
32154
32134
32134
32124
32116
32108
32096
32096
32092
32080
32064
32052
32054
32051
32038
32029
32026
32024
32006
32006
31997
31983
31980
31964
31956
31952
31941
31938
31936
31918
31912
31900
31896
31884
31895
31872
31864
31864
31853
31852
31840
31830
31831
31818
31806
31802
31804
31796
31788
31780
31778
31766
31760
31751
31748
31748
31732
31740
31720
31716
31715
31700
31700
31692
31680
31680
31684
31672
31670
31654
31656
31652
31644
31632
31628
31624
31620
31624
31620
31604
31599
31597
31588
31588
31576
31569
31568
31560
31558
31554
31545
31544
31536
31526
31530
31524
31508
31512
31504
31496
31488
31484
31488
31478
31481
31472
31460
31459
31453
31448
31440
31446
31432
31431
31428
31412
31412
31407
31400
31404
31390
31384
31374
31374
31378
31366
31360
31364
31353
31342
31340
31340
31336
31328
31324
31320
31320
31304
31310
31300
31296
31292
31280
31285
31278
31268
31264
31260
31256
31246
31245
31239
31238
31231
31228
31224
31220
31212
31202
31204
31192
31188
31182
31180
31179
31172
31162
31170
31151
31154
31142
31137
31140
31136
31124
31116
31109
31110
31104
31105
31098
31084
31086
31084
31076
31073
31068
31064
31056
31047
31050
31044
31036
31030
31026
31024
31016
31012
31016
31008
30992
30999
30996
30988
30988
30982
30974
30970
30972
30959
30960
30953
30945
30947
30948
30938
30932
30940
30930
30929
30924
30926
30912
30914
30908
30909
30906
30895
30896
30888
30885
30884
30873
30880
30880
30877
30864
30871
30860
30860
30860
30852
30847
30846
30848
30844
30836
30836
30830
30826
30821
30820
30820
30809
30806
30804
30804
30796
30788
30793
30788
30784
30784
30768
30780
30768
30766
30762
30752
30756
30751
30756
30740
30744
30742
30744
30732
30729
30725
30720
30720
30716
30712
30721
30716
30708
30706
30693
30698
30688
30695
30689
30687
30682
30682
30685
30677
30668
30679
30677
30668
30664
30660
30664
30652
30658
30644
30652
30646
30644
30633
30636
30636
30628
30632
30623
30620
30620
30612
30613
30606
30604
30599
30596
30592
30593
30586
30583
30575
30580
30576
30569
30568
30562
30560
30550
30548
30541
30543
30537
30534
30530
30522
30522
30522
30519
30514
30510
30508
30504
30500
30496
30496
30488
30488
30486
30480
30480
30477
30472
30474
30468
30468
30468
30460
30458
30458
30448
30452
30452
30448
30441
30440
30436
30432
30435
30433
30436
30432
30420
30424
30420
30418
30414
30413
30412
30404
30404
30404
30400
30394
30400
30400
30396
30394
30388
30382
30382
30381
