RESPIRATION
33044
33044
33054
33052
33057
33066
33071
33074
33084
33092
33096
33112
33120
33124
33143
33153
33170
33180
33186
33210
33222
33229
33256
33252
33268
33292
33294
33312
33327
33337
33356
33366
33374
33384
33396
33420
33430
33441
33464
33476
33492
33496
33504
33528
33542
33552
33568
33572
33604
33606
33616
33626
33652
33662
33676
33692
33704
33712
33732
33740
33760
33769
33781
33788
33791
33821
33832
33841
33846
33870
33872
33884
33896
33908
33919
33934
33948
33956
33964
33972
33985
33998
33996
34009
34024
34026
34024
34036
34046
34056
34058
34065
34080
34092
34100
34108
34104
34122
34132
34132
34140
34148
34151
34156
34160
34161
34172
34176
34180
34180
34196
34196
34206
34210
34213
34224
34216
34222
34228
34228
34236
34240
34244
34244
34252
34250
34247
34261
34256
34268
34272
34260
34272
34280
34274
34272
34273
34276
34284
34284
34277
34284
34284
34288
34292
34292
34295
34290
34293
34290
34298
34310
34300
34296
34306
34310
34306
34294
34309
34309
34305
34312
34308
34310
34316
34311
34325
34305
34312
34316
34312
34328
34318
34320
34320
34316
34325
34311
34318
34328
34318
34316
34319
34322
34325
34320
34324
34320
34327
34320
34312
34321
34324
34332
34336
34328
34327
34337
34332
34328
34340
34333
34344
34334
34340
34332
34332
34344
34330
34336
34332
34336
34333
34332
34338
34332
34333
34332
34340
34340
34332
34336
34335
34336
34336
34334
34336
34336
34332
34328
34330
34332
34328
34324
34336
34328
34336
34332
34336
34332
34340
34340
34333
34344
34338
34341
34345
34338
34341
34334
34345
34339
34350
34340
34336
34345
34344
34344
34346
34337
34342
34337
34340
34329
34332
34338
34328
34324
34330
34324
34316
34320
34320
34310
34320
34310
34314
34311
34304
34302
34297
34295
34286
34280
34284
34294
34282
34276
34280
34273
34268
34268
34276
34264
34266
34269
34264
34248
34260
34256
34254
34245
34244
34237
34236
34242
34230
34228
34224
34214
34212
34208
34208
34212
34196
34204
34199
34190
34184
34188
34180
34180
34166
34167
34156
34164
34153
34142
34140
34140
34148
34136
34135
34128
34127
34128
34128
34114
34116
34116
34112
34108
34106
34104
34102
34096
34094
34096
34085
34088
34084
34078
34084
34076
34075
34080
34072
34068
34062
34064
34062
34062
34068
34061
34052
34052
34048
34065
34044
34052
34048
34046
34042
34044
34044
34036
34036
34047
34052
34041
34038
34036
34036
34034
34030
34028
34034
34026
34030
34030
34020
34028
34028
34036
34022
34028
34020
34024
34028
34020
34026
34024
34020
34020
34013
34020
34016
34008
34004
34012
34008
34012
34006
34008
34012
34008
34010
34005
34010
34006
34004
34000
34000
34001
33996
34004
33990
34005
33994
33996
33984
34001
33988
34002
33992
34000
33993
33996
33992
33986
33992
33992
33988
33984
33996
33996
33999
33983
33992
33994
33992
33992
33994
33992
33993
33998
33994
34000
34004
33993
34008
33996
34001
33994
33998
33998
33994
33990
33998
34004
33990
33994
33996
34002
33993
34006
33990
33996
33992
33996
33992
33988
33993
33993
33986
33987
33988
33982
33982
33972
33968
33974
33977
33982
33974
33964
33968
33960
33960
33951
33949
33958
33954
33936
33946
33946
33942
33937
33936
33935
33934
33928
33924
33916
33918
33910
33924
33912
33912
33913
33909
33908
33892
33888
33888
33884
33870
33880
33880
33868
33861
33860
33857
33860
33847
33844
33848
33832
33836
33833
33832
33828
33822
33822
33804
33812
33804
33796
33798
33789
33784
33780
33776
33774
33780
33769
33769
33764
33759
33757
33748
33750
33744
33740
33736
33740
33730
33726
33730
33716
33728
33716
33720
33718
33714
33704
33708
33713
33701
33708
33701
33704
33692
33700
33694
33694
33688
33690
33692
33700
33689
33688
33692
33689
33692
33685
33692
33684
33693
33692
33678
33692
33696
33696
33702
33693
33686
33694
33692
33688
33690
33697
33690
33697
33700
33692
33701
33706
33701
33698
33704
33708
33701
33698
33713
33710
33708
33704
33704
33709
33708
33708
33716
33720
33718
33726
33726
33727
33732
33732
33736
33728
33734
33736
33740
33744
33744
33753
33748
33760
33756
33754
33766
33767
33773
33776
33784
33793
33797
33799
33800
33791
33804
33813
33820
33808
33822
33824
33828
33834
33832
33844
33844
33844
33856
33856
33864
33852
33860
33858
33860
33856
33864
33856
33860
33856
33860
33857
33846
33845
33848
33838
33838
33831
33836
33828
33834
33832
33824
33818
33808
33815
33812
33817
33808
33815
33804
33797
33799
33792
33785
33792
33796
33792
33788
33788
33791
33788
33788
33776
33789
33781
33776
33780
33781
33780
33774
33783
33770
33780
33783
33785
33790
33799
33790
33806
33808
33814
33808
33822
33818
33836
33829
33844
33844
33848
33846
33856
33860
33864
33869
33872
33882
33881
33889
33888
33896
33908
33906
33916
33924
33921
33932
33936
33942
33940
33954
33948
33963
33956
33972
33970
33983
33984
33986
33992
34000
34000
34012
34008
34017
34030
34029
34026
34036
34048
34044
34054
34061
34060
34068
34070
34080
34082
34086
34092
34100
34095
34100
34105
34108
34114
34120
34116
34117
34124
34132
34125
34129
34140
34133
34145
34141
34140
34148
34148
34148
34157
34160
34159
34158
34150
34153
34157
34156
34165
34152
34164
34153
34168
34164
34164
34165
34168
34176
34170
34161
34181
34168
34170
34172
34172
34174
34166
34168
34172
34168
34172
34165
34165
34172
34172
34168
34178
34170
34166
34172
34181
34169
34176
34168
34180
34180
34168
34172
34177
34177
34180
34172
34172
34176
34180
34182
34184
34184
34176
34190
34184
34184
34191
34192
34194
34193
34200
34196
34196
34199
34196
34200
34212
34202
34212
34213
34212
34220
34230
34229
34228
34241
34241
34244
34240
34238
34250
34245
34252
34250
34264
34268
34270
34268
34278
34276
34280
34292
34304
34294
34302
34308
34312
34308
34317
34320
34335
34326
34338
34336
34340
34340
34346
34344
34360
34362
34364
34374
34372
34372
34368
34388
34383
34384
34381
34381
34398
34388
34398
34404
34400
34398
34404
34404
34405
34414
34420
34422
34416
34421
34436
34431
34448
34439
34442
34450
34452
34456
34468
34464
34476
34474
34472
34479
34493
34496
34496
34492
34508
34516
34512
34509
34520
34516
34532
34530
34532
34536
34532
34548
34548
34542
34548
34545
34557
34540
34550
34554
34552
34564
34570
34564
34567
34568
34572
34574
34572
34572
34573
34572
34566
34580
34572
34584
34586
34580
34586
34584
34596
34594
34600
34606
34600
34600
34608
34600
34610
34608
34608
34612
34610
34620
34616
34622
34624
34628
34628
34632
34624
34631
34637
34628
34624
34628
34632
34638
34641
34628
34634
34628
34640
34632
34645
34648
34632
34646
34638
34640
34648
34636
34638
34632
34644
34636
34640
34644
34641
34636
34639
34636
34638
34644
34632
34641
34638
34646
34636
34643
34637
34647
34636
34636
34637
34644
34640
34633
34641
34644
34642
34654
34638
34638
34639
34641
34636
34641
34644
34657
34647
34644
34655
34646
34660
34652
34657
34658
34656
34660
34660
34658
34662
34663
34668
34664
34670
34668
34668
34680
34666
34682
34664
34676
34676
34692
34682
34692
34685
34688
34693
34693
34688
34688
34696
34696
34696
34700
34705
34708
34706
34716
34716
34706
34714
34714
34718
34717
34719
34714
34720
34718
34734
34724
34734
34732
34732
34735
34743
34745
34748
34756
34748
34754
34750
34748
34754
34756
34753
34760
34762
34761
34768
34764
34772
34764
34778
34770
34784
34780
34788
34776
34780
34780
34792
34778
34784
34792
34792
34791
34789
34791
34798
34794
34798
34792
34792
34792
34804
34800
34792
34796
34796
34788
34792
34794
34800
34796
34792
34796
34802
34792
34800
34789
34796
34798
34790
34794
34799
34800
34796
34807
34808
34800
34789
34800
34799
34796
34800
34798
34799
34793
34800
34798
34799
34793
34802
34804
34805
34806
34792
34800
34804
34798
34804
34808
34798
34802
34804
34804
34798
34799
34804
34812
34796
34804
34797
34796
34790
34796
34784
34790
34788
34797
34789
34796
34791
34780
34786
34782
34784
34780
34780
34777
34780
34768
34772
34772
34770
34772
34768
34760
34768
34760
34764
34754
34756
34752
34753
34748
34740
34743
34740
34729
34732
34734
34733
34732
34732
34718
34719
34729
34721
34714
34708
34708
34702
34698
34700
34696
34692
34692
34692
34685
34692
34682
34688
34672
34668
34677
34668
34670
34669
34664
34659
34654
34660
34644
34653
34644
34636
34636
34629
34638
34629
34631
34639
34625
34628
34619
34618
34612
34616
34606
34608
34600
34596
34592
34593
34588
34596
34578
34588
34574
34572
34569
34566
34568
34568
34561
34552
34558
34548
34556
34545
34545
34545
34534
34540
34526
34524
34522
34516
34508
34506
34508
34508
34500
34496
34492
34494
34492
34488
34484
34478
34484
34480
34468
34469
34453
34464
34452
34448
34444
34444
34444
34442
34436
34432
34432
34424
34420
34420
34416
34408
34412
34408
34400
34404
34406
34399
34408
34397
34399
34392
34408
34402
34412
34400
34406
34404
34412
34416
34416
34420
34413
34417
34424
34426
34421
34432
34436
34432
34440
34442
34440
34452
34452
34460
34461
34462
34456
34458
34472
34456
34464
34455
34464
34468
34452
34460
34456
34460
34446
34456
34460
34446
34460
34448
34460
34456
34452
34448
34456
34444
34452
34444
34452
34452
34444
34444
34444
34447
34452
34448
34441
34444
34448
34444
34442
34440
34444
34444
34440
34434
34452
34450
34452
34454
34446
34448
34446
34448
34448
34448
34460
34452
34464
34464
34463
34474
34484
34480
34496
34496
34498
34504
34508
34520
34519
34518
34536
34540
34534
34540
34548
34556
34562
34568
34569
34576
34580
34576
34580
34580
34592
34588
34596
34592
34594
34596
34592
34596
34604
34602
34594
34604
34602
34604
34606
34604
34608
34612
34608
34612
34612
34612
34612
34614
34616
34616
34625
34619
34613
34624
34632
34620
34626
34626
34628
34624
34624
34628
34617
34628
34624
34622
34628
34624
34628
34620
34616
34624
34617
34620
34620
34626
34621
34618
34624
34624
34613
34624
34616
34617
34620
34614
34614
34600
34601
34604
34602
34598
34600
34596
34602
34600
34592
34596
34584
34590
34586
34581
34580
34576
34572
34574
34572
34568
34562
34561
34552
34552
34558
34545
34542
34544
34538
34536
34537
34532
34528
34528
34522
34532
34516
34512
34508
34516
34508
34502
34498
34502
34498
34500
34492
34494
34490
34492
34494
34481
34479
34480
34476
34480
34468
34466
34462
34460
34457
34460
34437
34452
34443
34444
34440
34436
34429
34431
34420
34416
34412
34404
34412
34404
34396
34397
34392
34392
34380
34374
34388
34369
34370
34360
34362
34353
34358
34352
34340
34338
34340
34332
34324
34320
34322
34316
34308
34314
34304
34300
34292
34288
34277
34282
34277
34272
34272
34260
34260
34260
34250
34248
34243
34240
34232
34230
34228
34216
34212
34207
34202
34196
34188
34192
34183
34183
34181
34158
34164
34168
34156
34142
34142
34138
34144
34128
34132
34124
34110
34112
34110
34100
34108
34103
34096
34082
34084
34081
34088
34074
34080
34062
34064
34056
34060
34050
34048
34044
34029
34032
34024
34016
34013
33996
34004
33992
33992
33984
33977
33968
33956
33957
33948
33948
33940
33937
33932
33933
33916
33909
33900
33896
33880
33888
33884
33881
33874
33872
33858
33852
33856
33849
33844
33837
33830
33828
33820
33816
33812
33818
33796
33792
33788
33785
33780
33778
33768
33766
33758
33754
33742
33740
33738
33738
33721
33718
33708
33716
33697
33700
33692
33676
33684
33668
33668
33654
33644
33640
33640
33628
33636
33616
33612
33604
33596
33592
33580
33585
33576
33568
33556
33554
33540
33532
33528
33524
33516
33511
33500
33500
33488
33482
33476
33468
33470
33460
33464
33444
33440
33432
33444
33428
33420
33428
33424
33407
33412
33408
33404
33392
33405
33392
33392
33392
33384
33373
33380
33376
33372
33374
33364
33364
33370
33360
33361
33352
33360
33354
33342
33348
33352
33348
33352
33340
33338
33344
33346
33344
33336
33332
33334
33342
33328
33342
33324
33324
33334
33333
33334
33326
33339
33324
33332
33325
33320
33322
33326
33332
33324
33324
33332
33332
33328
33324
33328
33324
33329
33320
33328
33326
33317
33326
33326
33324
33320
33333
33338
33325
33322
33325
33321
33326
33322
33326
33327
33333
33328
33332
33328
33326
33332
33328
33324
33316
33335
33335
33332
33324
33324
33324
33321
33326
33332
33326
33324
33328
33316
33320
33320
33326
33320
33326
33324
33324
33317
33314
33316
33316
33320
33316
33312
33312
33310
33324
33308
33312
33304
33314
33316
33303
33310
33312
33310
33308
33308
33308
33300
33302
33300
33306
33304
33300
33302
33293
33308
33300
33300
33301
33296
33306
33308
33294
33296
33300
33297
33302
33305
33304
33301
33308
33308
33304
33310
33309
33308
33306
33310
33308
33320
33311
33310
33316
33312
33316
33324
33316
33324
33316
33321
33321
33327
33321
33327
33329
33342
33338
33329
33333
33328
33338
33332
33328
33333
33340
33337
33336
33336
33342
33336
33343
33340
33328
33348
33341
33344
33348
33340
33348
33332
33343
33338
33342
33342
33340
33334
33336
33334
33340
33336
33336
33336
33328
33340
33332
33333
33326
33332
33340
33340
33326
33325
33332
33324
33327
33327
33322
33324
33326
33320
33300
33317
33309
33318
33316
33302
33311
33297
33297
33306
33298
33306
33292
33290
33295
33292
33294
33286
33286
33284
33280
33284
33280
33264
33277
33270
33268
33264
33262
33260
33260
33256
33244
33248
33249
33248
33246
33232
33240
33232
33232
33233
33228
33228
33212
33212
33209
33210
33218
33204
33199
33206
33204
33196
33192
33190
33186
33184
33184
33181
33176
33176
33164
33164
33164
33166
33160
33169
33160
33156
33158
33147
33153
33150
33151
33150
33145
33135
33136
33136
33134
33132
33140
33132
33140
33130
33130
33124
33132
33130
33134
33132
33130
33135
33138
33132
33136
33129
33136
33144
33130
33124
33136
33140
33142
33136
33136
33136
33136
33144
33144
33140
33142
33148
33140
33142
33148
33146
33148
33148
33152
33148
33145
33152
33148
33156
33156
33156
33156
33156
33156
33162
33160
33164
33165
33174
33180
33184
33184
33189
33198
33199
33198
33208
33209
33212
33218
33228
33232
33232
33228
33241
33248
33252
33252
33262
33268
33265
33277
33278
33276
33286
33281
33300
33296
33297
33300
33304
33312
33316
33316
33316
33316
33320
33326
33328
33340
33330
33348
33348
33356
33344
33344
33357
33358
33362
33373
33364
33377
33372
33382
33388
33381
33384
33384
33392
33392
33398
33404
33396
33405
33404
33408
33412
33418
33413
33420
33423
33436
33430
33429
33439
33442
33445
33452
33460
33464
33472
33480
33488
33497
33496
33500
33510
33516
33530
33532
33546
33556
33552
33560
33566
33572
33580
33588
33592
33601
33602
33608
33616
33615
33620
33632
33628
33640
33645
33646
33660
33652
33666
33668
33668
33680
33680
33680
33676
33700
33692
33697
33701
33700
33708
33720
33708
33716
33712
33717
33724
33732
33740
33732
33728
33735
33732
33738
33742
33749
33749
33740
33749
33740
33758
33750
33758
33756
33765
33760
33756
33748
33756
33744
33761
33757
33764
33752
33752
33748
33756
33756
33754
33744
33738
33746
33744
33748
33740
33742
33735
33734
33732
33732
33732
33732
33724
33732
33717
33724
33722
33712
33717
33713
33714
33706
33709
33708
33701
33704
33696
33698
33692
33684
33684
33687
33688
33674
33678
33668
33674
33670
33668
33662
33660
33656
33652
33648
33652
33656
33644
33636
33637
33640
33621
33632
33624
33626
33624
33621
33616
33616
33620
33604
33605
33606
33596
33602
33588
33594
33588
33584
33580
33582
33583
33576
33576
33568
33573
33561
33568
33564
33556
33552
33551
33548
33542
33541
33537
33536
33527
33537
33527
33524
33522
33524
33521
33514
33508
33510
33508
33504
33500
33492
33492
33488
33486
33480
33484
33478
33476
33471
33468
33464
33462
33468
33466
33460
33452
33452
33445
33456
33444
33448
33439
33442
33439
33436
33432
33428
33422
33425
33412
33414
33414
33408
33399
33404
33398
33398
33396
33398
33392
33393
33384
33388
33392
33382
33393
33384
33384
33374
33384
33380
33369
33380
33378
33384
33376
33380
33380
33378
33381
33382
33388
33378
33390
33386
33380
33372
33375
33366
33372
33372
33371
33364
33364
33365
33356
33362
33356
33359
33348
33352
33350
33352
33344
33344
33332
33336
33332
33338
33324
33322
33326
33324
33324
33322
33316
33330
33320
33320
33316
33312
33317
33314
33306
33320
33304
33314
33306
33303
33308
33308
33302
33300
33300
33301
33295
33294
33294
33300
33295
33286
33292
33284
33285
33292
33286
33276
33278
33258
33268
33268
33268
33252
33260
33252
33255
33257
33260
33244
33248
33244
33244
33248
33244
33237
33247
33238
33232
33224
33240
33232
33236
33222
33230
33220
33224
33222
33220
33224
33222
33216
33216
33214
33221
33216
33220
33210
33220
33216
33204
33208
33204
33205
33212
33208
33208
33208
33205
33214
33210
33204
33212
33212
33212
33212
33216
33208
33214
33206
33204
33213
33206
33208
33208
33207
33212
33216
33215
33212
33212
33216
33212
33216
33212
33210
33218
33201
33214
33212
33214
33204
33212
33204
33213
33213
33208
33207
33204
33208
33212
33205
33206
33202
33204
33200
33200
33196
33204
33204
33194
33200
33198
33200
33204
33204
33202
33197
33197
33204
33204
33204
33200
33204
33196
33200
33204
33200
33200
33198
33196
33204
33201
33200
33204
33204
33204
33207
33208
33201
33204
33204
33206
33210
33214
33210
33213
33212
33210
33204
33204
33206
33206
33197
33209
33212
33200
33208
33212
33210
33213
33200
33208
33212
33211
33214
33204
33204
33204
33202
33204
33204
33199
33206
33197
33204
33206
33204
33208
33196
33206
33196
33198
33196
33204
33196
33196
33189
33194
33186
33188
33192
33184
33184
33190
33188
33184
33176
33184
33180
33182
33175
33176
33180
33162
33173
33170
33175
33161
33176
33165
33168
33165
33156
33156
33159
33151
33154
33156
33153
33148
33152
33152
33152
33148
33143
33140
33137
33132
33129
33134
33136
33127
33136
33126
33128
33122
33124
33126
33124
33121
33120
33120
33116
33110
33110
33116
33096
33112
33100
33102
33092
33100
33097
33100
33092
33088
33088
33092
33086
33084
33082
33080
33069
33072
33072
33077
33066
33073
33056
33062
33064
33060
33056
33052
33052
33052
33048
33038
33034
33032
33035
33032
33036
33028
33028
33030
33016
33016
33006
33012
33002
33009
32994
32996
32992
32982
32978
32980
32980
32978
32976
32968
32965
32962
32960
32958
32956
32942
32945
32943
32940
32930
32925
32925
32924
32912
32908
32908
32904
32904
32908
32896
32896
32890
32882
32892
32884
32884
32869
32876
32876
32864
32868
32861
32860
32860
32852
32857
32852
32848
32834
32850
32837
32840
32837
32838
32830
32832
32836
32828
32825
32826
32826
32832
32824
32826
32828
32818
32814
32816
32817
32813
32812
32810
32814
32800
32800
32808
32801
32800
32796
32810
32799
32796
32792
32785
32794
32788
32790
32788
32796
32780
32780
32781
32780
32774
32777
32776
32774
32768
32769
32769
32772
32772
32761
32764
32756
32762
32767
32764
32760
32756
32757
32774
32758
32756
32760
32756
32768
32752
32756
32760
32765
32764
32767
32764
32764
32756
32768
32766
32764
32764
32762
32760
32760
32762
32755
32756
32753
32756
32746
32748
32744
32744
32748
32744
32744
32732
32734
32722
32726
32712
32712
32700
32708
32698
32688
32686
32695
32679
32673
32668
32676
32660
32660
32645
32644
32634
32640
32632
32624
32620
32616
32614
32603
32608
32593
32586
32584
32574
32577
32566
32576
32560
32559
32562
32556
32552
32548
32548
32536
32548
32537
32532
32540
32534
32537
32532
32542
32532
32536
32534
32540
32546
32546
32544
32552
32562
32556
32559
32560
32566
32562
32573
32572
32580
32577
32576
32584
32581
32589
32588
32581
32591
32594
32608
32600
32604
32600
32612
32610
32607
32624
32606
32622
32621
32621
32612
32628
32628
32628
32625
32636
32630
32636
32631
32636
32639
32644
32644
32644
32644
32655
32652
32654
32656
32654
32656
32647
32660
32664
32656
32666
32660
32660
32663
32668
32660
32668
32665
32668
32668
32670
32668
32662
32664
32661
32648
32656
32644
32656
32652
32654
32649
32653
32640
32642
32640
32642
32637
32633
32634
32630
32628
32632
32632
32623
32616
32622
32624
32620
32610
32600
32597
32602
32600
32596
32594
32589
32590
32582
32582
32576
32582
32578
32570
32584
32568
32562
32560
32556
32560
32560
32553
32554
32547
32548
32537
32548
32536
32530
32536
32548
32526
32538
32532
32528
32533
32527
32532
32517
32522
32528
32516
32525
32513
32518
32519
32516
32516
32516
32517
32518
32521
32520
32508
32516
32520
32519
32516
32520
32512
32520
32518
32516
32518
32520
32520
32528
32520
32524
32524
32536
32532
32534
32536
32540
32529
32533
32536
32542
32544
32542
32542
32550
32543
32552
32549
32556
32558
32558
32565
32570
32568
32570
32568
32569
32564
32581
32568
32576
32576
32580
32581
32584
32588
32596
32589
32596
32598
32588
32596
32596
32601
32596
32608
32612
32608
32601
32604
32609
32608
32608
32608
32614
32618
32624
32628
32621
32624
32625
32636
32642
32640
32646
32638
32646
32654
32648
32660
32650
32660
32654
32668
32666
32672
32676
32676
32676
32677
32668
32684
32684
32676
32686
32682
32680
32680
32676
32680
32680
32684
32684
32689
32680
32689
32684
32684
32693
32681
32680
32692
32686
32686
32687
32692
32689
32700
32700
32690
32700
32702
32708
32708
32710
32708
32712
32714
32714
32720
32718
32719
32724
32740
32720
32732
32726
32728
32732
32742
32748
32740
32740
32750
32748
32752
32756
32756
32756
32756
32758
32766
32764
32775
32778
32777
32780
32786
32786
32788
32802
32800
32804
32804
32808
32816
32810
32817
32812
32818
32825
32832
32836
32844
32836
32844
32852
32850
32852
32853
32853
32864
32869
32869
32874
32888
32872
32880
32893
32884
32901
32904
32898
32900
32900
32912
32908
32900
32912
32912
32922
32924
32928
32932
32932
32940
32937
32950
32944
32952
32948
32964
32956
32965
32964
32968
32968
32972
32974
32976
32976
32982
32988
32988
32996
32996
33002
33000
33004
33012
33016
33016
33016
33020
33028
33028
33026
33032
33036
33044
33042
33060
33054
33056
33055
33058
33064
33066
33072
33074
33076
33081
33077
33093
33090
33096
33100
33108
33106
33112
33109
33119
33118
33128
33134
33133
33140
33150
33150
33152
33154
33157
33170
33168
33180
33180
33184
33196
33196
33190
33206
33210
33215
33212
33222
33234
33231
33236
33240
33240
33248
33252
33258
33262
33270
33264
33274
33285
33281
33290
33296
33303
33304
33312
33316
33321
33332
33334
33334
33336
33349
33344
33354
33356
33361
33375
33372
33378
33374
33380
33384
33393
33400
33396
33412
33412
33409
33417
33422
33426
33436
33436
33437
33446
33444
33456
33454
33458
33452
33456
33464
33473
33464
33480
33473
33486
33484
33484
33492
33493
33492
33496
33488
33500
33500
33498
33504
33504
33500
33506
33504
33522
33510
33520
33524
33527
33520
33526
33522
33532
33528
33528
33530
33533
33532
33536
33548
33530
33540
33540
33540
33549
33545
33545
33543
33550
33553
33544
33548
33550
33558
33550
33564
33556
33566
33568
33559
33569
33568
33556
33572
33572
33572
33572
33569
33584
33578
33582
33580
33584
33582
33583
33584
33594
33584
33592
33596
33592
33589
33592
33600
33596
33610
33600
33608
33610
33608
33608
33614
33612
33612
33620
33624
33624
33613
33624
33620
33630
33632
33624
33626
33629
33631
33636
33628
33622
33631
33628
33632
33630
33626
33624
33632
33624
33632
33632
33630
33632
33625
33621
33628
33631
33624
33624
33628
33627
33620
33620
33624
33616
33620
33612
33624
33617
33616
33610
33604
33612
33605
33601
33608
33596
33598
33594
33596
33600
33596
33586
33588
33584
33584
33592
33582
33585
33576
33580
33574
33584
33577
33578
33576
33572
33569
33572
33570
33567
33572
33569
33568
33568
33562
33561
33566
33556
33568
33566
33556
33568
33568
33560
33550
33550
33561
33568
33564
33564
33570
33564
33560
33562
33567
33572
33570
33572
33566
33572
33568
33580
33572
33576
33572
33572
33584
33584
33585
33578
33584
33584
33583
33576
33580
33580
33592
33592
33584
33596
33600
33597
33588
33592
33594
33601
33598
33600
33608
33612
33614
33614
33612
33607
33621
33618
33624
33624
33628
33632
33636
33636
33646
33641
33644
33650
33658
33660
33665
33668
33668
33668
33670
33672
33685
33674
33688
33696
33692
33686
33684
33686
33696
33692
33676
33687
33685
33684
33680
33681
33680
33668
33668
33661
33660
33661
33660
33656
33634
33633
33636
33630
33634
33615
33620
33609
33606
33600
33592
33588
33576
33581
33568
33564
33557
33548
33542
33540
33532
33520
33516
33504
33504
33485
33498
33478
33468
33460
33460
33449
33444
33438
33441
33434
33432
33424
33423
33413
33424
33410
33412
33406
33406
33412
33407
33410
33408
33410
33392
33397
33396
33408
33396
33405
33396
33396
33396
33389
33397
33391
33394
33398
33400
33392
33392
33392
33396
33389
33397
33390
33388
33392
33389
33397
33395
33394
33399
33397
33396
33402
33406
33408
33408
33406
33412
33404
33400
33412
33417
33413
33423
33421
33424
33422
33440
33437
33444
33439
33444
33433
33444
33452
33460
33452
33452
33464
33456
33461
33460
33476
33478
33474
33472
33482
33480
33476
33488
33490
33496
33488
33486
33492
33492
33493
33488
33492
33493
33504
33500
33504
33496
33496
33496
33500
33505
33508
33497
33492
33504
33506
33500
33503
33500
33497
33496
33500
33502
33505
33494
33500
33496
33496
33492
33490
33489
33492
33497
33484
33488
33484
33492
33484
33485
33485
33480
33480
33480
33484
33472
33474
33480
33489
33476
33484
33482
33490
33484
33486
33476
33490
33476
33492
33492
33492
33492
33488
33499
33493
33502
33508
33508
33500
33511
33512
33508
33508
33514
33518
33508
33519
33522
33524
33532
33518
33524
33514
33521
33540
33536
33528
33537
33532
33534
33537
33540
33536
33532
33540
33546
33537
33536
33541
33548
33540
33540
33540
33537
33546
33540
33546
33547
33544
33544
33544
33544
33544
33540
33534
33540
33542
33533
33532
33540
33532
33528
33526
33536
33534
33516
33520
33520
33520
33512
33508
33508
33506
33504
33494
33496
33492
33486
33489
33480
33488
33486
33482
33480
33476
33468
33474
33480
33480
33477
33480
33472
33484
33472
33480
33477
33490
33476
33486
33478
33484
33478
33476
33481
33484
33478
33480
33480
33476
33472
33472
33472
33480
33468
33464
33472
33462
33464
33464
33458
33456
33464
33464
33462
33454
33462
33456
33450
33446
33455
33448
33438
33452
33436
33442
33449
33436
33436
33438
33438
33429
33440
33434
33444
33436
33437
33432
33424
33428
33432
33424
33424
33424
33423
33425
33412
33416
33426
33418
33406
33418
33412
33407
33400
33404
33396
33396
33393
33388
33388
33382
33382
33385
33382
33380
33374
33370
33364
33356
33356
33354
33348
33350
33346
33344
33340
33336
33333
33338
33328
33324
33322
33324
33324
33316
33313
33310
33312
33308
33294
33292
33281
33290
33280
33276
33272
33272
33261
33257
33261
33252
33252
33244
33232
33230
33238
33224
33220
33216
33217
33204
33204
33190
33200
33193
33178
33180
33178
33164
33162
33152
33146
33145
33140
33127
33127
33130
33120
33110
33104
33090
33094
33084
33080
33066
33068
33056
33055
33045
33036
33032
33018
33020
33018
33012
33004
32983
32993
32977
32972
32968
32956
32952
32945
32929
32932
32916
32908
32904
32900
32888
32884
32887
32876
32868
32853
32856
32847
32836
32836
32829
32809
32808
32808
32798
32800
32788
32774
32776
32767
32756
32752
32752
32740
32727
32732
32726
32713
32716
32712
32698
32700
32686
32682
32676
32676
32672
32660
32663
32648
32648
32636
32642
32632
32625
32628
32612
32616
32616
32612
32596
32596
32596
32586
32586
32581
32580
32576
32568
32568
32561
32564
32562
32562
32560
32542
32550
32546
32544
32535
32543
32534
32538
32532
32532
32536
32524
32524
32524
32516
32520
32504
32516
32508
32504
32504
32500
32488
32500
32488
32476
32484
32478
32480
32468
32470
32462
32462
32457
32457
32456
32445
32452
32448
32444
32440
32436
32426
32428
32420
32418
32420
32415
32409
32404
32411
32410
32408
32392
32400
32405
32388
32388
32389
32384
32388
32382
32368
32384
32366
32375
32368
32375
32360
32359
32361
32356
32362
32352
32348
32344
32352
32348
32348
32348
32336
32340
32336
32335
32332
32328
32334
32324
32330
32324
32322
32322
32318
32318
32316
32317
32314
32310
32305
32309
32310
32300
32296
32303
32305
32292
32302
32308
32300
32292
32294
32292
32290
32298
32292
32288
32293
32288
32288
32282
32284
32288
32289
32284
32280
32284
32276
32294
32285
32288
32292
32279
32296
32295
32293
32292
32296
32292
32300
32300
32296
32310
32292
32304
32296
32300
32302
32308
32308
32296
32308
32308
32310
32306
32318
32308
32309
32310
32312
32312
32314
32316
32312
32316
32316
32320
32310
32316
32316
32320
32312
32317
32318
32318
32325
32324
32316
32316
32320
32320
32324
32324
32320
32320
32324
32324
32324
32323
32324
32330
32334
32328
32334
32324
32334
32332
32332
32336
32344
32332
32340
32337
32332
32342
32341
32344
32340
32340
32340
32350
32346
32348
32352
32348
32345
32361
32353
32353
32368
32360
32360
32356
32356
32372
32366
32372
32374
32376
32372
32378
32377
32380
32383
32384
32381
32394
32382
32392
32392
32388
32392
32396
32388
32388
32404
32396
32400
32398
32406
32408
32416
32407
32404
32412
32408
32420
32416
32418
32414
32428
32420
32424
32428
32428
32431
32418
32427
32424
32430
32431
32436
32436
32437
32436
32442
32426
32437
32437
32440
32448
32440
32447
32444
32452
32444
32450
32447
32449
32449
32454
32458
32452
32453
32460
32456
32460
32462
32458
32462
32465
32477
32477
32478
32480
32476
32484
32492
32493
32500
32501
32502
32506
32513
32520
32524
32532
32532
32543
32548
32554
32560
32560
32564
32572
32576
32580
32586
32593
32592
32604
32604
32604
32604
32612
32614
32625
32620
32628
32622
32634
32634
32638
32630
32640
32642
32644
32644
32660
32668
32656
32667
32673
32676
32676
32676
32680
32673
32686
32686
32691
32692
32701
32690
32694
32688
32696
32700
32696
32697
32704
32706
32708
32708
32714
32704
32708
32716
32716
32724
32720
32728
32724
32726
32740
32737
32750
32751
32748
32756
32764
32772
32776
32780
32780
32784
32800
32798
32804
32804
32816
32824
32824
32830
32840
32846
32848
32841
32858
32860
32865
32873
32873
32876
32896
32881
32880
32894
32893
32895
32900
32900
32904
32902
32904
32908
32920
32916
32916
32918
32928
32926
32922
32934
32929
32934
32933
32934
32943
32937
32948
32948
32959
32940
32942
32958
32958
32960
32960
32961
32965
32964
32960
32973
32969
32968
32980
32976
32974
32980
32982
32976
32984
32986
32980
32984
32986
32980
32993
32988
32996
32988
32996
32996
32996
32992
32995
33004
32996
32994
33001
32996
32997
32992
32996
33001
32996
32995
33002
32999
33004
33000
32996
33007
32998
33007
32997
33005
33004
32998
33004
33008
33002
33010
33009
33004
33006
33004
33015
33016
33020
33012
33014
33015
33018
33024
33032
33030
33036
33029
33032
33044
33036
33038
33040
33048
33050
33052
33054
33061
33063
33064
33070
33072
33073
33076
33088
33082
33089
33092
33092
33098
33095
33096
33112
33116
33114
33112
33112
33124
33116
33121
33132
33124
33128
33140
33141
33142
33144
33145
33154
33148
33150
33152
33148
33160
33157
33156
33170
33164
33172
33176
33164
33176
33168
33188
33180
33185
33174
33176
33188
33184
33182
33180
33180
33185
33188
33178
33184
33185
33180
33185
33188
33185
33186
33180
33184
33188
33186
33191
33192
33186
33194
33194
33192
33188
33196
33190
33192
33193
33193
33192
33188
33198
33199
33196
33196
33200
33213
33204
33204
33216
33218
33220
33216
33232
33220
33226
33230
33236
33246
33242
33244
33248
33252
33256
33260
33253
33260
33261
33272
33264
33264
33276
33268
33280
33272
33278
33268
33281
33281
33278
33276
33273
33278
33276
33278
33282
33272
33280
33276
33276
33277
33268
33276
33271
33276
33264
33264
33268
33265
33265
33264
33276
33264
33265
33260
33257
33260
33264
33258
33255
33257
33260
33249
33254
33248
33250
33260
33248
33248
33248
33236
33243
33237
33236
33232
33232
33236
33230
33236
33244
33226
33224
33226
33224
33228
33222
33224
33220
33222
33217
33216
33220
33212
33212
33218
33212
33216
33214
33214
33216
33210
33212
33206
33206
33214
33204
33206
33208
33208
33208
33210
33204
33216
33206
33205
33212
33208
33212
33213
33208
33216
33220
33208
33221
33217
33215
33220
33213
33218
33216
33223
33212
33221
33224
33230
33224
33225
33228
33233
33229
33240
33236
33221
33237
33230
33237
33236
33240
33230
33236
33236
33244
33236
33244
33236
33236
33240
33236
33237
33241
33244
33233
33236
33238
33233
33228
33243
33230
33231
33236
33224
33228
33233
33227
33226
33220
33228
33222
33221
33216
33220
33218
33216
33219
33222
33212
33220
33212
33216
33220
33210
33216
33214
33212
33208
33216
33208
33212
33210
33212
33212
33214
33213
33212
33210
33208
33212
33216
33210
33218
33220
33216
33222
33224
33230
33228
33223
33224
33232
33236
33232
33237
33236
33248
33246
33248
33258
33252
33255
33260
33261
33275
33262
33281
33272
33276
33274
33282
33296
33290
33288
33296
33301
33308
33296
33302
33306
33304
33310
33313
33305
33316
33312
33318
33318
33316
33318
33324
33326
33323
33327
33328
33328
33324
33326
33329
33326
33326
33326
33328
33324
33324
33328
33324
33328
33318
33319
33324
33316
33328
33317
33306
33313
33318
33312
33316
33309
33308
33314
33308
33305
33303
33304
33296
33304
33300
33300
33293
33300
33290
33292
33288
33292
33276
33284
33278
33280
33280
33272
33264
33276
33268
33262
33260
33262
33257
33257
33258
33256
33256
33248
33248
33248
33248
33236
33249
33236
33236
33234
33236
33229
33224
33216
33224
33220
33208
33212
33217
33205
33204
33202
33200
33208
33204
33192
33198
33196
33192
33194
33202
33191
33180
33187
33186
33188
33185
33180
33184
33180
33176
33176
33169
33172
33168
33166
33168
33166
33164
33168
33158
33157
33156
33155
33156
33152
33153
33157
33152
33148
33150
33140
33140
33148
33135
33142
33136
33136
33135
33124
33140
33129
33124
33120
33128
33122
33126
33116
33121
33108
33110
33112
33113
33108
33110
33104
33104
33101
33108
33104
33100
33092
33092
33088
33096
33088
33082
33084
33082
33077
33073
33077
33073
33072
33060
33064
33061
33060
33048
33056
33052
33040
33048
33041
33040
33038
33030
33030
33021
33028
33028
33024
33014
33016
33008
33009
33004
33001
32992
32998
32984
32990
32986
32980
32975
32988
32966
32972
32973
32964
32960
32950
32956
32958
32949
32944
32934
32940
32942
32936
32940
32926
32930
32924
32928
32922
32919
32912
32912
32912
32900
32897
32904
32900
32900
32898
32900
32892
32898
32892
32894
32887
32884
32888
32884
32884
32880
32872
32880
32879
32882
32880
32886
32873
32874
32880
32876
32878
32870
32868
32864
32868
32871
32873
32868
32868
32873
32864
32872
32868
32868
32862
32864
32864
32861
32858
32872
32872
32876
32869
32870
32876
32871
32880
32881
32881
32881
32881
32892
32886
32894
32897
32892
32896
32903
32904
32908
32917
32910
32924
32920
32926
32927
32928
32930
32933
32932
32940
32938
32943
32944
32943
32942
32950
32942
32940
32950
32950
32949
32951
32946
32944
32952
32958
32962
32954
32952
32944
32956
32952
32956
32958
32956
32950
32960
32958
32958
32952
32956
32954
32956
32957
32950
32953
32954
32948
32952
32956
32952
32954
32950
32952
32943
32951
32953
32944
32958
32956
32954
32952
32961
32961
32958
32960
32966
32972
32966
32972
32970
32982
32974
32981
32992
32990
33001
32998
33004
33008
33009
33020
33016
33036
33028
33028
33046
33035
33052
33054
33046
33060
33052
33060
33060
33058
33060
33057
33072
33072
33078
33076
33072
33076
33081
33079
33085
33082
33076
33084
33080
33083
33086
33088
33089
33085
33084
33082
33092
33092
33090
33092
33090
33088
33096
33094
33089
33092
33092
33088
33084
33086
33084
33080
33080
33084
33080
33072
33074
33068
33072
33068
33064
33062
33055
33055
33057
33054
33048
33045
33042
33041
33038
33037
33028
33029
33024
33032
33016
33012
33016
33006
33012
33002
32998
32996
32994
32993
33000
32985
32984
32977
32972
32980
32977
32968
32961
32972
32964
32956
32958
32960
32945
32944
32948
32936
32934
32934
32942
32930
32924
32940
32916
32920
32921
32920
32908
32913
32896
32909
32911
32894
32904
32894
32896
32900
32900
32890
32884
32888
32885
32880
32884
32880
32878
32872
32876
32869
32871
32868
32874
32869
32868
32861
32866
32870
32862
32860
32856
32862
32856
32856
32856
32846
32848
32850
32849
32844
32840
32844
32848
32841
32837
32832
32836
32832
32840
32836
32836
32836
32834
32832
32836
32832
32825
32832
32836
32832
32830
32821
32828
32832
32826
32830
32822
32824
32817
32830
32822
32820
32826
32828
32822
32826
32820
32820
32817
32820
32830
32828
32821
32824
32813
32821
32821
32816
32820
32812
32820
32809
32816
32814
32812
32816
32808
32808
32800
32808
32807
32808
32804
32812
32812
32804
32805
32804
32812
32812
32808
32810
32808
32815
32808
32812
32805
32812
32814
32812
32814
32812
32815
32812
32808
32810
32810
32808
32804
32808
32799
32804
32796
32800
32796
32789
32792
32784
32791
32776
32782
32791
32785
32780
32772
32766
32776
32760
32767
32764
32757
32748
32759
32746
32750
32748
32752
32736
32751
32742
32738
32740
32744
32740
32732
32736
32732
32734
32728
32738
32728
32724
32728
32728
32716
32720
32712
32724
32712
32708
32708
32710
32705
32700
32694
32693
32700
32696
32689
32676
32684
32680
32678
32676
32666
32672
32674
32664
32660
32665
32662
32662
32656
32664
32652
32656
32646
32655
32642
32649
32644
32644
32636
32630
32642
32633
32633
32633
32624
32636
32634
32629
32622
32620
32620
32616
32624
32620
32617
32626
32616
32616
32616
32612
32616
32612
32616
32612
32614
32612
32608
32624
32612
32608
32616
32624
32612
32616
32616
32617
32618
32612
32620
32617
32617
32621
32620
32612
32616
32624
32621
32621
32616
32624
32628
32623
32632
32620
32622
32630
32629
32631
32632
32626
32631
32628
32628
32636
32636
32641
32644
32638
32634
32644
32637
32638
32640
32652
32644
32642
32642
32656
32646
32652
32644
32656
32650
32652
32652
32661
32668
32664
32662
32664
32660
32664
32672
32669
32671
32676
32673
32672
32681
32692
32684
32680
32686
32690
32687
32692
32693
32708
32694
32708
32698
32698
32704
32716
32708
32716
32720
32724
32724
32724
32724
32728
32731
32730
32744
32734
32740
32748
32748
32748
32753
32758
32768
32764
32774
32774
32788
32788
32782
32788
32800
32788
32799
32800
32804
32817
32814
32820
32824
32832
32826
32831
32830
32829
32840
32844
32842
32844
32856
32854
32862
32864
32866
32867
32865
32870
32872
32868
32876
32880
32886
32880
32878
32890
32902
32890
32901
32892
32894
32896
32900
32901
32903
32916
32900
32904
32911
32908
32904
32918
32912
32912
32917
32916
32921
32912
32912
32917
32917
32919
32920
32920
32912
32920
32924
32919
32922
32921
32926
32929
32928
32920
32933
32930
32932
32929
32936
32937
32936
32932
32936
32943
32936
32948
32934
32942
32940
32951
32946
32952
32952
32962
32956
32960
32968
32969
32968
32968
32967
32975
32976
32975
32984
32988
32992
33000
32990
33006
33012
33007
33015
33009
33014
33022
33036
33034
33032
33044
33048
33052
33053
33050
33056
33064
33064
33068
33076
33076
33073
33084
33096
33092
33100
33100
33103
33101
33111
33109
33124
33111
33120
33122
33128
33134
33124
33148
33152
33149
33150
33152
33156
33156
33158
33168
33165
33172
33169
33180
33169
33176
33181
33181
33188
33196
33196
33192
33200
33200
33193
33205
33200
33214
33214
33208
33204
33213
33212
33220
33212
33220
33214
33216
33221
33225
33226
33220
33229
33230
33228
33236
33229
33242
33244
33232
33240
33246
33248
33244
33232
33253
33248
33245
33244
33242
33255
33260
33252
33256
33264
33260
33257
33260
33265
33264
33277
33281
33276
33280
33277
33284
33280
33292
33292
33296
33301
33300
33304
33297
33314
33316
33314
33316
33320
33322
33328
33332
33324
33337
33332
33342
33344
33342
33340
33352
33354
33357
33357
33364
33364
33372
33372
33378
33370
33380
33388
33388
33391
33384
33396
33405
33400
33404
33408
33420
33412
33420
33422
33426
33432
33438
33436
33438
33441
33444
33444
33452
33457
33454
33457
33456
33460
33460
33460
33463
33465
33464
33470
33458
33462
33460
33456
33446
33452
33452
33448
33450
33436
33438
33444
33428
33432
33424
33420
33420
33408
33408
33394
33404
33396
33388
33383
33382
33375
33376
33364
33370
33362
33361
33356
33352
33348
33352
33344
33340
33332
33338
33328
33332
33326
33324
33316
33317
33319
33316
33320
33316
33312
33316
33311
33311
33311
33312
33318
33318
33317
33316
33326
33326
33336
33340
33340
33345
33352
33349
33365
33360
33361
33366
33372
33374
33381
33380
33380
33388
33388
33396
33412
33402
33404
33416
33410
33421
33420
33431
33433
33429
33443
33444
33448
33450
33454
33452
33456
33461
33468
33464
33476
33478
33474
33480
33480
33486
33484
33492
33496
33498
33488
33500
33501
33508
33501
33504
33505
33511
33511
33516
33520
33516
33520
33516
33523
33526
33524
33519
33522
33528
33525
33525
33524
33520
33528
33522
33530
33536
33534
33520
33524
33532
33524
33524
33521
33516
33512
33517
33520
33512
33513
33504
33508
33516
33510
33508
33509
33504
33501
33505
33501
33498
33496
33492
33500
33485
33484
33488
33486
33485
33485
33476
33472
33476
33468
33468
33463
33457
33464
33461
33458
33452
33454
33440
33448
33448
33444
33444
33436
33440
33438
33444
33431
33424
33428
33426
33422
33424
33430
33424
33428
33412
33422
33415
33412
33414
33416
33408
33400
33405
33398
33410
33404
33396
33400
33398
33399
33400
33392
33396
33398
33388
33391
33388
33396
33390
33388
33391
33383
33399
33396
33391
33380
33396
33382
33384
33388
33392
33383
33396
33383
33390
33383
33376
33382
33384
33376
33393
33381
33392
33376
33384
33378
33376
33388
33380
33372
33379
33381
33376
33364
33370
33377
33374
33368
33356
33364
33354
33358
33349
33356
33345
33346
33340
33336
33328
33337
33316
33316
33313
33316
33311
33302
33289
33290
33288
33286
33272
33276
33268
33262
33265
33256
33256
33250
33248
33244
33236
33231
33226
33220
33216
33208
33208
33204
33196
33188
33177
33188
33172
33166
33166
33147
33158
33137
33132
33124
33120
33113
33113
33088
33090
33088
33077
33068
33062
33060
33048
33044
33038
33038
33032
33018
33012
33005
33005
32992
32996
32992
32980
32985
32980
32973
32968
32960
32964
32960
32956
32956
32960
32952
32951
32940
32932
32945
32938
32929
32934
32933
32932
32922
32924
32924
32920
32924
32920
32920
32913
32916
32908
32917
32904
32914
32909
32904
32908
32900
32902
32904
32908
32908
32904
32902
32912
32905
32902
32904
32907
32905
32910
32904
32908
32908
32912
32916
32911
32914
32914
32914
32916
32922
32912
32920
32914
32924
32918
32927
32924
32938
32932
32924
32937
32948
32934
32944
32948
32948
32946
32948
32946
32952
32954
32952
32958
32960
32968
32964
32977
32963
32972
32980
32976
32975
32980
32985
32990
32982
32988
32990
33000
32999
32998
33004
33009
33009
33018
33023
33020
33018
33020
33031
33033
33036
33040
33040
33049
33048
33054
33056
33060
33060
33068
33068
33082
33080
33083
33078
33096
33087
33093
33092
33108
33105
33108
33112
33120
33124
33128
33128
33137
33134
33136
33146
33144
33156
33154
33164
33162
33164
33170
33164
33184
33186
33181
33192
33186
33190
33200
33196
33204
33206
33210
33208
33216
33212
33218
33215
33231
33226
33228
33220
33228
33230
33236
33238
33232
33237
33232
33234
33233
33249
33244
33246
33246
33252
33244
33252
33250
33252
33252
33252
33252
33254
33255
33257
33253
33258
33252
33252
33253
33262
33254
33260
33256
33252
33260
33258
33260
33252
33256
33260
33261
33252
33252
33246
33258
33260
33248
33260
33253
33242
33242
33248
33254
33244
33243
33244
33244
33248
33244
33242
33244
33232
33236
33232
33237
33233
33217
33228
33224
33225
33231
33225
33220
33220
33220
33220
33214
33213
33214
33209
33213
33218
33205
33208
33210
33204
33208
33204
33204
33206
33200
33205
33200
33198
33192
33198
33192
33188
33192
33186
33186
33188
33197
33178
33188
33188
33188
33178
33184
33185
33178
33188
33186
33188
33180
33181
33184
33178
33184
33178
33180
33175
33178
33180
33174
33175
33180
33176
33176
33172
33184
33172
33176
33176
33170
33180
33168
33162
33172
33156
33168
33154
33166
33162
33160
33156
33153
33156
33156
33152
33152
33163
33152
33148
33140
33140
33130
33138
33136
33132
33141
33120
33128
33124
33124
33124
33117
33118
33116
33110
33104
33108
33108
33106
33108
33098
33098
33094
33094
33095
33088
33088
33092
33092
33092
33092
33088
33078
33078
33080
33082
33088
33078
33086
33078
33081
33073
33082
33075
33081
33077
33078
33076
33081
33077
33077
33079
33076
33076
33076
33076
33072
33079
33069
33072
33074
33075
33076
33080
33071
33068
33080
33074
33077
33068
33078
33072
33072
33070
33071
33068
33068
33076
33072
33065
33064
33068
33064
33068
33073
33066
33067
33072
33072
33068
33069
33079
33068
33080
33078
33084
33086
33090
33092
33082
33082
33088
33096
33090
33096
33088
33099
33094
33102
33100
33101
33096
33096
33108
33108
33104
33104
33092
33105
33104
33102
33093
33100
33095
33089
33088
33088
33086
33086
33080
33076
33080
33066
33060
33070
33056
33060
33056
33044
33046
33040
33033
33036
33024
33028
33024
33013
33013
33020
33010
32999
32996
32999
32992
32994
32992
32984
32980
32974
32970
32970
32976
32967
32970
32960
32956
32944
32944
32958
32959
32950
32954
32948
32948
32958
32958
32958
32956
32956
32968
32964
32968
32964
32967
32980
32975
32984
32984
32984
32992
32996
32990
32998
33007
33005
33015
33014
33016
33028
33022
33030
33032
33036
33036
33052
33046
33053
33048
33052
33064
33060
33060
33062
33072
33077
33082
33084
33084
33088
33088
33085
33102
33096
33114
33112
33114
33125
33120
33128
33124
33132
33143
33154
33159
33160
33166
33164
33170
33178
33178
33184
33198
33201
33213
33205
33220
33222
33228
33228
33236
33242
33245
33261
33265
33269
33276
33276
33280
33287
33288
33293
33300
33308
33312
33328
33320
33324
33335
33336
33336
33341
33346
33357
33360
33368
33373
33368
33375
33376
33380
33380
33396
33396
33397
33396
33406
33412
33404
33414
33416
33421
33431
33440
33436
33441
33448
33448
33456
33462
33482
33478
33480
33473
33500
33492
33501
33509
33518
33528
33528
33532
33544
33551
33562
33565
33572
33576
33590
33600
33609
33610
33618
33632
33642
33636
33656
33662
33668
33670
33684
33700
33707
33716
33717
33734
33732
33748
33759
33757
33765
33780
33796
33784
33806
33816
33817
33824
33830
33844
33856
33860
33856
33876
33872
33888
33890
33897
33896
33901
33918
33928
33928
33932
33935
33948
33951
33952
33948
33958
33956
33966
33966
33976
33980
33966
33984
33984
33984
33984
33988
33990
33988
33998
33996
34000
34004
34004
33999
34000
34006
33989
33998
33994
34002
33996
33998
33994
33995
34000
33988
33988
33988
33983
33992
33984
33984
33986
33980
33988
33972
33988
33989
33984
33984
33984
33982
33984
33978
33989
33980
33989
33980
33982
33983
33981
33984
33976
33972
33990
33976
33976
33968
33976
33968
33961
33972
33956
33963
33956
33952
33944
33948
33946
33952
33943
33941
33940
33934
33933
33928
33932
33927
33926
33928
33916
33920
33916
33908
33917
33908
33909
33913
33913
33897
33908
33901
33900
33908
33901
33894
33900
33898
33900
33908
33884
33887
33886
33892
33877
33892
33889
33872
33882
33876
33880
33884
33873
33873
33876
33860
33862
33860
33857
33852
33844
33856
33852
33848
33844
33841
33830
33830
33825
33828
33831
33826
33825
33812
33814
33812
33816
33808
33805
33808
33804
33804
33788
33796
33790
33792
33792
33784
33796
33792
33781
33781
33782
33777
33774
33778
33781
33764
33784
33769
33776
33766
33775
33780
33777
33766
33768
33764
33773
33777
33772
33772
33780
33781
33777
33779
33776
33784
33783
33780
33780
33777
33773
33780
33777
33777
33780
33781
33784
33776
33780
33776
33781
33784
33777
33782
33788
33784
33790
33790
33799
33786
33788
33797
33797
33796
33799
33794
33796
33796
33796
33796
33804
33788
33804
33808
33800
33810
33809
33816
33804
33806
33814
33808
33813
33808
33812
33804
33820
33830
33825
33822
33816
33820
33812
33820
33824
33812
33828
33820
33824
33821
33820
33825
33824
33812
33830
33825
33825
33828
33832
33823
33819
33824
33828
33828
33825
33824
33828
33823
33832
33832
33823
33824
33828
33828
33832
33824
33826
33828
33820
33820
33828
33828
33828
33828
33820
33830
33822
33824
33823
33832
33815
33820
33822
33815
33825
33824
33820
33820
33816
33814
33810
33812
33814
33816
33810
33812
33806
33812
33800
33804
33798
33788
33796
33796
33800
33798
33790
33786
33780
33786
33776
33764
33774
33774
33772
33765
33760
33754
33756
33756
33748
33748
33748
33734
33740
33724
33728
33728
33720
33716
33713
33710
33707
33704
33700
33702
33696
33689
33692
33681
33694
33670
33672
33668
33658
33652
33656
33656
33652
33632
33636
33633
33628
33624
33628
33625
33620
33620
33614
33611
33604
33600
33596
33600
33596
33584
33592
33588
33580
33574
33572
33576
33566
33566
33572
33558
33558
33550
33558
33552
33549
33538
33544
33532
33536
33532
33534
33528
33524
33519
33520
33518
33514
33512
33508
33508
33505
33504
33492
33492
33500
33492
33488
33484
33482
33482
33484
33468
33473
33468
33472
33458
33457
33456
33457
33444
33448
33442
33440
33437
33433
33432
33432
33423
33422
33416
33420
33414
33406
33409
33409
33392
33400
33388
33393
33388
33388
33376
33380
33376
33380
33372
33368
33364
33367
33359
33358
33358
33360
33348
33349
33348
33340
33342
33334
33336
33332
33342
33340
33332
33332
33332
33332
33318
33325
33320
33330
33318
33314
33316
33316
33324
33317
33318
33312
33312
33316
33316
33307
33310
33300
33296
33300
33304
33300
33296
33292
33302
33296
33290
33292
33284
33287
33292
33292
33287
33294
33289
33286
33292
33282
33280
33284
33276
33287
33281
33284
33287
33290
33278
33294
33297
33293
33290
33296
33300
33308
33312
33316
33316
33312
33319
33320
33320
33332
33335
33332
33344
33327
33332
33336
33340
33340
33336
33348
33336
33343
33336
33348
33341
33340
33340
33343
33344
33342
33348
33346
33340
33346
33348
33346
33348
33348
33344
33351
33344
33350
33348
33348
33348
33352
33350
33356
33348
33348
33356
33346
33348
33353
33344
33352
33354
33344
33348
33358
33348
33348
33356
33348
33353
33348
33354
33364
33362
33354
33360
33374
33372
33380
33380
33382
33383
33390
33394
33400
33399
33409
33412
33408
33413
33425
33428
33426
33435
33438
33442
33448
33450
33449
33451
33460
33453
33468
33460
33473
33456
33464
33468
33469
33476
33464
33474
33470
33476
33466
33480
33476
33465
33464
33476
33460
33460
33462
33468
33460
33461
33466
33460
33463
33468
33457
33464
33453
33460
33455
33453
33452
33446
33452
33453
33446
33440
33448
33446
33444
33436
33441
33441
33436
33441
33436
33433
33434
33436
33428
33428
33417
33424
33420
33412
33420
33409
33412
33398
33401
33404
33405
33404
33397
33398
33396
33396
33393
33388
33384
33382
33380
33380
33381
33380
33370
33370
33372
33364
33360
33360
33353
33348
33353
33346
33344
33340
33338
33338
33343
33332
33332
33332
33326
33320
33325
33332
33322
33316
33314
33317
33316
33316
33308
33313
33304
33312
33324
33316
33319
33308
33302
33298
33308
33308
33304
33310
33305
33310
33308
33302
33303
33312
33303
33308
33304
33310
33314
33305
33317
33296
33306
33304
33304
33304
33308
33302
33302
33304
33306
33301
33308
33308
33308
33308
33308
33302
33312
33301
33302
33304
33300
33308
33308
33306
33303
33311
33311
33308
33316
33313
33304
33308
33310
33311
33302
33316
33312
33319
33308
33322
33318
33316
33320
33320
33316
33325
33327
33326
33334
33332
33333
33340
33336
33344
33345
33348
33350
33350
33346
33352
33356
33352
33354
33348
33366
33367
33368
33366
33367
33372
33383
33380
33384
33389
33391
33392
33404
33409
33420
33412
33412
33420
33428
33430
33437
33441
33452
33452
33464
33466
33476
33476
33484
33482
33492
33489
33500
33500
33506
33516
33516
33520
33528
33532
33540
33540
33548
33544
33556
33550
33572
33560
33576
33569
33578
33580
33582
33583
33594
33596
33600
33604
33600
33604
33612
33621
33616
33622
33632
33632
33632
33636
33646
33649
33650
33647
33654
33650
33662
33664
33656
33662
33660
33674
33676
33672
33678
33676
33676
33685
33686
33685
33684
33687
33680
33690
33689
33692
33696
33687
33692
33700
33692
33701
33697
33700
33701
33700
33711
33711
33704
33708
33713
33722
33704
33710
33714
33716
33722
33722
33716
33726
33721
33732
33724
33730
33738
33732
33738
33738
33741
33744
33742
33745
33757
33752
33756
33750
33764
33756
33760
33764
33767
33764
33767
33772
33767
33780
33772
33782
33774
33796
33778
33796
33792
33796
33800
33796
33800
33804
33793
33797
33798
33800
33806
33808
33812
33812
33809
33816
33804
33812
33807
33818
33809
33820
33810
33815
33816
33820
33812
33809
33816
33818
33806
33815
33816
33828
33816
33818
33812
33820
33817
33812
33812
33818
33814
33820
33815
33822
33812
33820
33808
33812
33816
33813
33804
33820
33812
33812
33812
33815
33812
33806
33812
33805
33814
33804
33804
33804
33804
33800
33796
33806
33800
33808
33799
33800
33800
33802
33796
33799
33796
33800
33797
33796
33790
33796
33792
33796
33792
33786
33791
33788
33798
33785
33785
33784
33786
33786
33782
33788
33778
33774
33781
33788
33786
33784
33783
33782
33781
33775
33776
33782
33767
33774
33772
33769
33776
33772
33770
33765
33775
33774
33766
33770
33761
33762
33761
33762
33758
33764
33751
33753
33762
33756
33749
33760
33757
33755
33752
33752
33757
33748
33752
33753
33756
33745
33752
33752
33744
33756
33749
33748
33750
33752
33746
33740
33745
33746
33753
33754
33749
33760
33748
33752
33744
33756
33748
33748
33745
33752
33764
33746
33756
33756
33758
33756
33756
33748
33757
33758
33756
33757
33752
33764
33760
33764
33760
33765
33764
33761
33762
33764
33768
33760
33772
33767
33769
33772
33776
33772
33776
33770
33775
33770
33778
33770
33776
33768
33776
33772
33781
33776
33774
33775
33776
33774
33779
33774
33780
33780
33782
33777
33781
33776
33772
33780
33774
33772
33772
33777
33772
33772
33772
33769
33772
33764
33772
33768
33765
33764
33768
33766
33764
33764
33764
33760
33759
33756
33756
33752
33750
33734
33752
33748
33740
33740
33732
33742
33742
33736
33736
33740
33724
33732
33721
33724
33728
33729
33714
33716
33712
33702
33702
33702
33703
33695
33694
33694
33684
33692
33684
33688
33677
33684
33672
33676
33672
33668
33678
33671
33664
33666
33652
33652
33654
33644
33654
33636
33640
33640
33628
33628
33632
33632
33624
33628
33622
33612
33612
33608
33608
33604
33604
33605
33605
33591
33592
33585
33584
33580
33572
33577
33576
33562
33560
33556
33559
33556
33544
33551
33546
33540
33536
33542
33528
33530
33524
33524
33532
33520
33510
33514
33516
33524
33521
33518
33504
33513
33508
33508
33504
33505
33505
33504
33508
33500
33500
33492
33490
33492
33488
33474
33484
33480
33476
33472
33477
33465
33465
33458
33454
33446
33444
33441
33436
33436
33425
33428
33422
33404
33416
33416
33416
33404
33404
33392
33389
33385
33380
33380
33365
33364
33360
33352
33356
33344
33338
33332
33332
33332
33316
33310
33310
33306
33307
33296
33290
33286
33284
33278
33279
33276
33269
33266
33266
33260
33264
33266
33260
33260
33260
33252
33255
33252
33253
33262
33260
33258
33255
33252
33256
33262
33276
33260
33264
33265
33268
33264
33276
33262
33272
33272
33265
33284
33270
33280
33272
33274
33273
33268
33280
33264
33272
33280
33268
33268
33276
33268
33277
33272
33264
33276
33269
33270
33257
33270
33266
33270
33264
33275
33261
33274
33265
33268
33260
33262
33264
33270
33262
33260
33261
33264
33269
33260
33260
33260
33253
33252
33250
33254
33248
33248
33248
33236
33246
33240
33236
33226
33220
33220
33226
33224
33218
33218
33212
33204
33200
33205
33194
33196
33186
33180
33182
33184
33184
33170
33164
33164
33160
33153
33154
33142
33140
33132
33126
33132
33119
33114
33110
33104
33104
33092
33088
33080
33080
33064
33079
33060
33064
33052
33048
33056
33040
33038
33032
33025
33013
33018
33012
33004
33000
32996
32995
32988
32980
32985
32980
32975
32968
32960
32960
32964
32952
32944
32952
32940
32932
32928
32932
32920
32924
32908
32910
32908
32902
32903
32888
32896
32890
32884
32884
32880
32880
32876
32868
32872
32868
32864
32860
32853
32854
32852
32850
32854
32850
32844
32840
32838
32830
32836
32830
32836
32832
32822
32830
32812
32816
32822
32804
32814
32808
32806
32800
32796
32794
32798
32793
32784
32794
32781
32784
32774
32774
32774
32774
32776
32772
32762
32761
32760
32748
32741
32750
32744
32741
32736
32729
32726
32716
32724
32720
32712
32709
32709
32708
32706
32700
32701
32692
32696
32688
32682
32678
32688
32690
32686
32684
32676
32682
32684
32676
32676
32674
32677
32678
32672
32668
32672
32664
32656
32658
32658
32654
32657
32650
32652
32644
32644
32645
32646
32648
32640
32628
32632
32626
32624
32626
32616
32620
32613
32618
32612
32612
32611
32604
32600
32610
32604
32597
32593
32600
32594
32600
32602
32592
32599
32600
32598
32597
32594
32602
32594
32593
32600
32597
32604
32592
32601
32592
32592
32596
32592
32596
32598
32596
32596
32600
32590
32600
32596
32594
32592
32598
32596
32592
32598
32596
32597
32596
32596
32597
32596
32596
32597
32600
32592
32604
32596
32598
32602
32607
32604
32608
32601
32616
32614
32615
32612
32612
32614
32620
32622
32628
32624
32633
32622
32628
32624
32628
32625
32630
32636
32636
32633
32638
32640
32644
32640
32640
32646
32644
32654
32652
32649
32649
32644
32646
32657
32654
32650
32650
32658
32652
32662
32658
32652
32653
32656
32656
32656
32660
32657
32658
32657
32668
32646
32660
32654
32658
32652
32657
32648
32664
32644
32644
32648
32655
32648
32648
32648
32656
32652
32648
32652
32654
32640
32648
32642
32648
32646
32646
32644
32640
32633
32636
32644
32644
32641
32640
32636
32640
32640
32641
32638
32632
32636
32626
32632
32624
32636
32624
32622
32616
32624
32620
32620
32620
32624
32618
32614
32613
32622
32616
32609
32612
32612
32604
32598
32606
32613
32608
32612
32604
32604
32610
32614
32608
32608
32610
32605
32605
32604
32608
32612
32607
32602
32605
32605
32604
32606
32608
32600
32599
32610
32600
32604
32599
32612
32608
32596
32600
32588
32592
32600
32590
32582
32590
32592
32588
32584
32588
32578
32576
32578
32576
32576
32572
32568
32565
32558
32564
32564
32548
32553
32550
32542
32548
32540
32533
32532
32522
32524
32524
32516
32514
32500
32506
32508
32504
32481
32490
32484
32480
32466
32476
32473
32465
32452
32460
32452
32450
32448
32437
32440
32448
32436
32422
32420
32414
32416
32404
32407
32396
32398
32404
32384
32390
32382
32380
32376
32372
32368
32364
32357
32362
32352
32356
32340
32341
32341
32346
32332
32332
32320
32320
32310
32316
32320
32310
32300
32292
32292
32289
32288
32278
32280
32264
32272
32257
32264
32252
32260
32244
32250
32237
32242
32227
32231
32222
32230
32222
32224
32208
32212
32200
32196
32200
32192
32189
32180
32186
32177
32184
32172
32165
32168
32164
32160
32141
32152
32140
32142
32140
32132
32128
32124
32126
32128
32113
32112
32113
32108
32100
32104
32098
32100
32097
32086
32084
32088
32080
32078
32084
32072
32076
32064
32064
32066
32061
32054
32044
32042
32042
32040
32044
32040
32030
32031
32036
32016
32026
32016
32009
32021
31998
32014
32005
32000
31996
31996
31982
31983
31988
31984
31988
31984
31976
31980
31970
31972
31968
31972
31964
31966
31952
31964
31952
31956
31954
31944
31945
31942
31940
31936
31936
31934
31940
31938
31936
31928
31936
31928
31932
31930
31926
31930
31928
31935
31936
31933
31924
31930
31928
31936
31936
31926
31936
31940
31926
31922
31935
31924
31932
31932
31916
31924
31924
31925
31932
31920
31910
31928
31908
31909
31908
31906
31908
31893
31898
31887
31900
31886
31884
31869
31882
31868
31863
31856
31852
31852
31848
31845
31836
31831
31828
31828
31812
31816
31808
31806
31806
31804
31792
31788
31784
31786
31784
31777
31780
31773
31764
31769
31770
31780
31756
31764
31761
31764
31761
31760
31758
31761
31760
31773
31780
31766
31776
31780
31782
31776
31782
31793
31794
31796
31802
31810
31816
31823
31828
31836
31836
31838
31846
31860
31860
31866
31876
31884
31892
31896
31900
31908
31908
31920
31936
31932
31934
31950
31956
31962
31968
31968
31980
31986
32001
31996
32012
32016
32028
32028
32024
32044
32052
32060
32064
32072
32076
32086
32092
32100
32100
32100
32117
32116
32132
32132
32132
32140
32144
32153
32156
32164
32180
32182
32188
32185
32188
32201
32200
32208
32224
32216
32221
32222
32234
32228
32236
32226
32230
32238
32244
32241
32239
32246
32257
32254
32263
32248
32256
32260
32260
32258
32256
32264
32260
32263
32268
32262
32272
32268
32272
32272
32274
32269
32276
32276
32269
32276
32276
32273
32272
32270
32270
32279
32274
32279
32272
32276
32280
32276
32272
32276
32284
32282
32284
32280
32280
32279
32280
32280
32288
32282
32290
32276
32288
32294
32292
32297
32290
32296
32295
32290
32297
32302
32292
32302
32300
32302
32308
32308
32316
32314
32321
32310
32312
32319
32322
32326
32322
32328
32328
32334
32332
32334
32345
32346
32356
32346
32348
32352
32352
32356
32368
32364
32368
32366
32370
32376
32376
32380
32390
32393
32392
32401
32398
32404
32412
32416
32415
32416
32428
32425
32430
32433
32432
32442
32440
32452
32442
32454
32450
32464
32454
32464
32460
32468
32472
32481
32476
32484
32486
32484
32487
32492
32488
32493
32496
32494
32492
32497
32504
32511
32508
32516
32520
32524
32520
32528
32527
32528
32540
32534
32540
32548
32557
32557
32560
32570
32576
32580
32574
32590
32589
32591
32598
32596
32608
32608
32612
32621
32618
32621
32624
32637
32632
32636
32644
32644
32652
32644
32644
32661
32655
32662
32666
32672
32672
32670
32674
32684
32676
32696
32674
32696
32698
32702
32692
32700
32704
32712
32712
32712
32718
32730
32734
32732
32738
32734
32746
32740
32748
32756
32752
32760
32767
32765
32780
32780
32786
32784
32794
32802
32804
32810
32806
32804
32812
32824
32828
32820
32832
32832
32828
32844
32844
32848
32852
32860
32857
32864
32864
32866
32884
32881
32892
32880
32892
32900
32906
32911
32917
32910
32917
32924
32920
32928
32940
32936
32944
32942
32956
32952
32960
32964
32964
32972
32972
32978
32980
32982
32988
32992
32993
32996
33012
32997
33004
33012
33009
33025
33015
33022
33024
33025
33032
33041
33039
33044
33048
33044
33045
33046
33053
33052
33054
33061
33062
33062
33058
33060
33072
33064
33065
33062
33068
33071
33076
33069
33068
33070
33069
33062
33074
33076
33084
33077
33076
33076
33088
33080
33070
33084
33076
33076
33077
33076
33084
33082
33080
33078
33080
33080
33086
33088
33084
33076
33092
33092
33090
33092
33090
33088
33088
33089
33092
33088
33092
33086
33100
33096
33100
33100
33100
33093
33100
33100
33103
33101
33105
33113
33108
33112
33112
33104
33116
33113
33120
33120
33124
33124
33120
33124
33132
33128
33137
33130
33138
33136
33136
33132
33140
33144
33150
33152
33150
33154
33157
33158
33160
33164
33160
33160
33168
33168
33180
33184
33182
33172
33184
33184
33192
33194
33188
33186
33188
33196
33194
33205
33204
33201
33213
33212
33212
33216
33216
33224
33224
33226
33226
33236
33226
33226
33238
33231
33240
33246
33246
33249
33252
33242
33252
33248
33256
33260
33254
33257
33264
33261
33278
33271
33276
33277
33278
33276
33272
33272
33280
33284
33280
33284
33284
33278
33288
33285
33292
33286
33295
33300
33300
33296
33296
33296
33294
33305
33294
33300
33308
33302
33302
33295
33302
33300
33300
33306
33304
33300
33301
33305
33306
33301
33308
33310
33308
33300
33304
33294
33305
33306
33301
33312
33302
33312
33308
33300
33310
33308
33304
33300
33308
33308
33300
33304
33298
33303
33303
33310
33308
33300
33305
33300
33301
33302
33303
33308
33300
33300
33306
33306
33300
33304
33301
33290
33302
33302
33301
33308
33302
33304
33296
33292
33304
33300
33302
33304
33316
33300
33304
33308
33308
33312
33304
33310
33311
33312
33310
33311
33312
33319
33316
33316
33320
33322
33321
33324
33322
33334
33319
33322
33324
33332
33318
33324
33330
33330
33326
33328
33329
33329
33340
33336
33328
33342
33341
33348
33344
33342
33344
33343
33347
33349
33345
33350
33356
33352
33358
33348
33352
33356
33356
33356
33364
33358
33353
33356
33365
33367
33368
33364
33376
33368
33382
33376
33383
33388
33389
33389
33397
33397
33404
33400
33404
33412
33414
33417
33429
33428
33428
33436
33441
33442
33450
33455
33457
33454
33461
33464
33468
33472
33480
33474
33473
33472
33476
33476
33478
33470
33473
33472
33478
33484
33476
33474
33468
33463
33470
33472
33456
33468
33464
33456
33461
33460
33450
33460
33456
33463
33452
33456
33454
33450
33452
33452
33458
33456
33464
33444
33452
33450
33452
33449
33448
33444
33452
33446
33448
33454
33446
33446
33460
33445
33458
33455
33460
33452
33462
33462
33468
33476
33476
33478
33480
33492
33488
33494
33494
33508
33508
33511
33510
33512
33528
33521
33518
33529
33528
33540
33544
33537
33543
33546
33557
33548
33548
33544
33550
33552
33556
33564
33556
33551
33560
33566
33552
33557
33560
33556
33556
33562
33568
33552
33560
33561
33564
33560
33564
33559
33572
33572
33565
33570
33566
33572
33572
33568
33576
33580
33584
33574
33576
33572
33583
33586
33590
33584
33582
33586
33592
33596
33584
33585
33592
33589
33604
33592
33602
33594
33604
33602
33600
33602
33600
33598
33604
33608
33612
33598
33600
33606
33612
33612
33608
33612
33610
33616
33605
33604
33608
33604
33613
33612
33602
33612
33604
33612
33600
33605
33614
33604
33604
33604
33604
33604
33604
33608
33596
33592
33586
33594
33592
33592
33600
33588
33576
33586
33580
33581
33582
33581
33584
33588
33577
33580
33576
33572
33583
33574
33572
33572
33572
33576
33572
33561
33564
33558
33566
33556
33552
33560
33556
33548
33553
33553
33556
33546
33551
33548
33544
33550
33540
33544
33528
33541
33534
33530
33534
33524
33520
33524
33520
33527
33521
33505
33510
33504
33516
33504
33505
33496
33500
33493
33496
33492
33490
33480
33482
33488
33480
33480
33474
33474
33468
33475
33472
33460
33456
33458
33458
33460
33452
33450
33451
33450
33446
33442
33437
33424
33426
33422
33425
33418
33416
33412
33416
33412
33406
33406
33405
33392
33400
33380
33385
33384
33382
33391
33376
33383
33386
33374
33372
33372
33376
33382
33380
33370
33370
33366
33368
33376
33372
33360
33370
33368
33364
33369
33364
33356
33361
33362
33352
33353
33352
33342
33350
33342
33342
33336
33336
33335
33334
33324
33326
33327
33320
33308
33312
33301
33295
33308
33304
33296
33286
33292
33280
33284
33273
33281
33278
33272
33266
33264
33264
33260
33257
33252
33252
33252
33244
33248
33248
33252
33246
33240
33252
33238
33236
33232
33232
33232
33232
33221
33221
33222
33221
33228
33216
33212
33210
33201
33204
33196
33206
33192
33192
33186
33188
33184
33184
33180
33170
33172
33166
33156
33164
33159
33150
33152
33148
33148
33140
33136
33136
33144
33137
33138
33120
33128
33126
33124
33128
33122
33120
33116
33121
33121
33116
33112
33108
33111
33108
33116
33105
33104
33097
33096
33103
33106
33089
33093
33094
33089
33088
33080
33085
33092
33088
33084
33080
33080
33078
33068
33072
33064
33068
33060
33058
33064
33060
33053
33042
33048
33045
33048
33044
33038
33032
33030
33024
33024
33024
33012
33022
33022
33012
33012
33006
33010
33010
33012
33002
33004
33004
33001
33001
32992
32988
32984
32988
32994
32996
32992
32984
32998
32997
32996
32993
32994
32986
32996
32990
32994
32992
32996
32992
32996
32994
33004
33004
32997
33004
33012
33008
33008
33017
33020
33014
33020
33024
33029
33024
33021
33044
33028
33040
33038
33040
33044
33050
33052
33060
33058
33060
33061
33061
33076
33074
33068
33078
33070
33082
33080
33086
33084
33094
33088
33098
33102
33092
33098
33108
33096
33116
33108
33108
33112
33116
33108
33122
33116
33113
33116
33124
33124
33122
33124
33128
33124
33132
33124
33134
33124
33130
33128
33137
33136
33132
33134
33132
33132
33132
33130
33132
33132
33136
33124
33134
33137
33138
33138
33128
33132
33132
33132
33134
33136
33131
33125
33128
33124
33127
33120
33120
33124
33124
33119
33120
33112
33110
33110
33112
33108
33100
33104
33100
33100
33102
33094
33090
33086
33090
33086
33080
33088
33084
33084
33068
33077
33076
33068
33074
33064
33068
33060
33064
33060
33049
33054
33052
33054
33048
33048
33050
33044
33044
33040
33042
33036
33036
33032
33038
33034
33030
33032
33028
33024
33024
33036
33028
33025
33024
33028
33024
33032
33028
33028
33024
33028
33024
33031
33028
33026
33028
33030
33026
33032
33024
33040
33024
33038
33028
33036
33031
33026
33033
33028
33030
33036
33024
33036
33030
33032
33032
33034
33030
33028
33035
33029
33031
33030
33024
33030
33028
33036
33037
33020
33024
33036
33028
33028
33036
33024
33032
33018
33032
33028
33028
33032
33026
33030
33024
33030
33028
33017
33021
33028
33024
33025
33016
33016
33028
33025
33024
33018
33016
33028
33028
33012
33020
33020
33012
33021
33016
33016
33004
33017
33012
33020
33008
33016
33008
33000
33012
33006
33016
32998
33000
33001
33006
32998
32999
33000
32997
32996
32996
33002
33000
32988
32988
32988
32992
32993
32993
32982
32985
32988
32988
32985
32996
32981
32990
32984
32992
32993
32993
32990
32996
32997
32996
33004
33008
33005
33000
33005
33008
33012
33010
33020
33018
33024
33026
33023
33028
33022
33031
33032
33036
33030
33032
33032
33036
33021
33031
33040
33032
33030
33026
33024
33030
33032
33024
33036
33028
33024
33022
33012
33024
33020
33020
33013
33012
33018
33014
33017
33024
33016
33017
33008
33020
33000
33008
33016
33010
32998
33000
32999
33004
32996
33000
33000
33000
33001
32992
32992
32991
33005
32996
32993
33000
32996
33004
33002
33004
32999
33020
33012
33013
33020
33018
33021
33036
33028
33040
33042
33048
33044
33056
33060
33062
33072
33068
33072
33074
33086
33088
33084
33086
33085
33095
33093
33092
33103
33108
33104
33106
33108
33109
33110
33104
33110
33104
33100
33102
33104
33104
33104
33112
33116
33111
33100
33108
33112
33114
33117
33110
33096
33104
33107
33104
33103
33097
33096
33104
33106
33100
33103
33088
33096
33092
33096
33090
33085
33089
33084
33085
33088
33088
33074
33084
33072
33070
33072
33072
33076
33068
33060
33058
33064
33068
33056
33056
33060
33053
33060
33056
33048
33041
33045
33045
33041
33034
33040
33034
33032
33038
33037
33028
33030
33024
33028
33020
33016
33014
33012
33010
33020
33012
33008
33014
33009
33006
33004
33008
33003
33000
33009
33006
32997
32998
33000
33007
33004
32996
32995
33001
32996
33004
32998
33004
33000
33005
33000
33012
33000
33012
33000
33007
33008
33004
33008
33012
33005
33008
33004
33005
33008
32997
33006
33012
33000
33004
32998
33000
33004
33004
33008
33002
33000
33000
33000
33004
33001
32997
33000
33008
33004
33004
32992
32993
32996
32996
32993
32996
32986
32988
32990
32980
32984
32986
32987
32988
32988
32988
32984
32984
32980
32982
32977
32980
32976
32972
32964
32965
32968
32975
32972
32962
32972
32969
32972
32965
32968
32960
32964
32962
32960
32962
32956
32960
32948
32950
32948
32949
32948
32953
32944
32936
32942
32944
32941
32940
32942
32936
32940
32934
32936
32932
32937
32936
32936
32940
32934
32945
32945
32943
32940
32942
32935
32938
32950
32946
32949
32943
32945
32948
32944
32944
32940
32949
32944
32952
32936
32938
32940
32946
32942
32932
32936
32927
32936
32932
32929
32928
32924
32930
32926
32918
32916
32916
32920
32912
32924
32920
32910
32909
32904
32908
32908
32900
32904
32904
32898
32901
32902
32900
32900
32900
32897
32902
32896
32892
32894
32896
32894
32893
32892
32880
32884
32876
32873
32882
32884
32876
32870
32873
32865
32872
32864
32866
32861
32862
32856
32860
32862
32846
32844
32852
32847
32848
32848
32836
32840
32829
32830
32836
32826
32828
32820
32816
32813
32808
32806
32808
32804
32802
32804
32801
32802
32790
32796
32790
32788
32785
32792
32780
32776
32772
32773
32773
32769
32772
32768
32760
32768
32772
32758
32756
32764
32760
32761
32760
32764
32760
32750
32753
32753
32758
32760
32751
32748
32750
32756
32752
32750
32765
32764
32761
32757
32756
32759
32750
32758
32750
32750
32764
32752
32753
32764
32761
32752
32752
32753
32752
32754
32760
32752
32756
32760
32750
32744
32765
32753
32752
32756
32750
32753
32758
32754
32748
32756
32746
32752
32754
32753
32758
32748
32752
32750
32748
32748
32750
32744
32749
32739
32740
32751
32748
32752
32740
32742
32740
32742
32740
32737
32736
32740
32734
32736
32728
32730
32730
32726
32724
32728
32726
32726
32720
32724
32724
32716
32712
32706
32716
32712
32705
32708
32705
32698
32699
32692
32692
32692
32686
32686
32681
32687
32676
32677
32672
32672
32664
32660
32668
32654
32663
32656
32646
32644
32644
32642
32631
32632
32636
32631
32628
32628
32621
32616
32612
32607
32612
32604
32600
32602
32596
32600
32592
32596
32590
32584
32580
32578
32576
32577
32577
32572
32572
32564
32564
32561
32564
32557
32557
32548
32551
32553
32551
32542
32546
32540
32548
32536
32541
32538
32532
32532
32536
32535
32534
32520
32520
32524
32529
32516
32524
32514
32509
32514
32518
32514
32516
32502
32508
32508
32506
32504
32496
32506
32498
32496
32500
32492
32492
32493
32496
32488
32484
32490
32488
32484
32484
32487
32489
32484
32482
32480
32478
32481
32474
32472
32476
32464
32468
32468
32470
32470
32456
32456
32461
32460
32456
32456
32460
32454
32461
32448
32440
32447
32436
32444
32438
32432
32430
32433
32425
32438
32425
32432
32422
32417
32408
32414
32416
32408
32406
32400
32400
32392
32392
32389
32378
32381
32380
32376
32370
32361
32364
32358
32356
32356
32352
32348
32344
32340
32344
32332
32332
32328
32320
32316
32317
32303
32300
32292
32300
32301
32296
32292
32286
32279
32280
32278
32272
32272
32268
32264
32257
32258
32241
32260
32250
32244
32247
32244
32237
32230
32232
32230
32222
32228
32226
32220
32214
32212
32216
32208
32212
32208
32202
32198
32196
32197
32196
32188
32192
32180
32180
32188
32172
32172
32166
32176
32174
32164
32164
32164
32160
32158
32156
32158
32148
32152
32148
32148
32134
32144
32141
32141
32140
32134
32132
32132
32132
32128
32132
32126
32120
32121
32133
32124
32128
32128
32136
32136
32129
32133
32125
32132
32132
32132
32128
32142
32148
32154
32142
32152
32142
32156
32149
32159
32156
32164
32152
32152
32160
32160
32158
32156
32156
32156
32156
32150
32148
32142
32148
32148
32144
32152
32148
32152
32142
32144
32145
32144
32146
32140
32140
32141
32136
32144
32138
32136
32136
32136
32132
32122
32143
32137
32138
32132
32133
32128
32126
32132
32133
32126
32130
32136
32120
32140
32124
32134
32132
32137
32132
32137
32148
32132
32144
32146
32152
32153
32156
32156
32161
32160
32178
32172
32182
32194
32200
32198
32194
32213
32216
32214
32223
32228
32228
32238
32243
32254
32260
32262
32269
32272
32273
32286
32284
32294
32292
32302
32301
32312
32308
32322
32320
32334
32332
32328
32340
32340
32344
32356
32363
32364
32372
32373
32376
32384
32386
32390
32390
32394
32396
32408
32408
32408
32418
32420
32420
32432
32433
32436
32432
32444
32444
32438
32444
32444
32452
32452
32448
32456
32450
32457
32464
32450
32460
32450
32458
32453
32462
32464
32460
32460
32464
32463
32462
32460
32462
32456
32468
32462
32463
32468
32471
32456
32463
32463
32456
32458
32460
32460
32464
32456
32462
32452
32461
32456
32459
32457
32456
32452
32460
32452
32460
32458
32454
32448
32450
32452
32445
32453
32452
32452
32447
32454
32448
32456
32454
32450
32444
32448
32460
32448
32461
32460
32460
32456
32466
32468
32470
32476
32486
32484
32495
32496
32500
32504
32510
32517
32527
32538
32548
32556
32557
32572
32581
32584
32601
32620
32622
32628
32640
32662
32673
32684
32698
32711
32716
32740
32740
32758
32768
32774
32788
32817
32812
32834
32848
32868
32870
32888
32904
32908
32925
32948
32954
32964
32976
32995
33000
33016
33033
33038
33048
33056
33082
33086
33098
33104
33120
33132
33138
33152
33158
33156
33184
33182
33196
33204
33207
33228
33220
33240
33234
33257
33255
33269
33268
33284
33286
33290
33304
33316
33312
33316
33325
33329
33340
33340
33359
33364
33370
33378
33373
33382
33385
33404
33406
33414
33416
33429
33432
33428
33448
33450
33452
33461
33464
33474
33478
33484
33478
33486
33488
33504
33502
33504
33510
33509
33520
33516
33514
33520
33526
33529
33521
33520
33530
33536
33545
33532
33532
33528
33536
33540
33540
33536
33533
33535
33534
33536
33538
33534
33538
33530
33540
33540
33542
33540
33536
33540
33536
33544
33534
33536
33532
33532
33532
33526
33536
33524
33529
33530
33520
33522
33521
33518
33518
33512
33512
33504
33510
33505
33500
33500
33497
33492
33502
33496
33488
33488
33482
33476
33482
33473
33476
33480
33469
33473
33462
33466
33464
33461
33457
33464
33460
33452
33457
33457
33445
33454
33457
33444
33448
33441
33448
33449
33444
33436
33444
33440
33431
33436
33444
33434
33438
33434
33436
33438
33434
33434
33430
33432
33430
33432
33428
33430
33432
33435
33430
33436
33432
33438
33428
33436
33428
33432
33428
33440
33441
33424
33439
33436
33443
33432
33436
33432
33438
33429
33444
33440
33432
33436
33444
33436
33444
33436
33438
33441
33436
33444
33432
33437
33441
33434
33437
33429
33444
33431
33433
33433
33428
33426
33416
33428
33428
33434
33428
33416
33421
33424
33416
33416
33412
33412
33414
33412
33408
33405
33412
33402
33404
33396
33390
33385
33404
33393
33385
33382
33388
33384
33374
33372
33372
33370
33372
33372
33368
33360
33361
33358
33352
33360
33350
33346
33348
33334
33320
33326
33324
33313
33305
33310
33308
33295
33288
33293
33285
33284
33272
33260
33268
33249
33246
33244
33233
33230
33228
33220
33212
33204
33208
33198
33188
33180
33176
33172
33168
33158
33152
33148
33142
33132
33128
33120
33112
33110
33108
33096
33092
33086
33080
33066
33062
33060
33046
33052
33052
33040
33030
33020
33024
33018
33014
33004
32996
32993
32984
32978
32970
32968
32960
32952
32950
32948
32948
32932
32935
32924
32926
32916
32909
32898
32904
32884
32876
32878
32880
32868
32864
32860
32846
32848
32836
32840
32829
32828
32818
32821
32813
32814
32796
32792
32784
32780
32766
32769
32766
32764
32753
32752
32745
32740
32728
32724
32712
32713
32710
32703
32696
32684
32684
32672
32668
32671
32656
32654
32654
32638
32634
32632
32628
32620
32614
32596
32596
32588
32582
32576
32572
32560
32559
32554
32545
32544
32540
32534
32525
32518
32512
32512
32512
32496
32492
32490
32486
32484
32472
32472
32464
32453
32450
32448
32446
32445
32430
32424
32420
32420
32418
32412
32408
32402
32392
32384
32388
32382
32390
32376
32373
32368
32360
32356
32356
32356
32356
32340
32342
32335
32338
32340
32336
32332
32325
32324
32324
32316
32322
32304
32316
32310
32308
32300
32304
32298
32297
32300
32289
32292
32296
32296
32292
32285
32286
32286
32292
32281
32288
32276
32282
32272
32284
32280
32280
32280
32276
32285
32284
32290
32281
32292
32288
32296
32292
32294
32284
32292
32300
32292
32292
32294
32304
32300
32300
32308
32304
32305
32300
32306
32304
32310
32300
32300
32312
32300
32292
32288
32288
32290
32276
32284
32272
32278
32261
32264
32253
32252
32246
32239
32234
32241
32228
32222
32222
32214
32213
32205
32204
32189
32194
32190
32190
32188
32177
32183
32184
32172
32170
32162
32164
32160
32164
32156
32164
32160
32156
32156
32156
32148
32156
32150
32151
32153
32159
32160
32157
32164
32165
32172
32178
32184
32182
32176
32192
32204
32204
32212
32220
32229
32229
32228
32242
32244
32252
32254
32260
32266
32277
32284
32292
32292
32298
32306
32308
32318
32324
32340
32338
32348
32352
32360
32360
32366
32380
32388
32389
32400
32398
32400
32420
32417
32426
32434
32443
32450
32458
32454
32468
32470
32484
32492
32484
32500
32502
32508
32514
32525
32530
32528
32537
32550
32556
32552
32558
32569
32568
32578
32582
32592
32592
32596
32605
32596
32604
32616
32612
32620
32628
32624
32625
32632
32636
32629
32641
32636
32647
32644
32644
32652
32644
32652
32663
32654
32664
32652
32657
32652
32664
32666
32658
32664
32665
32666
32671
32672
32673
32674
32672
32674
32669
32668
32676
32668
32680
32682
32676
32676
32676
32684
32688
32684
32686
32680
32684
32684
32686
32686
32688
32695
32688
32698
32696
32690
32708
32693
32702
32708
32712
32700
32713
32708
32712
32716
32716
32724
32713
32732
32727
32730
32730
32740
32735
32740
32741
32744
32751
32748
32764
32756
32757
32761
32762
32766
32766
32778
32774
32772
32781
32786
32788
32793
32790
32796
32800
32812
32812
32804
32812
32818
32822
32830
32828
32829
32840
32840
32836
32838
32840
32844
32857
32861
32858
32855
32868
32868
32868
32868
32870
32876
32880
32878
32888
32884
32884
32889
32899
32885
32896
32900
32901
32901
32904
32900
32902
32914
32910
32910
32905
32916
32920
32924
32924
32912
32922
32926
32928
32932
32940
32937
32942
32946
32954
32952
32968
32964
32964
32958
32968
32982
32984
32986
32989
32992
32996
32996
33004
33000
33012
33012
33020
33018
33024
33023
33024
33024
33032
33037
33040
33044
33047
33036
33042
33056
33048
33044
33040
33049
33052
33052
33060
33040
33048
33056
33044
33057
33052
33059
33057
33052
33048
33056
33056
33063
33064
33056
33060
33060
33060
33072
33064
33064
33070
33076
33066
33068
33074
33078
33072
33074
33076
33080
33066
33080
33076
33084
33086
33088
33084
33084
33084
33084
33080
33080
33092
33087
33084
33084
33093
33098
33100
33104
33088
33098
33096
33097
33096
33108
33103
33113
33110
33113
33108
33108
33112
33112
33112
33121
33120
33134
33133
33125
33132
33132
33140
33136
33140
33144
33148
33151
33156
33157
33152
33164
33152
33160
33170
33178
33180
33178
33174
33180
33182
33186
33188
33181
33186
33185
33198
33193
33201
33200
33208
33204
33204
33198
33216
33208
33218
33224
33224
33216
33216
33220
33220
33224
33229
33230
33224
33228
33230
33234
33230
33232
33228
33240
33236
33239
33233
33241
33236
33248
33248
33240
33242
33240
33244
33252
33244
33254
33246
33247
33248
33244
33248
33242
33248
33248
33248
33247
33246
33250
33260
33246
33244
33248
33240
33252
33250
33252
33249
33253
33248
33256
33244
33246
33245
33252
33248
33252
33253
33256
33256
33252
33256
33260
33264
33256
33260
33261
33268
33263
33260
33264
33268
33276
33271
33270
33278
33276
33282
33281
33282
33284
33287
33292
33286
33297
33294
33304
33316
33310
33310
33312
33321
33324
33319
33329
33324
33329
33328
33337
33348
33343
33340
33346
33360
33352
33364
33364
33370
33372
33376
33378
33378
33380
33390
33388
33392
33399
33402
33404
33404
33420
33412
33416
33420
33426
33424
33434
33436
33440
33433
33444
33438
33460
33452
33456
33460
33468
33476
33472
33473
33484
33486
33488
33492
33492
33504
33502
33512
33502
33509
33512
33516
33524
33519
33519
33523
33533
33536
33536
33537
33545
33545
33532
33548
33548
33558
33550
33554
33556
33560
33552
33564
33568
33560
33558
33564
33568
33574
33574
33572
33580
33574
33572
33578
33568
33573
33570
33570
33576
33572
33574
33576
33564
33572
33572
33574
33572
33580
33574
33573
33572
33576
33568
33572
33574
33574
33572
33572
33568
33572
33576
33570
33572
33573
33576
33577
33584
33576
33581
33586
33576
33572
33577
33580
33588
33583
33578
33588
33584
33588
33584
33577
33580
33578
33592
33584
33598
33588
33581
33584
33588
33584
33589
33592
33599
33594
33588
33592
33586
33596
33588
33585
33596
33590
33600
33596
33602
33593
33592
33588
33588
33592
33592
33584
33588
33588
33596
33580
33592
33593
33577
33594
33592
33588
33592
33588
33600
33588
33588
33592
33594
33592
33596
33600
33602
33604
33608
33604
33604
33604
33612
33608
33612
33622
33620
33620
33617
33632
33638
33636
33642
33637
33652
33642
33656
33663
33663
33656
33666
33664
33670
33672
33668
33676
33679
33669
33684
33678
33680
33678
33680
33680
33684
33680
33678
33681
33684
33689
33684
33676
33674
33668
33676
33673
33674
33666
33672
33668
33684
33672
33680
33676
33676
33672
33672
33671
33668
33664
33672
33669
33668
33660
33672
33666
33660
33664
33660
33664
33662
33664
33652
33662
33656
33660
33664
33662
33654
33666
33670
33668
33668
33664
33672
33671
33680
33678
33684
33684
33684
33688
33696
33692
33696
33700
33704
33700
33700
33706
33708
33710
33710
33710
33704
33718
33702
33710
33716
33708
33708
33718
33708
33712
33706
33708
33705
33713
33710
33700
33710
33709
33700
33704
33701
33700
33697
33692
33700
33692
33696
33697
33693
33690
33698
33684
33696
33692
33690
33687
33688
33682
33678
33680
33679
33668
33681
33680
33671
33672
33676
33670
33671
33668
33663
33657
33656
33666
33660
33663
33656
33653
33656
33644
33649
33648
33644
33644
33644
33645
33632
33638
33640
33630
33632
33628
33626
33626
33620
33617
33612
33620
33608
33616
33596
33610
33602
33600
33600
33592
33580
33594
33580
33574
33570
33586
33562
33556
33560
33553
33552
33552
33535
33532
33536
33534
33524
33522
33512
33508
33506
33496
33496
33492
33484
33484
33482
33480
33472
33470
33466
33456
33454
33445
33449
33448
33441
33438
33436
33424
33417
33428
33412
33412
33412
33413
33404
33400
33390
33396
33388
33391
33386
33388
33375
33380
33382
33375
33374
33372
33366
33372
33372
33360
33361
33362
33356
33354
33358
33352
33350
33354
33352
33344
33352
33348
33356
33348
33340
33334
33348
33336
33337
33342
33343
33336
33337
33340
33338
33336
33333
33326
33324
33328
33328
33328
33326
33324
33324
33324
33324
33316
33322
33322
33320
33316
33308
33314
33308
33301
33292
33304
33296
33293
33297
33300
33286
33284
33296
33296
33292
33292
33288
33290
33288
33288
33292
33292
33294
33292
33296
33287
33300
33293
33302
33300
33303
33305
33316
33305
33314
33308
33312
33313
33314
33319
33320
33326
33319
33320
33325
33316
33316
33317
33316
33320
33328
33326
33324
33320
33316
33318
33327
33316
33324
33318
33319
33316
33328
33320
33322
33318
33320
33321
33318
33316
33324
33325
33322
33328
33324
33336
33336
33326
33333
33328
33334
33321
33336
33328
33332
33332
33336
33328
33324
33334
33334
33324
33328
33321
33326
33344
33324
33328
33332
33328
33336
33325
33326
33328
33316
33328
33332
33317
33313
33313
33328
33325
33316
33312
33316
33324
33306
33316
33316
33316
33322
33316
33314
33310
33297
33308
33308
33300
33308
33311
33304
33300
33302
33308
33306
33293
33295
33300
33290
33300
33296
33292
33300
33296
33295
33295
33295
33296
33302
33296
33304
33296
33302
33304
33302
33308
33314
33305
33308
33312
33304
33316
33318
33304
33321
33316
33324
33316
33328
33329
33329
33329
33329
33333
33346
33341
33336
33344
33352
33350
33346
33352
33348
33348
33353
33354
33364
33356
33364
33374
33374
33368
33378
33378
33382
33388
33380
33384
33380
33380
33394
33392
33390
33388
33398
33398
33406
33396
33404
33402
33412
33408
33413
33412
33412
33414
33417
33417
33421
33412
33428
33424
33422
33424
33428
33424
33429
33426
33428
33438
33436
33430
33437
33440
33441
33440
33432
33444
33444
33448
33447
33446
33452
33446
33452
33447
33446
33450
33454
33457
33461
33452
33454
33456
33454
33462
33456
33460
33462
33465
33470
33464
33464
33470
33472
33460
33465
33460
33465
33467
33468
33462
33460
33466
33456
33456
33462
33464
33460
33453
33448
33458
33452
33449
33445
33452
33436
33444
33434
33434
33428
33428
33434
33426
33420
33408
33412
33414
33412
33404
33392
33392
33384
33380
33381
33377
33374
33362
33370
33354
33352
33342
33342
33336
33326
33316
33320
33308
33300
33297
33294
33274
33273
33268
33265
33260
33250
33239
33224
33230
33216
33208
33202
33196
33192
33188
33172
33172
33168
33153
33151
33144
33141
33132
33124
33118
33110
33108
33092
33094
33084
33076
33080
33072
33068
33057
33056
33050
33052
33041
33033
33032
33022
33031
33020
33020
33016
33006
33000
33005
32998
32997
32993
32988
32991
32977
32981
32980
32972
32976
32967
32968
32960
32964
32958
32952
32949
32952
32950
32940
32944
32944
32940
32932
32932
32924
32928
32912
32908
32916
32909
32910
32900
32901
32900
32898
32896
32890
32888
32881
32880
32868
32869
32863
32864
32860
32864
32852
32852
32848
32840
32842
32840
32844
32833
32828
32821
32820
32814
32815
32808
32812
32808
32799
32804
32802
32808
32805
32800
32802
32800
32796
32795
32801
32792
32788
32796
32793
32796
32799
32800
32801
32804
32806
32804
32804
32804
32807
32808
32816
32812
32808
32812
32820
32814
32820
32816
32813
32816
32819
32824
32817
32824
32828
32824
32820
32808
32823
32830
32824
32830
32832
32829
32821
32823
32830
32840
32836
32831
32830
32828
32837
32841
32838
32844
32840
32840
32840
32840
32840
32834
32848
32846
32844
32850
32851
32840
32844
32843
32837
32848
32852
32852
32854
32848
32848
32852
32852
32860
32852
32847
32862
32864
32868
32862
32861
32864
32874
32873
32878
32877
32884
32880
32886
32884
32894
32896
32894
32900
32892
32898
32898
32896
32906
32897
32897
32892
32892
32896
32896
32893
32878
32889
32884
32891
32878
32872
32880
32876
32877
32870
32863
32866
32860
32855
32855
32844
32846
32845
32837
32837
32834
32837
32830
32833
32824
32823
32818
32818
32808
32810
32804
32800
32798
32792
32791
32790
32789
32792
32780
32772
32774
32769
32767
32760
32769
32764
32762
32760
32764
32756
32748
32754
32744
32744
32748
32736
32742
32733
32746
32738
32744
32740
32737
32734
32740
32737
32724
32738
32736
32725
32722
32725
32728
32728
32724
32720
32718
32720
32727
32716
32724
32709
32714
32708
32706
32706
32707
32708
32704
32697
32694
32688
32700
32690
32696
32680
32680
32679
32673
32670
32673
32676
32670
32666
32664
32660
32661
32661
32656
32652
32648
32644
32650
32644
32648
32641
32639
32638
32632
32644
32635
32632
32636
32629
32636
32624
32626
32628
32624
32630
32628
32622
32628
32632
32620
32628
32636
32629
32631
32628
32630
32632
32632
32634
32632
32645
32640
32646
32649
32648
32656
32660
32656
32661
32662
32660
32663
32670
32665
32670
32683
32670
32679
32680
32684
32678
32684
32692
32697
32697
32696
32692
32700
32692
32702
32704
32708
32702
32708
32702
32714
32704
32712
32714
32704
32706
32712
32702
32716
32709
32700
32711
32711
32710
32708
32712
32708
32708
32708
32708
32708
32709
32712
32716
32714
32708
32720
32720
32721
32724
32724
32724
32738
32732
32734
32742
32748
32746
32756
32756
32760
32760
32758
32772
32770
32768
32770
32778
32780
32780
32792
32797
32793
32800
32796
32804
32804
32811
32812
32820
32822
32820
32820
32836
32836
32836
32840
32840
32850
32840
32852
32860
32874
32866
32867
32868
32876
32878
32880
32886
32886
32886
32892
32900
32900
32897
32902
32904
32904
32911
32916
32917
32917
32916
32918
32916
32916
32932
32920
32920
32925
32918
32916
32917
32916
32913
32904
32906
32913
32924
32904
32916
32904
32900
32900
32899
32884
32892
32882
32894
32892
32888
32889
32887
32876
32870
32872
32877
32868
32863
32852
32852
32856
32849
32849
32844
32846
32847
32846
32844
32836
32832
32828
32826
32829
32828
32825
32831
32820
32814
32816
32812
32804
32806
32805
32817
32804
32804
32801
32794
32798
32806
32804
32804
32802
32792
32796
32797
32796
32793
32796
32796
32804
32799
32790
32796
32801
32801
32798
32796
32798
32796
32800
32802
32800
32808
32804
32804
32805
32812
32804
32812
32806
32805
32812
32804
32814
32810
32810
32816
32817
32815
32820
32818
32820
32828
32816
32824
32824
32825
32816
32825
32832
32836
32828
32832
32836
32830
32832
32836
32832
32836
32840
32838
32840
32833
32839
32840
32844
32841
32846
32842
32836
32844
32842
32848
32854
32856
32850
32852
32848
32846
32852
32855
32848
32854
32855
32853
32849
32856
32861
32859
32852
32868
32852
32856
32860
32856
32864
32868
32856
32864
32868
32864
32870
32869
32860
32862
32864
32871
32872
32864
32868
32876
32876
32880
32884
32874
32868
32878
32887
32895
32890
32886
32888
32892
32894
32892
32903
32904
32900
32908
32904
32904
32900
32908
32911
32912
32921
32916
32920
32932
32920
32924
32932
32928
32940
32930
32932
32932
32932
32932
32940
32937
32933
32936
32940
32936
32936
32943
32945
32941
32940
32940
32944
32940
32948
32948
32942
32950
32942
32933
32940
32944
32938
32936
32934
32944
32938
32932
32933
32924
32936
32924
32928
32917
32920
32916
32912
32909
32908
32908
32906
32904
32893
32896
32892
32887
32884
32882
32873
32868
32877
32870
32873
32864
32856
32856
32853
32844
32848
32842
32836
32832
32825
32820
32824
32817
32812
32801
32800
32785
32791
32782
32776
32775
32768
32766
32756
32750
32746
32740
32740
32732
32736
32725
32713
32704
32700
32700
32700
32686
32682
32682
32678
32672
32666
32670
32663
32656
32652
32652
32644
32640
32628
32636
32624
32615
32617
32610
32610
32598
32602
32599
32600
32593
32590
32580
32580
32578
32580
32572
32572
32560
32564
32560
32549
32556
32552
32544
32540
32538
32536
32528
32529
32524
32516
32518
32516
32518
32505
32506
32493
32500
32496
32488
32484
32478
32485
32484
32476
32476
32484
32479
32472
32476
32468
32468
32473
32472
32460
32472
32462
32470
32468
32456
32460
32463
32460
32460
32460
32456
32452
32456
32450
32446
32452
32452
32456
32444
32440
32445
32436
32432
32429
32431
32437
32424
32412
32417
32414
32412
32404
32404
32391
32388
32388
32386
32388
32382
32380
32378
32366
32368
32368
32356
32364
32356
32350
32346
32350
32343
32340
32334
32330
32324
32333
32325
32314
32314
32316
32308
32305
32305
32304
32292
32292
32290
32292
32292
32290
32280
32288
32278
32280
32285
32278
32282
32282
32284
32266
32284
32282
32280
32284
32284
32282
32290
32286
32296
32293
32289
32298
32300
32312
32298
32304
32308
32308
32306
32314
32311
32312
32316
32312
32308
32312
32310
32314
32320
32318
32316
32318
32319
32316
32324
32319
32325
32316
32320
32321
32317
32314
32310
32320
32321
32316
32322
32310
32316
32320
32308
32318
32318
32316
32316
32319
32314
32318
32318
32321
32315
32308
32302
32308
32310
32306
32312
32308
32309
32301
32297
32293
32294
32289
32292
32292
32292
32280
32288
32284
32272
32280
32281
32268
32269
32262
32262
32255
32256
32256
32249
32250
32240
32240
32240
32236
32240
32230
32234
32223
32224
32222
32214
32213
32214
32214
32205
32204
32196
32198
32192
32192
32188
32184
32176
32185
32180
32180
32168
32170
32166
32166
32160
32158
32148
32156
32144
32152
32138
32145
32134
32137
32140
32132
32133
32128
32116
32117
32126
32124
32122
32112
32112
32102
32110
32102
32100
32108
32090
32096
32096
32092
32088
32081
32088
32079
32084
32073
32077
32082
32073
32070
32062
32068
32064
32066
32060
32056
32056
32057
32052
32047
32048
32046
32055
32041
32044
32040
32046
32032
32031
32036
32036
32028
32034
32024
32023
32028
32024
32021
32020
32022
32020
32018
32014
32014
32016
32004
32012
32010
32008
31998
32013
31996
32000
31996
31986
31992
31992
31990
31991
31982
31972
31976
31974
31966
31968
31972
31966
31972
31964
31962
31960
31958
31956
31958
31959
31956
31956
31948
31948
31948
31948
31944
31950
31956
31946
31944
31949
31943
31940
31940
31940
31938
31940
31938
31946
31934
31932
31923
31928
31928
31912
31918
31917
31914
31906
31910
31906
31908
31892
31896
31896
31892
31890
31886
31886
31882
31884
31880
31864
31868
31864
31860
31864
31862
31860
31852
31846
31852
31847
31847
31838
31841
31836
31829
31830
31834
31832
31832
31826
31816
31804
31807
31814
31804
31804
31791
31784
31790
31780
31775
31776
31762
31764
31758
31756
31748
31746
31728
31736
31741
31726
31724
31716
31716
31714
31711
31705
31702
31688
31688
31692
31686
31676
31684
31674
31669
31660
31652
31660
31650
31648
31648
31644
31644
31636
31631
31624
31628
31621
31620
31617
31616
31612
31614
31612
31620
31608
31617
31607
31608
31610
31604
31606
31605
31596
31612
31600
31597
31588
31592
31588
31588
31596
31588
31588
31585
31592
31590
31584
31580
31578
31580
31572
31588
31586
31580
31576
31580
31577
31577
31576
31573
31572
31568
31564
31567
31564
31560
31565
31560
31558
31564
31557
31550
31553
31558
31559
31553
31560
31554
31552
31550
31548
31538
31550
31540
31544
31548
31548
31548
31546
31548
31548
31544
31544
31546
31536
31540
31527
31534
31532
31536
31540
31524
31540
31527
31524
31532
31532
31532
31530
31539
31526
31524
31521
31532
31524
31524
31520
31516
31524
31519
31514
31518
31520
31516
31512
31516
31514
31516
31508
31520
31510
31524
31509
31508
31509
31504
31511
31510
31512
31512
31500
31498
31504
31512
31504
31502
31512
31496
31492
31500
31488
31502
31496
31502
31492
31500
31496
31494
31488
31489
31490
31488
31484
31488
31484
31480
31480
31484
31477
31472
31478
31484
31472
31480
31472
31469
31466
31462
31470
31464
31454
31460
31460
31457
31452
31448
31440
31444
31437
31432
31437
31434
31428
31423
31422
31424
31405
31415
31409
31412
31404
31404
31396
31388
31394
31383
31386
31376
31366
31376
31366
31353
31356
31354
31356
31348
31340
31336
31333
31336
31338
31326
31321
31320
31309
31313
31308
31308
31310
31300
31300
31292
31296
31289
31290
31292
31288
31281
31280
31284
31280
31270
31276
31274
31268
31272
31270
31276
31274
31267
31268
31268
31265
31264
31270
31278
31272
31273
31264
31272
31272
31280
31274
31278
31284
31273
31279
31285
31284
31284
31296
31298
31288
31292
31294
31300
31300
31290
31309
31304
31301
31312
31312
31312
31314
31318
31310
31324
31318
31318
31322
31328
31326
31336
31336
31338
31340
31341
31340
31344
31352
31352
31348
31356
31366
31360
31368
31360
31372
31368
31372
31379
31388
31390
31384
31397
31404
31398
31393
31406
31412
31412
31426
31436
31432
31428
31442
31444
31448
31454
31466
31464
31470
31473
31482
31488
31490
31488
31508
31504
31510
31512
31526
31524
31540
31532
31548
31544
31548
31546
31552
31560
31564
31564
31572
31580
31571
31572
31582
31580
31582
31580
31580
31584
31592
31584
31588
31584
31592
31588
31588
31580
31592
31588
31596
31588
31588
31590
31588
31592
31596
31590
31589
31590
31604
31600
31598
31597
31600
31604
31607
31607
31601
31607
31620
31609
31620
31622
31622
31624
31624
31624
31628
31636
31648
31642
31652
31648
31652
31656
31672
31677
31688
31684
31700
31704
31709
31704
31717
31720
31728
31732
31740
31744
31751
31759
31759
31764
31765
31781
31784
31792
31804
31808
31804
31807
31812
31822
31829
31824
31839
31836
31848
31846
31864
31856
31866
31864
31873
31872
31884
31892
31895
31900
31902
31911
31908
31916
31924
31928
31932
31932
31944
31946
31960
31958
31953
31968
31973
31972
31983
31976
31992
31993
31998
32004
32010
32008
32021
32016
32020
32028
32036
32036
32037
32036
32044
32060
32052
32060
32054
32067
32064
32068
32070
32068
32079
32077
32082
32078
32084
32084
32086
32093
32088
32100
32093
32092
32096
32094
32096
32108
32104
32112
32106
32108
32108
32110
32108
32116
32117
32120
32121
32116
32116
32124
32124
32124
32132
32126
32124
32134
32124
32138
32136
32138
32134
32132
32135
32142
32148
32136
32149
32151
32148
32153
32160
32152
32160
32164
32165
32162
32167
32179
32180
32174
32184
32178
32179
32182
32183
32196
32196
32196
32212
32204
32208
32212
32216
32213
32216
32226
32228
32234
32244
32232
32238
32248
32248
32248
32260
32256
32260
32264
32270
32278
32278
32284
32284
32296
32302
32300
32300
32312
32311
32320
32326
32330
32324
32333
32332
32346
32356
32349
32362
32356
32368
32364
32368
32380
32383
32390
32376
32393
32396
32398
32406
32404
32408
32414
32412
32412
32424
32422
32424
32428
32431
32436
32442
32440
32444
32448
32444
32458
32456
32458
32460
32471
32468
32474
32472
32476
32484
32492
32492
32488
32493
32503
32500
32506
32502
32504
32508
32511
32514
32516
32510
32516
32516
32522
32524
32516
32520
32514
32516
32510
32520
32520
32518
32520
32516
32516
32510
32526
32518
32506
32512
32512
32512
32512
32504
32511
32506
32516
32510
32512
32512
32508
32504
32505
32510
32500
32500
32504
32504
32504
32508
32505
32510
32516
32508
32504
32502
32508
32512
32506
32504
32508
32506
32508
32508
32512
32510
32508
32508
32506
32497
32509
32508
32512
32508
32512
32511
32504
32508
32510
32524
32505
32513
32514
32516
32528
32516
32520
32518
32516
32520
32520
32518
32528
32534
32528
32532
32532
32536
32536
32538
32536
32544
32545
32546
32548
32548
32551
32558
32556
32551
32553
32556
32556
32568
32569
32564
32568
32572
32567
32580
32572
32574
32581
32580
32580
32583
32591
32593
32588
32596
32600
32596
32608
32604
32604
32608
32612
32614
32613
32609
32614
32624
32626
32624
32623
32626
32629
32624
32628
32631
32638
32639
32636
32641
32640
32645
32652
32655
32648
32652
32644
32652
32658
32661
32654
32661
32668
32671
32664
32668
32668
32676
32670
32672
32676
32672
32673
32681
32676
32686
32682
32684
32692
32688
32687
32684
32686
32696
32684
32700
32692
32696
32694
32700
32696
32700
32704
32705
32708
32702
32708
32700
32708
32700
32700
32704
32712
32708
32718
32716
32722
32708
32708
32719
32716
32716
32720
32716
32725
32724
32729
32732
32732
32738
32738
32736
32747
32746
32742
32743
32753
32756
32748
32758
32768
32764
32772
32772
32776
32775
32775
32785
32784
32788
32782
32798
32797
32796
32796
32796
32800
32812
32812
32808
32816
32816
32816
32816
32820
32816
32830
32824
32828
32842
32844
32842
32836
32844
32844
32840
32844
32847
32860
32841
32848
32858
32860
32864
32850
32860
32862
32864
32862
32865
32872
32864
32868
32869
32876
32874
32873
32878
32868
32871
32869
32881
32870
32876
32872
32879
32866
32865
32871
32868
32869
32871
32864
32863
32862
32864
32864
32856
32862
32856
32856
32857
32848
32836
32841
32832
32828
32826
32836
32828
32828
32812
32818
32815
32808
32804
32800
32788
32792
32800
32780
32780
32780
32772
32766
32775
32760
32764
32760
32752
32748
32740
32748
32736
32720
32730
32725
32724
32716
32713
32704
32708
32702
32696
32704
32684
32686
32684
32684
32679
32676
32676
32663
32660
32669
32666
32660
32656
32660
32648
32646
32660
32640
32646
32644
32634
32644
32632
32630
32620
32624
32628
32624
32612
32617
32618
32620
32622
32613
32610
32618
32614
32612
32606
32600
32608
32600
32594
32602
32596
32601
32596
32588
32593
32592
32584
32589
32590
32586
32596
32582
32588
32580
32582
32580
32574
32576
32572
32568
32572
32562
32564
32558
32560
32552
32564
32564
32562
32548
32561
32544
32545
32544
32542
32551
32532
32540
32532
32534
32544
32532
32532
32532
32532
32536
32532
32524
32524
32516
32533
32524
32529
32532
32530
32536
32536
32536
32546
32537
32542
32550
32542
32552
32549
32558
32558
32562
32574
32564
32576
32575
32580
32584
32582
32588
32597
32596
32599
32602
32598
32606
32609
32604
32606
32604
32604
32604
32616
32609
32608
32602
32610
32612
32604
32611
32610
32612
32608
32610
32612
32612
32608
32600
32606
32602
32601
32606
32602
32606
32608
32613
32608
32608
32605
32596
32598
32599
32599
32598
32592
32592
32592
32593
32592
32588
32584
32574
32584
32584
32583
32580
32588
32582
32596
32596
32584
32590
32596
32606
32608
32606
32608
32609
32612
32620
32624
32626
32624
32632
32634
32636
32630
32649
32647
32650
32656
32657
32654
32652
32657
32657
32664
32653
32663
32662
32663
32664
32668
32664
32668
32662
32676
32666
32670
32669
32666
32674
32668
32678
32666
32684
32672
32672
32680
32672
32676
32685
32684
32684
32676
32687
32696
32700
32708
32688
32697
32700
32702
32704
32692
32704
32701
32710
32704
32710
32708
32710
32712
32708
32718
32722
32718
32720
32716
32716
32732
32721
32725
32728
32732
32732
32736
32736
32730
32732
32734
32738
32742
32736
32734
32740
32738
32741
32738
32743
32740
32740
32744
32741
32744
32738
32746
32748
32752
32748
32745
32741
32748
32744
32745
32754
32748
32762
32760
32752
32749
32760
32764
32759
32768
32764
32769
32766
32772
32768
32769
32776
32778
32772
32776
32783
32781
32786
32788
32785
32786
32792
32796
32796
32796
32796
32810
32804
32806
32808
32812
32808
32816
32810
32813
32813
32823
32820
32820
32826
32817
32826
32824
32828
32836
32837
32828
32835
32836
32842
32839
32844
32842
32836
32836
32842
32844
32846
32844
32846
32853
32848
32848
32849
32847
32854
32848
32840
32846
32852
32856
32852
32856
32849
32856
32865
32854
32853
32852
32853
32852
32850
32844
32852
32840
32852
32846
32840
32836
32840
32832
32834
32832
32817
32820
32824
32815
32814
32809
32804
32804
32801
32796
32804
32796
32798
32791
32796
32786
32790
32782
32781
32782
32784
32780
32781
32781
32769
32780
32775
32768
32772
32768
32772
32764
32751
32761
32759
32752
32757
32743
32738
32728
32735
32734
32724
32708
32712
32712
32705
32700
32696
32692
32688
32676
32677
32665
32663
32652
32656
32638
32637
32626
32629
32616
32620
32612
32607
32600
32598
32589
32584
32576
32574
32568
32566
32552
32552
32548
32549
32532
32528
32532
32516
32516
32510
32508
32492
32490
32487
32486
32478
32470
32470
32456
32450
32447
32452
32440
32432
32436
32420
32424
32412
32398
32412
32398
32396
32388
32396
32378
32374
32378
32369
32374
32356
32357
32352
32354
32348
32344
32335
32330
32330
32324
32332
32324
32322
32320
32320
32310
32312
32309
32304
32312
32302
32300
32301
32302
32287
32286
32294
32282
32286
32289
32282
32276
32280
32284
32268
32280
32276
32276
32268
32284
32276
32282
32269
32274
32276
32270
32261
32264
32276
32276
32268
32270
32262
32260
32268
32276
32267
32268
32260
32264
32266
32257
32256
32262
32260
32260
32268
32254
32256
32257
32256
32252
32265
32253
32250
32262
32256
32252
32255
32255
32246
32248
32240
32245
32247
32240
32240
32239
32238
32240
32228
32231
32223
32225
32223
32218
32223
32224
32222
32218
32218
32212
32206
32204
32202
32202
32196
32196
32197
32182
32190
32185
32180
32185
32178
32181
32169
32164
32172
32168
32161
32164
32156
32154
32153
32140
32140
32144
32134
32132
32133
32132
32128
32126
32124
32116
32109
32104
32104
32104
32109
32100
32092
32092
32100
32084
32087
32084
32074
32076
32076
32076
32072
32074
32060
32065
32060
32056
32060
32060
32052
32048
32045
32053
32050
32046
32040
32036
32040
32028
32028
32021
32034
32028
32017
32024
32021
32021
32016
32030
32014
32012
32010
32003
31997
31996
32000
31993
31996
31991
31988
31988
31974
31982
31978
31986
31981
31976
31969
31972
31972
31974
31965
31972
31960
31962
31961
31964
31964
31960
31952
31956
31952
31945
31948
31946
31938
31944
31944
31944
31951
31932
31940
31932
31924
31932
31928
31919
31921
31928
31924
31920
31918
31916
31916
31906
31910
31908
31908
31907
31902
31898
31904
31884
31900
31892
31885
31884
31884
31876
31886
31879
31876
31866
31866
31864
31860
31864
31860
31862
31857
31844
31852
31846
31849
31836
31833
31832
31825
31829
31830
31820
31820
31824
31814
31816
31814
31812
31812
31816
31812
31806
31800
31798
31793
31792
31796
31789
31784
31793
31780
31780
31776
31777
31772
31772
31764
31772
31764
31764
31764
31764
31772
31756
31759
31764
31760
31758
31751
31756
31759
31749
31753
31756
31748
31752
31748
31740
31748
31750
31751
31740
31737
31750
31750
31748
31756
31750
31748
31746
31756
31751
31756
31756
31752
31756
31756
31744
31753
31756
31766
31758
31756
31756
31756
31750
31760
31761
31762
31761
31768
31772
31778
31780
31774
31776
31783
31800
31806
31800
31804
31808
31810
31814
31818
31822
31832
31836
31842
31845
31853
31860
31872
31868
31873
31876
31872
31885
31884
31898
31900
31897
31902
31908
31912
31908
31908
31912
31921
31924
31916
31924
31927
31932
31929
31932
31930
31936
31940
31940
31940
31940
31950
31941
31945
31952
31950
31954
31956
31960
31966
31966
31969
31968
31968
31979
31976
31974
31976
31978
31980
31981
31992
31988
31994
32001
32007
32008
32008
32012
32018
32028
32032
32040
32052
32048
32056
32056
32058
32076
32088
32100
32100
32109
32114
32124
32133
32144
32156
32164
32176
32182
32180
32196
32216
32212
32232
32236
32244
32260
32257
32277
32284
32292
32303
32308
32319
32316
32348
32342
32356
32360
32358
32372
32384
32396
32404
32408
32418
32424
32428
32444
32450
32456
32475
32482
32486
32500
32508
32513
32524
32528
32543
32536
32558
32564
32574
32584
32596
32602
32604
32614
32620
32633
32638
32644
32661
32662
32668
32677
32676
32680
32696
32704
32710
32711
32712
32728
32733
32744
32749
32748
32764
32768
32768
32772
32781
32788
32782
32792
32800
32801
32808
32808
32822
32820
32822
32828
32838
32836
32836
32840
32844
32838
32846
32854
32853
32856
32856
32860
32860
32860
32852
32858
32864
32864
32865
32870
32866
32864
32866
32865
32861
32862
32872
32866
32862
32872
32862
32858
32860
32860
32864
32866
32864
32864
32864
32860
32866
32865
32852
32859
32866
32865
32856
32850
32848
32852
32856
32853
32852
32845
32847
32845
32848
32848
32851
32852
32846
32844
32847
32852
32855
32844
32838
32852
32844
32840
32840
32834
32837
32836
32844
32834
32833
32836
32840
32844
32844
32832
32828
32834
32838
32832
32834
32836
32834
32834
32828
32826
32828
32836
32828
32828
32820
32826
32824
32832
32821
32824
32821
32824
32824
32817
32814
32813
32820
32812
32808
32820
32815
32808
32806
32806
32800
32796
32796
32801
32790
32796
32790
32780
32788
32786
32785
32782
32778
32776
32784
32783
32782
32783
32765
32771
32778
32780
32772
32775
32772
32774
32776
32772
32772
32769
32764
32772
32764
32772
32764
32768
32755
32764
32758
32753
32756
32753
32741
32744
32738
32744
32741
32740
32732
32727
32724
32732
32724
32720
32710
32708
32712
32703
32704
32697
32694
32688
32692
32688
32680
32672
32676
32676
32676
32668
32664
32660
32664
32660
32657
32656
32645
32653
32644
32634
32639
32622
32625
32628
32623
32613
32612
32603
32600
32600
32594
32592
32588
32574
32580
32582
32572
32556
32560
32560
32556
32552
32548
32542
32533
32537
32532
32517
32518
32510
32509
32510
32508
32501
32494
32497
32485
32484
32480
32484
32470
32470
32468
32468
32460
32453
32454
32452
32448
32448
32444
32440
32436
32442
32432
32428
32428
32417
32420
32420
32422
32416
32413
32408
32412
32404
32412
32397
32404
32392
32405
32396
32391
32392
32392
32388
32388
32388
32390
32386
32374
32384
32375
32380
32385
32383
32380
32376
32370
32381
32380
32382
32365
32372
32372
32373
32366
32368
32361
32364
32356
32356
32359
32361
32360
32364
32362
32364
32364
32353
32356
32353
32348
32356
32352
32346
32356
32346
32356
32352
32356
32350
32356
32348
32348
32360
32352
32351
32356
32356
32352
32356
32357
32353
32352
32357
32355
32356
32356
32357
32356
32360
32356
32356
32364
32349
32360
32356
32368
32358
32364
32364
32364
32368
32360
32356
32373
32370
32369
32366
32374
32368
32369
32364
32380
32378
32376
32374
32373
32368
32367
32364
32369
32369
32372
32369
32369
32386
32370
32373
32370
32380
32367
32377
32372
32372
32373
32376
32372
32367
32382
32373
32372
32370
32368
32368
32377
32364
32369
32366
32361
32358
32366
32356
32360
32358
32358
32356
32350
32354
32356
32348
32350
32352
32356
32348
32350
32342
32345
32350
32348
32342
32341
32333
32333
32340
32342
32334
32344
32333
32332
32326
32328
32321
32320
32326
32326
32310
32319
32320
32316
32314
32320
32305
32308
32304
32314
32308
32306
32303
32294
32300
32289
32297
32292
32286
32285
32278
32282
32282
32284
32276
32270
32268
32266
32264
32260
32260
32257
32258
32248
32244
32244
32240
32244
32236
32236
32236
32228
32228
32209
32218
32212
32215
32222
32208
32196
32198
32192
32194
32190
32185
32180
32180
32189
32186
32180
32168
32166
32164
32168
32158
32166
32158
32156
32145
32140
32145
32141
32140
32136
32134
32136
32128
32116
32116
32113
32116
32108
32113
32108
32102
32100
32096
32098
32096
32100
32092
32079
32076
32080
32084
32076
32072
32071
32066
32068
32060
32064
32060
32056
32061
32054
32052
32052
32056
32044
32044
32044
32036
32032
32040
32040
32029
32036
32032
32028
32036
32032
32036
32022
32032
32032
32029
32032
32033
32026
32030
32026
32036
32030
32036
32036
32032
32044
32040
32040
32040
32044
32048
32057
32054
32062
32065
32068
32072
32070
32080
32076
32088
32085
32096
32100
32100
32106
32110
32120
32124
32122
32128
32140
32144
32156
32168
32168
32175
32175
32188
32200
32204
32216
32218
32224
32220
32238
32245
32250
32252
32268
32276
32277
32276
32284
32289
32301
32300
32314
32314
32320
32329
32332
32332
32337
32340
32348
32350
32352
32347
32356
32356
32360
32366
32361
32380
32373
32372
32388
32375
32388
32388
32388
32388
32404
32401
32391
32394
32402
32408
32407
32407
32406
32412
32416
32424
32412
32412
32419
32424
32424
32431
32432
32432
32444
32442
32446
32448
32456
32448
32460
32460
32470
32468
32477
32480
32484
32496
32498
32498
32503
32521
32524
32526
32538
32527
32552
32560
32560
32564
32572
32572
32588
32588
32599
32597
32611
32622
32612
32616
32626
32636
32642
32643
32644
32657
32652
32653
32662
32666
32661
32666
32673
32684
32676
32684
32684
32682
32684
32684
32695
32689
32703
32696
32696
32704
32702
32704
32704
32708
32704
32711
32714
32716
32716
32717
32720
32716
32724
32719
32726
32718
32708
32726
32725
32714
32718
32714
32720
32708
32712
32716
32706
32714
32710
32705
32708
32702
32708
32700
32700
32685
32685
32688
32686
32686
32676
32676
32676
32673
32670
32663
32660
32664
32657
32648
32648
32636
32644
32638
32632
32630
32639
32622
32616
32620
32610
32598
32610
32600
32592
32592
32588
32588
32576
32581
32576
32574
32572
32564
32562
32568
32554
32549
32558
32552
32546
32541
32544
32545
32533
32526
32526
32534
32521
32520
32516
32502
32514
32504
32511
32506
32498
32500
32500
32493
32489
32496
32492
32486
32484
32473
32468
32472
32476
32471
32472
32464
32472
32464
32472
32456
32452
32449
32454
32444
32444
32444
32440
32448
32448
32438
32432
32428
32428
32432
32428
32430
32428
32412
32412
32412
32413
32421
32408
32408
32398
32404
32392
32394
32398
32388
32391
32380
32382
32388
32380
32372
32376
32364
32364
32369
32361
32361
32352
32356
32348
32345
32342
32344
32336
32328
32324
32325
32318
32318
32300
32301
32306
32292
32296
32292
32286
32288
32281
32276
32268
32276
32263
32260
32256
32248
32244
32248
32238
32244
32242
32228
32226
32230
32224
32212
32204
32213
32206
32200
32196
32190
32196
32184
32176
32167
32168
32156
32164
32151
32141
32137
32128
32132
32116
32111
32108
32100
32102
32093
32089
32082
32080
32076
32066
32062
32052
32054
32052
32055
32029
32036
32032
32028
32024
32022
32022
32012
32012
31996
32007
32012
31998
31992
31984
31988
31972
31980
31972
31974
31966
31957
31952
31959
31946
31938
31936
31936
31926
31918
31918
31912
31912
31895
31893
31884
31884
31884
31876
31864
31866
31860
31850
31852
31844
31840
31837
31824
31832
31820
31816
31812
31804
31798
31790
31782
31788
31777
31778
31772
31768
31770
31756
31751
31749
31738
31732
31734
31725
31725
31722
31716
31710
31700
31704
31708
31692
31698
31681
31684
31678
31676
31661
31661
31660
31655
31646
31644
31636
31631
31630
31628
31628
31616
31614
31608
31600
31604
31598
31594
31588
31592
31580
31585
31570
31572
31566
31567
31556
31556
31557
31548
31542
31542
31532
31540
31528
31520
31516
31518
31519
31516
31504
31498
31500
31488
31492
31480
31480
31484
31472
31473
31473
31460
31456
31456
31456
31457
31453
31448
31442
31438
31428
31429
31426
31436
31424
31418
31420
31420
31414
31404
31396
31390
31392
31392
31392
31393
31389
31388
31375
31380
31372
31376
31364
31364
31361
31348
31350
31350
31344
31341
31338
31338
31329
31334
31332
31326
31319
31316
31308
31304
31312
31308
31297
31297
31294
31295
31290
31280
31284
31273
31272
31264
31264
31256
31260
31260
31258
31240
31244
31241
31238
31236
31229
31224
31220
31225
31208
31216
31206
31204
31208
31201
31192
31188
31185
31188
31188
31180
31180
31168
31164
31168
31164
31151
31156
31156
31151
31144
31140
31136
31140
31128
31126
31120
31112
31111
31108
31111
31108
31096
31096
31096
31078
31088
31072
31080
31070
31062
31061
31052
31055
31053
31044
31042
31040
31028
31024
31025
31019
31014
31016
31010
31004
30992
30984
30991
30980
30980
30977
30972
30952
30956
30952
30954
30936
30940
30934
30928
30916
30924
30912
30900
30900
30892
30896
30884
30880
30880
30871
30876
30854
30852
30852
30846
30832
30834
30823
30815
30816
30812
30796
30799
30788
30796
30788
30784
30768
30762
30757
30758
30758
30756
30734
30744
30740
30728
30720
30719
30716
30704
30712
30700
30696
30688
30685
30688
30682
30680
30672
30676
30672
30660
30657
30660
30652
30653
30654
30642
30636
30640
30634
30632
30626
30624
30628
30628
30620
30614
30624
30620
30615
30616
30613
30616
30614
30608
30615
30607
30604
30608
30601
30612
30612
30597
30604
30602
30604
30600
30607
30606
30596
30604
30596
30593
30596
30600
30600
30596
30598
30600
30600
30606
30607
30597
30607
30598
30604
30600
30604
30600
30600
30596
30608
30602
30605
30596
30596
30596
30606
30609
30607
30600
30600
30604
30608
30612
30600
30604
30608
30608
30604
30613
30620
30613
30620
30624
30628
30624
30622
30630
30636
30629
30632
30634
30640
30640
30644
30644
30644
30648
30646
30650
30647
30656
30660
30656
30652
30658
30661
30660
30657
30660
30652
30662
30661
30656
30644
30648
30646
30650
30652
30649
30646
30646
30638
30640
30640
30624
30625
30625
30629
30624
30620
30620
30616
30620
30620
30626
30620
30612
30613
30624
30628
30624
30624
30625
30624
30632
30624
30628
30630
30636
30624
30636
30644
30644
30648
30650
30658
30665
30669
30668
30677
30688
30692
30696
30708
30718
30732
30736
30756
30754
30764
30766
30780
30790
30799
30812
30822
30836
30840
30849
30860
30862
30882
30888
30894
30904
30919
30930
30938
30948
30952
30972
30968
30994
30997
31012
31024
31036
31034
31050
31060
31066
31084
31092
31096
31102
31120
31122
31134
31144
31152
31168
31178
31184
31191
31204
31208
31218
31236
31238
31245
31254
31265
31272
31290
31288
31303
31310
31313
31312
31324
31332
31328
31348
31364
31364
31370
31368
31388
31390
31388
31396
31408
31418
31416
31426
31436
31430
31440
31438
31452
31446
31453
31464
31471
31462
31486
31474
31487
31484
31488
31493
31498
31508
31508
31503
31516
31522
31521
31516
31526
31536
31524
31532
31543
31540
31552
31550
31556
31560
31559
31568
31568
31576
31572
31574
31592
31590
31588
31604
31596
31592
31597
31606
31616
31614
31622
31624
31624
31632
31640
31644
31648
31652
31644
31664
31661
31668
31664
31680
31682
31680
31690
31692
31712
31712
31716
31711
31728
31732
31732
31728
31738
31740
31760
31760
31764
31774
31772
31782
31784
31792
31804
31808
31812
31817
31828
31828
31836
31838
31849
31852
31856
31864
31876
31878
31886
31888
31892
31906
31912
31916
31926
31928
31930
31946
31944
31962
31966
31965
31980
31972
31984
31988
32001
32009
32014
32012
32020
32028
32028
32040
32045
32053
32054
32060
32063
32068
32072
32081
32086
32088
32094
32100
32104
32108
32125
32120
32128
32128
32138
32141
32154
32160
32168
32172
32186
32181
32188
32196
32200
32204
32220
32232
32228
32230
32244
32250
32256
32263
32263
32273
32266
32274
32292
32290
32300
32306
32300
32308
32314
32313
32316
32333
32334
32332
32335
32337
32341
32346
32350
32348
32344
32354
32362
32364
32365
32364
32366
32368
32372
32373
32386
32382
32396
32388
32389
32394
32406
32408
32420
32420
32420
32420
32422
32426
32427
32432
32427
32442
32444
32450
32448
32452
32452
32466
32460
32476
32478
32480
32480
32492
32485
32488
32488
32500
32504
32510
32515
32514
32516
32522
32532
32532
32537
32545
32554
32544
32559
32550
32578
32576
32573
32576
32589
32592
32596
32589
32606
32608
32612
32617
32618
32636
32628
32638
32644
32652
32656
32654
32672
32669
32677
32682
32688
32690
32696
32696
32708
32712
32708
32716
32720
32726
32736
32736
32748
32744
32758
32754
32768
32762
32770
32776
32776
32781
32780
32794
32794
32796
32804
32810
32807
32824
32816
32832
32826
32836
32838
32840
32849
32856
32849
32862
32856
32865
32868
32873
32880
32870
32878
32871
32892
32892
32892
32892
32901
32900
32908
32909
32920
32920
32916
32922
32932
32936
32928
32936
32936
32948
32942
32952
32948
32960
32950
32960
32964
32968
32968
32974
32976
32976
32974
32984
32988
32992
32990
32994
33004
32993
33000
33005
33000
33004
33007
33012
33008
33016
33016
33014
33012
33018
33020
33020
33024
33028
33028
33036
33033
33036
33040
33033
33034
33036
33033
33040
33053
33047
33048
33052
33046
33046
33048
33050
33048
33056
33057
33064
33056
33060
33060
33061
33065
33076
33076
33060
33068
33066
33062
33070
33072
33068
33072
33076
33073
33072
33073
33078
33078
33072
33073
33076
33087
33071
33080
33081
33086
33092
33087
33092
33084
33088
33081
33088
33080
33084
33092
33080
33080
33090
33084
33080
33078
33081
33086
33084
33084
33080
33092
33074
33076
33085
33084
33084
33084
33092
33089
33077
33072
33076
33078
33079
33076
33073
33070
33083
33072
33078
33076
33068
33082
33076
33084
33076
33070
33076
33066
33068
33068
33057
33064
33062
33057
33060
33056
33057
33062
33052
33057
33044
33044
33040
33036
33038
33029
33028
33028
33016
33016
33008
33006
32999
32992
32994
32993
32988
32988
32988
32976
32972
32966
32964
32966
32949
32951
32941
32936
32940
32928
32916
32919
32912
32912
32902
32901
32897
32888
32887
32881
32872
32870
32864
32858
32852
32852
32844
32841
32840
32836
32818
32813
32816
32814
32804
32802
32799
32796
32792
32792
32784
32784
32772
32768
32774
32764
32769
32758
32756
32753
32745
32740
32748
32740
32730
32737
32736
32735
32724
32727
32728
32724
32727
32724
32724
32714
32720
32704
32718
32708
32704
32700
32710
32706
32704
32704
32708
32708
32705
32700
32694
32704
32700
32702
32692
32695
32692
32684
32689
32686
32685
32686
32680
32684
32676
32680
32689
32684
32686
32676
32676
32684
32679
32682
32676
32682
32688
32681
32692
32690
32688
32696
32695
32700
32710
32710
32709
32706
32713
32710
32716
32728
32735
32736
32736
32738
32730
32748
32741
32750
32751
32756
32757
32760
32760
32768
32764
32772
32761
32772
32772
32778
32776
32764
32776
32779
32776
32777
32781
32784
32785
32792
32792
32789
32789
32794
32800
32799
32808
32804
32800
32804
32808
32804
32813
32808
32815
32815
32816
32812
32817
32820
32813
32817
32818
32828
32822
32828
32824
32823
32828
32834
32834
32844
32832
32846
32838
32840
32848
32856
32864
32860
32868
32864
32884
32880
32892
32890
32898
32904
32910
32908
32932
32916
32929
32926
32948
32932
32942
32946
32948
32944
32952
32953
32956
32964
32961
32960
32968
32959
32960
32966
32968
32972
32964
32964
32968
32972
32960
32964
32968
32966
32968
32965
32972
32968
32964
32960
32964
32960
32960
32964
32962
32960
32956
32954
32961
32960
32956
32960
32956
32960
32952
32948
32943
32951
32946
32949
32948
32949
32937
32946
32943
32952
32950
32940
32932
32944
32940
32934
32940
32932
32940
32928
32932
32936
32932
32940
32922
32932
32925
32933
32930
32932
32926
32920
32928
32928
32921
32928
32916
32924
32929
32928
32921
32926
32924
32922
32926
32912
32908
32917
32914
32902
32902
32904
32900
32898
32905
32892
32900
32896
32892
32893
32894
32881
32884
32884
32876
32878
32888
32876
32871
32872
32872
32868
32861
32866
32870
32865
32857
32853
32861
32858
32854
32856
32857
32858
32848
32848
32838
32844
32834
32840
32844
32844
32840
32836
32836
32836
32836
32830
32836
32832
32832
32828
32822
32832
32834
32824
32822
32816
32818
32818
32826
32820
32821
32820
32816
32812
32810
32816
32812
32812
32812
32814
32812
32815
32812
32808
32807
32814
32804
32801
32798
32814
32804
32805
32805
32796
32798
32800
32798
32792
32793
32794
32792
32792
32788
32788
32786
32788
32788
32778
32781
32766
32775
32768
32759
32757
32754
32748
32742
32740
32744
32746
32743
32732
32726
32724
32724
32719
32720
32716
32716
32716
32712
32708
32710
32708
32701
32692
32700
32696
32700
32692
32696
32690
32676
32671
32676
32676
32668
32664
32660
32655
32656
32646
32648
32638
32638
32628
32620
32616
32620
32609
32604
32593
32590
32581
32580
32572
32565
32561
32553
32560
32546
32532
32540
32532
32526
32506
32516
32506
32506
32496
32488
32487
32480
32482
32468
32466
32456
32452
32446
32437
32439
32428
32424
32416
32412
32408
32410
32397
32385
32382
32376
32368
32364
32356
32352
32349
32342
32332
32335
32316
32317
32316
32308
32300
32296
32293
32288
32276
32276
32277
32268
32264
32263
32255
32240
32240
32233
32228
32220
32220
32216
32210
32208
32204
32200
32196
32198
32184
32183
32180
32172
32172
32161
32160
32156
32152
32148
32142
32134
32140
32132
32134
32124
32122
32116
32117
32120
32110
32104
32100
32100
32096
32094
32090
32082
32078
32084
32081
32076
32076
32079
32064
32056
32058
32060
32068
32064
32053
32048
32048
32044
32044
32038
32040
32034
32032
32030
32026
32026
32028
32020
32016
32014
32016
32012
32012
32012
32010
32000
31996
32001
32000
31996
31989
31990
31992
31978
31980
31984
31980
31977
31964
31966
31972
31963
31972
31968
31964
31964
31964
31956
31960
31944
31952
31952
31945
31950
31948
31946
31948
31944
31940
