RESPIRATION
36780
36782
36780
36788
36772
36788
36784
36784
36783
36784
36798
36798
36792
36802
36794
36794
36796
36794
36802
36804
36804
36804
36812
36816
36799
36804
36809
36824
36812
36824
36808
36818
36815
36821
36826
36820
36828
36817
36826
36816
36820
36832
36830
36824
36821
36824
36832
36824
36821
36820
36828
36816
36812
36820
36820
36816
36813
36815
36814
36815
36812
36825
36808
36800
36806
36800
36804
36794
36804
36794
36788
36792
36783
36784
36775
36784
36778
36772
36768
36773
36776
36762
36768
36772
36772
36766
36766
36756
36756
36768
36760
36752
36764
36744
36754
36744
36754
36756
36753
36744
36758
36744
36740
36744
36752
36750
36750
36753
36744
36732
36740
36754
36748
36748
36740
36737
36746
36742
36740
36751
36742
36748
36748
36734
36744
36745
36740
36736
36740
36740
36732
36736
36740
36742
36732
36728
36732
36734
36732
36724
36726
36724
36720
36716
36716
36716
36708
36718
36708
36700
36704
36706
36696
36700
36696
36699
36702
36687
36684
36696
36692
36688
36696
36692
36680
36692
36676
36684
36672
36662
36680
36678
36680
36676
36672
36678
36668
36669
36668
36666
36672
36669
36666
36668
36668
36666
36664
36664
36664
36663
36660
36662
36656
36652
36662
36652
36648
36652
36658
36660
36662
36651
36640
36645
36645
36636
36644
36644
36642
36644
36646
36636
36636
36634
36640
36622
36633
36638
36640
36628
36630
36624
36624
36617
36620
36620
36616
36606
36612
36621
36615
36608
36596
36608
36618
36608
36591
36610
36612
36600
36600
36594
36596
36592
36596
36584
36590
36588
36596
36592
36586
36588
36596
36594
36584
36596
36596
36592
36584
36596
36602
36594
36592
36596
36606
36604
36590
36612
36606
36608
36602
36607
36602
36620
36610
36616
36615
36606
36612
36612
36624
36622
36614
36613
36626
36612
36621
36624
36620
36616
36628
36622
36626
36612
36620
36636
36628
36616
36624
36632
36630
36628
36628
36632
36636
36624
36620
36622
36616
36629
36622
36616
36621
36622
36620
36620
36612
36628
36624
36620
36626
36628
36612
36620
36624
36620
36626
36612
36628
36610
36616
36612
36616
36608
36620
36609
36608
36615
36618
36616
36602
36615
36604
36610
36613
36608
36600
36613
36608
36604
36600
36612
36596
36593
36596
36588
36596
36604
36590
36588
36588
36598
36584
36596
36588
36592
36592
36583
36577
36572
36580
36566
36576
36574
36576
36564
36563
36564
36560
36560
36552
36560
36552
36560
36552
36552
36545
36556
36552
36529
36552
36534
36544
36534
36548
36525
36536
36536
36533
36520
36524
36528
36524
36520
36524
36526
36520
36516
36516
36508
36508
36519
36512
36504
36516
36500
36508
36496
36497
36498
36501
36504
36494
36500
36500
36492
36496
36492
36498
36494
36488
36484
36480
36478
36494
36478
36484
36484
36476
36484
36480
36484
36468
36478
36476
36479
36465
36472
36464
36476
36462
36452
36468
36460
36463
36456
36460
36453
36460
36440
36452
36452
36458
36436
36444
36440
36444
36440
36436
36440
36428
36428
36428
36418
36410
36416
36420
36417
36420
36416
36414
36415
36412
36412
36408
36412
36408
36410
36418
36404
36408
36400
36410
36404
36400
36400
36399
36396
36394
36404
36404
36394
36396
36395
36389
36390
36393
36396
36388
36392
36388
36392
36378
36388
36393
36384
36383
36380
36384
36392
36376
36376
36373
36373
36372
36368
36368
36372
36376
36366
36360
36359
36368
36354
36356
36352
36342
36340
36350
36340
36348
36344
36342
36348
36334
36328
36328
36325
36326
36324
36320
36324
36334
36324
36325
36324
36322
36322
36324
36316
36316
36328
36319
36316
36312
36317
36324
36314
36309
36312
36320
36314
36303
36310
36316
36313
36313
36304
36316
36316
36309
36316
36308
36305
36308
36308
36312
36301
36310
36300
36308
36298
36304
36311
36316
36300
36296
36304
36306
36308
36308
36301
36306
36300
36303
36300
36308
36305
36300
36308
36300
36304
36304
36301
36302
36296
36309
36294
36308
36308
36300
36292
36308
36300
36308
36292
36308
36297
36292
36292
36308
36297
36300
36302
36297
36290
36290
36300
36297
36304
36296
36296
36294
36290
36292
36290
36290
36292
36290
36288
36286
36288
36288
36292
36278
36284
36281
36290
36274
36272
36276
36276
36285
36280
36276
36276
36276
36276
36260
36276
36253
36257
36266
36260
36256
36252
36249
36240
36240
36244
36247
36245
36241
36244
36230
36230
36220
36222
36228
36220
36218
36210
36204
36218
36207
36202
36201
36196
36196
36192
36188
36186
36181
36181
36180
36172
36167
36164
36168
36164
36158
36156
36148
36156
36156
36148
36154
36154
36140
36128
36133
36141
36136
36141
36129
36120
36133
36130
36124
36128
36124
36119
36118
36118
36113
36124
36110
36125
36118
36120
36124
36110
36113
36120
36120
36116
36114
36114
36124
36122
36123
36110
36112
36118
36116
36128
36119
36116
36118
36124
36132
36122
36126
36111
36118
36124
36129
36124
36116
36120
36118
36122
36120
36120
36128
36128
36132
36124
36132
36128
36116
36128
36134
36128
36132
36128
36124
36132
36132
36128
36128
36120
36132
36128
36128
36128
36126
36116
36124
36124
36120
36125
36114
36109
36124
36120
36124
36120
36106
36110
36117
36116
36112
36117
36119
36109
36100
36115
36108
36114
36124
36126
36116
36112
36112
36118
36124
36110
36116
36112
36109
36110
36110
36112
36130
36122
36124
36120
36120
36128
36132
36144
36124
36124
36124
36128
36123
36127
36124
36130
36126
36126
36144
36140
36132
36137
36132
36144
36148
36143
36140
36151
36146
36148
36160
36155
36150
36164
36148
36159
36160
36165
36172
36172
36172
36170
36173
36180
36184
36177
36172
36176
36174
36177
36184
36191
36190
36188
36177
36184
36192
36206
36198
36194
36188
36193
36205
36200
36206
36210
36220
36211
36216
36205
36212
36218
36216
36222
36216
36214
36208
36221
36224
36218
36222
36220
36220
36234
36232
36220
36232
36228
36240
36231
36220
36224
36232
36236
36240
36228
36228
36231
36236
36232
36233
36237
36228
36240
36246
36246
36248
36248
36254
36260
36261
36260
36263
36260
36260
36266
36263
36264
36270
36273
36276
36280
36276
36272
36287
36292
36300
36297
36308
36296
36308
36318
36308
36314
36318
36312
36316
36324
36334
36322
36326
36322
36333
36336
36336
36335
36340
36336
36348
36348
36344
36354
36350
36350
36348
36348
36350
36360
36352
36356
36364
36352
36352
36356
36367
36364
36370
36366
36366
36372
36380
36374
36372
36378
36376
36384
36378
36380
36392
36382
36380
36384
36382
36380
36391
36382
36392
36398
36394
36388
36392
36396
36386
36388
36396
36389
36398
36404
36400
36408
36394
36391
36390
36398
36400
36408
36413
36396
36406
36402
36404
36417
36412
36408
36400
36396
36406
36408
36392
36392
36396
36396
36405
36400
36401
36392
36388
36401
36407
36396
36391
36394
36386
36388
36388
36393
36389
36380
36374
36386
36390
36388
36385
36384
36386
36380
36392
36386
36394
36380
36383
36378
36388
36386
36388
36382
36392
36380
36380
36380
36390
36388
36389
36398
36391
36396
36396
36398
36396
36396
36396
36396
36416
36410
36410
36408
36402
36405
36410
36416
36404
36406
36408
36398
36410
36412
36420
36420
36404
36404
36404
36410
36410
36412
36404
36408
36406
36392
36408
36400
36406
36407
36404
36394
36398
36404
36406
36396
36404
36402
36396
36390
36388
36396
36392
36392
36388
36384
36394
36381
36383
36389
36388
36382
36384
36386
36388
36386
36384
36399
36384
36380
36390
36383
36385
36386
36378
36388
36388
36384
36392
36392
36388
36393
36388
36390
36404
36391
36400
36392
36400
36396
36400
36388
36391
36400
36388
36396
36392
36396
36406
36404
36400
36394
36412
36407
36396
36399
36408
36404
36412
36406
36412
36404
36408
36416
36416
36416
36414
36412
36409
36409
36412
36412
36410
36418
36407
36408
36414
36409
36412
36416
36413
36409
36404
36408
36412
36417
36416
36404
36406
36408
36408
36408
36408
36396
36396
36398
36400
36400
36400
36393
36396
36392
36380
36392
36388
36392
36386
36382
36374
36388
36388
36384
36382
36380
36382
36384
36378
36377
36380
36380
36388
36376
36367
36380
36374
36376
36380
36376
36368
36372
36372
36374
36377
36373
36367
36364
36366
36372
36377
36378
36372
36370
36368
36366
36367
36372
36368
36380
36373
36353
36358
36372
36368
36369
36358
36359
36362
36370
36369
36372
36374
36372
36362
36364
36372
36372
36360
36364
36376
36364
36376
36364
36380
36380
36374
36372
36374
36380
36378
36380
36382
36385
36378
36384
36382
36388
36384
36393
36384
36396
36396
36404
36396
36398
36402
36404
36404
36404
36398
36400
36408
36392
36404
36408
36418
36404
36404
36413
36406
36405
36412
36412
36412
36399
36417
36416
36408
36410
36416
36416
36404
36418
36416
36414
36412
36418
36404
36412
36412
36424
36414
36424
36420
36420
36418
36420
36420
36420
36432
36412
36414
36416
36424
36414
36412
36408
36422
36420
36413
36410
36415
36416
36416
36412
36412
36410
36409
36408
36416
36414
36416
36399
36410
36412
36406
36401
36404
36408
36410
36412
36396
36404
36398
36400
36408
36408
36404
36398
36392
36404
36400
36402
36393
36408
36409
36396
36397
36406
36404
36406
36412
36410
36420
36405
36408
36412
36408
36406
36412
36426
36430
36420
36420
36421
36416
36424
36436
36424
36425
36428
36436
36429
36448
36446
36442
36448
36444
36442
36444
36452
36448
36432
36448
36440
36452
36452
36458
36452
36448
36448
36450
36456
36460
36448
36452
36456
36465
36454
36464
36460
36455
36461
36456
36456
36460
36463
36452
36454
36452
36452
36454
36454
36452
36452
36452
36456
36444
36448
36455
36454
36456
36448
36440
36440
36449
36441
36437
36446
36448
36452
36430
36440
36442
36441
36436
36444
36448
36432
36435
36449
36428
36436
36436
36430
36433
36428
36432
36436
36437
36426
36420
36428
36430
36412
36416
36417
36428
36412
36418
36416
36406
36404
36405
36405
36410
36388
36389
36392
36396
36396
36381
36384
36388
36374
36368
36356
36372
36360
36359
36364
36356
36356
36350
36340
36332
36327
36334
36321
36316
36324
36317
36320
36320
36308
36316
36311
36294
36302
36302
36292
36288
36288
36278
36286
36292
36280
36285
36285
36282
36276
36268
36273
36284
36277
36272
36276
36272
36284
36278
36272
36268
36268
36272
36264
36262
36272
36270
36274
36266
36262
36278
36284
36280
36279
36273
36284
36286
36280
36284
36272
36278
36280
36292
36284
36282
36286
36284
36284
36292
36284
36284
36294
36296
36286
36292
36290
36296
36296
36292
36292
36297
36300
36296
36296
36302
36300
36310
36308
36309
36310
36316
36314
36306
36308
36308
36316
36317
36306
36314
36318
36324
36321
36316
36309
36318
36314
36320
36316
36320
36330
36332
36324
36322
36332
36324
36338
36336
36344
36343
36340
36329
36334
36326
36332
36329
36326
36328
36336
36326
36332
36325
36326
36340
36334
36335
36332
36335
36326
36324
36328
36335
36336
36330
36326
36322
36308
36324
36324
36312
36316
36309
36320
36317
36316
36309
36319
36311
36308
36308
36304
36319
36314
36309
36304
36313
36308
36302
36298
36300
36310
36312
36314
36322
36306
36312
36310
36318
36316
36316
36309
36312
36308
36310
36308
36312
36317
36308
36314
36308
36318
36318
36316
36314
36324
36320
36316
36312
36320
36320
36322
36316
36328
36316
36324
36320
36316
36312
36310
36312
36320
36324
36327
36321
36316
36324
36332
36332
36324
36316
36321
36324
36316
36316
36320
36324
36320
36324
36319
36318
36324
36324
36314
36313
36320
36321
36316
36316
36310
36316
36316
36322
36309
36298
36316
36316
36308
36309
36310
36314
36303
36296
36316
36311
36304
36305
36312
36304
36314
36310
36296
36304
36304
36312
36308
36304
36314
36308
36296
36308
36318
36312
36308
36304
36313
36314
36316
36320
36314
36316
36317
36318
36316
36310
36312
36320
36324
36320
36320
36320
36318
36320
36330
36322
36332
36328
36322
36324
36336
36324
36324
36322
36340
36340
36340
36327
36340
36332
36330
36332
36340
36336
36330
36332
36338
36337
36344
36328
36340
36324
36332
36332
36327
36325
36338
36327
36318
36324
36336
36324
36322
36324
36318
36324
36328
36312
36316
36308
36318
36318
36316
36300
36304
36300
36306
36304
36294
36297
36295
36297
36296
36293
36292
36292
36288
36290
36292
36300
36288
36290
36290
36292
36292
36292
36287
36294
36289
36290
36301
36300
36297
36298
36292
36285
36296
36300
36302
36296
36288
36301
36299
36294
36292
36288
36295
36292
36292
36292
36304
36296
36292
36293
36288
36292
36290
36285
36284
36288
36288
36288
36282
36276
36286
36280
36276
36276
36280
36284
36276
36260
36272
36268
36268
36280
36268
36268
36262
36262
36260
36250
36257
36257
36252
36252
36256
36242
36256
36245
36253
36250
36244
36253
36256
36236
36249
36256
36244
36236
36242
36248
36247
36236
36238
36238
36240
36240
36242
36232
36240
36232
36240
36240
36239
36236
36238
36240
36238
36236
36246
36238
36236
36236
36249
36250
36240
36236
36236
36236
36252
36240
36244
36238
36240
36256
36248
36252
36244
36248
36252
36252
36244
36240
36244
36260
36248
36256
36252
36260
36250
36252
36245
36262
36264
36260
36256
36264
36262
36269
36271
36260
36276
36272
36272
36271
36272
36264
36276
36272
36280
36276
36287
36290
36286
36276
36292
36304
36304
36296
36304
36302
36300
36300
36308
36312
36318
36316
36312
36316
36316
36310
36320
36328
36328
36328
36336
36340
36343
36338
36346
36336
36344
36352
36348
36348
36350
36346
36358
36356
36360
36352
36364
36368
36372
36368
36366
36368
36372
36376
36376
36382
36383
36376
36386
36384
36389
36376
36385
36388
36384
36388
36372
36388
36388
36388
36381
36383
36388
36386
36380
36396
36394
36392
36385
36388
36388
36384
36378
36388
36388
36388
36386
36390
36390
36386
36382
36384
36388
36380
36389
36382
36380
36373
36380
36368
36380
36373
36368
36364
36369
36376
36372
36372
36368
36367
36364
36368
36359
36369
36360
36360
36359
36350
36348
36350
36354
36352
36348
36356
36351
36348
36340
36348
36358
36356
36352
36348
36338
36336
36340
36344
36336
36352
36340
36340
36334
36342
36345
36350
36336
36332
36348
36340
36340
36350
36352
36340
36342
36337
36344
36352
36348
36348
36340
36344
36335
36352
36348
36341
36338
36348
36332
36353
36354
36352
36350
36356
36352
36351
36358
36350
36352
36348
36350
36359
36362
36368
36370
36372
36364
36366
36380
36380
36377
36386
36380
36388
36390
36390
36393
36388
36400
36409
36405
36401
36412
36414
36420
36408
36417
36418
36422
36436
36420
36420
36444
36445
36432
36434
36441
36448
36440
36440
36437
36452
36452
36452
36448
36453
36452
36468
36456
36456
36464
36468
36476
36465
36472
36468
36474
36484
36484
36481
36480
36481
36492
36493
36492
36501
36503
36518
36516
36508
36511
36520
36529
36532
36530
36526
36537
36546
36556
36548
36552
36570
36562
36577
36584
36574
36577
36594
36596
36600
36596
36596
36612
36618
36632
36632
36620
36644
36660
36646
36652
36654
36678
36668
36675
36680
36680
36692
36704
36700
36700
36708
36714
36724
36728
36724
36727
36724
36740
36738
36740
36740
36752
36768
36750
36756
36764
36773
36764
36764
36772
36780
36778
36788
36784
36776
36792
36788
36785
36796
36790
36792
36792
36796
36792
36804
36796
36800
36804
36804
36808
36812
36805
36800
36816
36816
36808
36813
36818
36808
36800
36820
36826
36824
36812
36817
36829
36820
36832
36824
36831
36836
36842
36832
36821
36849
36844
36840
36840
36844
36842
36852
36848
36853
36860
36852
36850
36854
36864
36870
36878
36864
36863
36868
36877
36878
36880
36870
36879
36884
36888
36893
36881
36895
36890
36896
36894
36892
36896
36908
36898
36896
36903
36908
36916
36904
36905
36918
36916
36913
36917
36916
36924
36923
36920
36926
36920
36928
36928
36926
36918
36926
36924
36933
36928
36918
36926
36944
36924
36924
36932
36930
36928
36932
36932
36924
36932
36938
36927
36918
36930
36932
36940
36928
36930
36928
36934
36940
36943
36942
36932
36928
36930
36932
36932
36932
36936
36932
36928
36938
36932
36933
36930
36936
36936
36932
36940
36932
36929
36936
36928
36922
36927
36932
36932
36933
36918
36926
36924
36936
36921
36930
36928
36920
36924
36916
36916
36920
36924
36908
36903
36910
36916
36908
36904
36900
36904
36908
36912
36906
36900
36898
36894
36900
36896
36900
36884
36888
36894
36884
36886
36873
36868
36877
36880
36874
36870
36864
36860
36861
36863
36868
36864
36856
36856
36860
36854
36854
36844
36842
36844
36844
36838
36844
36836
36834
36832
36842
36826
36833
36816
36828
36832
36812
36820
36815
36808
36817
36814
36814
36804
36798
36804
36800
36804
36797
36794
36798
36806
36796
36792
36788
36786
36792
36776
36776
36776
36790
36772
36772
36768
36772
36772
36764
36772
36761
36766
36764
36756
36750
36758
36758
36744
36756
36744
36742
36734
36740
36728
36734
36738
36732
36720
36716
36716
36725
36716
36714
36704
36708
36708
36709
36700
36702
36704
36693
36700
36700
36692
36680
36682
36686
36696
36674
36672
36684
36672
36680
36672
36665
36671
36664
36666
36652
36660
36656
36648
36642
36650
36648
36644
36644
36644
36640
36636
36642
36632
36623
36632
36631
36628
36608
36612
36612
36612
36608
36605
36605
36596
36596
36596
36592
36588
36577
36586
36584
36578
36572
36564
36566
36573
36564
36557
36561
36568
36553
36544
36548
36550
36548
36534
36538
36548
36536
36520
36534
36520
36518
36516
36512
36511
36508
36501
36500
36492
36504
36508
36492
36486
36486
36484
36485
36473
36484
36480
36464
36470
36460
36460
36468
36464
36460
36456
36453
36452
36445
36445
36430
36440
36446
36438
36424
36420
36436
36438
36424
36416
36420
36420
36424
36420
36414
36420
36408
36414
36416
36418
36408
36402
36393
36405
36410
36404
36398
36402
36402
36404
36408
36392
36393
36398
36396
36401
36396
36394
36392
36392
36386
36394
36386
36392
36383
36390
36392
36384
36384
36377
36391
36392
36392
36384
36388
36392
36400
36397
36396
36388
36394
36396
36390
36388
36388
36405
36405
36406
36400
36404
36406
36414
36414
36404
36416
36418
36426
36420
36420
36418
36434
36431
36434
36436
36436
36440
36446
36449
36444
36450
36449
36454
36474
36456
36456
36464
36473
36468
36468
36460
36474
36468
36474
36476
36479
36474
36484
36481
36468
36470
36484
36480
36484
36478
36478
36488
36492
36486
36486
36488
36480
36492
36484
36480
36472
36476
36484
36472
36478
36472
36476
36474
36472
36476
36472
36465
36469
36468
36470
36469
36463
36464
36455
36460
36465
36453
36452
36446
36452
36446
36452
36448
36437
36436
36440
36433
36431
36442
36432
36434
36424
36420
36428
36420
36414
36416
36412
36420
36416
36406
36410
36415
36412
36408
36408
36412
36414
36394
36394
36396
36408
36396
36388
36390
36388
36404
36394
36389
36388
36390
36396
36392
36382
36388
36396
36392
36388
36377
36388
36392
36388
36392
36388
36390
36381
36392
36372
36384
36386
36386
36375
36381
36382
36388
36378
36383
36382
36364
36372
36372
36376
36374
36372
36376
36378
36374
36370
36375
36369
36368
36356
36368
36380
36368
36370
36366
36372
36366
36365
36372
36366
36369
36364
36360
36369
36352
36358
36369
36374
36364
36372
36380
36368
36372
36372
36373
36380
36367
36376
36382
36374
36384
36376
36388
36384
36384
36388
36388
36386
36384
36394
36390
36392
36392
36408
36400
36412
36416
36420
36421
36418
36420
36418
36432
36432
36432
36428
36440
36430
36440
36444
36452
36456
36458
36454
36464
36468
36471
36479
36473
36484
36478
36488
36488
36488
36502
36506
36502
36510
36503
36514
36524
36516
36529
36532
36546
36540
36548
36548
36554
36546
36560
36562
36560
36568
36574
36580
36580
36582
36588
36596
36604
36604
36604
36612
36623
36610
36628
36632
36644
36634
36632
36652
36656
36660
36664
36660
36672
36684
36680
36688
36688
36692
36708
36711
36716
36711
36717
36740
36732
36738
36740
36736
36756
36757
36757
36766
36764
36779
36784
36772
36788
36785
36802
36792
36808
36820
36818
36820
36822
36828
36834
36828
36826
36833
36843
36840
36837
36853
36856
36848
36853
36864
36864
36860
36870
36871
36870
36870
36880
36876
36884
36885
36884
36884
36884
36888
36888
36890
36882
36887
36894
36892
36894
36888
36900
36900
36888
36900
36911
36904
36896
36892
36896
36894
36888
36886
36888
36892
36888
36892
36880
36888
36888
36874
36884
36892
36892
36876
36884
36888
36876
36873
36884
36876
36864
36871
36874
36878
36864
36852
36865
36868
36862
36868
36860
36868
36852
36866
36862
36852
36856
36853
36858
36852
36848
36846
36865
36854
36848
36852
36844
36849
36860
36852
36836
36840
36848
36847
36844
36844
36855
36844
36842
36828
36836
36838
36832
36830
36828
36832
36829
36832
36830
36832
36828
36822
36822
36820
36820
36822
36812
36810
36812
36809
36808
36812
36804
36800
36808
36808
36794
36796
36798
36800
36800
36792
36784
36790
36789
36786
36780
36780
36792
36770
36781
36774
36780
36776
36778
36772
36772
36760
36760
36773
36776
36778
36760
36761
36762
36764
36764
36757
36756
36756
36760
36750
36756
36748
36747
36749
36754
36740
36744
36740
36759
36748
36740
36740
36742
36736
36740
36736
36728
36732
36724
36720
36734
36724
36732
36718
36720
36719
36722
36721
36713
36720
36708
36716
36702
36716
36712
36705
36695
36702
36700
36688
36696
36688
36682
36692
36694
36684
36687
36686
36688
36674
36676
36670
36676
36673
36664
36664
36676
36660
36664
36662
36672
36648
36646
36664
36656
36656
36660
36650
36652
36652
36645
36652
36648
36648
36644
36644
36646
36642
36644
36631
36638
36642
36632
36644
36636
36641
36648
36640
36629
36636
36638
36628
36620
36628
36638
36630
36625
36628
36632
36620
36628
36616
36612
36620
36624
36633
36620
36618
36620
36622
36618
36617
36605
36604
36614
36600
36604
36604
36604
36604
36601
36604
36590
36598
36592
36583
36590
36596
36591
36593
36588
36592
36585
36576
36590
36584
36574
36580
36580
36584
36576
36572
36567
36564
36576
36572
36564
36568
36580
36565
36564
36564
36565
36564
36557
36560
36552
36560
36560
36560
36562
36556
36561
36560
36566
36556
36572
36550
36564
36562
36562
36564
36560
36568
36564
36572
36562
36564
36562
36566
36560
36552
36564
36574
36566
36560
36561
36576
36569
36562
36556
36574
36573
36552
36554
36562
36558
36552
36551
36554
36552
36552
36548
36552
36550
36554
36542
36552
36551
36544
36542
36540
36552
36550
36540
36542
36546
36544
36541
36528
36544
36532
36540
36544
36538
36540
36536
36540
36536
36539
36532
36540
36524
36538
36532
36536
36540
36536
36540
36543
36540
36534
36542
36535
36539
36540
36553
36548
36548
36548
36552
36548
36552
36549
36554
36558
36561
36564
36564
36560
36560
36564
36565
36564
36570
36573
36574
36572
36572
36572
36582
36578
36580
36578
36592
36572
36592
36586
36577
36591
36580
36578
36584
36583
36584
36588
36596
36597
36594
36602
36592
36588
36594
36594
36591
36583
36590
36593
36580
36596
36590
36584
36598
36605
36593
36600
36608
36600
36608
36608
36604
36612
36616
36612
36608
36614
36612
36612
36610
36610
36620
36616
36621
36620
36626
36640
36640
36642
36634
36645
36644
36644
36641
36648
36652
36656
36644
36661
36662
36655
36662
36660
36674
36674
36664
36673
36680
36684
36684
36682
36696
36692
36692
36684
36692
36688
36694
36694
36704
36697
36704
36708
36706
36716
36712
36712
36714
36722
36725
36722
36720
36728
36729
36724
36736
36740
36736
36733
36730
36730
36740
36738
36740
36728
36740
36748
36748
36746
36740
36736
36750
36758
36744
36744
36742
36740
36752
36744
36756
36754
36740
36740
36744
36746
36754
36743
36748
36753
36751
36752
36745
36748
36756
36740
36748
36748
36740
36750
36744
36752
36741
36750
36752
36741
36748
36736
36751
36746
36752
36756
36752
36750
36760
36740
36746
36756
36748
36756
36756
36758
36760
36764
36768
36762
36760
36764
36766
36772
36772
36772
36769
36779
36770
36780
36784
36768
36772
36776
36788
36780
36782
36780
36780
36783
36796
36784
36784
36791
36794
36792
36804
36800
36800
36794
36796
36792
36800
36800
36790
36788
36796
36798
36790
36794
36792
36792
36797
36791
36804
36791
36786
36785
36782
36780
36793
36788
36778
36766
36768
36770
36780
36764
36766
36776
36770
36769
36764
36766
36770
36764
36760
36764
36752
36754
36752
36756
36757
36740
36748
36740
36742
36734
36736
36742
36742
36732
36730
36732
36732
36733
36728
36734
36737
36732
36724
36724
36724
36728
36728
36728
36721
36728
36724
36724
36724
36730
36733
36734
36732
36724
36729
36729
36728
36718
36732
36732
36736
36732
36728
36736
36732
36740
36734
36732
36732
36736
36738
36742
36728
36734
36722
36732
36732
36740
36736
36727
36720
36719
36718
36736
36725
36718
36724
36724
36724
36720
36719
36714
36724
36712
36714
36710
36702
36700
36700
36696
36696
36686
36692
36704
36690
36692
36680
36688
36692
36692
36678
36674
36673
36672
36670
36672
36662
36664
36660
36663
36654
36657
36656
36654
36638
36642
36640
36644
36644
36628
36638
36640
36644
36640
36638
36632
36628
36626
36632
36628
36620
36616
36617
36620
36628
36616
36620
36616
36616
36622
36620
36620
36608
36608
36608
36604
36613
36610
36608
36608
36600
36596
36600
36606
36604
36593
36600
36590
36596
36590
36590
36588
36596
36580
36580
36576
36593
36580
36572
36580
36578
36579
36576
36567
36558
36562
36562
36568
36568
36560
36556
36544
36548
36560
36548
36540
36536
36538
36520
36532
36527
36521
36514
36526
36522
36516
36516
36520
36512
36496
36520
36513
36508
36504
36496
36504
36504
36502
36490
36484
36488
36492
36496
36484
36480
36472
36480
36484
36476
36476
36478
36476
36479
36480
36468
36476
36480
36476
36469
36465
36472
36463
36456
36462
36468
36468
36468
36464
36464
36472
36468
36468
36460
36468
36452
36462
36464
36460
36460
36456
36448
36448
36457
36456
36450
36452
36452
36460
36448
36450
36454
36460
36454
36449
36442
36446
36452
36448
36444
36444
36445
36452
36448
36432
36440
36444
36442
36444
36434
36442
36445
36437
36432
36444
36440
36438
36438
36436
36446
36442
36436
36432
36445
36446
36442
36442
36436
36444
36444
36438
36440
36446
36436
36436
36440
36445
36440
36442
36440
36452
36431
36438
36436
36446
36436
36442
36436
36444
36428
36426
36446
36436
36437
36437
36432
36440
36426
36424
36428
36432
36427
36417
36418
36420
36428
36418
36412
36416
36431
36418
36408
36404
36410
36416
36400
36396
36406
36393
36388
36400
36396
36396
36384
36396
36382
36396
36384
36388
36386
36388
36382
36382
36384
36384
36380
36388
36382
36385
36382
36388
36381
36386
36389
36388
36384
36390
36393
36388
36388
36404
36400
36404
36402
36410
36413
36404
36414
36414
36408
36420
36417
36421
36420
36420
36432
36424
36424
36438
36436
36452
36441
36446
36444
36448
36452
36456
36444
36460
36456
36460
36450
36452
36465
36476
36465
36465
36460
36472
36468
36468
36464
36474
36469
36462
36456
36468
36460
36470
36464
36460
36452
36460
36469
36456
36452
36456
36465
36460
36456
36455
36452
36458
36456
36462
36460
36460
36448
36452
36460
36460
36450
36454
36454
36452
36458
36464
36460
36457
36456
36464
36450
36456
36460
36472
36457
36456
36473
36463
36463
36460
36468
36464
36462
36462
36476
36464
36472
36476
36480
36476
36484
36475
36479
36479
36474
36484
36484
36477
36478
36476
36484
36492
36484
36484
36484
36496
36501
36492
36494
36496
36500
36504
36500
36504
36501
36501
36505
36509
36504
36504
36518
36509
36514
36502
36512
36516
36516
36502
36516
36521
36513
36520
36516
36519
36524
36526
36520
36526
36521
36516
36518
36524
36529
36524
36517
36521
36533
36520
36524
36516
36524
36524
36524
36520
36533
36528
36524
36527
36521
36514
36527
36524
36524
36526
36528
36524
36526
36532
36512
36534
36528
36516
36526
36524
36520
36524
36528
36526
36520
36523
36530
36517
36522
36519
36517
36532
36532
36532
36516
36535
36528
36528
36529
36524
36528
36530
36536
36536
36521
36527
36530
36532
36533
36532
36528
36524
36528
36544
36540
36533
36526
36525
36534
36536
36532
36530
36532
36524
36532
36530
36538
36536
36534
36526
36535
36538
36532
36536
36528
36536
36536
36533
36548
36548
36534
36527
36532
36532
36526
36527
36532
36528
36530
36526
36528
36528
36520
36524
36527
36532
36529
36524
36524
36516
36520
36526
36532
36516
36516
36520
36525
36522
36536
36527
36516
36524
36526
36522
36516
36520
36530
36520
36532
36540
36528
36536
36528
36532
36532
36534
36525
36532
36530
36532
36534
36528
36544
36536
36534
36532
36528
36542
36540
36536
36544
36540
36546
36530
36540
36541
36540
36532
36540
36532
36548
36556
36544
36540
36540
36546
36543
36542
36540
36548
36552
36547
36550
36556
36548
36550
36544
36540
36540
36544
36553
36550
36557
36540
36552
36568
36552
36552
36544
36544
36548
36560
36558
36552
36554
36544
36560
36557
36558
36556
36559
36558
36556
36558
36559
36552
36545
36548
36545
36552
36560
36556
36548
36549
36550
36548
36550
36548
36546
36540
36550
36549
36552
36556
36542
36542
36544
36546
36548
36534
36536
36537
36534
36532
36528
36532
36532
36532
36528
36528
36528
36524
36518
36520
36520
36519
36517
36524
36524
36511
36513
36508
36520
36504
36504
36502
36496
36502
36492
36488
36496
36502
36496
36484
36488
36492
36479
36486
36480
36484
36474
36476
36484
36468
36476
36479
36464
36472
36468
36462
36468
36464
36460
36454
36456
36463
36464
36466
36449
36454
36448
36444
36448
36456
36452
36437
36452
36453
36452
36440
36446
36446
36444
36448
36448
36444
36445
36444
36452
36440
36444
36434
36449
36442
36434
36436
36444
36444
36438
36440
36421
36440
36440
36438
36438
36429
36433
36438
36432
36424
36430
36436
36417
36424
36418
36418
36416
36420
36416
36416
36412
36415
36418
36420
36405
36404
36402
36412
36409
36411
36408
36400
36412
36393
36396
36392
36389
36390
36388
36394
36392
36388
36374
36385
36384
36372
36376
36384
36378
36378
36372
36369
36372
36372
36357
36359
36368
36372
36360
36357
36359
36359
36356
36359
36350
36354
36348
36344
36346
36348
36344
36340
36334
36340
36332
36340
36336
36330
36330
36324
36318
36320
36320
36328
36332
36320
36324
36312
36312
36296
36308
36314
36301
36302
36296
36290
36288
36292
36288
36281
36276
36276
36274
36278
36268
36271
36270
36268
36266
36261
36252
36264
36263
36252
36244
36244
36232
36248
36234
36240
36236
36244
36241
36234
36236
36240
36240
36244
36228
36236
36229
36224
36223
36228
36234
36229
36231
36228
36222
36228
36232
36236
36228
36231
36232
36232
36224
36228
36238
36232
36236
36228
36230
36248
36236
36232
36236
36236
36228
36225
36228
36236
36236
36237
36229
36234
36240
36239
36236
36224
36232
36236
36232
36228
36226
36222
36231
36230
36222
36220
36229
36228
36224
36218
36220
36222
36228
36218
36220
36228
36236
36226
36224
36220
36240
36221
36224
36222
36216
36222
36236
36222
36224
36214
36222
36228
36221
36228
36224
36220
36222
36237
36224
36228
36232
36229
36233
36232
36240
36232
36238
36240
36244
36244
36246
36244
36254
36252
36252
36253
36246
36252
36250
36260
36246
36254
36248
36260
36250
36256
36258
36260
36260
36260
36262
36264
36276
36260
36268
36276
36280
36276
36276
36276
36280
36288
36279
36272
36276
36284
36286
36290
36286
36292
36288
36298
36296
36291
36288
36300
36300
36296
36302
36296
36296
36296
36288
36304
36309
36308
36304
36308
36304
36316
36318
36319
36312
36316
36320
36328
36322
36316
36324
36324
36320
36316
36324
36328
36324
36324
36321
36324
36340
36328
36340
36344
36342
36337
36332
36342
36346
36340
36340
36340
36340
36344
36340
36344
36356
36352
36352
36352
36344
36360
36358
36359
36360
36354
36364
36368
36368
36376
36372
36372
36372
36364
36366
36380
36380
36386
36372
36380
36385
36384
36396
36391
36392
36384
36402
36404
36394
36392
36401
36408
36410
36412
36406
36398
36400
36412
36420
36414
36412
36416
36424
36429
36428
36424
36430
36424
36436
36437
36432
36434
36440
36432
36436
36440
36436
36446
36446
36444
36452
36450
36444
36454
36460
36456
36456
36460
36468
36468
36456
36466
36448
36465
36474
36460
36461
36462
36468
36480
36484
36462
36474
36477
36472
36484
36484
36476
36480
36476
36478
36484
36478
36474
36486
36480
36484
36486
36500
36488
36486
36492
36484
36492
36494
36496
36503
36482
36493
36500
36503
36488
36500
36496
36490
36492
36488
36500
36505
36504
36494
36490
36494
36500
36500
36500
36494
36505
36504
36505
36509
36492
36496
36501
36498
36494
36510
36509
36510
36490
36508
36508
36512
36501
36505
36503
36510
36508
36502
36508
36520
36508
36502
36510
36496
36516
36512
36510
36500
36510
36508
36508
36508
36516
36514
36512
36510
36516
36503
36508
36508
36522
36506
36506
36504
36504
36502
36510
36508
36500
36514
36512
36508
36508
36504
36516
36520
36517
36508
36506
36514
36516
36516
36508
36508
36508
36510
36512
36513
36510
36524
36509
36510
36513
36531
36528
36520
36526
36520
36525
36521
36514
36520
36524
36528
36527
36528
36516
36524
36532
36524
36525
36533
36532
36529
36522
36528
36528
36532
36522
36532
36526
36517
36538
36516
36518
36516
36512
36518
36507
36516
36516
36518
36519
36520
36520
36514
36517
36520
36512
36522
36516
36494
36516
36517
36505
36512
36504
36512
36507
36512
36514
36505
36509
36512
36500
36506
36510
36508
36512
36512
36504
36516
36512
36508
36501
36508
36512
36510
36500
36517
36515
36516
36509
36517
36522
36512
36508
36510
36508
36512
36517
36518
36508
36516
36519
36516
36516
36516
36520
36520
36525
36512
36511
36524
36525
36526
36512
36514
36512
36520
36516
36514
36518
36528
36500
36508
36513
36518
36508
36522
36524
36517
36516
36512
36514
36514
36516
36520
36524
36516
36518
36518
36516
36519
36516
36524
36524
36511
36532
36526
36530
36526
36536
36529
36548
36540
36532
36536
36540
36542
36544
36548
36535
36546
36553
36548
36552
36544
36552
36558
36556
36553
36556
36560
36564
36564
36558
36564
36567
36564
36560
36570
36556
36554
36564
36564
36564
36566
36574
36568
36560
36568
36568
36568
36560
36572
36560
36568
36576
36572
36559
36558
36564
36556
36559
36556
36556
36560
36572
36572
36572
36556
36568
36568
36576
36564
36557
36559
36570
36574
36556
36560
36556
36564
36564
36572
36560
36554
36566
36568
36570
36556
36559
36562
36564
36572
36560
36548
36552
36560
36554
36552
36556
36549
36550
36545
36544
36552
36544
36550
36544
36556
36548
36544
36544
36537
36538
36544
36543
36541
36544
36538
36532
36528
36538
36540
36540
36540
36538
36532
36544
36541
36540
36524
36544
36544
36536
36538
36538
36546
36533
36541
36540
36540
36533
36536
36536
36532
36556
36544
36539
36540
36532
36534
36552
36540
36537
36532
36538
36542
36536
36536
36528
36532
36534
36540
36529
36528
36536
36516
36534
36520
36520
36524
36516
36528
36512
36516
36508
36524
36513
36512
36504
36498
36500
36500
36492
36501
36495
36492
36485
36489
36493
36484
36485
36494
36494
36482
36486
36482
36480
36485
36478
36480
36476
36490
36481
36488
36478
36480
36488
36480
36474
36476
36476
36486
36492
36476
36480
36474
36484
36484
36488
36484
36480
36484
36492
36495
36494
36500
36496
36492
36500
36504
36506
36508
36498
36505
36510
36506
36512
36508
36508
36520
36516
36510
36514
36529
36527
36527
36524
36517
36524
36532
36534
36533
36532
36532
36540
36545
36540
36544
36545
36540
36545
36548
36545
36548
36556
36552
36560
36552
36570
36566
36565
36564
36568
36568
36564
36576
36566
36560
36566
36576
36577
36569
36570
36566
36580
36584
36576
36580
36584
36580
36584
36584
36582
36592
36576
36584
36588
36580
36572
36588
36580
36576
36580
36584
36572
36588
36564
36582
36568
36576
36568
36572
36572
36572
36560
36568
36564
36554
36564
36559
36564
36544
36548
36544
36549
36540
36554
36544
36556
36542
36548
36540
36536
36540
36532
36533
36529
36536
36536
36536
36516
36516
36522
36524
36524
36520
36528
36530
36527
36528
36527
36528
36528
36526
36542
36516
36520
36520
36518
36514
36513
36517
36517
36514
36520
36508
36515
36504
36516
36500
36516
36506
36510
36494
36500
36492
36499
36492
36495
36492
36488
36480
36488
36468
36472
36484
36478
36469
36486
36472
36462
36465
36468
36460
36446
36456
36446
36448
36445
36442
36440
36444
36440
36434
36430
36432
36424
36428
36432
36430
36426
36420
36416
36428
36424
36428
36414
36420
36412
36410
36420
36418
36414
36412
36408
36412
36417
36417
36428
36420
36416
36416
36412
36416
36418
36412
36422
36408
36416
36417
36424
36418
36414
36409
36418
36424
36412
36420
36420
36432
36420
36420
36420
36420
36418
36412
36414
36418
36416
36412
36420
36416
36412
36416
36412
36414
36417
36400
36420
36431
36420
36406
36401
36404
36406
36417
36412
36414
36400
36404
36408
36404
36396
36396
36409
36400
36396
36404
36404
36414
36400
36406
36406
36408
36412
36406
36402
36398
36412
36402
36398
36412
36404
36396
36404
36408
36404
36410
36422
36408
36420
36420
36422
36421
36420
36410
36416
36421
36428
36421
36436
36430
36432
36438
36428
36436
36444
36445
36442
36452
36450
36444
36452
36452
36446
36444
36460
36462
36454
36449
36456
36465
36464
36456
36466
36461
36458
36464
36478
36474
36476
36462
36478
36470
36476
36478
36475
36476
36476
36474
36476
36472
36470
36476
36476
36468
36478
36472
36468
36471
36468
36474
36474
36475
36471
36464
36452
36458
36471
36468
36462
36460
36460
36460
36468
36464
36460
36465
36464
36460
36460
36464
36452
36464
36468
36464
36456
36460
36469
36460
36457
36469
36468
36472
36469
36472
36468
36468
36478
36476
36485
36480
36469
36471
36484
36476
36486
36470
36486
36472
36476
36476
36476
36474
36480
36486
36471
36484
36486
36484
36484
36486
36484
36481
36482
36485
36472
36486
36474
36485
36492
36484
36484
36482
36486
36484
36485
36484
36484
36495
36480
36476
36485
36488
36488
36489
36487
36485
36484
36490
36488
36492
36488
36492
36496
36497
36496
36493
36497
36500
36500
36496
36512
36500
36508
36500
36500
36508
36512
36514
36517
36508
36500
36516
36514
36516
36501
36502
36510
36512
36512
36516
36506
36517
36508
36496
36504
36500
36504
36498
36492
36495
36500
36496
36488
36492
36484
36484
36488
36480
36474
36484
36483
36476
36472
36465
36474
36469
36478
36468
36468
36464
36464
36464
36464
36452
36458
36472
36460
36460
36463
36460
36452
36457
36453
36448
36448
36437
36456
36452
36446
36452
36449
36440
36444
36442
36449
36448
36446
36436
36436
36436
36440
36430
36432
36440
36434
36436
36424
36428
36428
36436
36416
36412
36416
36416
36428
36420
36416
36408
36404
36406
36412
36406
36402
36406
36396
36404
36384
36394
36388
36392
36392
36392
36388
36383
36388
36380
36380
36376
36382
36372
36382
36373
36366
36366
36369
36368
36366
36360
36356
36368
36370
36364
36368
36352
36360
36364
36364
36372
36368
36372
36364
36370
36365
36370
36376
36372
36372
36368
36372
36385
36384
36385
36384
36386
36388
36388
36394
36388
36398
36392
36396
36396
36398
36388
36410
36404
36412
36408
36414
36412
36420
36417
36430
36426
36432
36426
36432
36429
36436
36436
36437
36446
36446
36450
36448
36452
36452
36464
36468
36465
36468
36468
36464
36478
36470
36474
36481
36492
36496
36488
36500
36498
36497
36492
36492
36502
36508
36518
36512
36512
36516
36518
36528
36526
36540
36526
36537
36544
36544
36542
36541
36542
36544
36556
36554
36557
36564
36552
36568
36574
36566
36574
36568
36574
36588
36584
36577
36580
36580
36592
36584
36591
36604
36608
36596
36596
36612
36608
36610
36620
36620
36616
36612
36632
36632
36630
36640
36642
36640
36636
36650
36652
36654
36653
36657
36672
36668
36663
36668
36676
36676
36684
36674
36688
36688
36700
36700
36694
36696
36706
36713
36708
36705
36719
36720
36718
36714
36708
36711
36722
36730
36720
36725
36724
36733
36736
36740
36737
36752
36748
36740
36746
36756
36750
36752
36756
36764
36764
36770
36775
36764
36778
36770
36780
36781
36797
36784
36794
36800
36798
36806
36810
36802
36808
36814
36814
36820
36824
36825
36829
36844
36844
36836
36842
36848
36857
36864
36864
36866
36856
36874
36885
36886
36879
36886
36894
36888
36885
36892
36892
36896
36898
36912
36910
36905
36910
36919
36917
36925
36924
36924
36932
36936
36930
36932
36934
36928
36934
36935
36926
36934
36937
36948
36936
36946
36944
36941
36946
36941
36944
36950
36948
36936
36944
36949
36944
36944
36937
36948
36938
36936
36948
36941
36932
36930
36932
36942
36940
36928
36934
36924
36919
36913
36921
36920
36908
36912
36900
36900
36898
36902
36898
36888
36884
36885
36888
36891
36893
36876
36868
36864
36858
36868
36862
36860
36860
36844
36844
36836
36844
36826
36830
36834
36825
36828
36817
36816
36804
36810
36800
36804
36788
36786
36780
36782
36780
36777
36768
36764
36764
36758
36754
36754
36744
36750
36742
36738
36732
36712
36708
36706
36710
36702
36704
36684
36680
36676
36682
36678
36668
36662
36652
36656
36654
36636
36636
36632
36628
36622
36604
36596
36588
36588
36592
36585
36568
36573
36564
36550
36544
36534
36536
36540
36536
36520
36516
36516
36508
36500
36488
36476
36476
36484
36470
36473
36461
36452
36438
36436
36436
36436
36428
36416
36420
36406
36420
36404
36402
36389
36393
36391
36376
36373
36360
36370
36364
36356
36344
36332
36336
36340
36328
36320
36309
36308
36316
36300
36300
36292
36281
36276
36268
36270
36256
36246
36240
36244
36234
36230
36216
36220
36207
36204
36192
36204
36188
36180
36162
36160
36164
36152
36142
36144
36132
36124
36128
36116
36112
36098
36098
36092
36092
36084
36076
36072
36061
36068
36048
36052
36040
36040
36025
36030
36020
36020
36006
36004
35994
35994
35996
35981
35980
35982
35976
35972
35968
35966
35965
35962
35957
35962
35957
35948
35948
35948
35944
35940
35937
35936
35944
35940
35942
35936
35944
35928
35942
35944
35934
35925
35932
35935
35940
35932
35932
35920
35932
35936
35932
35930
35936
35932
35936
35920
35928
35932
35932
35928
35928
35926
35932
35930
35924
35924
35928
35916
35929
35920
35920
35916
35924
35926
35919
35921
35924
35925
35906
35924
35917
35918
35908
35912
35918
35921
35908
35908
35900
35898
35904
35896
35900
35897
35894
35897
35892
35894
35879
35880
35889
35884
35876
35877
35870
35864
35876
35869
35872
35861
35858
35860
35846
35854
35860
35855
35844
35846
35852
35840
35844
35840
35842
35832
35830
35828
35828
35822
35816
35820
35817
35812
35816
35816
35818
35804
35802
35812
35812
35808
35806
35800
35800
35796
35802
35796
35792
35800
35800
35788
35786
35788
35776
35780
35780
35778
35784
35785
35778
35778
35772
35777
35764
35764
35764
35759
35760
35760
35760
35758
35764
35764
35756
35748
35758
35760
35760
35765
35757
35760
35753
35752
35750
35760
35758
35751
35757
35758
35760
35760
35748
35752
35748
35756
35766
35760
35764
35754
35759
35764
35758
35750
35760
35756
35752
35756
35742
35756
35742
35746
35742
35728
35724
35732
35726
35720
35712
35710
35712
35700
35700
35702
35692
35692
35686
35672
35660
35670
35662
35652
35648
35652
35639
35633
35632
35636
35628
35623
35608
35616
35608
35600
35588
35588
35588
35584
35580
35564
35564
35556
35560
35562
35548
35548
35551
35548
35548
35540
35538
35546
35530
35524
35526
35528
35527
35525
35522
35514
35516
35512
35514
35502
35504
35508
35500
35500
35496
35502
35500
35490
35495
35492
35484
35484
35478
35485
35484
35473
35481
35477
35476
35484
35464
35470
35474
35482
35476
35472
35464
35472
35468
35470
35460
35461
35468
35469
35468
35462
35454
35456
35468
35464
35464
35468
35468
35464
35464
35468
35469
35464
35461
35478
35478
35465
35456
35460
35460
35466
35464
35458
35460
35460
35466
35458
35452
35454
35466
35457
35468
35460
35447
35462
35462
35464
35456
35456
35452
35452
35455
35444
35444
35444
35452
35448
35452
35456
35436
35448
35444
35460
35452
35444
35440
35440
35444
35444
35444
35439
35440
35444
35448
35446
35452
35451
35439
35448
35448
35452
35448
35445
35448
35460
35454
35460
35441
35458
35456
35456
35454
35452
35450
35456
35454
35456
35460
35464
35452
35471
35468
35466
35464
35468
35460
35468
35461
35464
35460
35462
35462
35470
35472
35468
35470
35473
35476
35485
35481
35480
35486
35486
35486
35489
35482
35492
35488
35500
35502
35493
35494
35488
35500
35506
35501
35504
35508
35508
35511
35512
35505
35506
35520
35516
35520
35512
35524
35513
35522
35518
35522
35516
35524
35522
35528
35534
35528
35533
35547
35538
35548
35544
35544
35540
35556
35548
35556
35553
35556
35552
35556
35567
35556
35559
35552
35565
35572
35564
35566
35560
35572
35574
35568
35584
35577
35575
35588
35584
35584
35592
35588
35590
35588
35584
35596
35601
35592
35592
35602
35612
35607
35589
35608
35604
35615
35604
35604
35612
35610
35605
35612
35604
35618
35610
35604
35612
35608
35617
35610
35614
35622
35628
35622
35619
35608
35608
35618
35620
35612
35612
35606
35610
35621
35618
35614
35604
35600
35620
35618
35620
35614
35610
35616
35610
35630
35618
35604
35616
35612
35612
35616
35621
35612
35612
35612
35608
35612
35608
35612
35606
35609
35612
35616
35616
35610
35600
35600
35605
35606
35602
35598
35596
35596
35592
35588
35588
35579
35586
35584
35572
35580
35580
35572
35562
35572
35572
35558
35564
35548
35556
35561
35556
35540
35548
35556
35546
35534
35536
35529
35530
35529
35528
35532
35527
35516
35516
35518
35520
35510
35500
35505
35494
35508
35492
35492
35492
35492
35490
35486
35480
35470
35479
35474
35472
35464
35449
35462
35464
35452
35450
35449
35454
35440
35436
35428
35436
35436
35437
35420
35416
35413
35420
35409
35406
35405
35401
35396
35388
35392
35388
35386
35378
35384
35364
35376
35372
35358
35358
35358
35361
35346
35350
35356
35348
35341
35332
35340
35338
35324
35326
35318
35332
35316
35311
35310
35308
35306
35297
35299
35304
35304
35290
35292
35300
35284
35276
35286
35285
35288
35284
35280
35270
35279
35278
35281
35283
35280
35268
35272
35297
35277
35276
35278
35272
35288
35280
35280
35286
35292
35280
35284
35278
35288
35288
35278
35292
35284
35292
35296
35292
35286
35293
35294
35300
35297
35301
35296
35297
35300
35292
35284
35292
35296
35302
35298
35289
35292
35292
35298
35284
35284
35284
35300
35285
35284
35282
35290
35286
35268
35284
35276
35269
35268
35269
35256
35264
35264
35256
35252
35252
35247
35260
35248
35248
35240
35240
35230
35236
35238
35228
35228
35220
35222
35232
35220
35216
35212
35214
35210
35226
35205
35207
35213
35208
35201
35204
35200
35199
35200
35207
35199
35198
35191
35190
35196
35194
35188
35193
35181
35188
35186
35190
35188
35182
35192
35177
35184
35180
35184
35185
35176
35172
35176
35168
35169
35168
35172
35170
35172
35177
35164
35168
35164
35159
35166
35168
35166
35160
35152
35156
35158
35156
35158
35152
35136
35144
35160
35156
35146
35144
35140
35140
35140
35137
35141
35136
35132
35132
35134
35132
35135
35126
35124
35136
35128
35130
35116
35117
35118
35120
35116
35114
35112
35116
35124
35112
35108
35111
35120
35104
35113
35109
35112
35108
35094
35106
35112
35108
35103
35100
35108
35108
35102
35106
35108
35108
35102
35093
35102
35098
35092
35096
35098
35095
35092
35104
35086
35092
35089
35080
35076
35076
35084
35086
35078
35070
35060
35066
35068
35068
35074
35056
35056
35052
35050
35054
35048
35044
35044
35040
35034
35026
35016
35024
35022
35020
35012
34996
35004
34996
34992
34986
34984
34982
34974
34974
34973
34964
34962
34958
34956
34944
34944
34934
34932
34940
34932
34919
34916
34902
34906
34897
34902
34888
34888
34880
34884
34880
34866
34861
34872
34860
34850
34844
34857
34837
34836
34834
34842
34820
34830
34820
34816
34820
34812
34808
34812
34796
34804
34810
34812
34800
34794
34798
34794
34804
34792
34800
34788
34782
34788
34798
34788
34788
34785
34776
34772
34780
34775
34780
34768
34772
34764
34758
34750
34750
34757
34754
34748
34736
34737
34732
34740
34726
34720
34724
34722
34716
34708
34711
34708
34712
34706
34694
34684
34684
34680
34686
34687
34672
34662
34652
34662
34656
34652
34663
34659
34644
34633
34628
34630
34640
34634
34621
34620
34624
34624
34618
34608
34608
34621
34612
34592
34600
34596
34589
34592
34592
34596
34588
34592
34592
34592
34580
34578
34572
34576
34580
34572
34566
34568
34560
34560
34564
34564
34561
34556
34560
34564
34549
34552
34548
34554
34544
34544
34556
34540
34537
34545
34540
34534
34534
34532
34524
34532
34528
34508
34520
34522
34520
34506
34504
34512
34516
34504
34488
34472
34498
34496
34476
34476
34468
34470
34470
34462
34463
34460
34459
34458
34452
34448
34440
34444
34442
34430
34424
34433
34438
34412
34404
34408
34418
34404
34404
34396
34406
34400
34381
34385
34396
34395
34386
34376
34382
34388
34382
34376
34372
34370
34374
34360
34374
34368
34369
34368
34364
34367
34364
34358
34364
34361
34362
34356
34356
34361
34362
34355
34352
34356
34350
34344
34350
34359
34348
34348
34340
34344
34342
34340
34337
34350
34340
34332
34338
34336
34326
34328
34330
34324
34325
34329
34324
34309
34312
34320
34304
34314
34312
34312
34304
34306
34308
34300
34292
34300
34284
34284
34284
34280
34274
34268
34271
34268
34272
34256
34248
34244
34244
34232
34236
34232
34228
34220
34221
34228
34213
34213
34204
34200
34196
34200
34196
34188
34183
34181
34176
34180
34175
34172
34172
34172
34160
34156
34152
34146
34144
34148
34148
34133
34132
34136
34133
34128
34125
34128
34129
34124
34120
34121
34113
34108
34118
34112
34112
34110
34110
34100
34098
34096
34094
34093
34092
34100
34092
34108
34092
34092
34090
34100
34096
34096
34088
34088
34084
34100
34096
34096
34097
34092
34090
34088
34092
34096
34092
34084
34087
34108
34094
34092
34092
34092
34088
34095
34092
34092
34094
34096
34100
34100
34102
34104
34100
34100
34108
34108
34105
34110
34102
34112
34111
34112
34110
34116
34114
34116
34112
34112
34124
34120
34112
34122
34116
34116
34114
34112
34120
34110
34116
34124
34126
34122
34116
34116
34114
34116
34108
34104
34120
34110
34110
34118
34116
34124
34116
34124
34127
34138
34132
34132
34137
34132
34142
34148
34145
34152
34150
34154
34152
34164
34159
34174
34176
34180
34192
34188
34199
34206
34207
34206
34206
34220
34231
34236
34240
34254
34245
34256
34264
34273
34274
34272
34288
34296
34308
34304
34317
34324
34324
34340
34350
34352
34353
34352
34368
34370
34373
34380
34388
34384
34393
34404
34410
34408
34412
34412
34424
34434
34436
34432
34444
34448
34448
34452
34452
34464
34464
34462
34468
34481
34468
34476
34482
34488
34486
34492
34492
34490
34489
34494
34500
34500
34502
34500
34496
34504
34510
34508
34503
34510
34520
34517
34504
34513
34508
34508
34517
34516
34508
34514
34512
34516
34518
34519
34504
34510
34518
34516
34516
34510
34506
34506
34512
34512
34510
34504
34508
34512
34512
34512
34508
34502
34504
34516
34500
34500
34504
34510
34504
34494
34500
34497
34495
34494
34492
34492
34496
34490
34480
34468
34482
34482
34478
34480
34468
34464
34472
34469
34470
34460
34460
34456
34468
34458
34448
34452
34454
34446
34448
34453
34449
34448
34456
34444
34452
34452
34444
34444
34444
34452
34444
34452
34444
34440
34444
34456
34454
34454
34448
34456
34467
34452
34461
34468
34464
34470
34466
34468
34474
34481
34476
34482
34472
34472
34484
34484
34484
34484
34493
34489
34492
34488
34490
34492
34488
34498
34500
34494
34500
34500
34500
34503
34488
34497
34500
34500
34500
34512
34509
34496
34505
34512
34508
34516
34502
34508
34510
34510
34512
34506
34500
34496
34510
34516
34512
34506
34501
34512
34510
34510
34516
34512
34516
34513
34512
34524
34525
34508
34512
34524
34528
34524
34517
34522
34528
34534
34535
34536
34528
34527
34536
34542
34540
34536
34542
34538
34544
34540
34542
34542
34540
34532
34545
34544
34554
34542
34548
34540
34548
34530
34536
34544
34540
34536
34536
34542
34544
34544
34528
34528
34540
34528
34532
34522
34528
34520
34528
34528
34526
34530
34530
34528
34524
34522
34532
34522
34520
34516
34524
34520
34530
34530
34520
34527
34512
34512
34517
34520
34527
34522
34508
34514
34516
34518
34518
34514
34520
34514
34502
34504
34516
34511
34510
34496
34501
34496
34494
34500
34503
34496
34497
34496
34496
34500
34494
34492
34496
34490
34488
34488
34492
34487
34488
34476
34480
34484
34484
34488
34481
34472
34474
34480
34488
34480
34476
34468
34468
34468
34469
34468
34462
34460
34460
34466
34460
34452
34445
34464
34454
34446
34449
34452
34442
34444
34442
34456
34440
34432
34436
34436
34432
34432
34436
34433
34436
34432
34424
34434
34436
34438
34432
34424
34422
34432
34428
34425
34424
34430
34428
34424
34434
34432
34425
34432
34426
34438
34434
34428
34428
34432
34436
34440
34440
34442
34436
34436
34428
34440
34445
34444
34448
34444
34446
34448
34440
34460
34454
34458
34452
34457
34456
34464
34460
34460
34460
34466
34468
34462
34462
34464
34460
34460
34460
34452
34462
34466
34456
34460
34453
34456
34462
34464
34464
34463
34456
34444
34454
34458
34452
34454
34448
34444
34440
34437
34446
34438
34440
34434
34439
34438
34436
34428
34430
34420
34415
34420
34422
34420
34418
34414
34408
34414
34408
34399
34400
34406
34405
34404
34390
34396
34412
34404
34398
34396
34404
34396
34382
34388
34394
34384
34380
34380
34388
34392
34388
34374
34388
34392
34380
34378
34384
34398
34388
34391
34390
34388
34384
34388
34388
34374
34376
34382
34382
34376
34388
34378
34380
34374
34386
34384
34372
34387
34376
34381
34388
34376
34382
34372
34378
34380
34368
34382
34373
34380
34368
34372
34372
34368
34366
34374
34372
34372
34364
34364
34373
34380
34368
34368
34362
34362
34369
34366
34372
34364
34372
34372
34376
34374
34368
34360
34369
34370
34380
34374
34369
34376
34380
34384
34388
34368
34374
34380
34389
34396
34381
34394
34392
34399
34401
34404
34400
34404
34410
34416
34418
34416
34414
34420
34429
34424
34425
34425
34424
34436
34436
34436
34436
34440
34436
34448
34452
34454
34448
34452
34455
34452
34452
34452
34452
34454
34456
34456
34464
34464
34458
34468
34452
34476
34466
34460
34468
34468
34468
34458
34462
34456
34458
34462
34468
34461
34456
34468
34462
34472
34464
34464
34466
34464
34464
34454
34457
34466
34456
34456
34448
34460
34460
34454
34448
34452
34448
34452
34446
34448
34452
34454
34450
34445
34444
34438
34444
34444
34446
34450
34450
34444
34444
34454
34446
34444
34438
34452
34456
34452
34450
34448
34446
34462
34468
34448
34456
34452
34460
34460
34468
34464
34448
34470
34466
34468
34470
34460
34464
34468
34468
34468
34476
34470
34481
34484
34492
34481
34484
34484
34488
34500
34500
34496
34500
34500
34504
34508
34500
34508
34522
34521
34526
34528
34537
34532
34533
34534
34545
34548
34564
34548
34564
34564
34564
34574
34572
34572
34581
34588
34592
34580
34588
34604
34608
34606
34608
34616
34622
34622
34624
34633
34632
34638
34640
34644
34644
34652
34656
34668
34668
34660
34677
34670
34684
34700
34697
34704
34710
34718
34719
34720
34736
34740
34740
34741
34742
34760
34760
34768
34776
34786
34780
34790
34799
34799
34808
34808
34812
34820
34823
34832
34848
34852
34852
34868
34860
34868
34874
34880
34888
34892
34902
34904
34916
34913
34924
34924
34932
34934
34937
34942
34949
34952
34956
34957
34961
34980
34978
34980
34984
34988
34984
34996
34992
35004
35008
35012
35016
35016
35017
35028
35022
35014
35028
35024
35030
35024
35037
35040
35037
35040
35047
35044
35041
35054
35054
35056
35060
35055
35060
35056
35066
35057
35072
35070
35068
35068
35064
35070
35080
35078
35076
35084
35084
35090
35088
35098
35096
35100
35094
35102
35102
35108
35104
35104
35106
35121
35114
35128
35128
35129
35126
35136
35140
35142
35142
35144
35150
35152
35169
35168
35166
35166
35172
35176
35180
35176
35182
35188
35196
35180
35184
35192
35204
35206
35204
35210
35208
35214
35212
35220
35220
35229
35223
35228
35234
35234
35232
35238
35236
35244
35248
35254
35248
35256
35260
35256
35265
35265
35260
35260
35260
35273
35268
35263
35266
35272
35280
35280
35279
35274
35277
35280
35292
35284
35277
35285
35296
35285
35290
35297
35284
35296
35308
35300
35292
35290
35294
35294
35297
35300
35296
35302
35286
35300
35294
35296
35296
35294
35300
35290
35296
35280
35290
35290
35288
35276
35281
35280
35280
35280
35280
35265
35280
35279
35281
35270
35268
35276
35264
35264
35258
35268
35268
35255
35254
35246
35253
35252
35238
35242
35244
35240
35234
35236
35236
35230
35224
35224
35226
35232
35233
35224
35226
35220
35221
35221
35214
35208
35217
35221
35212
35204
35212
35206
35212
35206
35200
35197
35196
35192
35190
35188
35196
35196
35182
35176
35180
35178
35182
35166
35174
35172
35172
35172
35168
35170
35170
35162
35168
35162
35160
35148
35152
35158
35152
35149
35140
35127
35136
35144
35130
35140
35128
35126
35128
35128
35128
35127
35120
35114
35124
35132
35113
35116
35108
35104
35108
35108
35096
35098
35092
35100
35101
35096
35085
35092
35080
35082
35086
35084
35079
35088
35084
35077
35074
35072
35076
35070
35078
35077
35068
35060
35057
35062
35056
35060
35065
35060
35060
35060
35064
35053
35064
35063
35062
35052
35048
35060
35072
35064
35052
35052
35052
35068
35060
35054
35056
35055
35048
35052
35060
35060
35058
35052
35064
35056
35057
35060
35064
35068
35056
35072
35068
35068
35068
35068
35072
35080
35067
35070
35080
35076
35072
35080
35088
35085
35084
35087
35084
35092
35084
35100
35100
35100
35104
35096
35106
35116
35118
35112
35120
35116
35122
35132
35128
35133
35135
35141
35130
35140
35138
35154
35152
35148
35156
35158
35164
35170
35168
35164
35172
35184
35176
35177
35180
35186
35188
35192
35184
35189
35188
35198
35196
35193
35206
35204
35201
35193
35212
35206
35214
35208
35208
35206
35196
35204
35194
35201
35204
35198
35199
35200
35196
35200
35198
35189
35185
35184
35188
35194
35191
35177
35178
35164
35172
35161
35165
35169
35168
35159
35160
35156
35150
35152
35146
35141
35156
35140
35137
35142
35132
35130
35128
35132
35136
35124
35116
35122
35124
35132
35122
35116
35108
35113
35109
35117
35120
35116
35113
35109
35112
35100
35111
35106
35109
35118
35109
35108
35104
35108
35108
35112
35124
35116
35116
35114
35116
35124
35115
35116
35127
35128
35124
35132
35120
35118
35122
35118
35130
35134
35133
35140
35130
35136
35142
35132
35136
35137
35136
35159
35146
35150
35156
35144
35156
35156
35164
35160
35158
35159
35159
35170
35172
35174
35189
35174
35172
35184
35180
35189
35194
35186
35196
35198
35196
35200
35205
35209
35212
35212
35221
35220
35228
35230
35230
35228
35232
35244
35230
35240
35236
35238
35244
35252
35243
35242
35242
35256
35258
35260
35248
35246
35256
35253
35264
35253
35248
35252
35260
35257
35242
35252
35248
35246
35244
35244
35244
35238
35234
35246
35238
35228
35230
35232
35232
35228
35228
35213
35230
35223
35218
35204
35212
35212
35201
35200
35201
35204
35208
35192
35183
35184
35197
35192
35176
35188
35184
35181
35183
35172
35172
35167
35168
35176
35166
35169
35157
35158
35160
35160
35148
35148
35153
35148
35148
35146
35149
35142
35128
35140
35145
35140
35132
35136
35136
35130
35128
35132
35132
35130
35114
35124
35127
35132
35126
35123
35113
35110
35120
35121
35116
35108
35110
35114
35106
35109
35108
35108
35120
35116
35121
35112
35116
35117
35129
35118
35130
35112
35118
35129
35134
35124
35126
35128
35134
35140
35136
35132
35140
35144
35142
35140
35156
35161
35152
35168
35172
35180
35169
35167
35176
35174
35182
35185
35172
35182
35188
35205
35202
35204
35200
35204
35213
35214
35220
35220
35222
35222
35225
35224
35234
35232
35238
35241
35244
35236
35236
35239
35246
35246
35246
35256
35258
35246
35248
35256
35256
35262
35266
35248
35266
35264
35272
35268
35268
35258
35260
35268
35274
35276
35268
35276
35266
35267
35268
35278
35276
35280
35260
35259
35268
35273
35268
35260
35260
35266
35266
35252
35264
35260
35254
35262
35264
35256
35254
35258
35260
35256
35257
35246
35241
35244
35237
35240
35236
35232
35230
35228
35236
35231
35220
35228
35224
35228
35214
35217
35214
35196
35206
35212
35191
35196
35196
35200
35184
35182
35199
35186
35191
35182
35176
35172
35168
35164
35164
35166
35172
35172
35162
35168
35152
35158
35160
35145
35152
35152
35151
35150
35145
35140
35150
35145
35146
35149
35140
35138
35140
35130
35133
35136
35131
35128
35126
35129
35124
35136
35124
35129
35122
35120
35128
35126
35116
35124
35110
35116
35116
35117
35106
35112
35116
35104
35100
35095
35105
35105
35095
35093
35092
35092
35088
35092
35085
35096
35084
35080
35080
35078
35068
35076
35071
35068
35057
35062
35061
35058
35062
35066
35052
35048
35045
35053
35040
35045
35044
35036
35040
35036
35042
35036
35026
35020
35029
35028
35030
35016
35018
35000
35013
35013
35012
35009
35009
35005
35004
34993
34992
34988
34996
34985
34980
34970
34961
34966
34964
34964
34964
34948
34944
34948
34945
34949
34936
34932
34928
34924
34928
34920
34925
34921
34916
34892
34894
34888
34888
34892
34888
34878
34870
34868
34874
34872
34860
34854
34852
34849
34848
34852
34840
34836
34830
34828
34830
34820
34820
34816
34820
34812
34815
34815
34812
34799
34796
34798
34796
34796
34790
34788
34798
34782
34776
34781
34776
34781
34768
34772
34780
34776
34764
34769
34770
34777
34768
34760
34772
34768
34772
34774
34760
34764
34764
34760
34760
34760
34763
34770
34760
34756
34762
34757
34762
34760
34761
34746
34766
34760
34755
34756
34756
34748
34763
34760
34748
34746
34752
34745
34748
34753
34759
34756
34756
34750
34752
34756
34752
34750
34750
34750
34750
34752
34748
34756
34760
34752
34756
34748
34754
34758
34750
34748
34752
34756
34758
34764
34764
34756
34750
34762
34767
34768
34760
34756
34754
34760
34768
34766
34762
34764
34766
34764
34762
34768
34777
34776
34772
34780
34786
34777
34781
34786
34784
34776
34788
34775
34772
34785
34780
34783
34786
34778
34788
34783
34788
34788
34792
34782
34786
34784
34788
34788
34792
34790
34786
34796
34790
34788
34798
34788
34788
34797
34791
34797
34788
34792
34788
34786
34788
34796
34788
34789
34788
34792
34780
34784
34780
34788
34782
34788
34788
34789
34788
34772
34780
34778
34784
34782
34784
34788
34788
34784
34788
34780
34788
34780
34790
34792
34797
34799
34796
34793
34788
34793
34796
34798
34804
34820
34815
34820
34823
34816
34822
34816
34814
34816
34824
34834
34832
34840
34846
34840
34840
34840
34838
34844
34844
34841
34846
34837
34849
34852
34852
34846
34848
34844
34842
34852
34836
34840
34848
34844
34852
34844
34856
34852
34852
34844
34849
34858
34852
34844
34836
34836
34832
34836
34824
34833
34836
34832
34841
34836
34836
34836
34820
34828
34828
34834
34824
34828
34828
34824
34828
34820
34822
34832
34823
34828
34828
34823
34828
34820
34824
34830
34837
34830
34844
34826
34840
34838
34840
34838
34838
34841
34840
34836
34842
34841
34824
34836
34844
34844
34852
34840
34848
34844
34846
34849
34848
34848
34845
34846
34844
34842
34846
34852
34844
34846
34836
34842
34832
34836
34842
34846
34848
34840
34840
34856
34848
34841
34840
34834
34832
34841
34826
34848
34833
34840
34840
34836
34837
34839
34833
34840
34840
34844
34836
34844
34832
34844
34848
34852
34848
34852
34846
34836
34844
34852
34852
34856
34859
34860
34861
34862
34860
34866
34878
34876
34890
34880
34868
34876
34884
34888
34880
34890
34882
34880
34890
34887
34900
34909
34897
34896
34895
34896
34900
34904
34908
34916
34912
34912
34916
34911
34912
34906
34916
34918
34914
34917
34918
34912
34920
34928
34916
34932
34928
34930
34928
34932
34932
34935
34940
34924
34932
34932
34942
34948
34942
34928
34936
34932
34936
34940
34932
34938
34951
34936
34946
34940
34940
34942
34940
34940
34934
34952
34943
34933
34934
34940
34954
34940
34948
34948
34940
34948
34940
34945
34952
34944
34940
34935
34942
34948
34948
34950
34956
34952
34948
34948
34950
34958
34960
34950
34956
34956
34972
34965
34964
34972
34972
34980
34972
34976
34966
34970
34976
34981
34980
34988
34986
34982
34988
34992
34996
34996
34993
34999
34998
35001
35015
35012
35016
35000
34998
35005
35020
35009
35008
35004
35016
35009
35017
35028
35023
35012
35017
35016
35020
35026
35028
35022
35028
35026
35020
35020
35012
35022
35029
35025
35032
35028
35028
35028
35029
35032
35024
35028
35040
35048
35040
35032
35028
35038
35045
35040
35044
35044
35036
35041
35050
35044
35048
35048
35044
35044
35052
35053
35055
35056
35064
35054
35056
35061
35068
35056
35060
35060
35052
35066
35064
35076
35072
35080
35066
35069
35082
35084
35088
35095
35072
35086
35085
35084
35100
35092
35092
35096
35095
35094
35090
35100
35103
35104
35106
35110
35108
35097
35108
35114
35111
35108
35108
35104
35108
35092
35102
35104
35102
35096
35104
35100
35092
35108
35104
35105
35104
35102
35100
35096
35095
35098
35086
35084
35080
35081
35084
35081
35084
35089
35080
35086
35074
35086
35080
35087
35078
35072
35068
35076
35068
35073
35076
35073
35064
35060
35068
35072
35068
35063
35060
35060
35060
35067
35068
35068
35064
35058
35054
35056
35060
35064
35060
35060
35056
35056
35057
35060
35060
35050
35048
35044
35064
35061
35060
35063
35072
35060
35052
35060
35044
35044
35047
35047
35052
35047
35044
35046
35040
35044
35047
35040
35041
35040
35028
35040
35036
35038
35028
35024
35017
35024
35020
35012
35012
35020
35008
35016
35009
35012
35009
35012
35000
34998
34996
35004
34997
34990
34984
34984
34988
34984
34984
34980
34980
34968
34973
34966
34980
34964
34964
34961
34959
34964
34956
34952
34952
34944
34948
34952
34943
34948
34940
34942
34931
34934
34935
34924
34926
34932
34928
34917
34927
34916
34926
34916
34925
34920
34916
34914
34904
34908
34900
34902
34905
34900
34910
34896
34900
34898
34896
34889
34893
34884
34900
34896
34888
34882
34892
34892
34888
34882
34876
34884
34876
34878
34880
34884
34876
34874
34868
34876
34880
34878
34865
34870
34874
34870
34868
34864
34872
34861
34870
34864
34860
34862
34860
34862
34844
34848
34856
34847
34860
34849
34845
34842
34840
34842
34840
34850
34848
34834
34836
34828
34830
34828
34823
34820
34832
34824
34821
34820
34812
34814
34816
34812
34826
34816
34814
34802
34804
34805
34792
34798
34807
34805
34796
34792
34789
34800
34800
34798
34790
34788
34792
34798
34792
34798
34790
34794
34796
34788
34792
34788
34784
34792
34788
34788
34804
34788
34778
34780
34788
34796
34796
34788
34788
34788
34793
34796
34789
34789
34785
34792
34788
34796
34788
34788
34796
34792
34797
34792
34793
34796
34792
34808
34800
34796
34810
34808
34793
34800
34796
34804
34800
34796
34800
34796
34800
34812
34808
34804
34808
34822
34821
34813
34808
34814
34820
34820
34820
34820
34813
34816
34820
34832
34828
34833
34826
34823
34817
34834
34840
34832
34840
34839
34840
34844
34848
34840
34844
34846
34852
34860
34863
34856
34857
34856
34861
34864
34868
34880
34874
34868
34872
34876
34874
34876
34882
34874
34880
34882
34876
34876
34882
34884
34882
34871
34868
34876
34880
34884
34880
34876
34868
34873
34880
34880
34881
34873
34876
34876
34866
34880
34876
34876
34862
34872
34868
34872
34868
34878
34876
34876
34869
34860
34868
34876
34882
34880
34864
34865
34872
34874
34876
34860
34860
34872
34872
34868
34864
34868
34878
34870
34868
34870
34884
34881
34884
34880
34878
34878
34876
34872
34876
34886
34884
34897
34889
34886
34894
34889
34892
34895
34888
34892
34888
34888
34896
34892
34888
34896
34900
34892
34894
34886
34900
34897
34908
34900
34910
34905
34904
34904
34916
34904
34910
34912
34920
34912
34913
34912
34906
34916
34916
34910
34912
34912
34920
34918
34918
34932
34926
34936
34932
34932
34934
34942
34946
34932
34936
34940
34936
34940
34940
34952
34951
34955
34950
34952
34964
34961
34975
34974
34980
34972
34972
34982
34988
34988
34992
34988
34986
34994
34988
34992
35012
35008
35000
35005
35009
35015
35009
35016
35012
35012
35014
35018
35028
35024
35028
35020
35022
35022
35024
35029
35036
35034
35036
35033
35028
35030
35038
35044
35048
35038
35036
35036
35044
35047
35048
35044
35046
35044
35044
35052
35044
35046
35049
35056
35061
35065
35056
35064
35064
35060
35065
35068
35072
35070
35076
35066
35070
35072
35082
35076
35084
35084
35072
35078
35092
35092
35088
35086
35104
35092
35100
35106
35105
35096
35104
35108
35106
35100
35108
35112
35112
35116
35116
35120
35118
35120
35130
35128
35128
35137
35142
35130
35139
35140
35160
35148
35156
35142
35156
35160
35149
35160
35168
35173
35172
35172
35172
35170
35180
35189
35185
35194
35184
35200
35204
35195
35186
35197
35198
35199
35200
35204
35205
35207
35213
35216
35224
35224
35221
35225
35224
35230
35236
35234
35240
35244
35241
35232
35239
35246
35245
35256
35246
35248
35252
35264
35256
35268
35272
35268
35268
35268
35271
35269
35276
35265
35274
35272
35284
35274
35273
35264
35274
35276
35281
35284
35282
35280
35281
35288
35290
35289
35289
35288
35294
35290
35284
35296
35293
35284
35288
35292
35292
35285
35288
35292
35292
35290
35291
35294
35288
35296
35304
35288
35290
35292
35297
35294
35296
35306
35304
35296
35300
35300
35296
35304
35311
35304
35305
35308
35304
35308
35303
35316
35320
35320
35311
35312
35312
35313
35316
35326
35324
35324
35326
35328
35326
35328
35328
35327
35335
35332
35328
35348
35329
35326
35342
35335
35348
35334
35324
35340
35336
35340
35344
35328
35338
35343
35340
35336
35326
35330
35336
35336
35340
35332
35326
35328
35328
35332
35336
35329
35324
35327
35328
35330
35328
35332
35334
35320
35324
35332
35334
35340
35332
35322
35333
35330
35328
35332
35342
35335
35330
35332
35332
35328
35346
35352
35340
35352
35332
35342
35344
35348
35350
35342
35338
35340
35340
35344
35356
35356
35348
35343
35349
35360
35356
35366
35349
35349
35356
35352
35365
35359
35354
35352
35352
35354
35359
35359
35360
35354
35348
35348
35348
35350
35344
35356
35356
35351
35350
35352
35344
35340
35337
35348
35340
35335
35342
35334
35340
35340
35328
35342
35340
35342
35332
35329
35329
35332
35332
35322
35332
35324
35330
35316
35325
35316
35318
35334
35316
35320
35308
35310
35316
35314
35317
35300
35300
35297
35304
35300
35297
35300
35296
35296
35300
35294
35288
35288
35284
35280
35274
35268
35268
35276
35263
35262
35264
35270
35260
35253
35242
35252
35249
35245
35241
35230
35230
35224
35236
35224
35222
35220
35204
35214
35206
35207
35192
35182
35188
35188
35182
35172
35175
35172
35170
35160
35156
35158
35153
35141
35137
35150
35150
35136
35132
35130
35126
35130
35125
35128
35128
35117
35116
35110
35108
35116
35110
35098
35104
35094
35100
35096
35088
35084
35093
35084
35086
35084
35080
35084
35080
35073
35089
35074
35054
35070
35070
35060
35052
35068
35068
35060
35056
35052
35056
35056
35062
35048
35048
35049
35052
35045
35048
35044
35044
35040
35040
35028
35030
35036
35039
35028
35029
35032
35038
35030
35032
35028
35028
35042
35026
35029
35036
35028
35026
35024
35020
35018
35022
35015
35018
35010
35020
35020
35012
35012
35010
35012
35012
35016
35002
35012
34997
35012
35008
35004
34992
34998
35001
34997
34991
34988
34996
35006
34992
34988
34992
34990
35004
35002
34996
34980
34996
34993
34998
34998
34990
34986
34988
34992
34996
34980
34982
34991
34996
34986
34977
34991
34988
34988
34984
34983
34984
34992
34984
34976
34980
34978
34984
34986
34984
34980
34978
34976
34980
34984
34980
34980
34977
34980
34984
34972
34972
34964
34964
34966
34964
34952
34966
34960
34959
34968
34960
34948
34960
34954
34949
34968
34952
34952
34946
34956
34948
34960
34946
34936
34935
34944
34948
34941
34944
34940
34929
34934
34936
34943
34948
34944
34942
34936
34932
34937
34938
34938
34944
34932
34932
34934
34948
34942
34932
34930
34942
34942
34940
34941
34944
34935
34948
34944
34956
34952
34940
34944
34940
34960
34938
34938
34942
34948
34956
34944
34948
34958
34951
34957
34952
34954
34952
34961
34957
34967
34949
34954
34964
34967
34964
34960
34964
34960
34964
34967
34968
34964
34978
34973
34972
34972
34974
34980
34980
34977
34972
34976
34976
34976
34974
34972
34972
34976
34978
34980
34980
34974
34977
34980
34984
34980
34978
34978
34976
34986
35000
34980
34982
34978
34980
34980
34980
34988
34984
34984
34988
34980
34988
34988
34984
34985
34984
34994
34988
34992
34982
34989
34988
34988
34986
34984
34996
34985
34990
34998
34994
34996
34984
34996
35000
35002
34992
34990
34992
35000
34996
34996
34992
34986
34988
34989
34992
34992
34990
34997
34984
34988
34986
34998
34985
35004
34994
34998
35000
34992
34996
34996
34988
34987
34992
34990
34986
34990
34987
34984
34980
34984
34988
34996
34992
34992
34994
34984
34988
34988
34988
34996
34996
34996
34993
34988
34985
34993
34996
34994
34996
34996
35000
34988
35000
35004
35000
35002
34999
35000
34996
34993
34998
35000
35004
35000
34999
35008
34984
34996
35001
34998
35000
35008
35000
35002
35002
35000
35004
34989
34993
34994
34999
34997
34996
34981
34996
34991
34992
34998
34993
34996
34991
34984
34984
35004
34996
34996
34992
34988
34990
34988
34996
34980
34980
34992
34994
34988
34984
34984
34984
34988
34990
34988
34990
34980
34978
34988
34988
34976
34980
34976
34982
34986
34981
34974
34972
34974
34975
34980
34980
34980
34976
34980
34976
34982
34976
34981
34987
34976
34980
34976
34981
34988
34981
34975
34974
34972
34982
34992
34973
34984
34977
34985
34988
34988
34984
34977
34980
34984
34984
34982
34976
34980
34981
34976
34975
34981
34988
34990
34986
34982
34977
34984
34977
34988
34988
34981
34993
34980
34980
34984
34985
34986
34987
34991
34984
34986
34989
34990
34980
34977
34992
34984
34980
34980
34982
34982
34984
34981
34979
34976
34968
34968
34972
34980
34968
34964
34968
34960
34964
34970
34964
34964
34948
34956
34960
34956
34956
34948
34954
34942
34940
34940
34940
34935
34940
34932
34924
34930
34926
34938
34928
34925
34925
34918
34919
34920
34919
34914
34910
34900
34912
34904
34892
34904
34892
34896
34889
34886
34884
34884
34880
34884
34880
34872
34876
34871
34880
34863
34864
34869
34868
34868
34861
34854
34848
34861
34852
34848
34844
34852
34846
34842
34836
34845
34846
34847
34824
34830
34840
34833
34827
34820
34816
34820
34814
34820
34818
34808
34818
34810
34804
34807
34800
34804
34800
34801
34797
34796
34790
34793
34790
34796
34790
34790
34792
34786
34788
34784
34776
34786
34784
34784
34780
34782
34776
34776
34780
34774
34773
34772
34764
34766
34764
34766
34772
34766
34769
34774
34760
34760
34758
34772
34764
34764
34766
34756
34766
34752
34765
34758
34760
34757
34752
34756
34756
34766
34764
34772
34756
34764
34760
34768
34768
34774
34776
34772
34772
34772
34766
34766
34766
34764
34768
34772
34776
34782
34776
34768
34772
34780
34778
34780
34784
34782
34784
34784
34780
34796
34780
34782
34788
34788
34788
34792
34780
34782
34790
34786
34789
34792
34791
34784
34792
34786
34786
34784
34792
34800
34791
34798
34792
34796
34797
34792
34789
34792
34796
34794
34808
34798
34804
34805
34808
34800
34800
34800
34796
34800
34808
34813
34809
34796
34800
34804
34808
34808
34798
34791
34801
34809
34818
34824
34816
34813
34820
34820
34820
34812
34817
34822
34830
34818
34816
34817
34828
34832
34836
34828
34840
34846
34844
34842
34845
34846
34846
34847
34852
34854
34852
34850
34849
34854
34858
34852
34860
34860
34856
34864
34864
34868
34866
34868
34876
34876
34876
34876
34880
34880
34872
34876
34881
34878
34884
34884
34884
34878
34880
34886
34885
34892
34886
34884
34903
34900
34893
34898
34892
34884
34900
34896
34892
34886
34895
34904
34892
34889
34894
34900
34886
34892
34904
34892
34892
34892
34888
34893
34892
34890
34896
34908
34892
34894
34884
34888
34895
34894
34894
34882
34884
34892
34892
34892
34888
34884
34892
34888
34884
34882
34892
34888
34889
34872
34870
34872
34874
34883
34880
34866
34870
34868
34880
34866
34870
34868
34858
34864
34860
34854
34856
34860
34852
34858
34850
34840
34844
34836
34837
34836
34834
34832
34831
34830
34835
34828
34822
34822
34815
34815
34821
34810
34806
34796
34804
34813
34807
34810
34806
34802
34797
34800
34800
34791
34794
34792
34796
34796
34788
34799
34790
34788
34796
34792
34784
34788
34782
34778
34782
34780
34784
34780
34776
34772
34772
34776
34784
34784
34770
34773
34774
34780
34772
34774
34770
34764
34764
34770
34766
34774
34772
34756
34764
34764
34767
34764
34764
34758
34758
34760
34754
34756
34750
34746
34752
34744
34752
34744
34752
34741
34750
34752
34758
34746
34740
34752
34753
34733
34750
34734
34742
34732
34736
34744
34738
34740
34735
34742
34732
34732
34738
34736
34738
34737
34736
34743
34734
34730
34730
34733
34744
34736
34732
34728
34728
34726
34738
34746
34732
34732
34734
34733
34733
34740
34744
34748
34740
34741
34736
34740
34734
34748
34732
34740
34740
34728
34735
34744
34744
34748
34740
34748
34744
34746
34752
34760
34754
34754
34742
34748
34757
34748
34744
34752
34750
34758
34762
34753
34760
34756
34760
34754
34760
34768
34754
34754
34760
34762
34764
34769
34752
34758
34765
34766
34756
34760
34760
34756
34767
34772
34774
34768
34772
34773
34772
34781
34772
34776
34780
34773
34780
34772
34772
34775
34768
34782
34780
34780
34777
34784
34785
34789
34784
34785
34790
34780
34788
34796
34792
34798
34792
34789
34802
34810
34806
34796
34800
34804
34816
34808
34808
34808
34822
34808
34808
34812
34812
34820
34817
34809
34820
34816
34823
34814
34818
34820
34824
34830
34834
34833
34832
34833
34836
34838
34832
34836
34836
34838
34836
34846
34842
34848
34842
34836
34844
34840
34836
34844
34842
34853
34860
34848
34844
34854
34844
34852
34852
34850
34856
34864
34858
34857
34855
34854
34857
34856
34860
34865
34862
34860
34864
34872
34872
34868
34876
34864
34876
34865
34876
34876
34872
34874
34874
34874
34880
34872
34876
34878
34877
34884
34884
34884
34873
34874
34892
34881
34880
34885
34889
34884
34881
34884
34885
34888
34881
34872
34876
34884
34880
34881
34884
34884
34882
34880
34886
34888
34886
34874
34888
34886
34886
34876
34876
34874
34882
34872
34880
34878
34880
34876
34880
34880
34874
34868
34872
34884
34871
34876
34872
34868
34868
34860
34858
34864
34860
34848
34852
34856
34860
34857
34846
34852
34848
34842
34850
34844
34854
34837
34834
34837
34836
34828
34820
34816
34816
34815
34817
34816
34810
34807
34813
34808
34805
34802
34796
34801
34792
34800
34800
34796
34786
34785
34786
34780
34782
34785
34788
34784
34772
34776
34788
34781
34786
34782
34777
34780
34776
34786
34766
34773
34776
34772
34772
34767
34776
34768
34773
34772
34772
34761
34772
34776
34770
34776
34776
34772
34764
34772
34772
34769
34772
34770
34758
34764
34772
34761
34766
34768
34776
34772
34777
34764
34768
34764
34772
34770
34772
34768
34774
34775
34776
34768
34772
34772
34778
34768
34772
34780
34780
34772
34778
34778
34778
34780
34788
34776
34780
34784
34784
34784
34784
34788
34789
34784
34780
34792
34796
34796
34798
34793
34785
34794
34801
34800
34797
34804
34810
34815
34808
34809
34800
34804
34812
34808
34814
34822
34820
34817
34820
34822
34836
34830
34830
34836
34832
34840
34849
34849
34842
34844
34844
34846
34850
34841
34836
34844
34852
34852
34860
34849
34860
34868
34860
34865
34862
34856
34868
34872
34872
34869
34860
34864
34872
34876
34873
34860
34864
34870
34876
34887
34880
34880
34879
34884
34888
34888
34882
34887
34888
34894
34892
34892
34891
34889
34894
34903
34893
34888
34896
34906
34912
34904
34905
34904
34916
34916
34912
34908
34896
34914
34912
34904
34904
34911
34916
34912
34904
34912
34916
34911
34908
34913
34912
34920
34910
34908
34913
34924
34906
34917
34910
34918
34908
34908
34916
34908
34920
34916
34916
34912
34913
34920
34924
34916
34915
34928
34924
34920
34916
34921
34918
34919
34930
34929
34920
34929
34932
34932
34932
34928
34920
34940
34938
34940
34946
34932
34934
34940
34948
34940
34937
34940
34948
34935
34948
34942
34944
34951
34948
34949
34948
34956
34956
34948
34949
34958
34948
34948
34941
34948
34949
34956
34948
34948
34948
34948
34944
34950
34945
34948
34944
34936
34933
34929
34940
34948
34932
34933
34928
34929
34932
34928
34912
34916
34918
34920
34912
34908
34912
34916
34908
34900
34905
34904
34904
34882
34888
34904
34896
34878
34885
34884
34880
34868
34871
34868
34870
34872
34868
34868
34865
34873
34864
34852
34860
34860
34864
34854
34858
34848
34852
34844
34845
34841
34842
34846
34839
34840
34846
34835
34837
34828
34836
34830
34830
34832
34829
34836
34830
34840
34828
34825
34816
34816
34823
34823
34822
34818
34819
34814
34820
34818
34828
34820
34817
34816
34812
34810
34804
34826
34812
34806
34801
34808
34804
34812
34804
34804
34812
34812
34806
34820
34812
34800
34812
34805
34812
34813
34805
34797
34799
34800
34796
34791
34784
34792
34800
34792
34792
34789
34799
34796
34790
34792
34796
34785
34786
34792
34789
34778
34784
34790
34786
34790
34782
34788
34792
34794
34780
34770
34780
34788
34784
34780
34788
34781
34788
34786
34784
34776
34788
34781
34774
34784
34785
34781
34766
34782
34786
34780
34776
34780
34780
34776
34774
34785
34789
34782
34778
34781
34780
34780
34772
34776
34776
34770
34772
34772
34776
34786
34776
34768
34772
34776
34770
34776
34768
34770
34772
34764
34769
34768
34768
34764
34767
34764
34756
34756
34764
34760
34752
34764
34764
34768
34764
34752
34756
34758
34756
34760
34748
34756
34757
34756
34756
34750
34756
34758
34762
34762
34756
34766
34756
34764
34756
34764
34760
34764
34760
34752
34760
34756
34768
34776
34764
34768
34760
34768
34772
34788
34772
34766
34782
34780
34786
34784
34782
34780
34788
34792
34781
34792
34796
34797
34796
34786
34796
34797
34804
34812
34810
34804
34812
34814
34824
34813
34807
34820
34820
34826
34817
34822
34824
34826
34824
34825
34824
34824
34836
34832
34840
34840
34836
34845
34828
34832
34836
34838
34832
34830
34823
34839
34822
34841
34836
34832
34820
34832
34836
34828
34830
34830
34840
34828
34829
34828
34816
34824
34823
34812
34828
34823
34818
34804
34810
34807
34810
34805
34820
34804
34804
34804
34792
34808
34796
34799
34790
34788
34788
34788
34788
34788
34782
34782
34773
34774
34780
34776
34774
34768
34760
34756
34769
34764
34764
34756
34748
34748
34742
34752
34746
34744
34750
34736
34728
34736
34738
34736
34728
34725
34719
34720
34716
34726
34722
34724
34716
34712
34710
34704
34708
34710
34712
34704
34700
34692
34690
34702
34700
34688
34682
34684
34684
34688
34688
34684
34680
34672
34669
34672
34664
34670
34660
34661
34660
34662
34664
34662
34652
34652
34652
34646
34647
34645
34645
34646
34632
34632
34630
34636
34624
34623
34620
34620
34620
34612
34608
34614
34600
34604
34596
34596
34592
34596
34588
34572
34586
34590
34582
34572
34561
34564
34564
34564
34559
34553
34556
34548
34556
34546
34556
34540
34548
34544
34544
34550
34536
34535
34533
34528
34526
34520
34518
34524
34528
34532
34522
34529
34518
34520
34532
34530
34528
34528
34510
34516
34518
34520
34526
34532
34514
34514
34508
34524
34525
34520
34518
34520
34519
34516
34518
34530
34520
34516
34508
34518
34528
34518
34520
34516
34520
34518
34514
34520
34516
34518
34505
34516
34516
34520
34508
34516
34512
34506
34516
34512
34507
34512
34508
34516
34506
34501
34492
34486
34492
34504
34492
34489
34488
34488
34482
34478
34488
34485
34480
34472
34456
34456
34468
34462
34458
34439
34446
34439
34440
34436
34440
34428
34432
34424
34416
34422
34423
34423
34414
34416
34400
34406
34411
34408
34404
34404
34408
34394
34396
34396
34392
34386
34400
34401
34408
34389
34396
34405
34412
34402
34408
34396
34405
34408
34413
34415
34404
34406
34420
34424
34420
34415
34421
34428
34428
34436
34439
34436
34444
34456
34454
34461
34449
34444
34462
34456
34468
34479
34468
34468
34466
34480
34476
34484
34486
34488
34486
34489
34493
34496
34500
34509
34508
34508
34504
34508
34506
34508
34516
34516
34532
34520
34524
34517
34524
34528
34532
34536
34532
34532
34534
34532
34540
34535
34542
34542
34540
34527
34537
34544
34544
34537
34544
34548
34540
34541
34556
34544
34557
34554
34553
34548
34564
34564
34560
34556
34552
34549
34560
34552
34558
34572
34564
34553
34557
34556
34556
34556
34560
34564
34568
34570
34552
34565
34552
34558
34558
34552
34564
34549
34558
34555
34560
34549
34552
34552
34544
34550
34554
34544
34537
34548
34538
34536
34540
34533
34528
34524
34524
34529
34518
34520
34517
34520
34524
34517
34514
34512
34512
34500
34506
34512
34516
34500
34494
34500
34506
34492
34497
34492
34492
34500
34494
34498
34494
34502
34496
34486
34488
34496
34488
34490
34481
34484
34481
34480
34480
34468
34472
34472
34476
34469
34466
34468
34472
34476
34472
34469
34464
34468
34472
34462
34460
34452
34456
34464
34453
34456
34452
34452
34456
34452
34452
34452
34444
34442
34441
34450
34444
34440
34434
34436
34421
34428
34422
34430
34436
34418
34422
34416
34420
34420
34409
34404
34404
34411
34408
34396
34408
34401
34400
34396
34389
34392
34389
34392
34384
34380
34373
34384
34384
34372
34372
34380
34375
34374
34376
34369
34376
34369
34369
34368
34376
34364
34360
34364
34364
34358
34344
34356
34352
34364
34350
34352
34350
34351
34358
34358
34353
34342
34348
34346
34350
34340
34344
34340
34332
34329
34331
34346
34332
34327
34324
34332
34332
34319
34324
34320
34314
34324
34316
34311
34300
34317
34311
34300
34292
34302
34288
34287
34285
34281
34281
34276
34266
34268
34272
34260
34250
34252
34256
34239
34230
34232
34229
34228
34228
34214
34207
34204
34204
34196
34196
34184
34180
34182
34176
34164
34151
34156
34160
34152
34144
34135
34120
34132
34118
34113
34097
34108
34102
34093
34090
34080
34088
34081
34068
34060
34054
34052
34048
34036
34023
34022
34025
34020
34020
34000
33992
33990
33996
33988
33980
33972
33957
33960
33948
33944
33944
33940
33928
33917
33913
33904
33896
33888
33884
33868
33868
33868
33852
33849
33836
33836
33828
33824
33816
33804
33800
33794
33788
33774
33760
33766
33753
33748
33740
33734
33736
33720
33704
33701
33700
33694
33688
33688
33673
33676
33663
33650
33648
33641
33636
33636
33621
33618
33624
33604
33600
33592
33588
33589
33585
33568
33577
33568
33556
33548
33543
33544
33526
33524
33524
33518
33512
33504
33496
33492
33492
33480
33471
33472
33476
33464
33456
33452
33446
33438
33433
33422
33420
33420
33412
33391
33391
33380
33372
33372
33364
33354
33340
33348
33336
33316
33311
33300
33302
33300
33290
33268
33268
33260
33248
33240
33228
33212
33216
33206
33196
33180
33182
33172
33166
33146
33144
33127
33126
33126
33118
33096
33094
33088
33073
33067
33060
33051
33038
33032
33032
33025
33008
32996
32997
32997
32992
32980
32974
32972
32962
32952
32954
32952
32942
32938
32932
32932
32926
32916
32905
32912
32901
32908
32892
32885
32887
32890
32880
32885
32872
32868
32864
32860
32856
32860
32844
32848
32842
32842
32842
32832
32835
32822
32830
32833
32823
32820
32818
32821
32815
32805
32806
32808
32806
32796
32796
32799
32789
32780
32778
32780
32784
32782
32770
32769
32782
32772
32760
32764
32758
32762
32750
32759
32754
32739
32746
32744
32740
32736
32732
32740
32732
32722
32720
32730
32736
32728
32724
32728
32728
32722
32708
32714
32715
32713
32700
32711
32708
32694
32690
32692
32698
32692
32695
32700
32698
32696
32705
32698
32704
32700
32694
32692
32690
32695
32700
32700
32688
32708
32702
32696
32698
32708
32702
32716
32700
32708
32710
32716
32720
32712
32726
32716
32728
32722
32734
32733
32732
32736
32741
32748
32748
32774
32774
32772
32772
32784
32780
32792
32792
32808
32804
32810
32812
32816
32823
32817
32832
32826
32840
32844
32852
32845
32860
32862
32861
32868
32872
32876
32890
32876
32886
32884
32886
32888
32892
32894
32893
32904
32900
32916
32903
32912
32910
32924
32920
32914
32924
32932
32926
32932
32928
32941
32938
32936
32934
32936
32940
32940
32940
32948
32944
32952
32956
32964
32956
32966
32970
32972
32965
32964
32991
32976
32980
32992
32988
33000
33004
32999
33002
33021
33022
33024
33022
33040
33052
33052
33060
33044
33064
33072
33082
33092
33084
33100
33111
33108
33108
33122
33132
33138
33150
33144
33156
33174
33173
33186
33192
33196
33212
33212
33214
33220
33230
33236
33242
33250
33264
33268
33268
33264
33278
33292
33292
33294
33300
33317
33320
33318
33328
33336
33346
33340
33348
33348
33364
33352
33376
33372
33376
33392
33396
33398
33402
33414
33422
33430
33436
33444
33440
33462
33472
33476
33474
33488
33500
33508
33521
33524
33536
33550
33552
33560
33566
33573
33592
33596
33605
33614
33625
33634
33634
33644
33657
33664
33660
33670
33684
33700
33700
33703
33714
33728
33728
33736
33735
33752
33762
33760
33774
33784
33790
33797
33796
33809
33812
33825
33840
33848
33856
33866
33881
33884
33895
33924
33936
33940
33952
33968
33988
33996
34012
34032
34033
34065
34079
34096
34114
34116
34140
34156
34172
34204
34212
34234
34248
34262
34276
34292
34316
34334
34349
34368
34380
34396
34416
34438
34452
34460
34482
34496
34521
34536
34541
34556
34572
34596
34614
34616
34638
34654
34662
34684
34696
34702
34716
34740
34752
34750
34782
34788
34790
34812
34828
34844
34852
34857
34880
34884
34900
34908
34918
34932
34950
34956
34958
34981
34991
34992
35004
35016
35024
35040
35048
35056
35072
35076
35090
35108
35106
35112
35132
35138
35142
35160
35167
35176
35188
35188
35195
35205
35220
35220
35240
35238
35245
35249
35252
35272
35284
35280
35284
35292
35296
35306
35305
35302
35308
35324
35324
35322
35336
35340
35340
35358
35344
35356
35358
35366
35364
35358
35360
35361
35364
35374
35370
35380
35377
35372
35374
35370
35384
35382
35384
35380
35380
35386
35384
35388
35380
35388
35388
35396
35386
35388
35386
35388
35396
35393
35392
35391
35392
35398
35400
35400
35412
35399
35401
35400
35404
35404
35408
35418
35412
35404
35410
35416
35418
35420
35418
35424
35428
35420
35430
35430
35431
35432
35434
35434
35445
35442
35428
35452
35444
35440
35452
35456
35445
35444
35452
35458
35460
35460
35464
35460
35468
35476
35470
35468
35465
35473
35471
35482
35484
35472
35484
35476
35488
35484
35484
35494
35496
35494
35496
35508
35513
35516
35512
35516
35520
35520
35526
35516
35536
35540
35534
35540
35540
35545
35544
35552
35548
35556
35560
35574
35561
35568
35580
35572
35580
35572
35588
35580
35588
35580
35577
35584
35584
35584
35584
35586
35577
35594
35596
35599
35581
35588
35580
35592
35583
35578
35578
35573
35578
35568
35564
35552
35554
35556
35554
35536
35536
35524
35525
35529
35516
35505
35502
35490
35494
35488
35476
35476
35468
35460
35447
35448
35440
35431
35424
35412
35414
35409
35414
35390
35388
35384
35390
35376
35361
35354
35357
35348
35336
35340
35327
35320
35308
35312
35316
35296
35300
35304
35288
35292
35280
35276
35266
35264
35268
35262
35248
35244
35250
35236
35228
35228
35222
35216
35208
35216
35212
35201
35200
35204
35206
35194
35196
35194
35204
35188
35190
35180
35194
35190
35184
35184
35188
35180
35182
35192
35188
35189
35188
35196
35198
35192
35200
35204
35207
35208
35223
35216
35220
35230
35224
35236
35244
35252
35262
35258
35274
35276
35296
35290
35300
35310
35319
35332
35332
35349
35357
35364
35378
35384
35392
35404
35425
35432
35438
35458
35462
35484
35478
35509
35508
35529
35536
35550
35558
35582
35570
35598
35608
35612
35624
35629
35652
35656
35668
35682
35692
35692
35712
35719
35724
35728
35745
35744
35752
35764
35756
35768
35773
35782
35784
35792
35798
35796
35804
35808
35812
35815
35816
35822
35820
35828
35828
35828
35817
35820
35836
35830
35828
35824
35834
35826
35824
35828
35828
35822
35824
35818
35822
35812
35816
35808
35820
35812
35816
35796
35808
35800
35804
35791
35804
35776
35790
35781
35781
35776
35782
35774
35776
35774
35759
35756
35760
35754
35748
35742
35744
35744
35732
35722
35720
35725
35722
35724
35714
35712
35712
35716
35700
35708
35716
35708
35702
35705
35704
35708
35701
35693
35694
35684
35688
35694
35687
35692
35686
35700
35692
35687
35697
35694
35694
35680
35695
35701
35703
35681
35692
35688
35692
35692
35680
35686
35694
35692
35690
35687
35693
35686
35693
35686
35682
35684
35688
35692
35684
35685
35684
35685
35688
35682
35670
35680
35670
35668
35668
35668
35665
35668
35668
35662
35648
35658
35652
35650
35640
35644
35630
35644
35616
35628
35621
35620
35606
35598
35601
35596
35596
35589
35592
35590
35576
35576
35572
35568
35552
35559
35556
35552
35544
35540
35532
35520
35524
35520
35521
35516
35516
35505
35505
35492
35496
35486
35488
35476
35476
35468
35460
35460
35454
35460
35445
35444
35436
35429
35424
35422
35414
35406
35412
35396
35397
35397
35400
35385
35388
35388
35380
35376
35360
35356
35356
35346
35353
35350
35336
35335
35344
35332
35332
35318
35316
35316
35312
35304
35310
35301
35311
35294
35292
35282
35284
35286
35292
35284
35280
35272
35280
35270
35268
35262
35262
35264
35260
35260
35254
35254
35252
35242
35240
35244
35244
35234
35226
35232
35225
35228
35220
35220
35213
35220
35204
35206
35201
35209
35200
35200
35188
35189
35182
35177
35172
35166
35160
35160
35152
35140
35140
35148
35134
35134
35124
35124
35124
35124
35108
35104
35102
35096
35080
35085
35077
35064
35060
35056
35052
35048
35050
35041
35028
35032
35028
35008
35012
35009
34998
34986
34993
34988
34984
34977
34966
34958
34948
34944
34948
34943
34940
34940
34940
34926
34924
34922
34916
34914
34908
34904
34904
34893
34888
34887
34884
34874
34884
34878
34876
34874
34856
34866
34864
34858
34857
34848
34848
34856
34852
34842
34844
34840
34836
34836
34830
34832
34830
34828
34812
34832
34820
34820
34816
34820
34820
34815
34822
34824
34828
34816
34816
34816
34815
34807
34817
34814
34812
34805
34820
34806
34812
34814
34808
34816
34820
34815
34815
34814
34814
34820
34820
34816
34820
34808
34822
34820
34822
34814
34816
34814
34808
34814
34824
34820
34824
34828
34820
34828
34824
34808
34830
34830
34832
34828
34823
34828
34828
34820
34830
34815
34820
34832
34817
34820
34814
34816
34820
34816
34824
34823
34812
34812
34804
34812
34812
34804
34814
34808
34808
34820
34808
34810
34804
34808
34812
34804
34804
34804
34801
34808
34796
34792
34799
34798
34805
34804
34796
34798
34788
34796
34791
34796
34800
34814
34796
34790
34792
34800
34796
34796
34780
34794
34776
34788
34778
34786
34776
34781
34780
34788
34776
34784
34772
34782
34768
34780
34780
34774
34769
34776
34772
34772
34768
34764
34766
34762
34764
34754
34753
34756
34748
34750
34757
34758
34750
34744
34740
34748
34742
34752
34736
34740
34737
34736
34740
34732
34732
34737
34733
34732
34732
34736
34741
34740
34729
34734
34732
34728
34732
34724
34728
34732
34734
34732
34717
34724
34716
34718
34727
34730
34726
34719
34724
34728
34734
34732
34730
34721
34724
34728
34720
34725
34720
34718
34712
34721
34725
34716
34719
34712
34718
34724
34722
34718
34708
34708
34716
34716
34732
34720
34716
34710
34710
34720
34714
34710
34709
34717
34712
34721
34716
34718
34708
34713
34724
34724
34721
34718
34726
34732
34721
34720
34728
34721
34728
34718
34724
34730
34724
34732
34724
34744
34732
34730
34730
34741
34736
34752
34741
34745
34741
34752
34740
34748
34744
34756
34752
34750
34750
34751
34760
34751
34753
34760
34758
34765
34754
34756
34756
34764
34758
34759
34762
34766
34764
34764
34764
34762
34772
34754
34766
34769
34776
34778
34776
34772
34774
34772
34784
34774
34773
34784
34784
34776
34775
34784
34788
34790
34785
34784
34790
34792
34784
34796
34796
34796
34798
34802
34804
34800
34813
34804
34804
34802
34808
34812
34820
34807
34822
34820
34828
34824
34833
34832
34829
34836
34832
34832
34837
34844
34852
34840
34852
34842
34852
34848
34844
34845
34862
34852
34846
34856
34853
34860
34848
34853
34861
34861
34874
34860
34856
34852
34852
34861
34858
34852
34852
34850
34862
34854
34864
34858
34860
34860
34852
34852
34846
34856
34857
34840
34840
34836
34847
34836
34824
34828
34838
34831
34831
34830
34836
34828
34823
34820
34833
34831
34823
34820
34819
34828
34820
34814
34808
34808
34807
34812
34806
34804
34810
34808
34802
34812
34812
34807
34804
34806
34800
34812
34808
34808
34812
34822
34808
34812
34814
34812
34797
34804
34808
34808
34796
34809
34805
34806
34798
34814
34823
34810
34812
34822
34814
34812
34812
34812
34820
34808
34814
34814
34828
34821
34820
34821
34825
34828
34823
34826
34836
34828
34842
34833
34828
34832
34844
34844
34841
34840
34840
34850
34842
34852
34858
34860
34846
34852
34856
34860
34868
34857
34863
34849
34858
34859
34856
34856
34862
34868
34864
34860
34868
34864
34878
34871
34870
34864
34862
34856
34870
34868
34868
34860
34868
34870
34862
34854
34868
34854
34869
34854
34862
34856
34860
34856
34856
34850
34852
34848
34844
34854
34842
34842
34832
34847
34847
34840
34831
34832
34844
34837
34836
34828
34836
34828
34828
34838
34831
34836
34828
34840
34836
34832
34828
34828
34828
34828
34832
34820
34828
34828
34833
34822
34823
34826
34819
34828
34832
34836
34832
34833
34832
34821
34828
34830
34828
34820
34828
34822
34822
34828
34816
34822
34829
34832
34824
34824
34830
34830
34828
34823
34830
34836
34824
34822
34814
34822
34823
34812
34812
34816
34817
34820
34816
34812
34816
34816
34823
34812
34815
34818
34804
34820
34816
34812
34812
34812
34814
34804
34798
34800
34812
34796
34806
34798
34812
34812
34796
34802
34800
34804
34812
34804
34798
34797
34814
34804
34804
34792
34802
34796
34802
34788
34802
34798
34808
34794
34786
34796
34806
34802
34800
34804
34798
34796
34789
34788
34800
34796
34791
34790
34786
34796
34790
34796
34797
34784
34788
34785
34788
34782
34784
34784
34788
34788
34786
34773
34768
34778
34784
34773
34772
34760
34764
34768
34772
34760
34756
34761
34754
34759
34750
34748
34743
34745
34744
34736
34740
34737
34740
34732
34726
34728
34721
34720
34724
34735
34720
34718
34708
34712
34705
34700
34706
34705
34686
34684
34693
34696
34682
34679
34684
34680
34672
34664
34670
34666
34668
34676
34663
34660
34659
34656
34668
34660
34654
34652
34650
34650
34644
34644
34644
34644
34640
34632
34648
34636
34640
34637
34637
34633
34629
34638
34632
34632
34628
34620
34622
34632
34624
34624
34624
34620
34628
34620
34628
34618
34628
34620
34624
34622
34624
34621
34620
34610
34616
34622
34620
34622
34616
34607
34616
34624
34618
34624
34625
34618
34622
34623
34629
34630
34625
34615
34619
34613
34628
34630
34628
34620
34615
34616
34620
34628
34628
34626
34624
34624
34633
34632
34616
34622
34628
34632
34628
34630
34620
34620
34628
34630
34626
34622
34616
34621
34628
34624
34612
34625
34624
34620
34612
34607
34612
34622
34610
34602
34605
34596
34612
34604
34604
34596
34593
34594
34602
34596
34592
34592
34593
34602
34590
34584
34580
34582
34580
34582
34570
34576
34575
34572
34566
34565
34569
34566
34564
34568
34560
34568
34558
34556
34554
34556
34562
34554
34550
34552
34544
34560
34542
34540
34542
34552
34536
34536
34534
34544
34544
34540
34532
34540
34532
34524
34528
34530
34533
34528
34521
34522
34518
34524
34524
34520
34518
34516
34516
34518
34512
34508
34508
34518
34509
34500
34512
34502
34500
34498
34500
34502
34504
34500
34496
34496
34502
34498
34496
34484
34490
34496
34495
34494
34489
34498
34492
34496
34488
34488
34486
34481
34484
34472
34476
34486
34481
34486
34477
34488
34473
34476
34480
34484
34482
34478
34472
34476
34471
34460
34462
34471
34476
34469
34464
34460
34464
34465
34468
34469
34471
34458
34460
34476
34472
34477
34474
34469
34465
34468
34468
34468
34476
34468
34469
34468
34468
34484
34476
34470
34484
34468
34477
34481
34488
34474
34495
34484
34492
34486
34492
34484
34488
34500
34492
34494
34485
34484
34494
34500
34492
34492
34500
34504
34511
34511
34510
34504
34500
34512
34512
34518
34524
34508
34512
34508
34517
34508
34513
34518
34518
34512
34512
34522
34520
34518
34520
34520
34510
34520
34520
34524
34532
34529
34512
34516
34521
34532
34524
34524
34524
34529
34524
34532
34528
34526
34528
34524
34530
34532
34532
34524
34516
34532
34528
34532
34540
34532
34526
34540
34536
34540
34532
34550
34537
34540
34542
34540
34536
34540
34540
34532
34530
34533
34536
34534
34540
34537
34535
34538
34532
34538
34543
34544
34536
34534
34528
34532
34532
34534
34532
34528
34520
34524
34516
34524
34524
34524
34522
34520
34517
34524
34524
34524
34516
34516
34517
34520
34512
34508
34516
34498
34500
34493
34502
34510
34513
34502
34504
34496
34496
34494
34508
34500
34500
34500
34492
34492
34484
34498
34492
34492
34490
34500
34484
34494
34504
34492
34500
34487
34488
34488
34494
34495
34496
34485
34484
34480
34488
34492
34496
34484
34480
34476
34477
34480
34479
34476
34470
34478
34477
34470
34479
34476
34468
34480
34469
34464
34468
34472
34468
34473
34468
34466
34460
34460
34468
34466
34468
34458
34460
34460
34458
34461
34468
34474
34470
34466
34464
34453
34457
34462
34466
34462
34454
34454
34460
34468
34474
34458
34466
34458
34460
34468
34476
34458
34460
34464
34460
34464
34466
34462
34456
34458
34468
34465
34464
34457
34460
34464
34465
34468
34464
34460
34458
34464
34466
34472
34468
34477
34464
34464
34457
34469
34468
34470
34468
34464
34468
34467
34476
34472
34476
34468
34480
34476
34464
34476
34474
34486
34468
34471
34484
34476
34473
34476
34472
34486
34476
34476
34490
34474
34480
34488
34486
34486
34481
34485
34486
34493
34490
34485
34486
34480
34492
34493
34480
34488
34492
34492
34490
34500
34498
34490
34492
34498
34489
34480
34492
34496
34492
34496
34492
34492
34494
34484
34488
34494
34500
34500
34494
34502
34493
34496
34490
34491
34492
34488
34493
34496
34492
34490
34496
34486
34494
34493
34485
34492
34484
34490
34494
34486
34490
34488
34477
34479
34487
34488
34482
34480
34476
34476
34474
34476
34476
34476
34479
34466
34476
34482
34472
34473
34476
34473
34475
34464
34478
34476
34474
34484
34472
34470
34469
34470
34480
34470
34458
34472
34469
34476
34476
34461
34468
34469
34469
34476
34471
34468
34460
34464
34468
34458
34464
34462
34454
34460
34460
34454
34462
34464
34456
34454
34449
34454
34452
34464
34448
34456
34452
34452
34446
34444
34450
34448
34452
34448
34444
34440
34444
34440
34442
34452
34436
34452
34444
34444
34446
34444
34446
34432
34444
34444
34442
34436
34428
34446
34440
34440
34440
34432
34442
34436
34440
34432
34432
34433
34430
34436
34437
34438
34436
34433
34436
34438
34428
34436
34436
34436
34436
34448
34440
34444
34440
34448
34446
34446
34452
34454
34440
34448
34450
34456
34466
34468
34464
34464
34462
34465
34472
34472
34478
34482
34492
34500
34496
34494
34494
34494
34508
34508
34513
34510
34505
34516
34522
34521
34533
34541
34532
34538
34545
34548
34558
34560
34564
34556
34558
34564
34568
34580
34574
34580
34578
34588
34581
34580
34580
34597
34596
34596
34607
34610
34610
34610
34604
34608
34608
34624
34624
34620
34620
34618
34614
34615
34616
34612
34612
34624
34632
34620
34623
34616
34627
34622
34630
34633
34628
34620
34616
34620
34628
34634
34632
34625
34629
34625
34628
34625
34620
34630
34638
34644
34636
34636
34630
34636
34644
34637
34645
34644
34649
34638
34640
34644
34654
34644
34639
34662
34656
34660
34653
34648
34664
34668
34672
34668
34670
34664
34668
34668
34668
34670
34682
34677
34688
34680
34682
34684
34672
34690
34696
34688
34692
34692
34700
34696
34688
34690
34692
34698
34700
34696
34700
34694
34692
34690
34692
34686
34708
34686
34696
34700
34702
34700
34704
34698
34693
34692
34700
34696
34692
34700
34700
34698
34704
34702
34692
34694
34700
34702
34702
34695
34704
34708
34704
34698
34692
34708
34700
34706
34710
34698
34700
34701
34712
34711
34700
34704
34708
34700
34712
34712
34708
34712
34708
34704
34710
34712
34708
34710
34712
34712
34708
34704
34710
34708
34706
34696
34705
34705
34705
34708
34716
34701
34703
34708
34709
34704
34712
34698
34694
34696
34692
34684
34688
34692
34696
34688
34693
34692
34700
34692
34680
34689
34692
34680
34678
34668
34672
34674
34671
34672
34669
34670
34668
34658
34659
34664
34652
34650
34656
34646
34651
34654
34649
34650
34640
34642
34632
34636
34629
34646
34638
34632
34626
34624
34628
34632
34616
34612
34614
34615
34612
34621
34622
34620
34616
34608
34602
34602
34613
34596
34615
34608
34601
34600
34600
34605
34608
34606
34612
34604
34616
34604
34600
34609
34610
34607
34615
34609
34614
34620
34620
34620
34622
34622
34624
34628
34634
34624
34632
34632
34644
34637
34648
34654
34644
34654
34646
34657
34660
34653
34660
34664
34660
34664
34662
34666
34668
34672
34681
34672
34676
34681
34676
34676
34684
34676
34680
34692
34687
34686
34686
34677
34680
34690
34685
34693
34692
34696
34688
34690
34704
34692
34700
34702
34700
34696
34694
34692
34696
34709
34701
34700
34702
34690
34700
34708
34714
34712
34700
34703
34704
34700
34709
34710
34696
34704
34696
34700
34698
34686
34692
34704
34692
34694
34694
34694
34698
34688
34684
34689
34688
34692
34684
34692
34688
34665
34669
34672
34684
34668
34660
34672
34660
34662
34657
34652
34652
34649
34648
34638
34651
34649
34640
34644
34622
34624
34620
34612
34620
34608
34609
34606
34608
34600
34592
34600
34598
34592
34588
34586
34575
34574
34574
34560
34566
34564
34554
34552
34564
34560
34540
34537
34538
34534
34534
34546
34544
34543
34532
34528
34540
34536
34540
34532
34524
34540
34536
34533
34528
34534
34522
34532
34534
34534
34528
34536
34540
34540
34544
34536
34541
34552
34557
34545
34552
34548
34554
34551
34548
34570
34559
34558
34554
34557
34572
34564
34568
34560
34566
34574
34574
34576
34581
34580
34584
34582
34568
34578
34588
34582
34572
34576
34580
34590
34580
34574
34582
34584
34576
34584
34577
34577
34582
34570
34570
34575
34568
34574
34572
34565
34564
34564
34572
34568
34570
34564
34556
34570
34572
34565
34569
34558
34558
34564
34568
34566
34544
34550
34557
34564
34551
34552
34548
34546
34548
34550
34544
34540
34536
34542
34538
34549
34538
34532
34528
34536
34526
34528
34530
34524
34512
34506
34506
34512
34517
34504
34510
34508
34496
34506
34500
34500
34497
34488
34486
34490
34492
34486
34470
34478
34478
34476
34476
34473
34466
34465
34464
34462
34466
34454
34452
34447
34442
34446
34444
34444
34432
34436
34434
34424
34421
34424
34412
34428
34416
34412
34412
34412
34412
34412
34420
34408
34413
34416
34412
34416
34404
34396
34409
34405
34412
34400
34396
34399
34408
34400
34396
34404
34404
34404
34404
34408
34400
34400
34398
34400
34409
34406
34394
34394
34400
34406
34408
34396
34404
34394
34400
34401
34408
34408
34406
34398
34400
34404
34408
34405
34404
34402
34398
34404
34404
34402
34397
34401
34404
34408
34408
34400
34398
34394
34406
34404
34404
34392
34394
34396
34384
34384
34392
34390
34388
34388
34382
34384
34388
34384
34390
34378
34386
34380
34376
34380
34382
34385
34376
34374
34388
34382
34386
34380
34385
34380
34380
34381
34376
34380
34384
34386
34388
34385
34390
34390
34400
34408
34404
34404
34406
34403
34405
34406
34402
34414
34416
34421
34424
34421
34430
34420
34444
34436
34444
34434
34440
34440
34450
34456
34460
34464
34460
34456
34458
34457
34465
34470
34474
34484
34485
34490
34486
34488
34496
34500
34500
34507
34512
34502
34504
34509
34504
34512
34520
34524
34524
34516
34520
34532
34533
34532
34532
34536
34550
34533
34552
34552
34548
34542
34543
34544
34550
34564
34556
34564
34559
34548
34556
34574
34568
34574
34574
34560
34564
34558
34576
34568
34576
34580
34570
34572
34576
34576
34574
34570
34572
34576
34578
34580
34574
34576
34577
34582
34583
34576
34568
34568
34584
34574
34568
34572
34564
34576
34567
34564
34552
34556
34551
34564
34572
34560
34556
34547
34538
34552
34550
34548
34530
34536
34533
34536
34528
34524
34520
34528
34512
34506
34508
34512
34516
34504
34500
34500
34496
34502
34496
34486
34494
34485
34485
34468
34470
34471
34468
34466
34455
34460
34452
34460
34446
34444
34444
34444
34436
34424
34425
34433
34426
34420
34414
34417
34405
34396
34408
34404
34396
34404
34396
34386
34388
34390
34388
34378
34374
34374
34372
34373
34364
34361
34356
34360
34348
34360
34340
34346
34338
34344
34340
34344
34338
34340
34324
34330
34332
34336
34329
34324
34317
34314
34316
34311
34312
34312
34316
34305
34308
34300
34292
34294
34300
34295
34300
34292
34282
34288
34284
34280
34288
34284
34280
34274
34276
34284
34278
34283
34268
34272
34268
34277
34282
34265
34273
34278
34278
34268
34264
34264
34270
34270
34279
34265
34262
34260
34262
34266
34261
34254
34268
34258
34259
34267
34262
34260
34260
34262
34256
34260
34252
34260
34249
34254
34240
34244
34256
34232
34246
34240
34232
34244
34252
34238
34248
34232
34240
34245
34244
34240
34240
34240
34232
34237
34232
34228
34232
34234
34226
34220
34232
34230
34228
34221
34225
34228
34228
34224
34224
34228
34222
34223
34224
34220
34226
34217
34216
34206
34207
34217
34222
34213
34208
34208
34202
34216
34212
34206
34204
34199
34212
34192
34196
34196
34192
34186
34188
34188
34190
34182
34172
34189
34180
34180
34178
34172
34176
34172
34174
34176
34176
34174
34160
34169
34166
34164
34172
34160
34160
34156
34168
34156
34164
34172
34164
34170
34172
34160
34167
34164
34160
34177
34161
34160
34164
34161
34166
34156
34166
34169
34162
34169
34170
34165
34167
34166
34173
34180
34172
34173
34168
34176
34174
34172
34161
34172
34180
34174
34170
34167
34175
34172
34174
34164
34164
34183
34177
34174
34164
34170
34176
34165
34161
34160
34168
34168
34156
34162
34164
34166
34172
34164
34158
34162
34158
34158
34166
34156
34168
34158
34156
34152
34152
34144
34150
34149
34154
34145
34143
34150
34148
34140
34136
34148
34150
34156
34148
34152
34149
34164
34148
34156
34156
34152
34166
34164
34172
34156
34168
34168
34180
34180
34177
34188
34185
34184
34190
34200
34196
34197
34205
34212
34220
34215
34216
34228
34220
34224
34240
34234
34244
34236
34252
34260
34248
34269
34271
34268
34280
34280
34284
34286
34284
34297
34294
34300
34298
34306
34308
34316
34323
34320
34332
34329
34338
34332
34360
34340
34349
34354
34364
34356
34353
34372
34368
34380
34366
34372
34377
34395
34394
34388
34392
34400
34409
34408
34408
34416
34420
34416
34432
34428
34430
34438
34432
34440
34444
34440
34443
34448
34450
34456
34462
34456
34464
34468
34472
34471
34486
34472
34484
34488
34484
34492
34496
34500
34496
34498
34506
34509
34520
34516
34516
34520
34514
34532
34516
34528
34528
34532
34532
34536
34528
34540
34536
34550
34537
34532
34542
34544
34557
34552
34546
34547
34556
34564
34558
34544
34556
34558
34557
34552
34552
34564
34561
34564
34562
34556
34564
34564
34560
34562
34564
34568
34572
34568
34572
34578
34580
34580
34572
34567
34572
34586
34576
34568
34576
34578
34572
34580
34576
34580
34576
34580
34590
34583
34582
34578
34572
34576
34585
34580
34586
34584
34584
34572
34590
34586
34574
34580
34581
34577
34592
34582
34584
34580
34586
34588
34580
34577
34576
34576
34578
34576
34582
34576
34558
34564
34572
34566
34576
34572
34590
34574
34581
34578
34564
34564
34568
34572
34560
34572
34560
34569
34564
34556
34559
34568
34556
34556
34556
34556
34564
34556
34556
34560
34549
34550
34554
34557
34553
34556
34542
34542
34548
34558
34540
34549
34540
34549
34548
34540
34533
34540
34536
34536
34540
34536
34542
34540
34537
34525
34524
34522
34518
34524
34511
34520
34518
34510
34516
34508
34512
34504
34506
34500
34512
34512
34493
34496
34494
34500
34494
34500
34492
34480
34490
34492
34486
34480
34480
34484
34484
34485
34484
34480
34472
34484
34480
34484
34484
34472
34480
34471
34468
34468
34466
34474
34474
34472
34464
34464
34474
34470
34468
34464
34468
34464
34464
34477
34476
34465
34470
34461
34465
34460
34464
34460
34456
34456
34460
34464
34464
34464
34463
34452
34456
34464
34464
34458
34448
34460
34457
34468
34454
34456
34452
34452
34456
34462
34456
34452
34460
34456
34458
34464
34456
34452
34444
34462
34442
34452
34452
34452
34453
34448
34465
34452
34444
34452
34452
34460
34458
34454
34448
34456
34448
34452
34446
34448
34448
34456
34447
34436
34442
34444
34444
34452
34436
34438
34436
34436
34440
34438
34436
34436
34428
34433
34434
34436
34432
34436
34424
34421
34416
34422
34426
34426
34424
34416
34416
34420
34418
34424
34428
34428
34416
34420
34415
34415
34423
34417
34416
34412
34416
34420
34408
34412
34412
34412
34414
34414
34412
34413
34412
34415
34420
34412
34416
34412
34406
34413
34409
34412
34401
34416
34408
34412
34407
34420
34406
34420
34412
34412
34409
34420
34413
34426
34416
34420
34430
34423
34428
34422
34420
34428
34420
34430
34426
34420
34436
34429
34437
34440
34440
34440
34444
34436
34446
34456
34450
34460
34453
34446
34452
34455
34453
34464
34460
34472
34466
34468
34469
34482
34472
34472
34488
34480
34482
34484
34474
34490
34490
34488
34492
34478
34494
34498
34500
34502
34490
34502
34504
34504
34504
34504
34502
34504
34511
34504
34497
34508
34508
34504
34510
34504
34500
34496
34516
34500
34501
34507
34514
34516
34503
34532
34508
34512
34502
34510
34520
34508
34508
34516
34510
34511
34504
34508
34518
34504
34508
34506
34514
34516
34518
34514
34512
34516
34516
34510
34510
34517
34516
34512
34516
34522
34510
34512
34516
34520
34510
34522
34518
34510
34516
34520
34524
34512
34508
34516
34516
34520
34518
34519
34510
34516
34522
34524
34516
34520
34524
34516
34519
34530
34524
34524
34520
34512
34528
34535
34524
34526
34520
34520
34524
34530
34518
34537
34520
34524
34532
34528
34528
34517
34532
34534
34533
34540
34534
34532
34532
34532
34532
34532
34532
34522
34532
34532
34536
34526
34528
34527
34543
34540
34536
34529
34541
34542
34548
34546
34534
34542
34532
34536
34556
34536
34526
34538
34548
34544
34540
34534
34550
34542
34545
34544
34540
34546
34552
34548
34545
34538
34544
34546
34536
34544
34551
34548
34545
34540
34544
34545
34548
34540
34552
34544
34544
34550
34544
34540
34548
34533
34550
34544
34551
34548
34542
34548
34544
34540
34544
34542
34544
34553
34556
34549
34558
34558
34564
34558
34554
34564
34556
34566
34560
34572
34562
34565
34564
34568
34580
34582
34588
34584
34585
34584
34588
34588
34594
34584
34589
34590
34588
34596
34581
34592
34596
34596
34597
34588
34600
34596
34596
34596
34588
34597
34592
34588
34600
34582
34586
34584
34585
34576
34580
34580
34574
34576
34568
34572
34568
34566
34568
34568
34561
34564
34564
34560
34564
34548
34558
34536
34548
34548
34536
34543
34532
34536
34520
34540
34532
34538
34519
34520
34514
34508
34520
34512
34516
34496
34506
34500
34502
34494
34498
34492
34496
34484
34484
34484
34477
34496
34471
34484
34480
34478
34484
34476
34476
34476
34470
34478
34468
34470
34462
34470
34476
34464
34468
34462
34481
34466
34478
34476
34470
34476
34473
34476
34476
34466
34476
34468
34469
34468
34476
34473
34469
34476
34460
34477
34473
34466
34476
34474
34478
34470
34476
34470
34468
34466
34470
34472
34469
34476
34464
34468
34468
34465
34466
34456
34464
34456
34452
34452
34452
34464
34452
34452
34440
34448
34446
34444
34446
34432
34437
34432
34434
34424
34425
34428
34428
34430
34420
34438
34408
34422
34408
34412
34410
34406
34404
34400
34404
34399
34388
34389
34396
34392
34386
34372
34388
34386
34382
34380
34374
34374
34380
34376
34365
34364
34364
34364
34350
34350
34356
34344
34348
34340
34336
34334
34340
34336
34324
34323
34324
34320
34320
34320
34313
34304
34308
34304
34301
34289
34285
34290
34277
34281
34277
34268
34272
34264
34260
34253
34260
34252
34249
34236
34236
34232
34234
34222
34225
34221
34216
34198
34200
34200
34188
34184
34180
34180
34172
34164
34168
34173
34164
34158
34144
34146
34146
34132
34128
34118
34116
34118
34116
34104
34096
34100
34100
34096
34084
34084
34080
34070
34069
34056
34064
34054
34056
34040
34052
34040
34041
34028
34020
34020
34020
34016
34010
34014
34016
34004
33994
33996
34006
33988
33984
33977
33978
33972
33958
33964
33956
33972
33944
33952
33934
33948
33928
33936
33916
33920
33924
33920
33919
33916
33904
33892
33877
33885
33886
33876
33869
33862
33860
33860
33854
33848
33836
33836
33839
33837
33824
33825
33823
33824
33816
33806
33798
33804
33785
33788
33782
33781
33781
33774
33772
33764
33772
33772
33764
33758
33758
33764
33766
33748
33756
33758
33748
33756
33732
33737
33740
33734
33740
33740
33732
33728
33728
33736
33732
33733
33741
33735
33742
33740
33740
33740
33730
33736
33740
33740
33728
33750
33742
33740
33745
33750
33756
33745
33764
33768
33760
33766
33764
33772
33774
33776
33780
33773
33788
33792
33790
33789
33798
33806
33809
33810
33808
33808
33816
33822
33832
33828
33837
33825
33842
33853
33856
33844
33852
33856
33858
33868
33868
33872
33870
33876
33880
33886
33895
33898
33908
33902
33918
33918
33920
33924
33928
33924
33934
33944
33934
33942
33946
33948
33960
33960
33964
33956
33964
33980
33982
33984
33987
33988
33998
33994
33994
33994
33998
34008
34014
34016
34020
34020
34017
34023
34028
34030
34032
34032
34038
34048
34040
34052
34058
34044
34058
34060
34058
34060
34064
34056
34061
34076
34074
34072
34086
34084
34084
34096
34094
34092
34094
34097
34104
34092
34106
34108
34104
34108
34108
34112
34120
34124
34126
34127
34136
34142
34136
34134
34144
34144
34144
34148
34160
34172
34158
34160
34168
34172
34175
34189
34184
34181
34184
34212
34212
34204
34204
34212
34225
34230
34228
34234
34246
34236
34244
34249
34258
34262
34256
34262
34276
34284
34276
34277
34296
34296
34308
34308
34316
34329
34324
34333
34332
34340
34345
34344
34344
34356
34356
34352
34360
34360
34366
34372
34388
34382
34382
34380
34390
34400
34400
34398
34400
34408
34408
34408
34414
34412
34408
34412
34413
34428
34424
34422
34428
34437
34444
34433
34436
34437
34437
34440
34436
34446
34454
34454
34452
34456
34452
34454
34468
34460
34464
34472
34468
34466
34472
34485
34482
34478
34478
34480
34496
34491
34497
34496
34488
34500
34496
34516
34508
34504
34500
34504
34512
34505
34506
34508
34514
34517
34510
34508
34512
34512
34521
34512
34508
34510
34511
34522
34504
34508
34512
34514
34513
34512
34504
34506
34498
34500
34500
34500
34498
34496
34492
34494
34490
34480
34472
34468
34472
34468
34462
34464
34464
34462
34457
34457
34456
34450
34448
34444
34444
34428
34430
34436
34432
34425
34430
34412
34420
34408
34414
34420
34412
34405
34394
34400
34400
34388
34401
34394
34382
34389
34370
34368
34372
34370
34360
34356
34353
34351
34358
34348
34338
34344
34343
34337
34338
34332
34328
34328
34324
34316
34318
34312
34316
34308
34314
34302
34296
34288
34292
34296
34296
34293
34286
34285
34292
34279
34276
34272
34276
34272
34264
34268
34262
34268
34260
34256
34259
34248
34257
34254
34246
34248
34252
34244
34248
34240
34242
34248
34246
34240
34240
34236
34242
34234
34229
34228
34229
34222
34230
34228
34224
34224
34228
34229
34226
34216
34216
34228
34223
34224
34223
34231
34218
34218
34218
34220
34218
34210
34222
34226
34218
34216
34212
34221
34225
34224
34212
34212
34216
34214
34204
34213
34222
34212
34212
34198
34204
34207
34204
34204
34201
34208
34212
34204
34204
34196
34208
34196
34188
34208
34197
34197
34192
34184
34190
34196
34188
34184
34188
34180
34188
34180
34178
34174
34184
34176
34164
34174
34176
34172
34172
34170
34166
34176
34172
34156
34156
34156
34162
34161
34158
34156
34149
34150
34152
34148
34152
34138
34153
34152
34151
34140
34144
34136
34140
34134
34140
34148
34136
34135
34145
34136
34132
34133
34140
34136
34132
34126
34124
34132
34126
34120
34126
34128
34126
34116
34130
34124
34116
34116
34112
34120
34124
34113
34114
34112
34128
34112
34112
34113
34124
34108
34108
34117
34108
34112
34114
34116
34116
34108
34110
34120
34120
34116
34110
34112
34112
34116
34112
34124
34111
34112
34112
34120
34116
34114
34124
34124
34132
34118
34117
34117
34126
34129
34120
34128
34124
34138
34130
34125
34128
34133
34138
34144
34134
34132
34134
34148
34136
34136
34146
34146
34148
34136
34140
34143
34156
34144
34140
34145
34148
34152
34156
34156
34148
34160
34170
34168
34164
34168
34164
34168
34168
34164
34176
34180
34184
34180
34180
34184
34188
34193
34196
34192
34202
34196
34200
34206
34204
34200
34212
34212
34216
34224
34224
34220
34225
34231
34232
34242
34237
34244
34232
34228
34245
34244
34258
34250
34247
34256
34269
34270
34258
34264
34268
34272
34276
34273
34272
34278
34284
34277
34276
34276
34292
34292
34296
34288
34293
34284
34296
34304
34294
34302
34301
34308
34312
34324
34308
34308
34304
34324
34320
34318
34316
34311
34316
34324
34320
34317
34324
34326
34328
34328
34321
34320
34321
34332
34328
34330
34324
34320
34319
34328
34324
34328
34322
34312
34316
34318
34332
34333
34324
34330
34316
34316
34316
34328
34326
34316
34318
34320
34324
34316
34311
34316
34320
34328
34326
34314
34312
34314
34320
34324
34312
34310
34316
34320
34316
34310
34304
34312
34308
34316
34312
34316
34308
34316
34304
34310
34312
34308
34300
34292
34304
34310
34308
34302
34296
34302
34296
34309
34294
34292
34293
34296
34298
34298
34288
34296
34300
34296
34292
34290
34288
34292
34294
34292
34289
34286
34292
34292
34284
34281
34276
34292
34287
34289
34290
34284
34285
34284
34284
34298
34286
34284
34276
34280
34288
34289
34284
34277
34288
34284
34288
34292
34277
34288
34288
34287
34277
34280
34288
34288
34288
34289
34292
34281
34289
34292
34289
34288
34292
34288
34296
34288
34294
34288
34288
34288
34304
34290
34286
34294
34300
34311
34293
34300
34300
34292
34304
34294
34304
34300
34300
34302
34298
34308
34308
34302
34296
34305
34308
34306
34296
34308
34300
34294
34296
34301
34298
34300
34300
34304
34286
34304
34288
34300
34292
34304
34300
34300
34287
34300
34296
34294
34301
34303
34290
34292
34300
34308
34298
34292
34292
34300
34297
34294
34300
34308
34300
34300
34300
34312
34308
34303
34304
34308
34304
34304
34307
34316
34308
34305
34310
34306
34312
34308
34308
34308
34318
34310
34308
34310
34320
34320
34308
34310
34308
34314
34320
34324
34310
34312
34310
34318
34308
34310
34305
34314
34314
34312
34322
34316
34308
34312
34314
34320
34310
34308
34308
34309
34308
34305
34292
34300
34308
34298
34302
34288
34285
34292
34296
34284
34274
34279
34296
34292
34286
34272
34269
34266
34282
34272
34274
34273
34274
34262
34262
34264
34266
34268
34252
34260
34258
34263
34254
34250
34244
34249
34250
34245
34240
34236
34242
34238
34238
34234
34230
34233
34236
34229
34220
34228
34230
34222
34220
34220
34216
34220
34216
34209
34212
34204
34212
34200
34198
34198
34204
34188
34196
34184
34197
34186
34185
34180
34188
34188
34176
34166
34164
34169
34164
34167
34156
34156
34152
34152
34156
34144
34140
34148
34132
34144
34132
34124
34128
34124
34122
34112
34112
34106
34112
34098
34092
34092
34096
34092
34086
34084
34078
34084
34080
34074
34072
34081
34080
34065
34068
34060
34064
34062
34054
34056
34063
34058
34046
34048
34048
34052
34056
34044
34044
34044
34036
34029
34042
34032
34032
34036
34016
34021
34018
34017
34005
34008
34004
34005
33996
34000
33996
33988
33996
33989
33991
33988
33985
33976
33968
33972
33974
33961
33958
33956
33956
33953
33936
33937
33945
33933
33932
33919
33924
33922
33924
33916
33902
33904
33904
33896
33884
33884
33892
33892
33892
33878
33868
33878
33869
33872
33868
33855
33856
33860
33868
33852
33852
33860
33848
33849
33840
33844
33850
33840
33836
33836
33840
33848
33832
33828
33836
33844
33836
33836
33829
33828
33830
33828
33824
33826
33832
33817
33824
33816
33817
33824
33814
33832
33822
33822
33820
33824
33824
33812
33805
33816
33812
33808
33806
33812
33804
33804
33804
33812
33806
33799
33797
33797
33789
33790
33788
33804
33800
33789
33780
33786
33780
33782
33774
33780
33781
33772
33761
33760
33761
33758
33750
33756
33758
33752
33753
33748
33748
33748
33740
33734
33743
33736
33734
33732
33724
33728
33726
33730
33720
33720
33712
33716
33708
33712
33716
33708
33701
33702
33700
33699
33702
33702
33692
33692
33671
33684
33682
33686
33684
33670
33666
33664
33668
33672
33666
33664
33664
33656
33660
33660
33647
33654
33652
33658
33652
33644
33638
33648
33644
33636
33633
33636
33628
33626
33632
33628
33620
33636
33628
33624
33614
33614
33613
33612
33616
33612
33608
33612
33616
33601
33602
33612
33602
33600
33600
33592
33604
33588
33588
33594
33584
33586
33582
33585
33583
33580
33586
33577
33582
33578
33574
33574
33572
33568
33584
33578
33572
33576
33572
33584
33595
33572
33577
33588
33588
33580
33580
33584
33582
33580
33582
33571
33580
33588
33596
33592
33592
33592
33592
33592
33598
33604
33604
33600
33604
33606
33600
33614
33615
33617
33604
33610
33624
33614
33626
33618
33632
33632
33632
33628
33638
33635
33644
33644
33636
33636
33634
33644
33648
33648
33638
33648
33644
33655
33658
33649
33656
33660
33658
33653
33658
33656
33656
33652
33657
33662
33662
33648
33656
33666
33648
33652
33648
33658
33653
33647
33646
33645
33642
33646
33640
33644
33646
33637
33628
33632
33638
33632
33620
33632
33616
33613
33614
33612
33608
33604
33614
33608
33606
33590
33598
33604
33592
33584
33584
33582
33592
33572
33578
33580
