RESPIRATION
32384
32408
32396
32392
32394
32413
32397
32406
32412
32423
32422
32409
32408
32420
32401
32412
32396
32406
32388
32381
32384
32384
32380
32384
32384
32384
32396
32392
32402
32400
32405
32400
32416
32398
32406
32396
32404
32393
32388
32384
32385
32380
32388
32382
32396
32385
32388
32398
32415
32412
32420
32410
32421
32404
32420
32404
32417
32392
32408
32388
32393
32389
32404
32392
32400
32404
32416
32412
32426
32421
32425
32424
32433
32432
32433
32412
32432
32410
32425
32404
32410
32405
32415
32416
32418
32420
32432
32436
32436
32448
32448
32456
32448
32453
32440
32447
32444
32446
32432
32437
32432
32431
32431
32434
32433
32439
32454
32454
32452
32454
32450
32473
32460
32478
32460
32462
32444
32450
32436
32454
32439
32442
32444
32456
32444
32454
32444
32452
32450
32463
32453
32470
32455
32469
32452
32460
32442
32449
32426
32444
32430
32428
32423
32428
32428
32436
32452
32429
32448
32440
32446
32452
32444
32454
32438
32449
32438
32432
32440
32416
32428
32420
32420
32428
32422
32432
32430
32431
32440
32448
32444
32462
32436
32452
32440
32438
32448
32424
32428
32428
32424
32428
32410
32434
32422
32432
32428
32422
32449
32437
32442
32452
32440
32452
32442
32436
32436
32430
32420
32426
32411
32420
32420
32410
32416
32426
32412
32429
32432
32428
32436
32442
32430
32428
32429
32417
32432
32415
32404
32408
32392
32391
32408
32396
32396
32404
32392
32404
32412
32412
32421
32409
32409
32414
32408
32400
32398
32388
32380
32376
32377
32372
32366
32381
32372
32373
32380
32384
32392
32394
32399
32401
32398
32406
32396
32388
32392
32380
32384
32376
32386
32376
32373
32376
32377
32360
32388
32380
32384
32377
32388
32384
32376
32374
32356
32348
32356
32340
32341
32313
32316
32320
32295
32300
32300
32290
32302
32292
32304
32300
32310
32300
32310
32300
32288
32296
32292
32287
32279
32280
32270
32272
32276
32273
32274
32270
32273
32279
32286
32278
32288
32285
32288
32276
32286
32272
32268
32260
32265
32248
32250
32238
32238
32236
32239
32236
32246
32244
32240
32241
32241
32248
32238
32234
32234
32226
32224
32216
32216
32216
32208
32192
32212
32196
32210
32200
32208
32220
32213
32224
32224
32224
32224
32222
32216
32212
32200
32208
32194
32196
32190
32184
32180
32178
32172
32193
32172
32182
32180
32192
32180
32180
32165
32168
32160
32161
32136
32132
32128
32116
32104
32097
32100
32083
32081
32074
32071
32060
32068
32060
32052
32060
32046
32036
32021
32012
32007
31980
31976
31966
31958
31942
31934
31928
31936
31912
31916
31908
31906
31900
31900
31886
31880
31874
31861
31856
31833
31840
31820
31808
31812
31789
31796
31784
31784
31784
31776
31778
31781
31776
31784
31768
31774
31772
31752
31759
31756
31742
31740
31728
31742
31718
31736
31730
31724
31737
31736
31752
31742
31751
31758
31764
31765
31759
31772
31764
31768
31772
31749
31772
31758
31776
31770
31774
31778
31786
31808
31805
31832
31834
31833
31844
31844
31864
31855
31866
31872
31864
31873
31870
31878
31872
31888
31900
31904
31921
31924
31940
31945
31964
31976
31981
31997
32004
32009
32004
32016
32008
32024
32008
32032
32028
32039
32037
32060
32064
32084
32078
32100
32104
32120
32126
32141
32132
32144
32153
32151
32148
32162
32160
32164
32169
32174
32188
32192
32208
32212
32236
32234
32256
32268
32280
32272
32294
32292
32305
32294
32306
32308
32305
32302
32324
32320
32328
32334
32346
32348
32366
32376
32380
32392
32389
32404
32400
32400
32408
32400
32392
32400
32394
32394
32396
32386
32404
32397
32418
32406
32420
32416
32436
32425
32434
32432
32432
32432
32420
32433
32415
32424
32408
32416
32396
32400
32404
32406
32405
32413
32405
32428
32412
32432
32420
32424
32415
32420
32405
32410
32392
32392
32388
32380
32388
32372
32384
32381
32376
32388
32383
32374
32388
32386
32392
32382
32393
32360
32376
32356
32369
32348
32344
32344
32322
32328
32318
32326
32316
32324
32321
32320
32328
32324
32316
32300
32304
32300
32292
32277
32272
32262
32252
32236
32236
32228
32223
32228
32212
32221
32197
32212
32199
32208
32189
32190
32174
32172
32151
32154
32126
32119
32100
32097
32080
32076
32060
32061
32042
32044
32028
32030
32022
32021
31992
32005
31969
31968
31948
31932
31913
31906
31880
31880
31848
31841
31828
31822
31816
31797
31797
31774
31772
31750
31762
31717
31724
31697
31680
31664
31653
31636
31620
31604
31588
31576
31564
31550
31538
31532
31524
31524
31508
31504
31488
31486
31456
31458
31436
31425
31406
31396
31377
31376
31348
31348
31333
31333
31309
31322
31302
31312
31292
31298
31288
31296
31260
31269
31244
31244
31220
31228
31192
31199
31182
31180
31165
31176
31152
31166
31148
31152
31144
31145
31144
31132
31132
31121
31108
31096
31093
31082
31076
31047
31060
31052
31056
31032
31046
31028
31041
31028
31036
31016
31032
31014
31014
30995
30996
30991
30968
30973
30944
30960
30932
30938
30922
30936
30916
30916
30920
30914
30926
30913
30917
30909
30898
30890
30884
30880
30856
30861
30834
30848
30816
30824
30805
30816
30800
30809
30804
30808
30794
30812
30794
30794
30788
30786
30778
30778
30756
30758
30741
30744
30726
30735
30728
30728
30724
30732
30726
30741
30732
30736
30726
30740
30724
30720
30712
30696
30692
30680
30680
30665
30664
30660
30653
30650
30642
30654
30636
30644
30640
30644
30640
30632
30648
30634
30637
30628
30635
30636
30629
30640
30632
30636
30638
30644
30652
30649
30660
30666
30666
30689
30676
30682
30685
30678
30680
30670
30682
30671
30666
30666
30663
30668
30666
30676
30668
30684
30676
30682
30687
30686
30692
30681
30684
30684
30678
30669
30672
30659
30660
30650
30659
30640
30653
30648
30660
30660
30668
30669
30677
30684
30680
30692
30688
30692
30690
30693
30681
30681
30676
30692
30680
30684
30690
30690
30712
30700
30720
30712
30736
30732
30748
30748
30752
30752
30756
30744
30752
30744
30750
30758
30756
30748
30749
30756
30764
30774
30768
30784
30780
30796
30796
30802
30802
30802
30812
30797
30800
30798
30812
30804
30820
30801
30824
30814
30842
30830
30860
30856
30882
30880
30898
30890
30912
30920
30928
30933
30936
30937
30946
30968
30972
30976
30985
31001
31012
31040
31053
31068
31087
31104
31109
31130
31137
31162
31166
31172
31188
31210
31217
31220
31248
31256
31292
31294
31332
31328
31358
31372
31404
31416
31448
31450
31479
31494
31519
31528
31549
31558
31580
31588
31608
31632
31648
31672
31689
31716
31732
31768
31782
31810
31832
31848
31878
31888
31916
31924
31956
31946
31976
31984
32012
32036
32046
32076
32090
32121
32140
32180
32188
32209
32236
32257
32272
32296
32320
32322
32342
32366
32376
32392
32418
32422
32464
32474
32500
32504
32540
32561
32570
32604
32608
32640
32647
32676
32680
32700
32708
32724
32746
32740
32776
32770
32808
32828
32842
32856
32878
32908
32924
32936
32960
32974
32997
33008
33036
33028
33052
33057
33080
33090
33100
33125
33141
33156
33171
33186
33207
33228
33244
33262
33268
33292
33308
33308
33328
33332
33336
33335
33361
33360
33378
33375
33392
33404
33404
33421
33439
33450
33468
33476
33476
33496
33488
33508
33510
33516
33508
33526
33532
33528
33540
33544
33540
33550
33567
33568
33588
33596
33600
33612
33620
33620
33636
33636
33641
33640
33649
33644
33656
33652
33656
33660
33658
33670
33680
33689
33692
33700
33716
33705
33720
33728
33732
33728
33736
33724
33734
33727
33732
33742
33718
33742
33736
33734
33748
33740
33751
33768
33753
33770
33772
33776
33769
33768
33777
33764
33768
33760
33756
33759
33756
33756
33756
33756
33756
33758
33761
33772
33760
33786
33764
33773
33762
33759
33760
33748
33753
33749
33732
33732
33728
33724
33726
33716
33735
33712
33722
33716
33719
33728
33712
33724
33701
33708
33693
33692
33685
33671
33665
33660
33649
33636
33644
33636
33626
33632
33621
33629
33620
33625
33613
33610
33602
33590
33582
33572
33568
33556
33541
33535
33520
33521
33505
33508
33494
33488
33480
33482
33476
33470
33468
33454
33452
33434
33430
33414
33397
33390
33375
33372
33346
33344
33332
33332
33304
33318
33292
33294
33284
33284
33268
33260
33252
33236
33228
33208
33201
33170
33172
33144
33141
33117
33114
33096
33092
33084
33083
33052
33060
33051
33046
33024
33024
32993
32988
32966
32952
32942
32916
32918
32888
32880
32864
32846
32848
32828
32828
32808
32801
32790
32781
32780
32756
32748
32728
32718
32704
32694
32677
32656
32650
32628
32628
32612
32612
32600
32593
32584
32580
32580
32564
32560
32549
32545
32524
32514
32504
32493
32480
32470
32455
32452
32438
32452
32430
32436
32418
32424
32414
32408
32404
32408
32396
32388
32373
32376
32356
32360
32351
32350
32332
32330
32324
32328
32324
32324
32332
32324
32324
32336
32328
32327
32320
32320
32320
32306
32312
32302
32300
32288
32290
32276
32272
32268
32268
32266
32272
32262
32257
32256
32245
32254
32240
32240
32236
32228
32228
32216
32222
32212
32208
32208
32216
32220
32223
32222
32230
32236
32241
32240
32254
32260
32258
32261
32257
32260
32256
32260
32260
32263
32252
32256
32257
32272
32268
32287
32276
32285
32294
32305
32302
32308
32312
32312
32305
32312
32302
32308
32292
32296
32289
32300
32292
32302
32302
32310
32308
32320
32310
32324
32322
32332
32328
32342
32332
32341
32332
32339
32332
32328
32332
32352
32348
32350
32356
32366
32367
32380
32393
32399
32416
32400
32420
32409
32424
32420
32436
32430
32426
32432
32432
32432
32446
32437
32456
32445
32462
32464
32484
32476
32492
32480
32492
32485
32492
32481
32492
32478
32479
32470
32480
32484
32472
32484
32478
32493
32482
32492
32489
32502
32495
32506
32502
32502
32498
32493
32490
32492
32484
32488
32480
32484
32488
32478
32478
32484
32490
32494
32498
32508
32517
32520
32506
32516
32506
32504
32502
32496
32497
32494
32500
32500
32494
32500
32508
32502
32524
32508
32520
32533
32538
32534
32544
32542
32550
32544
32540
32542
32545
32548
32546
32552
32546
32564
32556
32573
32568
32589
32589
32604
32608
32620
32614
32624
32621
32624
32630
32633
32628
32640
32644
32653
32654
32664
32664
32687
32682
32712
32716
32728
32737
32740
32752
32766
32762
32776
32775
32780
32778
32788
32801
32798
32820
32812
32833
32834
32854
32853
32878
32884
32888
32900
32894
32924
32917
32930
32924
32943
32940
32958
32948
32960
32964
32988
32986
33012
33016
33033
33050
33060
33081
33080
33112
33106
33132
33132
33152
33156
33168
33164
33186
33196
33212
33222
33231
33261
33274
33296
33312
33333
33344
33366
33374
33396
33404
33420
33428
33448
33452
33460
33471
33480
33508
33511
33536
33548
33564
33584
33602
33612
33633
33652
33652
33680
33678
33700
33702
33716
33724
33741
33752
33760
33772
33782
33796
33812
33832
33836
33864
33872
33890
33906
33918
33922
33940
33948
33956
33964
33970
33976
33982
34005
34013
34018
34032
34038
34072
34074
34088
34102
34112
34124
34132
34152
34140
34161
34158
34172
34177
34180
34183
34188
34192
34209
34208
34225
34228
34244
34245
34260
34278
34277
34284
34284
34292
34286
34300
34301
34295
34293
34302
34292
34318
34304
34328
34322
34338
34341
34364
34352
34368
34358
34376
34360
34360
34368
34368
34364
34367
34374
34356
34376
34372
34364
34370
34382
34378
34376
34392
34392
34404
34400
34404
34396
34400
34393
34388
34397
34392
34390
34391
34380
34396
34388
34394
34396
34390
34400
34412
34404
34410
34412
34416
34412
34407
34408
34404
34400
34396
34402
34400
34397
34388
34398
34398
34400
34406
34404
34408
34408
34422
34425
34420
34430
34420
34421
34417
34408
34408
34408
34412
34398
34412
34408
34412
34410
34415
34424
34432
34436
34416
34436
34430
34440
34436
34440
34424
34430
34420
34421
34424
34417
34439
34412
34428
34420
34442
34440
34436
34436
34444
34452
34442
34446
34431
34446
34432
34436
34421
34428
34424
34421
34423
34424
34428
34424
34436
34420
34437
34429
34436
34432
34440
34428
34433
34421
34420
34416
34400
34412
34400
34408
34390
34406
34396
34398
34397
34400
34396
34397
34405
34396
34396
34400
34388
34378
34382
34362
34360
34360
34348
34354
34340
34348
34333
34332
34338
34336
34344
34340
34337
34329
34336
34318
34324
34312
34311
34300
34300
34281
34284
34277
34280
34269
34276
34263
34280
34272
34292
34276
34280
34277
34292
34281
34286
34272
34272
34266
34264
34252
34263
34250
34248
34254
34244
34252
34248
34244
34248
34242
34245
34232
34248
34230
34232
34216
34212
34212
34191
34192
34184
34182
34184
34170
34176
34184
34173
34180
34176
34186
34184
34184
34184
34172
34188
34167
34167
34164
34170
34160
34138
34144
34136
34143
34136
34143
34144
34138
34144
34142
34148
34147
34148
34124
34140
34116
34126
34114
34112
34104
34106
34090
34087
34076
34085
34064
34082
34064
34075
34062
34068
34060
34056
34047
34045
34028
34028
34020
34016
34000
33996
33985
33983
33968
33981
33962
33964
33957
33962
33954
33952
33950
33948
33930
33932
33913
33912
33900
33893
33876
33876
33864
33858
33855
33844
33834
33828
33830
33825
33816
33820
33800
33792
33784
33766
33768
33748
33740
33724
33721
33697
33704
33684
33690
33662
33658
33653
33646
33637
33632
33624
33612
33602
33604
33580
33576
33559
33553
33532
33524
33508
33504
33484
33476
33466
33461
33462
33446
33456
33436
33452
33432
33424
33421
33404
33402
33384
33380
33368
33364
33360
33346
33352
33339
33340
33327
33332
33342
33332
33338
33337
33332
33334
33336
33332
33336
33328
33330
33321
33324
33316
33316
33322
33324
33329
33324
33337
33336
33346
33360
33352
33372
33370
33378
33368
33380
33375
33380
33372
33386
33372
33378
33380
33380
33406
33400
33408
33416
33429
33436
33444
33444
33452
33456
33464
33460
33470
33476
33464
33480
33472
33492
33486
33496
33504
33508
33516
33524
33536
33540
33548
33564
33572
33572
33572
33580
33584
33580
33592
33588
33592
33596
33604
33616
33614
33636
33629
33646
33656
33668
33680
33688
33697
33703
33704
33716
33721
33726
33737
33728
33744
33744
33758
33764
33768
33788
33785
33805
33812
33824
33828
33846
33852
33848
33864
33858
33874
33868
33870
33876
33880
33900
33900
33896
33914
33921
33924
33926
33948
33956
33956
33968
33976
33980
33982
33988
34000
33986
34004
33992
34000
34002
34005
33998
34012
34028
34026
34035
34038
34061
34052
34072
34066
34068
34072
34084
34072
34084
34072
34088
34084
34096
34084
34098
34097
34100
34106
34120
34120
34127
34142
34136
34140
34148
34149
34144
34148
34148
34136
34150
34136
34152
34140
34148
34148
34152
34154
34158
34164
34174
34164
34170
34180
34168
34190
34172
34174
34165
34180
34164
34161
34160
34169
34162
34158
34164
34156
34164
34168
34174
34174
34176
34180
34168
34168
34154
34166
34154
34167
34152
34159
34148
34138
34150
34148
34156
34148
34157
34145
34156
34156
34156
34152
34160
34156
34164
34145
34145
34144
34140
34144
34130
34148
34120
34133
34120
34133
34132
34148
34134
34150
34140
34148
34148
34145
34136
34135
34130
34126
34128
34120
34114
34120
34112
34114
34124
34116
34124
34126
34128
34126
34132
34134
34132
34134
34132
34126
34112
34121
34105
34096
34104
34104
34098
34106
34096
34101
34104
34100
34106
34112
34106
34096
34100
34100
34100
34092
34098
34078
34078
34072
34070
34054
34073
34065
34071
34062
34074
34056
34073
34058
34068
34046
34071
34049
34065
34044
34049
34028
34036
34018
34028
34012
34008
34010
34008
34014
34004
34012
34006
34006
34006
34008
33997
34006
33992
33984
33980
33974
33969
33960
33956
33948
33940
33940
33940
33936
33944
33935
33936
33940
33935
33940
33932
33928
33920
33914
33904
33894
33888
33888
33872
33880
33859
33876
33860
33868
33864
33860
33872
33856
33865
33856
33848
33848
33836
33836
33828
33828
33816
33814
33812
33812
33804
33812
33820
33801
33816
33804
33816
33823
33808
33820
33808
33812
33806
33808
33796
33798
33782
33788
33768
33772
33764
33758
33762
33756
33760
33759
33757
33752
33742
33744
33732
33728
33720
33711
33700
33697
33696
33680
33676
33672
33668
33660
33660
33660
33663
33656
33664
33652
33658
33652
33647
33638
33646
33632
33628
33626
33614
33608
33612
33616
33616
33602
33616
33617
33620
33628
33632
33632
33636
33632
33637
33636
33627
33628
33624
33620
33606
33614
33609
33616
33605
33622
33608
33612
33608
33615
33624
33622
33621
33632
33612
33620
33621
33620
33605
33604
33600
33592
33588
33590
33591
33570
33593
33572
33572
33569
33577
33560
33573
33558
33568
33545
33542
33522
33524
33508
33508
33476
33486
33466
33454
33446
33436
33430
33429
33412
33412
33396
33384
33375
33368
33348
33342
33324
33312
33287
33276
33264
33242
33240
33220
33220
33202
33182
33188
33180
33156
33153
33148
33133
33124
33106
33088
33078
33066
33046
33039
33016
33004
33005
32980
32972
32964
32940
32952
32942
32936
32936
32924
32914
32913
32892
32884
32872
32858
32857
32842
32825
32824
32812
32800
32799
32772
32796
32788
32780
32776
32776
32770
32774
32760
32760
32756
32740
32740
32729
32728
32728
32716
32720
32710
32704
32712
32716
32712
32720
32710
32727
32724
32720
32725
32729
32712
32724
32710
32720
32719
32704
32714
32714
32711
32718
32712
32728
32732
32724
32744
32740
32741
32752
32756
32748
32756
32749
32752
32756
32753
32744
32744
32762
32756
32758
32768
32770
32774
32780
32792
32788
32798
32804
32806
32808
32814
32796
32805
32804
32804
32816
32820
32804
32812
32822
32826
32840
32848
32852
32856
32863
32868
32886
32871
32894
32885
32886
32901
32889
32893
32900
32898
32910
32905
32925
32917
32925
32934
32940
32952
32964
32976
32981
32972
32984
32976
32980
32982
32984
32994
32989
32984
32986
32996
32992
33000
33014
33012
33024
33025
33029
33036
33038
33040
33042
33047
33044
33048
33040
33046
33040
33048
33038
33052
33036
33060
33049
33068
33044
33072
33064
33076
33078
33080
33089
33080
33080
33080
33084
33070
33080
33072
33088
33076
33089
33095
33087
33104
33092
33114
33123
33117
33128
33124
33132
33128
33136
33136
33144
33144
33140
33132
33148
33142
33150
33148
33162
33157
33174
33184
33182
33190
33194
33204
33213
33209
33216
33208
33216
33209
33220
33212
33222
33220
33228
33225
33240
33240
33252
33252
33274
33272
33276
33272
33286
33274
33291
33276
33278
33290
33280
33294
33284
33300
33284
33296
33300
33308
33316
33318
33329
33332
33334
33338
33338
33340
33340
33336
33336
33344
33336
33340
33328
33348
33338
33348
33351
33358
33357
33365
33372
33368
33375
33376
33384
33374
33377
33376
33366
33374
33376
33380
33366
33376
33377
33377
33372
33381
33388
33392
33393
33400
33391
33408
33404
33396
33403
33391
33397
33388
33396
33378
33388
33384
33390
33396
33392
33392
33396
33398
33406
33404
33409
33404
33404
33392
33410
33393
33400
33384
33388
33376
33368
33388
33384
33374
33392
33380
33385
33382
33396
33400
33382
33393
33384
33384
33378
33372
33380
33372
33372
33356
33364
33356
33356
33349
33348
33361
33365
33360
33368
33364
33354
33370
33352
33358
33341
33343
33337
33320
33344
33320
33312
33316
33308
33306
33312
33306
33316
33310
33316
33308
33310
33316
33302
33306
33284
33289
33288
33276
33284
33270
33265
33268
33264
33273
33263
33271
33281
33278
33283
33284
33290
33292
33292
33288
33284
33287
33278
33297
33282
33286
33278
33280
33281
33296
33289
33289
33306
33300
33305
33310
33312
33306
33310
33288
33308
33292
33288
33284
33274
33268
33260
33254
33252
33248
33245
33244
33250
33248
33236
33254
33240
33245
33236
33236
33228
33233
33216
33220
33214
33212
33200
33212
33198
33208
33196
33208
33215
33220
33220
33216
33229
33224
33228
33225
33223
33224
33216
33215
33204
33205
33200
33206
33204
33206
33200
33212
33214
33212
33226
33224
33228
33224
33228
33216
33220
33212
33220
33204
33212
33202
33204
33204
33218
33201
33216
33204
33218
33201
33217
33204
33224
33208
33220
33217
33220
33206
33209
33197
33204
33188
33196
33188
33184
33189
33182
33185
33184
33182
33178
33188
33188
33176
33170
33168
33158
33142
33134
33136
33120
33132
33112
33108
33108
33092
33096
33089
33083
33088
33080
33080
33064
33056
33044
33048
33032
33021
33014
33004
32994
32976
32976
32962
32953
32944
32948
32932
32936
32922
32935
32917
32920
32900
32905
32900
32880
32868
32864
32860
32840
32838
32820
32816
32804
32800
32796
32796
32796
32780
32785
32772
32778
32764
32766
32748
32749
32728
32742
32722
32721
32704
32704
32692
32700
32690
32696
32692
32692
32684
32680
32682
32681
32676
32687
32661
32676
32661
32668
32653
32645
32637
32644
32636
32637
32625
32636
32628
32636
32632
32636
32640
32644
32646
32637
32638
32625
32644
32623
32624
32612
32614
32609
32613
32614
32612
32615
32612
32620
32629
32625
32628
32641
32634
32636
32637
32629
32633
32631
32643
32624
32636
32620
32641
32629
32645
32632
32654
32648
32661
32661
32670
32662
32685
32680
32676
32680
32688
32686
32684
32700
32684
32702
32692
32704
32712
32712
32716
32739
32743
32740
32754
32752
32766
32764
32772
32772
32783
32772
32780
32766
32774
32768
32780
32780
32796
32788
32800
32800
32809
32816
32812
32832
32824
32832
32840
32846
32832
32829
32820
32826
32826
32830
32825
32832
32834
32840
32832
32844
32846
32852
32849
32862
32856
32854
32858
32852
32852
32853
32837
32836
32836
32852
32836
32837
32836
32844
32840
32840
32842
32856
32849
32866
32852
32860
32852
32852
32840
32846
32842
32846
32832
32852
32839
32838
32838
32849
32836
32848
32852
32856
32852
32852
32869
32856
32860
32851
32854
32840
32860
32841
32850
32840
32849
32832
32856
32836
32858
32853
32868
32865
32864
32872
32872
32876
32874
32869
32862
32876
32860
32870
32852
32870
32856
32868
32858
32848
32866
32868
32868
32869
32868
32893
32868
32880
32870
32868
32869
32870
32858
32863
32854
32852
32858
32844
32862
32850
32857
32854
32860
32866
32864
32868
32866
32864
32860
32860
32860
32849
32840
32836
32840
32830
32838
32836
32820
32822
32836
32836
32829
32832
32842
32832
32841
32827
32836
32824
32824
32824
32815
32809
32808
32812
32790
32808
32800
32802
32804
32796
32799
32808
32810
32808
32813
32804
32807
32794
32796
32789
32780
32772
32776
32766
32769
32762
32770
32756
32768
32768
32766
32776
32760
32768
32772
32768
32761
32756
32756
32746
32736
32740
32734
32733
32718
32732
32714
32718
32720
32720
32724
32730
32724
32732
32722
32736
32718
32720
32719
32716
32704
32697
32701
32704
32692
32701
32692
32698
32692
32706
32686
32700
32696
32701
32701
32696
32700
32684
32692
32674
32681
32679
32681
32668
32660
32660
32655
32664
32660
32670
32662
32670
32671
32668
32669
32668
32668
32668
32670
32664
32664
32665
32660
32661
32662
32648
32662
32676
32672
32680
32674
32694
32689
32706
32700
32709
32700
32702
32688
32696
32690
32695
32673
32682
32681
32676
32672
32673
32670
32679
32660
32680
32676
32689
32668
32676
32660
32677
32660
32665
32652
32652
32646
32652
32644
32654
32648
32648
32652
32664
32656
32661
32660
32672
32656
32672
32664
32668
32656
32652
32652
32645
32631
32631
32629
32624
32629
32608
32617
32606
32621
32608
32616
32602
32610
32600
32586
32592
32569
32564
32554
32552
32542
32537
32544
32525
32524
32509
32516
32504
32510
32516
32518
32508
32505
32500
32496
32492
32482
32476
32471
32472
32462
32466
32448
32450
32448
32452
32446
32436
32443
32446
32452
32444
32440
32438
32440
32428
32421
32409
32400
32394
32396
32384
32377
32372
32366
32358
32356
32364
32350
32350
32336
32348
32326
32330
32308
32304
32306
32292
32274
32266
32268
32245
32245
32229
32236
32228
32229
32216
32216
32206
32208
32197
32196
32197
32188
32176
32173
32164
32149
32151
32140
32141
32124
32140
32120
32132
32118
32130
32120
32128
32124
32134
32120
32140
32122
32133
32116
32116
32126
32120
32109
32111
32116
32108
32122
32120
32136
32128
32146
32140
32149
32152
32162
32156
32173
32166
32168
32164
32177
32168
32165
32172
32172
32172
32189
32186
32192
32200
32212
32221
32224
32230
32230
32238
32250
32252
32252
32258
32256
32264
32260
32280
32268
32294
32289
32300
32313
32324
32328
32326
32352
32359
32380
32376
32396
32380
32400
32404
32417
32420
32437
32434
32446
32453
32464
32484
32494
32516
32511
32548
32545
32576
32572
32592
32608
32628
32624
32647
32650
32660
32674
32687
32697
32711
32730
32754
32772
32792
32812
32832
32860
32862
32900
32910
32932
32934
32967
32962
32996
33000
33012
33036
33040
33072
33081
33112
33112
33153
33152
33188
33186
33220
33224
33254
33264
33276
33280
33308
33300
33324
33324
33338
33348
33365
33372
33401
33410
33416
33428
33452
33460
33488
33488
33508
33516
33524
33536
33548
33554
33562
33572
33576
33584
33598
33608
33621
33639
33652
33658
33677
33690
33702
33698
33726
33726
33736
33740
33746
33752
33760
33760
33771
33768
33782
33792
33800
33805
33814
33824
33834
33849
33850
33868
33864
33867
33864
33868
33876
33864
33880
33868
33872
33868
33885
33872
33884
33873
33892
33895
33908
33908
33911
33916
33912
33916
33912
33916
33909
33918
33904
33912
33916
33912
33914
33918
33909
33918
33924
33925
33932
33942
33941
33935
33954
33932
33956
33941
33942
33934
33942
33946
33928
33940
33933
33940
33940
33940
33946
33948
33959
33962
33964
33951
33968
33958
33972
33960
33954
33962
33957
33957
33948
33948
33957
33944
33958
33962
33948
33966
33965
33961
33978
33972
33975
33969
33958
33966
33948
33948
33950
33941
33944
33933
33940
33932
33930
33928
33926
33936
33935
33937
33936
33928
33924
33928
33920
33903
33904
33900
33884
33876
33868
33860
33858
33846
33858
33836
33839
33844
33836
33846
33828
33824
33815
33812
33800
33786
33782
33770
33768
33748
33740
33743
33716
33719
33708
33695
33704
33685
33692
33696
33676
33672
33660
33652
33656
33636
33617
33618
33596
33584
33578
33564
33553
33558
33550
33548
33534
33530
33524
33513
33532
33516
33502
33494
33476
33473
33458
33450
33433
33423
33409
33399
33390
33388
33367
33368
33356
33345
33353
33336
33324
33328
33312
33310
33293
33276
33264
33240
33244
33220
33214
33204
33191
33194
33182
33168
33168
33166
33158
33156
33150
33148
33142
33134
33118
33094
33106
33076
33066
33056
33037
33025
33006
33005
32988
32989
32979
32962
32962
32952
32940
32940
32916
32920
32889
32892
32870
32860
32868
32836
32829
32816
32809
32800
32798
32802
32780
32796
32788
32779
32788
32780
32776
32780
32756
32756
32748
32740
32735
32716
32716
32693
32696
32686
32684
32684
32676
32676
32668
32666
32657
32656
32648
32632
32625
32620
32593
32588
32576
32564
32548
32536
32529
32520
32510
32516
32489
32487
32482
32478
32464
32466
32456
32436
32434
32420
32412
32400
32390
32370
32357
32357
32336
32340
32324
32305
32304
32304
32289
32288
32268
32265
32260
32245
32222
32208
32202
32177
32164
32140
32129
32120
32102
32084
32070
32056
32033
32036
32014
32012
31993
31976
31968
31941
31921
31903
31892
31866
31852
31824
31814
31784
31781
31750
31748
31732
31726
31708
31703
31679
31676
31654
31654
31634
31614
31604
31588
31572
31548
31548
31521
31500
31498
31480
31468
31456
31458
31434
31445
31424
31418
31406
31396
31389
31381
31364
31353
31342
31324
31316
31301
31300
31280
31284
31268
31276
31256
31266
31248
31253
31252
31244
31238
31229
31228
31212
31210
31200
31188
31184
31172
31172
31168
31168
31165
31158
31164
31160
31170
31166
31172
31159
31186
31166
31172
31162
31153
31144
31157
31146
31148
31148
31138
31148
31149
31152
31153
31173
31172
31177
31180
31196
31200
31202
31205
31200
31208
31205
31209
31205
31226
31220
31220
31231
31230
31248
31249
31274
31270
31284
31284
31296
31308
31304
31308
31320
31320
31320
31332
31316
31340
31337
31342
31348
31356
31362
31376
31397
31388
31413
31408
31428
31430
31441
31440
31446
31456
31460
31460
31468
31473
31472
31487
31484
31504
31504
31518
31529
31537
31548
31556
31561
31572
31576
31575
31590
31588
31588
31591
31588
31596
31586
31592
31606
31609
31620
31626
31636
31628
31652
31649
31656
31668
31664
31670
31669
31674
31679
31672
31668
31676
31662
31684
31680
31676
31700
31694
31702
31705
31718
31724
31726
31734
31736
31742
31727
31740
31724
31743
31732
31732
31732
31728
31744
31728
31750
31734
31756
31752
31760
31756
31768
31756
31760
31756
31756
31748
31740
31749
31736
31737
31725
31732
31708
31724
31716
31725
31724
31724
31722
31716
31720
31719
31716
31716
31709
31694
31684
31686
31677
31663
31660
31654
31641
31652
31649
31642
31634
31640
31624
31642
31614
31620
31613
31600
31588
31582
31572
31556
31550
31544
31523
31520
31509
31494
31505
31476
31484
31481
31480
31466
31464
31453
31438
31440
31414
31400
31392
31376
31366
31350
31338
31320
31308
31300
31284
31284
31260
31265
31248
31249
31223
31216
31196
31185
31162
31151
31121
31114
31095
31081
31064
31048
31030
31020
31008
31000
30981
30968
30966
30949
30945
30916
30911
30888
30882
30854
30846
30812
30802
30796
30762
30760
30738
30731
30704
30708
30680
30687
30664
30649
30642
30624
30612
30588
30584
30562
30554
30519
30508
30480
30480
30460
30446
30440
30424
30418
30396
30399
30384
30384
30372
30368
30361
30334
30334
30314
30308
30286
30284
30265
30262
30237
30242
30230
30228
30215
30224
30206
30208
30204
30210
30197
30188
30176
30183
30162
30153
30146
30140
30127
30120
30108
30116
30104
30102
30100
30106
30104
30108
30104
30108
30108
30092
30100
30088
30092
30072
30080
30068
30073
30064
30068
30056
30057
30064
30068
30070
30064
30092
30084
30090
30084
30092
30100
30084
30104
30092
30094
30096
30099
30104
30092
30114
30104
30110
30121
30118
30136
30132
30152
30144
30160
30148
30148
30148
30148
30150
30138
30157
30130
30150
30137
30143
30140
30144
30157
30164
30172
30180
30188
30194
30205
30202
30225
30210
30228
30236
30234
30234
30245
30256
30248
30270
30270
30284
30292
30304
30312
30336
30340
30352
30376
30381
30373
30387
30386
30402
30410
30408
30417
30420
30432
30437
30452
30465
30472
30490
30492
30516
30514
30532
30532
30552
30540
30560
30553
30564
30560
30573
30577
30590
30588
30598
30608
30620
30636
30646
30658
30671
30692
30693
30716
30718
30730
30739
30748
30742
30758
30764
30772
30772
30790
30799
30797
30820
30823
30848
30857
30864
30880
30888
30896
30900
30909
30912
30916
30918
30914
30920
30919
30920
30928
30932
30940
30936
30956
30956
30962
30960
30980
30970
30978
30981
30984
30983
30984
30975
30982
30970
30976
30972
30984
30974
30992
30984
31008
30994
31020
31012
31032
31030
31042
31032
31042
31036
31040
31040
31044
31044
31044
31052
31046
31060
31062
31068
31072
31088
31090
31100
31108
31110
31120
31116
31121
31118
31126
31124
31124
31128
31127
31121
31132
31124
31140
31140
31156
31150
31150
31170
31185
31177
31192
31189
31192
31204
31206
31198
31208
31215
31220
31214
31224
31229
31244
31244
31269
31266
31296
31288
31308
31312
31324
31328
31337
31348
31348
31356
31348
31374
31365
31384
31376
31396
31401
31407
31424
31428
31452
31462
31468
31484
31484
31495
31504
31509
31516
31517
31518
31532
31526
31538
31552
31552
31557
31570
31583
31575
31609
31620
31626
31631
31644
31664
31657
31680
31679
31687
31704
31696
31706
31732
31732
31742
31750
31777
31788
31799
31820
31832
31848
31858
31870
31892
31900
31904
31930
31920
31932
31944
31956
31966
31984
31988
32008
32016
32042
32048
32064
32088
32092
32120
32124
32142
32153
32160
32164
32176
32187
32186
32192
32212
32224
32225
32238
32248
32267
32268
32292
32305
32303
32332
32340
32346
32356
32356
32376
32371
32380
32380
32388
32392
32391
32404
32408
32420
32424
32428
32432
32448
32450
32470
32452
32472
32448
32464
32470
32464
32460
32464
32448
32463
32446
32465
32452
32464
32458
32460
32468
32461
32476
32469
32474
32474
32471
32470
32476
32455
32452
32464
32452
32453
32448
32460
32462
32452
32456
32456
32469
32468
32470
32472
32476
32474
32471
32480
32464
32476
32454
32464
32456
32460
32456
32460
32464
32453
32474
32468
32484
32488
32488
32488
32492
32495
32496
32500
32508
32492
32504
32493
32508
32490
32501
32504
32514
32509
32532
32518
32540
32544
32551
32550
32558
32560
32575
32559
32576
32566
32576
32560
32578
32572
32573
32580
32580
32600
32592
32605
32612
32624
32632
32629
32644
32641
32660
32640
32654
32652
32653
32644
32664
32657
32672
32660
32676
32673
32680
32690
32708
32716
32708
32720
32740
32730
32743
32738
32749
32736
32742
32732
32740
32738
32748
32743
32748
32746
32757
32761
32768
32780
32774
32792
32784
32802
32804
32792
32793
32786
32800
32796
32788
32792
32800
32808
32797
32810
32820
32820
32840
32846
32858
32852
32868
32870
32879
32888
32880
32886
32878
32889
32896
32892
32909
32912
32905
32928
32927
32943
32960
32960
32980
32978
32994
32997
33012
33012
33016
33016
33020
33036
33029
33033
33044
33048
33053
33070
33076
33088
33101
33112
33116
33128
33145
33143
33156
33166
33166
33164
33176
33183
33188
33192
33200
33214
33216
33221
33236
33236
33248
33262
33254
33274
33284
33278
33296
33289
33300
33296
33304
33297
33296
33302
33295
33306
33304
33292
33298
33309
33316
33312
33325
33324
33332
33334
33328
33340
33337
33340
33329
33344
33342
33350
33366
33361
33372
33372
33388
33404
33404
33417
33424
33430
33450
33446
33449
33448
33456
33460
33456
33475
33460
33480
33478
33480
33494
33494
33509
33510
33527
33524
33540
33549
33552
33564
33552
33557
33552
33558
33552
33560
33574
33548
33552
33556
33556
33568
33580
33566
33580
33577
33580
33580
33596
33590
33596
33588
33588
33584
33597
33576
33580
33588
33568
33583
33584
33578
33580
33584
33596
33585
33592
33592
33588
33594
33594
33584
33592
33592
33584
33572
33572
33564
33558
33558
33553
33560
33554
33554
33560
33560
33572
33564
33569
33556
33552
33557
33556
33543
33547
33532
33520
33522
33512
33518
33508
33508
33512
33516
33518
33505
33517
33512
33510
33516
33500
33496
33488
33480
33480
33464
33468
33463
33447
33450
33444
33444
33452
33440
33446
33444
33446
33457
33437
33454
33440
33444
33444
33428
33420
33424
33404
33412
33406
33404
33407
33404
33416
33416
33408
33428
33418
33430
33426
33420
33436
33422
33428
33420
33412
33420
33412
33414
33412
33411
33424
33420
33418
33440
33434
33445
33454
33448
33460
33460
33466
33468
33456
33471
33468
33464
33467
33462
33472
33472
33476
33484
33486
33503
33508
33517
33520
33538
33544
33548
33556
33556
33560
33572
33579
33576
33588
33584
33584
33608
33612
33628
33634
33637
33648
33668
33678
33676
33692
33692
33697
33706
33706
33718
33728
33720
33734
33736
33734
33744
33750
33762
33780
33777
33790
33801
33812
33828
33825
33828
33840
33838
33842
33836
33847
33838
33845
33847
33840
33840
33858
33849
33860
33858
33864
33868
33870
33880
33874
33884
33872
33866
33881
33854
33862
33854
33848
33846
33844
33850
33836
33848
33852
33847
33858
33848
33852
33852
33852
33844
33848
33839
33836
33840
33828
33827
33808
33820
33812
33812
33813
33812
33812
33815
33810
33824
33816
33825
33826
33824
33812
33816
33814
33818
33805
33804
33808
33796
33800
33797
33800
33793
33796
33810
33812
33800
33817
33812
33816
33823
33804
33824
33804
33814
33801
33798
33790
33784
33788
33785
33788
33784
33786
33788
33783
33799
33796
33798
33793
33796
33782
33780
33775
33765
33764
33752
33765
33736
33752
33750
33732
33724
33724
33732
33729
33716
33736
33722
33726
33704
33706
33692
33684
33674
33668
33658
33647
33647
33632
33628
33622
33620
33611
33608
33612
33600
33594
33596
33586
33588
33576
33564
33560
33535
33536
33517
33514
33508
33492
33489
33480
33484
33480
33472
33461
33470
33460
33454
33452
33442
33441
33413
33428
33409
33412
33392
33368
33383
33356
33361
33356
33356
33342
33344
33346
33330
33348
33324
33328
33325
33316
33320
33304
33300
33290
33280
33276
33270
33272
33260
33252
33256
33248
33252
33258
33244
33256
33250
33248
33252
33245
33237
33236
33224
33227
33213
33216
33210
33192
33206
33188
33198
33191
33188
33196
33181
33194
33188
33182
33190
33172
33178
33169
33156
33160
33142
33146
33128
33126
33128
33120
33120
33108
33108
33108
33120
33108
33104
33106
33096
33093
33085
33084
33066
33068
33052
33051
33044
33034
33030
33008
33020
33003
33017
33006
33012
33012
33004
33013
33004
32998
32986
32990
32976
32969
32972
32956
32956
32945
32951
32932
32944
32941
32936
32936
32932
32945
32926
32928
32924
32927
32904
32900
32892
32876
32870
32860
32848
32828
32824
32817
32822
32789
32804
32792
32788
32780
32774
32772
32760
32760
32728
32732
32722
32712
32695
32700
32688
32674
32668
32668
32672
32666
32668
32678
32677
32693
32685
32692
32692
32690
32696
32705
32700
32700
32698
32708
32707
32705
32706
32712
32720
32724
32738
32749
32756
32756
32764
32769
32769
32781
32776
32796
32783
32788
32776
32789
32776
32790
32780
32800
32788
32800
32808
32810
32820
32816
32830
32824
32832
32826
32840
32828
32832
32826
32824
32822
32830
32824
32821
32812
32822
32824
32828
32821
32831
32817
32822
32822
32808
32820
32812
32802
32800
32781
32775
32769
32756
32756
32736
32732
32734
32720
32725
32704
32710
32702
32692
32681
32677
32669
32656
32652
32625
32638
32624
32604
32590
32580
32568
32572
32566
32562
32548
32548
32548
32535
32532
32524
32512
32512
32512
32494
32488
32468
32472
32455
32448
32442
32423
32432
32415
32414
32416
32416
32428
32412
32412
32418
32404
32412
32404
32398
32383
32390
32392
32380
32390
32376
32368
32388
32388
32394
32394
32400
32412
32416
32430
32424
32430
32423
32441
32437
32432
32444
32445
32441
32452
32453
32452
32457
32460
32477
32473
32489
32506
32518
32517
32528
32535
32540
32541
32556
32551
32556
32556
32573
32560
32584
32580
32592
32592
32606
32613
32624
32632
32644
32661
32654
32668
32668
32660
32681
32674
32680
32676
32692
32692
32686
32690
32698
32708
32708
32726
32728
32756
32744
32768
32760
32775
32776
32784
32776
32796
32790
32810
32800
32812
32808
32818
32827
32829
32842
32850
32872
32870
32896
32900
32910
32912
32920
32912
32930
32925
32920
32928
32932
32932
32932
32936
32941
32954
32948
32962
32953
32966
32972
32974
32976
32988
32982
32981
32984
32987
32982
32981
32972
32978
32970
32980
32977
32990
32986
32986
33000
33004
33008
33022
33012
33024
33022
33038
33036
33038
33028
33053
33030
33040
33034
33049
33052
33060
33064
33062
33080
33070
33091
33089
33102
33094
33115
33109
33116
33121
33116
33120
33120
33132
33128
33132
33140
33144
33152
33156
33175
33178
33184
33186
33200
33208
33206
33216
33212
33218
33216
33220
33220
33216
33225
33216
33236
33228
33242
33240
33260
33262
33268
33280
33280
33288
33278
33292
33286
33276
33294
33276
33285
33284
33287
33289
33284
33285
33288
33288
33304
33304
33316
33304
33324
33314
33320
33316
33325
33325
33312
33320
33308
33324
33314
33320
33319
33324
33320
33329
33344
33344
33350
33350
33372
33359
33362
33352
33362
33364
33356
33364
33356
33364
33348
33356
33360
33360
33370
33369
33368
33380
33376
33384
33384
33390
33400
33380
33383
33386
33382
33374
33380
33368
33372
33361
33376
33370
33369
33392
33380
33388
33393
33391
33406
33388
33397
33391
33381
33390
33380
33380
33373
33380
33370
33367
33380
33375
33372
33378
33380
33376
33375
33380
33374
33373
33381
33376
33368
33364
33358
33349
33345
33340
33344
33338
33341
33336
33338
33340
33328
33352
33336
33351
33348
33344
33344
33325
33342
33327
33332
33324
33312
33320
33300
33312
33296
33300
33294
33292
33316
33300
33308
33308
33302
33303
33293
33296
33284
33278
33272
33282
33258
33256
33252
33252
33252
33246
33249
33250
33264
33253
33260
33253
33256
33257
33250
33254
33248
33244
33240
33230
33231
33216
33220
33212
33212
33208
33200
33204
33196
33200
33188
33190
33178
33176
33162
33168
33146
33144
33128
33124
33114
33104
33094
33086
33089
33076
33080
33080
33065
33076
33076
33068
33078
33077
33080
33077
33073
33084
33070
33081
33068
33086
33085
33084
33090
33084
33112
33116
33126
33132
33132
33156
33156
33178
33172
33176
33182
33189
33192
33188
33204
33192
33204
33204
33216
33216
33217
33228
33242
33256
33248
33263
33269
33280
33273
33286
33288
33287
33276
33289
33280
33281
33288
33292
33308
33300
33301
33308
33316
33316
33327
33338
33328
33338
33338
33334
33340
33336
33336
33324
33321
33320
33313
33316
33308
33311
33300
33304
33312
33304
33316
33296
33300
33296
33292
33288
33274
33274
33260
33256
33252
33238
33230
33224
33224
33206
33216
33208
33205
33209
33204
33206
33200
33198
33200
33180
33180
33160
33166
33153
33146
33140
33136
33137
33122
33126
33116
33132
33122
33140
33120
33130
33113
33132
33124
33116
33108
33110
33096
33094
33084
33090
33080
33070
33080
33072
33072
33073
33074
33088
33076
33092
33090
33090
33080
33089
33084
33080
33088
33072
33084
33062
33070
33063
33068
33074
33072
33082
33089
33088
33092
33096
33108
33114
33100
33112
33102
33104
33108
33100
33105
33092
33104
33096
33108
33104
33120
33120
33116
33138
33134
33144
33156
33150
33168
33152
33152
33160
33167
33164
33165
33170
33166
33166
33182
33168
33192
33184
33209
33200
33217
33220
33223
33224
33228
33244
33232
33244
33228
33244
33237
33250
33244
33248
33255
33253
33268
33268
33279
33276
33290
33292
33304
33304
33308
33304
33317
33318
33320
33316
33316
33310
33314
33327
33316
33328
33333
33332
33344
33344
33364
33368
33364
33372
33372
33372
33358
33370
33366
33362
33353
33361
33357
33358
33360
33354
33365
33364
33383
33364
33388
33368
33381
33382
33380
33384
33368
33370
33361
33364
33356
33348
33349
33352
33345
33348
33360
33350
33372
33358
33374
33364
33378
33367
33377
33374
33368
33368
33358
33364
33350
33356
33351
33349
33361
33348
33361
33349
33358
33364
33364
33380
33376
33380
33380
33374
33384
33372
33376
33380
33358
33376
33372
33369
33382
33368
33368
33380
33380
33384
33394
33404
33406
33405
33412
33406
33412
33400
33410
33404
33407
33404
33402
33404
33406
33418
33404
33418
33417
33422
33432
33432
33439
33436
33452
33440
33444
33437
33440
33432
33436
33422
33440
33428
33436
33422
33441
33424
33444
33440
33448
33442
33466
33460
33454
33456
33451
33445
33441
33440
33436
33441
33432
33436
33435
33424
33440
33444
33440
33450
33452
33447
33464
33454
33458
33460
33461
33449
33452
33446
33439
33436
33441
33432
33432
33438
33432
33442
33433
33441
33436
33436
33442
33436
33448
33424
33437
33428
33415
33424
33422
33412
33412
33415
33416
33416
33408
33408
33424
33413
33429
33434
33426
33428
33425
33424
33422
33418
33420
33397
33421
33400
33404
33396
33397
33405
33397
33400
33409
33404
33413
33404
33413
33421
33404
33412
33400
33400
33390
33390
33376
33384
33366
33376
33366
33369
33372
33369
33374
33369
33374
33367
33376
33368
33365
33372
33344
33361
33346
33348
33337
33336
33326
33334
33324
33316
33324
33320
33340
33320
33340
33328
33340
33332
33334
33332
33340
33332
33324
33320
33316
33324
33316
33316
33308
33324
33319
33334
33322
33345
33327
33348
33345
33345
33345
33346
33338
33333
33329
33316
33324
33300
33305
33289
33297
33284
33288
33276
33280
33278
33281
33276
33272
33263
33274
33252
33260
33244
33234
33233
33224
33218
33220
33210
33221
33211
33224
33217
33217
33240
33223
33236
33232
33230
33237
33236
33237
33229
33232
33224
33220
33216
33216
33212
33220
33204
33215
33208
33228
33218
33226
33228
33224
33220
33220
33215
33217
33208
33212
33204
33207
33180
33194
33188
33182
33186
33176
33188
33196
33188
33197
33196
33204
33204
33213
33204
33200
33215
33198
33214
33184
33201
33182
33204
33192
33200
33196
33212
33216
33216
33218
33220
33234
33216
33223
33224
33224
33220
33222
33204
33202
33209
33196
33204
33198
33204
33191
33197
33194
33204
33204
33194
33200
33196
33192
33188
33186
33188
33188
33168
33168
33161
33158
33153
33145
33145
33134
33144
33142
33146
33134
33142
33140
33132
33132
33121
33130
33112
33118
33100
33102
33092
33092
33076
33090
33078
33079
33084
33076
33090
33068
33080
33077
33090
33064
33072
33060
33070
33054
33056
33040
33044
33033
33032
33032
33034
33022
33038
33028
33044
33032
33044
33034
33040
33024
33041
33020
33036
33016
33016
32997
33006
32992
32998
32981
32996
32992
32988
32994
32992
32984
32993
32993
32992
32994
32986
32989
32976
32980
32964
32964
32966
32972
32960
32958
32961
32968
32964
32970
32970
32968
32974
32976
32980
32980
32981
32981
32982
32976
32984
32965
32970
32970
32970
32976
32968
32976
32968
32996
32992
33007
32992
32997
33008
33004
33020
33006
33000
33004
32996
33000
32992
32994
32986
33000
32992
32997
32996
33012
33013
33028
33012
33020
33021
33032
33032
33028
33024
33024
33016
33024
33018
33021
33032
33012
33025
33028
33040
33040
33056
33044
33062
33056
33072
33065
33064
33063
33068
33071
33056
33062
33050
33059
33054
33056
33052
33068
33060
33069
33062
33083
33074
33081
33085
33092
33088
33082
33088
33075
33080
33072
33084
33072
33084
33076
33073
33081
33085
33092
33092
33108
33086
33120
33112
33112
33124
33116
33113
33116
33114
33120
33116
33105
33106
33108
33124
33120
33130
33136
33135
33156
33160
33158
33160
33164
33158
33168
33164
33172
33156
33160
33160
33160
33156
33164
33160
33166
33176
33168
33184
33192
33181
33196
33196
33186
33200
33196
33188
33196
33184
33181
33180
33165
33178
33170
33172
33182
33175
33182
33192
33179
33184
33196
33192
33196
33198
33188
33188
33181
33178
33184
33167
33178
33175
33164
33168
33176
33160
33192
33180
33186
33196
33188
33196
33200
33188
33184
33188
33180
33182
33165
33174
33168
33160
33175
33164
33172
33158
33176
33162
33184
33180
33180
33176
33180
33180
33176
33165
33163
33152
33148
33140
33148
33132
33137
33138
33128
33132
33128
33130
33130
33128
33136
33140
33120
33127
33125
33122
33105
33108
33092
33096
33090
33084
33078
33072
33076
33060
33078
33070
33082
33068
33076
33084
33060
33068
33060
33060
33042
33047
33024
33024
33018
33008
33008
33006
33012
32996
33004
32996
32998
32998
33004
33000
32996
32990
32988
32983
32972
32964
32952
32954
32940
32940
32932
32926
32916
32924
32926
32926
32919
32921
32916
32925
32910
32924
32900
32903
32896
32876
32877
32868
32854
32852
32848
32830
32840
32830
32845
32832
32840
32836
32838
32828
32836
32828
32824
32824
32806
32816
32804
32806
32788
32785
32784
32773
32775
32780
32777
32772
32776
32770
32768
32764
32759
32756
32740
32750
32728
32717
32700
32689
32678
32680
32663
32660
32654
32664
32641
32645
32646
32644
32641
32644
32634
32636
32629
32616
32612
32604
32604
32592
32592
32575
32580
32576
32586
32570
32580
32576
32580
32580
32588
32588
32575
32568
32566
32561
32548
32542
32528
32532
32514
32504
32495
32492
32484
32488
32481
32476
32468
32474
32460
32465
32449
32448
32430
32432
32416
32409
32392
32392
32381
32384
32369
32360
32348
32353
32356
32348
32350
32348
32356
32348
32356
32336
32332
32324
32321
32318
32308
32302
32300
32292
32288
32292
32286
32284
32288
32279
32286
32288
32288
32285
32288
32280
32268
32266
32264
32258
32250
32246
32228
32228
32236
32221
32226
32236
32236
32237
32241
32228
32234
32224
32231
32228
32224
32223
32206
32218
32200
32196
32192
32190
32191
32192
32186
32192
32192
32191
32192
32205
32193
32200
32200
32201
32194
32198
32196
32185
32184
32192
32180
32176
32176
32164
32180
32178
32184
32189
32185
32196
32196
32203
32210
32196
32192
32198
32192
32196
32185
32192
32182
32184
32184
32184
32188
32188
32184
32204
32204
32209
32213
32208
32226
32221
32217
32220
32222
32228
32210
32222
32221
32224
32216
32229
32230
32228
32237
32248
32262
32250
32276
32265
32273
32289
32272
32284
32288
32284
32290
32280
32295
32288
32301
32292
32297
32316
32316
32332
32332
32332
32346
32348
32356
32356
32362
32359
32357
32360
32359
32356
32357
32369
32364
32362
32372
32380
32388
32396
32404
32405
32421
32418
32416
32429
32426
32444
32420
32436
32432
32441
32434
32436
32446
32445
32452
32458
32464
32474
32480
32492
32504
32508
32520
32520
32532
32524
32532
32530
32534
32521
32548
32544
32542
32550
32558
32556
32575
32572
32593
32588
32609
32596
32612
32604
32616
32616
32616
32628
32612
32630
32612
32629
32614
32640
32640
32644
32640
32660
32664
32661
32679
32682
32684
32704
32694
32702
32701
32690
32708
32692
32708
32707
32704
32714
32720
32734
32734
32746
32762
32756
32772
32777
32778
32794
32788
32797
32792
32796
32797
32794
32805
32792
32814
32807
32814
32820
32829
32848
32841
32858
32852
32864
32858
32867
32876
32854
32853
32857
32856
32860
32851
32858
32856
32864
32860
32868
32879
32869
32880
32876
32888
32885
32898
32890
32885
32895
32878
32877
32885
32876
32876
32870
32872
32862
32874
32871
32880
32878
32893
32884
32885
32901
32894
32908
32892
32894
32886
32892
32888
32892
32894
32872
32894
32876
32900
32894
32892
32908
32905
32921
32918
32920
32930
32932
32925
32920
32940
32930
32928
32928
32928
32928
32930
32930
32932
32940
32944
32948
32956
32964
32964
32972
32976
32974
32982
32972
32978
32980
32976
32974
32970
32978
32972
32976
32989
32984
32996
33000
33000
33012
33015
33023
33027
33020
33032
33025
33028
33033
33034
33024
33020
33020
33022
33030
33030
33046
33044
33048
33057
33060
33077
33076
33070
33084
33085
33084
33084
33084
33073
33084
33076
33088
33076
33089
33092
33094
33108
33114
33132
33132
33142
33138
33153
33158
33150
33156
33152
33160
33156
33158
33156
33157
33172
33168
33172
33188
33189
33200
33209
33224
33212
33232
33236
33236
33248
33245
33248
33240
33252
33244
33256
33240
33254
33256
33268
33268
33292
33280
33300
33300
33314
33321
33327
33340
33335
33348
33340
33344
33352
33346
33348
33367
33356
33368
33368
33376
33385
33384
33394
33383
33420
33397
33414
33408
33405
33409
33398
33402
33391
33389
33389
33393
33384
33383
33388
33388
33380
33397
33396
33407
33412
33408
33416
33412
33416
33416
33418
33422
33404
33422
33418
33421
33412
33418
33432
33433
33450
33445
33450
33450
33464
33468
33476
33478
33479
33477
33468
33474
33471
33476
33468
33474
33460
33458
33464
33456
33464
33471
33472
33481
33476
33476
33477
33480
33464
33481
33468
33468
33454
33456
33456
33448
33452
33446
33447
33451
33454
33464
33464
33470
33476
33485
33488
33476
33485
33476
33478
33476
33473
33475
33468
33470
33476
33463
33470
33485
33470
33496
33485
33492
33492
33504
33494
33504
33498
33497
33500
33494
33484
33476
33480
33476
33488
33482
33480
33478
33489
33496
33504
33506
33504
33508
33512
33508
33516
33493
33524
33501
33508
33500
33506
33500
33502
33505
33502
33514
33508
33518
33517
33532
33528
33528
33530
33541
33532
33536
33533
33524
33528
33511
33528
33512
33520
33516
33524
33515
33520
33520
33542
33546
33540
33538
33544
33553
33547
33533
33532
33534
33514
33520
33520
33520
33510
33517
33512
33516
33512
33524
33518
33532
33533
33535
33536
33532
33528
33528
33528
33524
33530
33524
33529
33510
33521
33519
33532
33524
33526
33542
33544
33556
33544
33564
33564
33570
33572
33572
33572
33564
33576
33576
33566
33586
33572
33582
33581
33588
33588
33607
33608
33632
33631
33646
33636
33653
33654
33660
33646
33658
33652
33666
33652
33669
33660
33668
33673
33684
33684
33692
33708
33716
33738
33733
33740
33746
33752
33736
33764
33748
33766
33765
33772
33764
33790
33775
33800
33798
33812
33824
33842
33844
33856
33868
33876
33876
33890
33885
33900
33895
33906
33902
33910
33908
33922
33924
33934
33937
33956
33956
33967
33978
33986
33976
34005
33996
34020
34000
34012
34016
34006
34020
34004
34020
34014
34028
34030
34022
34042
34044
34044
34062
34068
34076
34080
34072
34092
34076
34084
34080
34088
34078
34088
34085
34092
34097
34096
34108
34112
34124
34124
34136
34136
34156
34148
34159
34174
34158
34172
34162
34165
34168
34172
34168
34164
34176
34172
34188
34186
34206
34212
34208
34228
34222
34230
34232
34232
34240
34224
34239
34232
34240
34230
34238
34230
34239
34239
34244
34240
34256
34252
34268
34268
34264
34276
34273
34278
34270
34276
34272
34268
34256
34268
34264
34264
34264
34260
34276
34271
34279
34270
34296
34292
34292
34292
34296
34292
34296
34288
34291
34288
34277
34285
34270
34280
34276
34284
34282
34284
34288
34304
34308
34312
34308
34324
34308
34316
34308
34310
34302
34308
34286
34302
34286
34296
34280
34300
34288
34296
34288
34300
34300
34310
34308
34309
34302
34296
34292
34296
34281
34281
34277
34271
34268
34260
34253
34256
34253
34256
34257
34262
34260
34260
34260
34260
34256
34248
34252
34244
34242
34234
34229
34216
34220
34212
34210
34199
34211
34200
34213
34201
34216
34197
34208
34205
34198
34188
34199
34174
34182
34160
34164
34152
34150
34136
34148
34134
34136
34144
34129
34133
34133
34116
34128
34116
34120
34116
34116
34102
34093
34088
34080
34065
34064
34056
34056
34048
34054
34038
34044
34038
34030
34036
34030
34036
34024
34030
34006
34020
33994
33997
33980
33985
33962
33960
33964
33944
33953
33941
33948
33944
33946
33954
33936
33943
33928
33940
33928
33935
33919
33918
33902
33903
33898
33891
33900
33886
33890
33884
33896
33886
33892
33884
33892
33893
33892
33876
33871
33864
33852
33854
33831
33830
33824
33805
33804
33792
33784
33791
33772
33790
33770
33766
33764
33761
33756
33745
33748
33730
33735
33704
33716
33700
33701
33700
33692
33693
33692
33676
33684
33692
33684
33697
33688
33692
33692
33679
33693
33668
33680
33672
33671
33662
33657
33654
33656
33660
33653
33657
33669
33670
33660
33664
33666
33654
33668
33658
33660
33640
33652
33636
33640
33620
33628
33618
33622
33626
33616
33632
33612
33631
33634
33621
33637
33626
33638
33624
33636
33620
33632
33616
33620
33609
33608
33602
33606
33608
33604
33622
33604
33624
33621
33616
33612
33615
33617
33604
33609
33593
33588
33584
33577
33570
33572
33556
33554
33552
33550
33534
33543
33540
33536
33548
33528
33538
33520
33524
33516
33512
33496
33484
33476
33476
33460
33464
33452
33441
33450
33444
33448
33446
33446
33444
33441
33439
33422
33436
33407
33417
33399
33393
33391
33372
33370
33366
33364
33359
33359
33348
33352
33348
33357
33341
33350
33342
33344
33332
33332
33326
33310
33310
33305
33301
33287
33284
33288
33264
33283
33268
33269
33264
33292
33276
33285
33286
33277
33272
33276
33260
33268
33256
33258
33248
33252
33250
33242
33237
33244
33236
33252
33242
33249
33248
33260
33246
33256
33240
33248
33240
33244
33228
33238
33224
33216
33224
33212
33212
33212
33218
33220
33220
33228
33217
33237
33225
33231
33218
33220
33208
33218
33202
33215
33188
33205
33184
33192
33184
33180
33193
33184
33199
33194
33208
33200
33204
33194
33199
33180
33188
33184
33186
33169
33172
33158
33169
33154
33160
33166
33164
33161
33178
33168
33186
33180
33194
33176
33189
33188
33188
33173
33188
33164
33172
33164
33172
33160
33168
33156
33180
33164
33172
33172
33184
33169
33186
33176
33186
33166
33178
33157
33156
33144
33156
33142
33144
33129
33140
33132
33136
33129
33144
33135
33146
33136
33144
33132
33145
33131
33135
33112
33123
33110
33108
33097
33111
33094
33100
33090
33088
33102
33088
33106
33108
33102
33092
33094
33092
33095
33099
33082
33086
33076
33076
33074
33080
33065
33068
33064
33076
33066
33080
33054
33074
33068
33066
33079
33068
33076
33056
33056
33046
33044
33040
33033
33036
33030
33016
33036
33012
33031
33024
33026
33028
33017
33024
33014
33029
33010
33005
32998
32992
32998
32984
32980
32976
32965
32965
32972
32964
32973
32960
32970
32960
32970
32960
32965
32962
32959
32953
32944
32940
32936
32942
32916
32930
32916
32914
32927
32916
32919
32924
32930
32912
32936
32926
32928
32920
32932
32908
32924
32906
32908
32900
32910
32888
32898
32892
32892
32894
32894
32902
32902
32905
32902
32896
32897
32912
32878
32888
32886
32893
32868
32872
32860
32868
32848
32868
32860
32854
32852
32860
32844
32860
32854
32864
32860
32860
32855
32840
32844
32838
32840
32826
32825
32822
32815
32820
32802
32816
32802
32828
32817
32820
32826
32815
32824
32822
32804
32813
32804
32794
32806
32788
32788
32784
32772
32788
32778
32782
32792
32792
32790
32804
32793
32790
32801
32797
32788
32788
32775
32784
32764
32768
32770
32758
32764
32754
32764
32764
32768
32768
32768
32769
32773
32769
32768
32772
32756
32762
32752
32748
32738
32748
32737
32738
32741
32727
32732
32744
32736
32750
32737
32750
32736
32752
32740
32760
32750
32745
32746
32738
32740
32756
32741
32744
32741
32746
32748
32756
32758
32764
32774
32767
32786
32782
32788
32788
32797
32786
32784
32788
32776
32778
32760
32768
32768
32760
32771
32759
32772
32765
32774
32766
32769
32780
32769
32785
32758
32764
32760
32748
32762
32748
32757
32750
32751
32748
32756
32770
32772
32780
32788
32800
32796
32809
32817
32816
32828
32832
32838
32828
32848
32852
32852
32864
32856
32876
32877
32884
32908
32902
32914
32928
32927
32950
32954
32958
32953
32964
32972
32962
32968
32972
32968
32982
32977
32976
32986
32993
33004
33004
33020
33033
33024
33041
33040
33040
33054
33053
33058
33054
33046
33044
33049
33052
33056
33056
33060
33056
33080
33073
33088
33091
33088
33094
33089
33102
33085
33101
33084
33084
33080
33069
33070
33070
33055
33063
33056
33066
33056
33064
33054
33060
33054
33056
33054
33056
33032
33046
33029
33012
33016
32996
32999
32982
32992
32976
32980
32975
32972
32982
32968
32977
32968
32972
32972
32957
32966
32956
32943
32932
32940
32908
32918
32918
32907
32906
32895
32906
32909
32904
32912
32900
32912
32900
32902
32900
32894
32894
32881
32880
32876
32876
32868
32869
32861
32871
32866
32878
32873
32888
32880
32895
32893
32896
32896
32894
32888
32905
32895
32903
32893
32886
32898
32892
32900
32900
32902
32906
32920
32917
32932
32932
32944
32940
32946
32948
32955
32958
32960
32948
32962
32949
32960
32958
32960
32960
32964
32972
32985
32992
32992
32997
33013
33018
33020
33028
33024
33034
33024
33038
33030
33039
33032
33037
33028
33060
33044
33068
33052
33076
33070
33078
33088
33096
33093
33102
33095
33098
33106
33094
33108
33100
33098
33104
33100
33113
33104
33124
33116
33124
33138
33150
33156
33144
33154
33156
33158
33157
33156
33156
33159
33152
33154
33151
33152
33158
33162
33168
33172
33178
33192
33182
33196
33192
33190
33194
33200
33196
33184
33200
33184
33188
33184
33184
33188
33185
33189
33201
33189
33198
33208
33206
33222
33212
33216
33228
33210
33218
33224
33217
33220
33214
33226
33208
33224
33214
33220
33232
33222
33242
33241
33250
33253
33252
33260
33262
33264
33268
33260
33262
33252
33256
33268
33256
33262
33261
33260
33276
33272
33268
33287
33287
33298
33289
33300
33295
33296
33288
33301
33280
33280
33276
33288
33276
33273
33274
33280
33292
33278
33295
33288
33296
33292
33308
33292
33305
33284
33297
33280
33287
33276
33276
33268
33260
33262
33266
33265
33260
33268
33264
33280
33266
33272
33268
33270
33268
33280
33260
33260
33244
33252
33240
33233
33240
33242
33236
33237
33233
33240
33236
33248
33238
33252
33242
33258
33237
33250
33245
33240
33242
33228
33234
33228
33231
33224
33228
33228
33234
33240
33234
33245
33236
33260
33240
33252
33252
33244
33252
33236
33244
33238
33234
33236
33234
33228
33221
33228
33228
33236
33238
33234
33241
33245
33245
33255
33242
33252
33246
33236
33236
33226
33226
33220
33216
33208
33212
33206
33210
33213
33208
33218
33222
33220
33224
33216
33218
33212
33208
33210
33196
33192
33184
33186
33182
33162
33173
33172
33174
33188
33177
33184
33176
33180
33194
33176
33182
33176
33168
33178
33161
33157
33152
33140
33151
33142
33144
33142
33137
33140
33138
33144
33144
33148
33122
33140
33128
33140
33132
33121
33113
33108
33112
33088
33108
33086
33089
33084
33087
33087
33092
33095
33090
33090
33088
33100
33090
33082
33095
33074
33084
33076
33069
33065
33068
33054
33068
33056
33076
33062
33072
33066
33073
33070
33076
33064
33076
33066
33060
33058
33052
33036
33030
33017
33016
33000
32997
32999
32994
32992
32988
32992
32976
32976
32966
32970
32958
32956
32954
32932
32932
32929
32925
32913
32908
32916
32908
32912
32908
32929
32914
32933
32924
32933
32937
32930
32940
32928
32928
32918
32926
32924
32920
32922
32908
32914
32900
32916
32916
32918
32919
32932
32921
32932
32924
32933
32924
32922
32929
32904
32914
32900
32896
32902
32888
32892
32892
32884
32904
32898
32904
32902
32897
32904
32906
32907
32910
32904
32904
32906
32900
32896
32886
32892
32887
32892
32884
32898
32892
32894
32908
32902
32916
32908
32919
32910
32918
32906
32908
32898
32901
32892
32887
32886
32879
32878
32872
32884
32871
32878
32868
32878
32868
32876
32878
32872
32872
32872
32846
32852
32839
32841
32834
32833
32809
32820
32804
32812
32796
32808
32805
32804
32804
32800
32800
32792
32788
32780
32786
32772
32756
32748
32750
32740
32739
32729
32728
32720
32717
32724
32716
32722
32720
32724
32704
32718
32708
32702
32700
32691
32678
32677
32665
32672
32648
32654
32636
32654
32641
32645
32644
32652
32644
32644
32646
32637
32644
32631
32632
32631
32620
32626
32604
32612
32602
32598
32602
32584
32596
32598
32599
32605
32604
32606
32610
32606
32614
32604
32609
32598
32591
32596
32582
32582
32583
32576
32588
32580
32588
32588
32584
32600
32601
32600
32612
32610
32613
32609
32612
32604
32598
32598
32596
32590
32596
32590
32592
32598
32607
32601
32612
32612
32612
32618
32612
32624
32621
32628
32620
32624
32608
32626
32612
32612
32601
32612
32606
32604
32615
32620
32620
32638
32632
32632
32636
32640
32640
32638
32652
32631
32646
32631
32642
32636
32640
32636
32638
32644
32645
32644
32657
32664
32670
32668
32664
32679
32680
32664
32682
32660
32680
32664
32666
32660
32656
32660
32657
32668
32658
32672
32669
32680
32678
32687
32682
32685
32698
32692
32689
32684
32680
32676
32683
32670
32673
32668
32680
32676
32696
32676
32697
32694
32704
32704
32720
32710
32719
32720
32716
32728
32724
32724
32721
32724
32724
32722
32729
32726
32730
32748
32740
32762
32760
32774
32765
32786
32775
32778
32789
32781
32780
32776
32766
32780
32772
32768
32776
32775
32774
32792
32792
32805
32800
32812
32806
32812
32817
32800
32816
32817
32802
32808
32792
32804
32792
32796
32800
32794
32807
32802
32808
32804
32824
32817
32814
32824
32820
32822
32808
32824
32800
32820
32800
32812
32797
32806
32800
32812
32807
32810
32812
32820
32826
32836
32837
32832
32836
32832
32836
32830
32836
32830
32828
32824
32820
32816
32824
32824
32818
32832
32838
32847
32849
32850
32853
32856
32861
32861
32853
32856
32852
32852
32840
32844
32831
32848
32836
32836
32848
32844
32861
32848
32864
32862
32870
32861
32870
32874
32860
32868
32860
32852
32848
32848
32846
32849
32836
32849
32836
32844
32856
32856
32858
32856
32870
32852
32860
32856
32852
32840
32840
32836
32833
32822
32822
32814
32817
32806
32816
32824
32828
32822
32830
32829
32838
32828
32828
32828
32810
32824
32810
32804
32804
32802
32800
32788
32789
32792
32798
32783
32790
32788
32804
32796
32800
32791
32804
32788
32792
32780
32780
32768
32774
32760
32764
32754
32752
32741
32748
32756
32753
32752
32760
32756
32758
32756
32752
32752
32748
32757
32744
32748
32721
32745
32724
32734
32736
32734
32736
32738
32748
32750
32750
32760
32760
32760
32769
32748
32756
32740
32742
32740
32735
32732
32725
32717
32712
32708
32708
32709
32708
32696
32698
32716
32705
32702
32694
32694
32688
32672
32682
32666
32661
32658
32649
32657
32654
32648
32654
32640
32660
32652
32662
32671
32672
32666
32660
32668
32656
32644
32654
32636
32639
32633
32622
32624
32630
32621
32620
32622
32614
32636
32620
32624
32612
32624
32605
32608
32603
32598
32584
32580
32576
32568
32552
32550
32548
32532
32550
32540
32544
32536
32541
32550
32533
32549
32536
32528
32533
32527
32526
32506
32516
32496
32503
32486
32492
32488
32488
32486
32476
32490
32488
32484
32485
32490
32484
32472
32476
32460
32452
32440
32444
32437
32432
32428
32412
32424
32397
32408
32404
32396
32396
32382
32396
32374
32373
32368
32358
32348
32334
32324
32312
32300
32296
32284
32285
32280
32263
32264
32248
32252
32244
32240
32232
32232
32229
32219
32212
32188
32184
32172
32160
32148
32132
32136
32118
32120
32104
32102
32100
32092
32096
32088
32074
32076
32065
32060
32046
32028
32032
32010
32004
31988
31980
31976
31956
31956
31948
31940
31940
31938
31932
31932
31922
31910
31916
31900
31897
31876
31870
31864
31844
31845
31820
31824
31813
31812
31812
31792
31801
31788
31806
31784
31788
31782
31780
31780
31768
31758
31752
31732
31740
31722
31729
31716
31720
31704
31706
31712
31692
31710
31700
31697
31708
31688
31706
31677
31688
31668
31668
31674
31652
31660
31644
31646
31636
31629
31640
31632
31633
31648
31636
31652
31636
31648
31641
31628
31632
31620
31622
31610
31597
31598
31586
31588
31593
31578
31591
31588
31586
31604
31586
31596
31596
31594
31598
31588
31596
31586
31580
31579
31564
31568
31552
31564
31552
31560
31561
31562
31568
31564
31578
31567
31576
31568
31572
31580
31564
31564
31556
31552
31548
31544
31534
31545
31532
31540
31527
31543
31534
31542
31548
31544
31540
31552
31548
31540
31540
31532
31529
31524
31520
31509
31510
31512
31501
31517
31500
31512
31501
31514
31524
31520
31530
31528
31529
31524
31524
31520
31512
31516
31496
31508
31496
31504
31494
31504
31512
31504
31520
31516
31518
31528
31524
31529
31528
31539
31516
31525
31517
31513
31516
31508
31508
31514
31504
31503
31510
31504
31516
31512
31524
31518
31532
31524
31526
31508
31526
31500
31513
31498
31502
31497
31496
31493
31491
31493
31492
31494
31490
31496
31504
31503
31508
31508
31508
31510
31502
31490
31498
31493
31492
31474
31486
31484
31476
31482
31464
31479
31482
31484
31486
31489
31500
31486
31492
31482
31487
31468
31480
31478
31462
31444
31460
31452
31437
31444
31454
31448
31456
31460
31464
31460
31456
31472
31460
31468
31466
31452
31460
31448
31445
31432
31434
31429
31436
31424
31433
31432
31432
31436
31444
31448
31445
31456
31448
31453
31440
31452
31433
31428
31428
31424
31420
31416
31417
31417
31409
31428
31420
31434
31428
31430
31432
31436
31432
31428
31424
31422
31408
31418
31404
31406
31392
31396
31380
31400
31376
31390
31377
31386
31388
31385
31381
31382
31370
31373
31368
31362
31356
31356
31340
31336
31332
31329
31320
31321
31308
31320
31312
31319
31314
31321
31321
31316
31313
31305
31306
31295
31294
31284
31284
31276
31278
31276
31264
31280
31269
31276
31276
31268
31282
31280
31274
31280
31280
31279
31280
31266
31264
31256
31268
31260
31256
31248
31247
31258
31244
31262
31264
31261
31268
31270
31274
31269
31274
31272
31276
31276
31276
31268
31272
31272
31268
31264
31272
31264
31269
31280
31284
31280
31290
31284
31292
31287
31285
31284
31286
31284
31264
31268
31256
31248
31258
31244
31240
31258
31248
31254
31248
31258
31268
31266
31280
31270
31290
31281
31288
31284
31283
31284
31286
31284
31284
31296
31287
31294
31292
31313
31312
31320
31324
31328
31340
31345
31342
31360
31344
31349
31356
31348
31348
31350
31348
31357
31354
31354
31360
31374
31375
31388
31388
31397
31408
31410
31420
31412
31416
31422
31404
31428
31418
31424
31429
31428
31448
31440
31452
31456
31472
31476
31487
31494
31504
31516
31518
31533
31525
31533
31536
31533
31536
31548
31537
31556
31556
31564
31580
31574
31594
31606
31614
31624
31632
31636
31640
31644
31644
31656
31662
31648
31671
31656
31668
31660
31670
31681
31680
31698
31698
31710
31716
31732
31720
31750
31740
31751
31750
31754
31752
31758
31760
31760
31768
31774
31768
31784
31784
31804
31806
31812
31824
31832
31852
31848
31860
31855
31876
31876
31871
31892
31877
31890
31880
31896
31900
31908
31924
31924
31936
31944
31966
31978
31970
32000
31989
32010
32010
32008
32020
32002
32031
32016
32020
32037
32029
32046
32048
32065
32062
32068
32090
32085
32108
32108
32108
32124
32124
32118
32120
32128
32124
32122
32140
32135
32136
32136
32150
32150
32160
32168
32173
32192
32195
32201
32197
32206
32204
32212
32212
32204
32220
32220
32214
32220
32225
32229
32236
32240
32260
32252
32277
32284
32286
32296
32306
32308
32313
32318
32324
32318
32335
32336
32340
32350
32360
32381
32377
32396
32423
32430
32440
32468
32470
32500
32506
32508
32542
32536
32546
32564
32564
32586
32598
32608
32628
32636
32649
32676
32676
32714
32732
32744
32764
32777
32804
32810
32824
32844
32847
32868
32868
32878
32900
32904
32922
32936
32950
32976
32991
33000
33030
33045
33050
33072
33093
33098
33114
33117
33128
33142
33142
33152
33180
33178
33184
33212
33214
33232
33252
33260
33282
33292
33318
33326
33333
33352
33344
33364
33366
33379
33391
33386
33397
33400
33422
33412
33428
33446
33460
33479
33487
33489
33511
33518
33524
33536
33530
33552
33538
33552
33544
33552
33553
33560
33572
33572
33580
33580
33600
33600
33612
33620
33620
33634
33636
33640
33628
33641
33639
33640
33626
33636
33632
33629
33628
33624
33652
33628
33652
33641
33657
33656
33660
33656
33656
33652
33648
33652
33636
33641
33632
33632
33628
33628
33620
33628
33604
33628
33613
33624
33628
33620
33626
33628
33628
33620
33614
33600
33600
33588
33592
33570
33568
33568
33551
33546
33556
33556
33557
33545
33540
33556
33554
33552
33530
33552
33532
33526
33520
33508
33506
33489
33484
33489
33477
33488
33465
33472
33476
33471
33480
33470
33476
33469
33461
33470
33452
33456
33436
33436
33420
33415
33408
33390
33388
33380
33384
33388
33377
33382
33382
33381
33380
33360
33370
33366
33345
33344
33324
33316
33313
33296
33302
33282
33270
33285
33252
33260
33252
33250
33252
33242
33238
33241
33222
33221
33201
33198
33178
33164
33156
33142
33126
33125
33098
33100
33085
33092
33072
33066
33056
33060
33040
33044
33020
33018
33004
32972
32976
32944
32943
32924
32902
32900
32864
32871
32853
32834
32828
32816
32816
32806
32783
32780
32756
32748
32727
32711
32692
32684
32660
32636
32622
32601
32592
32577
32548
32545
32530
32524
32496
32488
32484
32461
32456
32434
32409
32406
32372
32358
32332
32314
32304
32280
32261
32252
32241
32228
32214
32196
32198
32192
32176
32154
32132
32116
32104
32084
32064
32036
32024
31996
31968
31954
31924
31904
31895
31868
31861
31844
31824
31812
31786
31777
31756
31722
31700
31684
31656
31636
31624
31599
31588
31543
31544
31516
31508
31498
31471
31452
31448
31429
31418
31398
31390
31367
31332
31325
31292
31272
31246
31221
31212
31182
31165
31148
31124
31118
31086
31073
31064
31038
31034
31000
30980
30956
30925
30910
30874
30852
30812
30785
30769
30742
30712
30682
30679
30631
30624
30592
30580
30556
30528
30514
30466
30465
30425
30401
30373
30338
30318
30276
30249
30228
30190
30172
30156
30122
30104
30072
30065
30032
30022
29996
29953
29942
29904
29879
29853
29818
29796
29756
29748
29711
29694
29668
29641
29636
29604
29607
29564
29560
29552
29524
29522
29478
29470
29450
29432
29421
29392
29386
29360
29348
29345
29320
29320
29320
29312
29308
29301
29306
29303
29290
29302
29290
29294
29294
29278
29286
29274
29280
29280
29274
29296
29285
29292
29312
29316
29332
29356
29348
29364
29373
29376
29410
29418
29429
29441
29442
29452
29465
29476
29481
29504
29519
29540
29553
29572
29604
29617
29646
29652
29684
29695
29721
29724
29744
29757
29767
29792
29796
29814
29825
29848
29858
29884
29896
29908
29944
29961
29988
29992
30028
30034
30052
30064
30073
30094
30096
30117
30113
30145
30140
30158
30184
30188
30214
30218
30252
30260
30286
30302
30317
30340
30342
30362
30362
30390
30376
30398
30410
30414
30420
30442
30449
30468
30492
30492
30528
30524
30557
30564
30589
30600
30605
30606
30640
30636
30656
30652
30668
30674
30700
30701
30717
30744
30744
30781
30791
30806
30837
30840
30860
30878
30892
30903
30920
30934
30936
30960
30960
30984
30992
31008
31006
31032
31056
31075
31076
31118
31124
31148
31166
31186
31186
31212
31204
31228
31228
31244
31252
31264
31288
31284
31313
31316
31344
31344
31388
31378
31421
31424
31444
31461
31464
31500
31492
31516
31505
31536
31532
31558
31552
31586
31588
31600
31616
31645
31652
31679
31692
31711
31724
31742
31756
31773
31788
31788
31801
31793
31822
31826
31854
31850
31868
31880
31904
31924
31941
31941
31972
31992
31996
32016
32021
32042
32039
32072
32058
32068
32081
32084
32102
32100
32116
32136
32144
32169
32170
32188
32200
32212
32241
32230
32258
32250
32274
32270
32284
32277
32292
32297
32296
32316
32322
32335
32325
32354
32370
32382
32396
32404
32406
32420
32432
32436
32437
32434
32468
32452
32460
32456
32462
32472
32472
32500
32494
32518
32516
32544
32547
32558
32568
32572
32579
32588
32588
32590
32604
32596
32613
32604
32618
32626
32636
32644
32648
32664
32670
32692
32695
32708
32720
32740
32728
32750
32736
32757
32749
32762
32771
32770
32782
32785
32788
32807
32804
32828
32834
32856
32865
32874
32886
32892
32904
32905
32928
32928
32932
32932
32940
32932
32956
32952
32968
32978
32990
33004
33012
33035
33040
33058
33068
33080
33082
33089
33103
33108
33112
33112
33128
33120
33148
33132
33157
33159
33178
33188
33198
33209
33225
33234
33244
33254
33272
33276
33282
33284
33294
33292
33298
33300
33312
33308
33332
33333
33356
33341
33372
33370
33400
33382
33414
33402
33424
33418
33431
33423
33428
33430
33436
33438
33441
33452
33444
33465
33460
33474
33480
33484
33493
33489
33505
33516
33516
33516
33526
33508
33526
33519
33522
33530
33521
33536
33528
33538
33549
33572
33564
33580
33584
33588
33604
33597
33612
33615
33616
33608
33614
33616
33617
33605
33612
33608
33616
33612
33633
33620
33636
33633
33637
33636
33633
33654
33637
33644
33630
33636
33624
33626
33609
33620
33620
33620
33606
33612
33612
33632
33626
33644
33642
33654
33652
33662
33660
33656
33680
33666
33676
33676
33685
33684
33684
33705
33697
33718
33728
33734
33751
33760
33784
33782
33800
33814
33818
33820
33829
33838
33834
33856
33836
33860
33850
33866
33868
33871
33886
33884
33910
33904
33926
33926
33932
33948
33948
33954
33956
33952
33962
33944
33964
33948
33954
33937
33954
33944
33956
33956
33967
33966
33966
33967
33972
33964
33968
33972
33950
33950
33946
33934
33924
33916
33902
33900
33900
33892
33896
33886
33878
33877
33884
33868
33878
33856
33852
33848
33826
33818
33804
33799
33766
33770
33758
33748
33740
33728
33718
33724
33710
33710
33696
33708
33685
33688
33669
33676
33656
33646
33639
33620
33613
33600
33589
33580
33576
33572
33572
33550
33561
33557
33546
33551
33550
33544
33537
33532
33526
33519
33492
33505
33474
33494
33472
33468
33453
33456
33452
33448
33464
33452
33468
33464
33476
33453
33464
33460
33448
33463
33452
33438
33442
33448
33446
33448
33444
33448
33451
33460
33472
33468
33492
33484
33506
33508
33514
33512
33524
33520
33530
33524
33524
33536
33525
33541
33542
33548
33564
33568
33592
33592
33604
33620
33622
33637
33632
33640
33652
33653
33660
33656
33676
33672
33675
33673
33680
33692
33697
33717
33724
33732
33748
33744
33767
33768
33772
33781
33773
33799
33785
33804
33798
33812
33796
33818
33822
33824
33834
33850
33860
33878
33879
33900
33912
33908
33919
33933
33926
33945
33940
33942
33956
33956
33964
33960
33976
33983
33992
33990
34023
34022
34042
34042
34062
34064
34068
34080
34076
34096
34096
34076
34104
34096
34098
34112
34104
34128
34120
34132
34150
34146
34164
34172
34174
34191
34185
34192
34204
34180
34197
34191
34199
34200
34192
34200
34200
34207
34214
34214
34228
34244
34236
34252
34253
34256
34272
34268
34274
34271
34272
34273
34266
34279
34282
34278
34282
34287
34292
34300
34296
34320
34328
34336
34340
34352
34352
34353
34348
34356
34348
34360
34360
34352
34362
34364
34362
34366
34368
34384
34380
34394
34400
34404
34414
34415
34425
34416
34424
34428
34412
34425
34415
34410
34421
34412
34418
34420
34419
34436
34432
34432
34444
34446
34456
34452
34464
34456
34450
34457
34452
34455
34452
34444
34444
34459
34452
34446
34456
34460
34460
34480
34472
34484
34480
34488
34492
34500
34486
34484
34485
34492
34480
34482
34472
34488
34474
34482
34484
34492
34484
34488
34510
34496
34529
34511
34514
34508
34520
34508
34508
34504
34496
34497
34484
34500
34487
34498
34480
34510
34498
34522
34508
34526
34524
34524
34527
34524
34528
34515
34528
34504
34508
34500
34501
34508
34493
34509
34501
34512
34504
34524
34521
34528
34526
34529
34532
34529
34526
34528
34524
34510
34512
34510
34504
34517
34496
34510
34500
34524
34508
34524
34519
34530
34528
34532
34520
34528
34518
34516
34508
34504
34494
34500
34486
34492
34484
34494
34473
34489
34476
34490
34488
34497
34484
34492
34489
34472
34476
34470
34460
34450
34456
34436
34440
34420
34424
34416
34420
34414
34422
34416
34416
34422
34412
34421
34412
34422
34398
34402
34390
34400
34380
34385
34376
34378
34378
34372
34372
34374
34384
34388
34393
34388
34404
34388
34398
34384
34382
34380
34366
34372
34351
34356
34337
34342
34334
34325
34316
34320
34316
34324
34308
34308
34322
34302
34297
34292
34284
34276
34264
34248
34244
34252
34224
34224
34220
34228
34220
34232
34234
34225
34223
34236
34240
34231
34238
34234
34236
34230
34240
34219
34221
34216
34212
34220
34209
34222
34217
34224
34210
34246
34222
34248
34233
34250
34246
34252
34241
34250
34236
34228
34232
34224
34232
34225
34224
34224
34226
34222
34220
34234
34220
34236
34224
34236
34220
34220
34229
34209
34208
34192
34188
34180
34158
34169
34151
34156
34144
34143
34140
34132
34128
34120
34124
34100
34114
34084
34088
34068
34056
34030
34017
34013
33986
33980
33961
33958
33940
33928
33924
33901
33905
33888
33892
33869
33858
33836
33824
33802
33788
33764
33749
33722
33719
33700
33685
33668
33658
33636
33636
33612
33616
33588
33594
33568
33562
33526
33527
33498
33479
33456
33444
33428
33410
33390
33376
33369
33352
33326
33343
33316
33314
33288
33294
33272
33264
33246
33234
33212
33205
33180
33174
33144
33140
33124
33126
33102
33100
33084
33088
33076
33080
33068
33068
33060
33060
33052
33042
33026
33033
33004
33008
32994
32996
32984
32990
32970
32984
32970
32983
32976
32985
32982
32983
32984
32992
32981
32980
32964
32978
32966
32965
32964
32954
32948
32956
32953
32960
32960
32962
32970
32972
32984
32967
32996
32981
32992
32976
32996
32980
32980
32972
32976
32976
32974
32974
32968
32988
32980
33004
32995
33009
33008
33026
33013
33036
33028
33028
33022
33030
33032
33020
33024
33024
33016
33040
33028
33040
33052
33054
33076
33075
33082
33098
33100
33092
33104
33102
33102
33100
33101
33106
33092
33104
33096
33112
33108
33108
33126
33118
33128
33132
33148
33152
33154
33164
33146
33160
33148
33156
33140
33153
33137
33150
33142
33148
33144
33142
33148
33162
33156
33175
33164
33172
33173
33160
33180
33164
33173
33164
33157
33156
33145
33152
33132
33150
33136
33148
33150
33150
33149
33154
33168
33156
33177
33168
33178
33168
33168
33165
33170
33152
33164
33152
33164
33147
33164
33156
33176
33172
33188
33188
33200
33194
33216
33208
33228
33210
33212
33208
33204
33213
33212
33216
33208
33212
33212
33216
33236
33221
33244
33248
33256
33261
33260
33260
33256
33269
33253
33253
33252
33252
33256
33254
33240
33256
33248
33244
33252
33244
33264
33248
33268
33262
33260
33260
33254
33253
33236
33244
33220
33230
33206
33218
33200
33208
33202
33205
33193
33193
33196
33193
33188
33204
33174
33188
33170
33180
33148
33164
33138
33140
33120
33117
33102
33098
33086
33094
33076
33088
33073
33088
33077
33080
33076
33073
33052
33046
33044
33026
33028
33004
33001
32992
32984
32980
32964
32970
32964
32964
32962
32951
32952
32960
32952
32948
32934
32928
32919
32916
32903
32892
32884
32877
32872
32872
32862
32868
32846
32862
32853
32861
32852
32855
32852
32852
32848
32832
32844
32820
32814
32812
32792
32796
32796
32788
32790
32783
32796
32780
32781
32792
32784
32799
32785
32788
32776
32782
32772
32768
32744
32760
32742
32738
32720
32724
32717
32712
32720
32716
32720
32724
32722
32720
32720
32712
32708
32712
32698
32702
32681
32667
32676
32652
32664
32645
32644
32641
32645
32640
32652
32652
32654
32656
32656
32658
32660
32644
32638
32650
32638
32636
32629
32616
32624
32620
32618
32617
32624
32628
32622
32624
32624
32638
32622
32626
32620
32612
32608
32592
32588
32574
32564
32544
32550
32526
32534
32522
32516
32524
32512
32513
32502
32508
32508
32502
32508
32482
32488
32473
32468
32468
32446
32448
32434
32436
32430
32426
32421
32420
32428
32412
32430
32423
32418
32420
32408
32404
32390
32384
32372
32366
32356
32352
32336
32348
32332
32334
32321
32324
32328
32330
32324
32318
32316
32316
32316
32300
32298
32280
32271
32277
32254
32260
32244
32236
32230
32227
32236
32240
32228
32220
32230
32220
32224
32216
32214
32198
32196
32180
32184
32167
32158
32148
32148
32132
32130
32124
32116
32120
32112
32108
32110
32104
32084
32088
32064
32066
32044
32033
32018
31998
31998
31973
31964
31944
31940
31924
31924
31896
31902
31884
31884
31862
31856
31846
31836
31808
31796
31772
31760
31736
31716
31702
31687
31669
31668
31641
31639
31625
31621
31596
31600
31586
31580
31566
31546
31528
31518
31500
31477
31465
31436
31432
31422
31404
31388
31372
31372
31362
31354
31340
31341
31316
31312
31304
31290
31284
31260
31253
31230
31230
31204
31205
31180
31176
31156
31160
31142
31148
31134
31136
31138
31130
31126
31116
31104
31104
31080
31072
31060
31060
31044
31032
31028
31028
31010
31012
31004
31012
31004
30998
31004
30994
30988
30984
30974
30980
30956
30961
30941
30940
30922
30928
30910
30904
30904
30904
30900
30894
30896
30890
30904
30888
30896
30886
30884
30882
30870
30858
30856
30852
30833
30832
30820
30820
30815
30807
30816
30804
30810
30808
30808
30816
30814
30812
30798
30800
30788
30789
30776
30774
30760
30764
30742
30760
30742
30756
30744
30762
30750
30756
30760
30758
30772
30764
30776
30752
30764
30751
30754
30740
30741
30728
30738
30724
30734
30732
30738
30720
30737
30750
30748
30750
30756
30756
30752
30752
30754
30753
30736
30744
30728
30737
30718
30733
30724
30732
30740
30745
30753
30748
30760
30762
30762
30760
30776
30756
30764
30748
30768
30741
30760
30734
30752
30750
30752
30756
30760
30764
30772
30772
30788
30790
30796
30802
30800
30804
30812
30808
30800
30815
30808
30806
30805
30798
30814
30820
30821
30833
30848
30854
30846
30857
30865
30881
30872
30881
30874
30876
30872
30874
30876
30872
30869
30872
30876
30872
30879
30880
30894
30888
30912
30908
30909
30916
30914
30913
30916
30894
30910
30894
30901
30900
30888
30893
30888
30896
30886
30892
30897
30898
30912
30900
30911
30908
30902
30901
30898
30900
30882
30888
30874
30884
30860
30864
30864
30862
30857
30865
30868
30857
30876
30860
30882
30871
30869
30864
30862
30860
30842
30842
30834
30829
30830
30822
30824
30812
30823
30820
30823
30821
30825
30817
30836
30818
30820
30822
30804
30796
30786
30776
30772
30776
30764
30756
30750
30750
30756
30754
30752
30753
30751
30768
30748
30752
30742
30750
30724
30728
30713
30716
30689
30696
30684
30692
30683
30684
30684
30690
30676
30678
30688
30688
30688
30687
30684
30672
30676
30660
30668
30648
30655
30645
30650
30637
30640
30628
30648
30636
30652
30645
30648
30652
30664
30650
30668
30656
30660
30638
30657
30633
30644
30626
30644
30628
30644
30628
30648
30636
30639
30644
30662
30665
30666
30664
30672
30668
30670
30652
30670
30644
30656
30653
30660
30662
30664
30668
30664
30677
30692
30694
30713
30710
30728
30734
30732
30744
30740
30741
30756
30744
30745
30756
30754
30757
30748
30768
30772
30769
30794
30784
30799
30802
30800
30808
30800
30804
30812
30808
30809
30802
30812
30806
30810
30822
30820
30836
30836
30858
30855
30870
30892
30904
30908
30924
30912
30932
30937
30926
30948
30932
30952
30940
30960
30948
30959
30965
30964
30984
30983
31001
31006
31008
31028
31016
31032
31028
31024
31032
31014
31030
31010
31028
31016
31012
31021
31020
31032
31028
31044
31044
31053
31062
31070
31060
31072
31068
31065
31070
31076
31073
31066
31072
31061
31080
31068
31076
31093
31085
31113
31111
31121
31134
31145
31152
31152
31144
31161
31151
31172
31157
31170
31170
31178
31164
31184
31183
31204
31202
31212
31228
31239
31240
31250
31249
31257
31258
31258
31253
31268
31256
31260
31255
31253
31256
31248
31268
31254
31272
31266
31276
31280
31300
31288
31300
31292
31300
31288
31303
31284
31286
31286
31276
31288
31280
31286
31292
31296
31300
31310
31300
31324
31312
31336
31329
31340
31333
31340
31332
31334
31340
31334
31335
31335
31348
31340
31361
31346
31372
31368
31398
31395
31408
31416
31416
31425
31422
31440
31440
31444
31452
31440
31449
31456
31456
31460
31476
31484
31492
31508
31520
31532
31556
31546
31584
31568
31588
31584
31590
31596
31602
31600
31610
31620
31618
31636
31636
31663
31656
31680
31687
31704
31710
31727
31734
31756
31744
31773
31756
31780
31772
31796
31780
31801
31806
31813
31816
31834
31848
31864
31872
31892
31900
31916
31923
31948
31930
31960
31957
31972
31968
31996
31980
32006
32000
32032
32020
32052
32052
32082
32092
32116
32129
32148
32164
32172
32182
32189
32202
32220
32228
32236
32238
32261
32260
32278
32290
32312
32324
32340
32356
32374
32396
32416
32424
32437
32453
32448
32470
32468
32488
32480
32503
32504
32524
32529
32545
32556
32564
32582
32600
32632
32632
32659
32658
32676
32682
32689
32697
32696
32712
32708
32721
32734
32736
32752
32758
32764
32792
32802
32820
32824
32832
32844
32858
32878
32855
32882
32884
32892
32894
32900
32904
32906
32916
32914
32933
32926
32962
32950
32961
32992
32986
33005
32994
33022
33012
33036
33020
33032
33028
33046
33028
33042
33040
33049
33048
33062
33058
33068
33076
33082
33100
33092
33100
33109
33108
33102
33104
33102
33097
33100
33094
33092
33088
33088
33092
33097
33092
33108
33108
33120
33112
33129
33113
33130
33112
33122
33108
33112
33097
33101
33078
33094
33085
33088
33070
33088
33080
33093
33080
33096
33092
33100
33090
33080
33092
33079
33086
33064
33066
33054
33058
33044
33040
33040
33029
33037
33030
33036
33036
33028
33038
33041
33034
33036
33022
33021
33016
33008
33012
32980
32992
32969
32975
32972
32980
32968
32970
32967
32961
32965
32968
32970
32965
32960
32941
32951
32940
32928
32920
32912
32912
32892
32904
32888
32886
32879
32876
32888
32872
32880
32872
32881
32870
32871
32861
32849
32848
32832
32841
32826
32807
32810
32800
32802
32789
32796
32786
32806
32788
32800
32790
32801
32790
32796
32789
32772
32774
32756
32756
32736
32744
32728
32732
32730
32726
32732
32724
32729
32736
32732
32741
32728
32746
32736
32743
32721
32730
32720
32720
32708
32704
32708
32689
32706
32694
32705
32692
32708
32704
32716
32716
32724
32724
32720
32720
32712
32727
32705
32722
32710
32708
32708
32703
32723
32704
32724
32716
32732
32736
32760
32736
32766
32752
32762
32766
32760
32758
32765
32760
32752
32759
32748
32748
32740
32745
32740
32751
32740
32756
32764
32762
32772
32756
32781
32767
32770
32754
32774
32758
32773
32760
32767
32760
32768
32769
32775
32798
32784
32811
32802
32816
32816
32832
32816
32822
32824
32818
32814
32816
32820
32807
32813
32810
32809
32816
32820
32830
32844
32836
32850
32854
32860
32860
32860
32868
32856
32864
32856
32854
32860
32844
32858
32842
32852
32849
32864
32855
32869
32868
32876
32894
32889
32904
32886
32896
32892
32897
32890
32892
32892
32884
32890
32876
32896
32886
32900
32898
32904
32912
32916
32921
32930
32938
32928
32940
32928
32932
32927
32932
32905
32918
32903
32914
32918
32902
32912
32908
32916
32920
32926
32924
32932
32929
32930
32921
32918
32914
32905
32904
32906
32894
32880
32890
32880
32878
32884
32884
32889
32884
32899
32896
32897
32912
32896
32902
32887
32900
32892
32893
32880
32887
32872
32884
32880
32882
32886
32884
32902
32898
32918
32912
32924
32924
32936
32932
32941
32943
32948
32936
32943
32947
32958
32950
32962
32965
32977
32984
33001
33018
33016
33036
33040
33063
33065
33076
33088
33087
33098
33102
33108
33110
33116
33128
33140
33160
33156
33172
33202
33196
33229
33232
33253
33260
33276
33293
33286
33305
33309
33325
33324
33329
33344
33332
33368
33372
33380
33383
33420
33414
33436
33441
33468
33473
33488
33492
33492
33504
33504
33516
33508
33524
33527
33528
33544
33537
33568
33566
33584
33597
33600
33614
33624
33636
33639
33652
33652
33650
33661
33666
33674
33673
33684
33677
33700
33695
33716
33712
33729
33742
33748
33770
33778
33796
33788
33817
33810
33816
33822
33828
33840
33832
33839
33838
33860
33860
33864
33877
33885
33908
33908
33932
33928
33948
33949
33960
33956
33970
33974
33974
33988
33988
33998
34000
34000
34012
34017
34040
34044
34056
34068
34074
34089
34095
34116
34109
34120
34132
34126
34134
34138
34133
34148
34144
34152
34160
34156
34181
34185
34215
34200
34228
34230
34236
34248
34247
34260
34260
34265
34256
34268
34270
34272
34278
34288
34287
34310
34313
34320
34318
34344
34332
34364
34364
34366
34368
34388
34370
34386
34376
34396
34375
34388
34376
34402
34396
34414
34412
34432
34426
34444
34448
34452
34461
34464
34476
34460
34480
34473
34480
34484
34488
34484
34480
34494
34488
34502
34504
34528
34520
34548
34536
34564
34548
34580
34568
34570
34572
34576
34580
34576
34576
34568
34588
34580
34596
34592
34612
34611
34620
34618
34632
34640
34644
34644
34657
34664
34655
34660
34644
34652
34648
34654
34648
34664
34656
34656
34676
34676
34692
34684
34713
34712
34711
34717
34716
34724
34716
34716
34719
34709
34720
34712
34721
34716
34716
34720
34733
34724
34751
34740
34767
34762
34764
34768
34764
34768
34772
34765
34765
34772
34760
34766
34762
34772
34772
34776
34784
34788
34802
34804
34800
34812
34816
34825
34823
34836
34818
34841
34816
34836
34820
34832
34836
34834
34832
34846
34838
34870
34854
34880
34882
34901
34888
34908
34893
34900
34900
34892
34898
34894
34896
34905
34894
34912
34904
34920
34910
34926
34932
34948
34948
34958
34965
34964
34972
34966
34972
34965
34968
34968
34964
34968
34964
34976
34976
34980
34973
34993
34994
35009
35004
35027
35020
35030
35028
35024
35034
35043
35032
35034
35028
35036
35040
35044
35052
35040
35059
35066
35064
35084
35076
35100
35092
35092
35080
35093
35082
35078
35068
35064
35060
35048
35052
35044
35035
35044
35044
35042
35048
35036
35056
35044
35068
35044
35060
35040
35048
35044
35044
35025
35036
35025
35033
35025
35033
35032
35026
35032
35044
35041
35061
35064
35072
35068
35073
35066
35073
35068
35076
35064
35068
35056
35076
35064
35079
35078
35084
35084
35100
35100
35116
35108
35120
35108
35128
35114
35122
35109
35122
35108
35112
35112
35120
35114
35118
35112
35132
35120
35133
35130
35152
35140
35152
35156
35156
35148
35146
35136
35146
35126
35132
35121
35120
35116
35118
35114
35126
35116
35120
35132
35120
35136
35124
35132
35116
35116
35100
35096
35086
35072
35072
35063
35048
35044
35046
35034
35038
35030
35018
35038
35016
35036
35020
35012
35012
35004
34996
34976
34972
34957
34964
34940
34950
34925
34933
34928
34932
34910
34924
34922
34924
34924
34916
34917
34912
34906
34887
34892
34882
34880
34863
34860
34857
34852
34848
34852
34850
34844
34842
34856
34844
34857
34852
34856
34852
34848
34852
34839
34830
34828
34836
34822
34828
34833
34816
34844
34830
34846
34836
34854
34849
34868
34869
34878
34876
34876
34880
34884
34879
34882
34880
34878
34886
34884
34890
34892
34910
34910
34921
34932
34940
34949
34958
34956
34966
34958
34972
34965
34976
34967
34976
34972
34983
34968
34990
34980
35006
34992
35012
35017
35024
35030
35040
35044
35038
35057
35048
35061
35054
35044
35050
35044
35045
35050
35057
35054
35068
35070
35082
35092
35100
35114
35101
35119
35116
35120
35112
35124
35116
35130
35120
35128
35118
35134
35122
35128
35136
35152
35153
35172
35166
35180
35176
35193
35198
35190
35198
35190
35207
35188
35214
35189
35208
35204
35212
35214
35216
35232
35232
35244
35247
35263
35247
35284
35266
35280
35274
35280
35265
35272
35264
35281
35273
35284
35273
35280
35280
35294
35292
35304
35309
35320
35320
35328
35332
35318
35334
35326
35324
35340
35316
35332
35313
35336
35310
35332
35324
35348
35332
35350
35356
35360
35369
35372
35376
35364
35384
35360
35367
35354
35364
35360
35360
35348
35358
35360
35356
35372
35364
35392
35389
35393
35388
35394
35392
35414
35396
35396
35388
35384
35396
35373
35392
35374
35392
35372
35392
35377
35400
35392
35413
35418
35420
35420
35420
35406
35424
35413
35408
35398
35408
35388
35404
35392
35408
35394
35413
35402
35420
35428
35436
35426
35429
35446
35441
35439
35436
35432
35424
35432
35421
35423
35420
35416
35426
35424
35428
35424
35436
35431
35455
35450
35460
35452
35460
35455
35444
35452
35444
35441
35429
35432
35420
35444
35420
35436
35418
35434
35428
35444
35440
35452
35448
35452
35446
35447
35441
35440
35431
35442
35424
35430
35412
35425
35412
35414
35400
35418
35420
35428
35428
35432
35434
35432
35428
35428
35424
35416
35408
35406
35401
35401
35394
35396
35388
35394
35393
35386
35396
35392
35404
35392
35405
35404
35396
35392
35389
35390
35385
35374
35364
35366
35352
35356
35348
35352
35353
35342
35352
35348
35366
35360
35364
35364
35361
35357
35348
35344
35340
35332
35328
35320
35322
35304
35318
35297
35316
35300
35300
35313
35314
35312
35320
35312
35300
35308
35298
35300
35285
35284
35274
35268
35268
35268
35264
35260
35268
35276
35264
35284
35278
35293
35285
35294
35272
35286
35276
35285
35265
35256
35256
35247
35240
35237
35228
35240
35222
35228
35212
35230
35220
35224
35218
35217
35205
35203
35188
35182
35166
35168
35140
35150
35129
35128
35122
35124
35116
35121
35116
35124
35116
35128
35122
35128
35125
35124
35120
35114
35112
35104
35108
35092
35096
35104
35104
35096
35100
35108
35116
35124
35124
35132
35128
35136
35132
35140
35134
35128
35126
35114
35108
35106
35101
35114
35100
35116
35106
35112
35108
35122
35112
35132
35114
35136
35112
35128
35100
35106
35094
35096
35076
35094
35060
35068
35056
35068
35047
35062
35049
35062
35060
35054
35053
35052
35045
35038
35024
35020
35002
34997
34973
34978
34956
34951
34940
34938
34929
34916
34926
34916
34914
34910
34904
34900
34884
34868
34860
34844
34838
34818
34805
34802
34773
34776
34761
34752
34751
34736
34734
34724
34728
34721
34700
34710
34695
34676
34674
34653
34656
34624
34626
34605
34596
34586
34581
34564
34556
34548
34552
34540
34544
34532
34532
34516
34512
34508
34484
34472
34462
34456
34444
34423
34416
34401
34397
34396
34388
34385
34384
34384
34385
34376
34377
34372
34373
34366
34352
34356
34340
34328
34324
34316
34320
34302
34304
34308
34308
34294
34302
34324
34308
34320
34316
34326
34316
34318
34309
34320
34300
34300
34298
34300
34284
34288
34280
34288
34290
34298
34297
34300
34305
34316
34324
34328
34312
34328
34324
34320
34318
34300
34300
34304
34292
34297
34296
34304
34290
34324
34300
34322
34320
34324
34332
34332
34326
34334
34318
34332
34324
34316
34318
34296
34308
34300
34311
34302
34308
34308
34328
34320
34326
34333
34336
34348
34344
34356
34348
34346
34342
34336
34350
34332
34332
34335
34333
34348
34342
34360
34360
34373
34368
34392
34384
34394
34390
34400
34390
34400
34398
34396
34388
34384
34388
34391
34386
34396
34394
34398
34386
34404
34408
34416
34426
34418
34416
34425
34420
34416
34412
34420
34404
34406
34401
34405
34398
34404
34402
34420
34410
34436
34428
34452
34430
34447
34440
34448
34449
34432
34444
34425
34452
34421
34428
34428
34444
34436
34432
34440
34456
34456
34472
34462
34480
34486
34488
34480
34483
34480
34492
34474
34480
34476
34488
34479
34488
34476
34500
34496
34508
34500
34520
34529
34532
34541
34536
34538
34533
34540
34543
34532
34530
34531
34534
34534
34532
34532
34540
34544
34552
34564
34560
34582
34580
34584
34586
34596
34581
34584
34581
34580
34576
34574
34583
34576
34568
34572
34580
34588
34580
34608
34596
34616
34614
34631
34625
34632
34616
34621
34612
34612
34602
34604
34596
34600
34589
34604
34600
34615
34612
34620
34620
34640
34644
34644
34642
34646
34629
34634
34628
34632
34624
34620
34622
34624
34609
34623
34612
34620
34624
34636
34634
34654
34636
34660
34652
34656
34644
34636
34638
34632
34624
34632
34620
34626
34613
34625
34613
34636
34633
34643
34646
34660
34652
34654
34655
34660
34650
34648
34648
34640
34636
34612
34618
34620
34618
34608
34618
34610
34616
34624
34620
34630
34632
34628
34620
34620
34602
34608
34596
34596
34584
34586
34558
34576
34548
34552
34556
34560
34550
34568
34568
34572
34567
34572
34560
34557
34554
34561
34532
34540
34516
34532
34512
34510
34502
34509
34500
34504
34504
34517
34524
34521
34540
34521
34545
34524
34532
34512
34516
34500
34506
34488
34492
34486
34480
34479
34474
34476
34476
34482
34478
34488
34480
34492
34469
34472
34460
34452
34438
34434
34418
34401
34388
34386
34373
34380
34364
34365
34364
34371
34368
34362
34369
34370
34372
34354
34352
34349
34340
34336
34320
34316
34306
34304
34310
34300
34308
34296
34310
34308
34329
34321
34328
34324
34322
34324
34316
34314
34302
34304
34300
34281
34293
34272
34276
34270
34284
34274
34292
34292
34300
34298
34319
34304
34314
34302
34316
34296
34292
34276
34276
34268
34260
34248
34252
34244
34244
34244
34233
34246
34244
34260
34238
34244
34222
34233
34212
34214
34200
34186
34170
34160
34140
34120
34125
34108
34112
34093
34102
34078
34085
34069
34085
34072
34058
34047
34024
34012
33996
33992
33962
33948
33924
33922
33895
33901
33881
33882
33871
33866
33861
33854
33856
33842
33837
33816
33808
33788
33768
33768
33728
33732
33700
33696
33676
33664
33658
33641
33648
33624
33633
33616
33612
33602
33580
33584
33560
33541
33526
33518
33494
33474
33464
33444
33440
33425
33421
33415
33418
33398
33406
33398
33408
33396
33393
33373
33372
33359
33345
33340
33317
33316
33292
33301
33286
33280
33288
33271
33296
33278
33289
33308
33295
33311
33284
33296
33281
33286
33268
33268
33263
33269
33244
33256
33244
33252
33237
33256
33245
33270
33269
33271
33278
33281
33288
33284
33277
33270
33277
33268
33268
33252
33269
33246
33248
33252
33252
33271
33268
33282
33276
33302
33296
33308
33304
33312
33302
33310
33311
33311
33297
33296
33290
33284
33292
33287
33306
33304
33316
33320
33344
33346
33354
33366
33364
33372
33364
33368
33374
33360
33380
33365
33372
33368
33373
33380
33378
33392
33394
33412
33414
33429
33440
33448
33460
33457
33465
33472
33461
33462
33462
33464
33454
33468
33456
33472
33472
33480
33488
33500
33497
33528
33526
33543
33544
33553
33549
33548
33544
33534
33540
33524
33528
33516
33540
33528
33538
33542
33549
33566
33562
33572
33580
33596
33584
33600
33582
33590
33584
33588
33576
33572
33574
33564
33574
33572
33580
33572
33598
33601
33612
33628
33622
33634
33648
33632
33644
33640
33636
33637
33626
33632
33640
33625
33637
33644
33632
33656
33658
33665
33681
33690
33704
33714
33704
33722
33712
33709
33722
33708
33710
33711
33704
33694
33718
33702
33712
33716
33726
33748
33742
33753
33776
33768
33774
33782
33778
33776
33765
33765
33769
33754
33764
33750
33752
33760
33749
33760
33770
33772
33788
33796
33804
33806
33801
33808
33812
33793
33800
33780
33789
33776
33768
33772
33766
33780
33756
33776
33784
33788
33808
33792
33812
33816
33831
33814
33820
33800
33806
33793
33792
33788
33772
33784
33764
33768
33782
33764
33780
33776
33790
33796
33800
33808
33800
33804
33802
33797
33792
33777
33768
33768
33764
33758
33748
33767
33752
33772
33765
33766
33780
33764
33785
33776
33788
33788
33777
33785
33762
33759
33760
33752
33750
33738
33733
33739
33736
33744
33744
33754
33761
33764
33773
33764
33782
33766
33774
33773
33748
33751
33740
33740
33724
33716
33713
33711
33718
33710
33728
33720
33729
33736
33734
33741
33736
33732
33720
33728
33704
33720
33694
33690
33685
33688
33680
33668
33686
33672
33692
33690
33704
33702
33713
33708
33725
33713
33724
33711
33712
33696
33693
33700
33682
33692
33656
33678
33664
33674
33681
33686
33692
33684
33696
33688
33687
33684
33668
33673
33652
33648
33628
33620
33612
33600
33600
33592
33594
33587
33608
33596
33612
33617
33617
33616
33612
33618
33606
33616
33594
33592
33573
33569
33562
33564
33544
33564
33533
33556
33552
33556
33560
33556
33572
33568
33572
33560
33557
33545
33550
33532
33516
33516
33498
33502
33489
33485
33492
33488
33494
33496
33496
33504
33508
33493
33500
33488
33496
33489
33470
33472
33441
33452
33431
33436
33416
33416
33413
33413
33415
33410
33420
33416
33421
33404
33412
33396
33398
33376
33364
33348
33324
33316
33290
33292
33260
33254
33236
33238
33218
33220
33208
33196
33184
33178
33173
33134
33119
33103
33058
33039
33004
32992
32950
32932
32904
32878
32865
32834
32820
32802
32780
32760
32740
32706
32696
32656
32622
32600
32564
32521
32488
32456
32412
32388
32346
32330
32292
32270
32239
32215
32186
32160
32135
32110
32076
32060
32000
31984
31933
31903
31864
31818
31784
31756
31724
31676
31668
31625
31604
31574
31544
31528
31497
31480
31432
31424
31374
31348
31308
31278
31240
31212
31166
31140
31108
31072
31056
31025
31010
30970
30966
30932
30924
30888
30870
30831
30805
30772
30750
30708
30680
30652
30628
30592
30569
30552
30518
30502
30480
30470
30438
30445
30408
30392
30365
30352
30321
30313
30270
30248
30216
30197
30168
30144
30130
30095
30088
30063
30052
30032
30032
30008
30008
29978
29972
29952
29929
29904
29888
29862
29836
29824
29782
29780
29748
29743
29708
29718
29689
29696
29678
29672
29653
29652
29632
29620
29598
29594
29558
29552
29521
29508
29476
29476
29450
29438
29424
29416
29417
29405
29400
29396
29392
29376
29378
29348
29344
29324
29308
29295
29278
29256
29253
29228
29214
29209
29196
29197
29188
29189
29176
29189
29173
29177
29172
29166
29156
29138
29126
29124
29111
29104
29085
29079
29076
29065
29072
29074
29063
29068
29076
29068
29080
29082
29082
29073
29082
29064
29060
29050
29048
29048
29030
29036
29031
29022
29044
29041
29038
29054
29062
29076
29076
29088
29084
29096
29090
29094
29082
29096
29064
29088
29077
29088
29074
29093
29088
29104
29098
29124
29132
29140
29152
29150
29168
29165
29161
29166
29171
29168
29167
29160
29156
29158
29165
29166
29180
29168
29194
29194
29204
29220
29222
29252
29242
29250
29242
29256
29249
29246
29241
29234
29237
29237
29238
29244
29254
29248
29269
29264
29292
29288
29296
29308
29305
29310
29309
29312
29302
29301
29292
29300
29282
29294
29282
29285
29282
29294
29296
29304
29316
29317
29328
29324
29348
29324
29335
29326
29319
29318
29316
29297
29296
29286
29292
29287
29296
29297
29294
29309
29305
29309
29308
29316
29326
29317
29308
29308
29300
29296
29285
29280
29260
29272
29251
29265
29256
29256
29252
29272
29268
29276
29292
29278
29294
29284
29272
29270
29268
29264
29247
29248
29228
29244
29228
29241
29228
29237
29244
29240
29258
29270
29271
29270
29276
29276
29285
29266
29278
29268
29250
29256
29244
29249
29237
29240
29244
29253
29254
29268
29276
29292
29294
29307
29311
29301
29308
29297
29308
29296
29311
29300
29300
29300
29296
29308
29310
29327
29320
29348
29356
29376
29384
29396
29408
29415
29428
29424
29428
29422
29430
29428
29427
29431
29434
29428
29448
29456
29454
29485
29480
29497
29492
29521
29508
29524
29510
29522
29500
29512
29502
29508
29496
29505
29492
29493
29503
29504
29522
29540
29544
29558
29573
29576
29594
29588
29601
29588
29598
29582
29588
29586
29580
29578
29582
29591
29584
29584
29589
29606
29608
29622
29625
29630
29630
29636
29632
29634
29620
29623
29608
29612
29597
29593
29599
29590
29604
29592
29604
29601
29622
29616
29632
29632
29644
29628
29646
29634
29634
29624
29632
29612
29626
29612
29624
29614
29630
29628
29644
29646
29669
29660
29682
29688
29708
29700
29704
29713
29704
29706
29700
29712
29700
29709
29696
29705
29706
29716
29725
29728
29738
29750
29758
29766
29772
29769
29769
29773
29762
29762
29748
29757
29736
29732
29724
29728
29724
29734
29732
29744
29752
29756
29764
29759
29768
29766
29764
29754
29746
29734
29738
29730
29716
29722
29708
29716
29718
29708
29725
29722
29730
29732
29757
29744
29766
29752
29760
29750
29758
29746
29734
29746
29732
29737
29723
29740
29733
29746
29752
29756
29776
29789
29790
29800
29812
29820
29812
29820
29807
29823
29807
29821
29812
29802
29824
29822
29828
29836
29844
29849
29872
29878
29902
29912
29922
29928
29929
29934
29924
29948
29932
29936
29946
29942
29946
29948
29970
29984
29985
30004
30028
30032
30053
30058
30081
30085
30088
30096
30093
30108
30093
30112
30102
30112
30121
30128
30140
30148
30161
30174
30188
30212
30220
30246
30244
30276
30257
30274
30274
30282
30284
30284
30292
30288
30310
30298
30321
30330
30344
30362
30382
30396
30410
30423
30440
30436
30458
30458
30470
30462
30484
30468
30492
30489
30508
30497
30520
30532
30564
30568
30598
30600
30628
30629
30652
30656
30676
30678
30692
30702
30692
30708
30703
30716
30724
30733
30750
30752
30780
30799
30819
30836
30839
30868
30863
30890
30894
30909
30908
30924
30913
30918
30920
30944
30930
30956
30957
30980
30988
31022
31028
31053
31066
31086
31092
31105
31100
31124
31116
31129
31124
31136
31141
31144
31156
31159
31174
31188
31196
31228
31236
31252
31276
31278
31308
31294
31322
31319
31328
31329
31333
31328
31333
31340
31348
31353
31374
31372
31392
31394
31416
31428
31445
31458
31464
31478
31468
31486
31496
31482
31488
31483
31484
31480
31491
31487
31492
31504
31520
31521
31540
31552
31554
31568
31568
31585
31572
31588
31576
31581
31566
31582
31556
31573
31558
31556
31564
31572
31578
31584
31594
31604
31605
31627
31612
31636
31622
31624
31620
31612
31596
31604
31588
31584
31585
31588
31588
31588
31589
31589
31602
31616
31607
31620
31616
31628
31619
31620
31610
31588
31592
31594
31582
31572
31584
31556
31576
31567
31580
31581
31582
31593
31591
31602
31604
31605
31604
31598
31596
31594
31580
31584
31564
31572
31550
31562
31544
31564
31561
31574
31572
31585
31584
31592
31588
31593
31592
31597
31586
31592
31560
31578
31556
31564
31554
31566
31557
31552
31564
31564
31572
31568
31585
31576
31594
31586
31594
31574
31580
31568
31568
31560
31560
31551
31556
31541
31560
31540
31552
31550
31568
31552
31573
31578
31576
31572
31580
31573
31564
31566
31546
31552
31532
31540
31532
31532
31526
31533
31541
31536
31552
31548
31556
31566
31564
31576
31556
31575
31564
31557
31552
31552
31540
31536
31542
31538
31532
31536
31544
31528
31552
31530
31553
31546
31552
31540
31542
31518
31529
31501
31509
31492
31481
31476
31461
31464
31452
31460
31461
31476
31460
31480
31469
31483
31476
31480
31476
31482
31473
31470
31470
31458
31460
31456
31452
31454
31436
31452
31454
31449
31452
31461
31452
31468
31465
31464
31462
31449
31448
31440
31445
31418
31425
31409
31412
31408
31408
31390
31402
31396
31420
31398
31410
31404
31406
31412
31396
31407
31396
31386
31378
31372
31360
31364
31346
31349
31349
31346
31348
31350
31361
31360
31380
31361
31377
31372
31372
31372
31368
31359
31348
31340
31332
31332
31316
31340
31322
31324
31326
31328
31334
31333
31348
31335
31348
31336
31348
31326
31329
31312
31308
31297
31300
31278
31280
31271
31264
31272
31272
31259
31268
31272
31265
31295
31272
31270
31264
31270
31255
31256
31227
31243
31212
31215
31204
31200
31200
31201
31204
31204
31214
31217
31221
31230
31232
31230
31232
31222
31228
31220
31210
31209
31206
31210
31188
31202
31201
31216
31214
31228
31237
31254
31244
31272
31269
31280
31276
31292
31280
31288
31276
31288
31280
31280
31287
31292
31300
31300
31318
31328
31333
31364
31361
31386
31390
31412
31400
31412
31412
31408
31424
31415
31416
31416
31420
31436
31426
31452
31448
31463
31476
31490
31510
31516
31540
31540
31544
31560
31552
31566
31552
31556
31556
31564
31570
31566
31582
31580
31604
31619
31620
31640
31652
31670
31690
31684
31700
31692
31700
31704
31708
31706
31706
31712
31724
31700
31740
31732
31748
31764
31774
31800
31800
31823
31832
31852
31842
31860
31860
31852
31872
31861
31872
31874
31884
31878
31900
31900
31918
31924
31958
31956
31992
31982
32011
32017
32034
32028
32038
32042
32048
32044
32056
32039
32065
32050
32078
32066
32092
32104
32108
32136
32144
32156
32176
32178
32200
32192
32208
32198
32196
32204
32200
32202
32226
32213
32220
32228
32244
32260
32268
32285
32288
32320
32314
32344
32321
32348
32332
32357
32340
32344
32330
32350
32340
32353
32356
32367
32372
32396
32391
32420
32409
32440
32440
32454
32441
32460
32444
32448
32438
32446
32436
32450
32448
32440
32446
32448
32468
32466
32490
32482
32508
32514
32512
32524
32511
32520
32518
32504
32512
32508
32500
32488
32492
32492
32492
32503
32500
32512
32524
32536
32532
32524
32548
32545
32532
32546
32538
32536
32532
32526
32508
32516
32506
32512
32500
32512
32496
32524
32532
32533
32540
32554
32550
32552
32549
32552
32542
32543
32526
32535
32514
32530
32510
32524
32514
32532
32525
32542
32536
32549
32552
32572
32576
32585
32580
32580
32580
32566
32576
32568
32574
32558
32564
32568
32569
32580
32580
32596
32602
32620
32625
32641
32645
32648
32652
32648
32654
32652
32646
32637
32644
32640
32641
32640
32644
32644
32653
32666
32680
32688
32697
32706
32727
32717
32736
32720
32732
32721
32730
32708
32718
32708
32716
32714
32708
32716
32720
32742
32744
32758
32760
32784
32772
32792
32791
32794
32784
32793
32788
32788
32776
32788
32780
32789
32788
32790
32801
32810
32822
32829
32849
32852
32878
32858
32885
32869
32884
32873
32881
32868
32873
32860
32879
32864
32876
32876
32892
32898
32909
32932
32932
32950
32948
32960
32957
32961
32964
32962
32950
32952
32960
32954
32960
32952
32964
32964
32985
32992
33004
33021
33046
33040
33060
33061
33074
33076
33072
33073
33072
33073
33068
33069
33076
33066
33082
33076
33084
33085
33112
33116
33127
33124
33140
33130
33136
33140
33136
33132
33132
33132
33114
33136
33120
33132
33130
33154
33148
33177
33170
33196
33196
33220
33216
33236
33240
33244
33230
33245
33228
33240
33212
33224
33216
33228
33228
33230
33244
33248
33272
33265
33301
33302
33314
33316
33313
33324
33327
33326
33324
33316
33316
33308
33329
33316
33326
33329
33335
33356
33358
33372
33372
33404
33404
33412
33420
33412
33415
33412
33414
33404
33408
33408
33412
33408
33418
33420
33428
33440
33454
33468
33465
33485
33496
33511
33500
33505
33511
33492
33494
33491
33480
33496
33472
33480
33482
33489
33496
33494
33512
33508
33518
33516
33540
33542
33548
33532
33540
33508
33524
33512
33511
33493
33506
33486
33507
33492
33504
33496
33526
33516
33528
33536
33551
33548
33558
33535
33560
33542
33550
33528
33532
33532
33528
33535
33535
33548
33536
33562
33566
33588
33588
33608
33608
33628
33613
33635
33625
33630
33630
33636
33620
33638
33628
33641
33636
33656
33668
33682
33688
33713
33710
33736
33742
33764
33759
33782
33780
33792
33786
33798
33790
33804
33812
33821
33826
33846
33847
33872
33870
33896
33920
33928
33948
33954
33980
33982
33993
33986
33996
33999
34012
34008
34024
34029
34041
34047
34064
34080
34100
34112
34126
34164
34157
34182
34184
34199
34198
34216
34212
34224
34213
34228
34236
34244
34248
34261
34276
34285
34296
34324
34344
34360
34366
34380
34396
34400
34420
34412
34410
34429
34420
34428
34424
34444
34449
34458
34464
34489
34504
34516
34545
34552
34577
34578
34592
34597
34608
34612
34607
34620
34616
34639
34624
34648
34660
34660
34678
34686
34716
34718
34737
34751
34777
34773
34788
34800
34799
34812
34804
34814
34822
34825
34828
34824
34848
34840
34860
34872
34890
34909
34918
34940
34948
34964
34975
34980
34981
34977
35006
34988
35000
34993
35004
35008
35008
35028
35037
35040
35066
35077
35084
35113
35115
35136
35128
35143
35148
35148
35152
35156
35152
35154
35152
35164
35167
35172
35188
35185
35209
35214
35234
35244
35252
35267
35260
35270
35256
35271
35268
35268
35252
35258
35260
35260
35260
35268
35268
35288
35288
35304
35302
35320
35316
35335
35334
35338
35318
35344
35320
35334
35312
35325
35308
35320
35308
35318
35324
35333
35340
35341
35356
35365
35366
35372
35376
35369
35380
35362
35372
35362
35358
35352
35352
35344
35360
35350
35364
35356
35374
35381
35383
35402
35400
35414
35408
35420
35408
35408
35400
35396
35392
35384
35380
35398
35377
35393
35388
35400
35401
35404
35423
35422
35439
35434
35444
35436
35448
35433
35429
35431
35424
35412
35419
35424
35428
35420
35428
35428
35444
35440
35458
35449
35473
35469
35480
35468
35471
35468
35454
35463
35456
35444
35436
35432
35430
35430
35444
35444
35460
35462
35460
35476
35476
35480
35464
35478
35468
35478
35463
35468
35452
35446
35437
35436
35428
35436
35424
35433
35436
35444
35452
35458
35448
35468
35458
35461
35448
35442
35436
35433
35416
35418
35408
35412
35404
35384
35405
35395
35404
35396
35409
35408
35420
35431
35416
35420
35400
35402
35390
35381
35380
35364
35358
35350
35348
35346
35344
35342
35346
35346
35360
35352
35364
35357
35364
35369
35351
35351
35324
35336
35312
35320
35296
35297
35296
35300
35288
35294
35297
35298
35312
35326
35327
35322
35328
35320
35324
35305
35316
35300
35294
35292
35280
35279
35292
35282
35292
35292
35304
35309
35318
35324
35336
35324
35329
35319
35328
35313
35310
35292
35290
35276
35268
35264
35270
35256
35252
35244
35258
35252
35248
35256
35260
35252
35248
35256
35245
35246
35220
35228
35205
35212
35194
35188
35189
35191
35188
35184
35188
35196
35202
35206
35212
35212
35213
35220
35214
35217
35205
35207
35192
35190
35183
35180
35188
35185
35197
35200
35204
35206
35218
35231
35232
35236
35252
35228
35248
35220
35220
35214
35214
35204
35196
35190
35190
35182
35193
35200
35202
35204
35213
35222
35209
35236
35212
35236
35202
35213
35198
35188
35176
35178
35162
35162
35148
35152
35140
35150
35150
35149
35148
35160
35148
35157
35140
35144
35132
35132
35110
35092
35072
35072
35053
35046
35036
35036
35012
35013
35014
35008
35014
35008
35012
35000
34998
34988
34976
34972
34956
34937
34925
34912
34908
34888
34886
34876
34876
34863
34868
34863
34865
34864
34868
34856
34852
34852
34844
34830
34817
34812
34788
34778
34768
34756
34756
34748
34740
34752
34748
34746
34748
34767
34750
34757
34750
34750
34748
34732
34722
34712
34710
34686
34692
34674
34681
34673
34672
34676
34674
34688
34688
34704
34700
34701
34718
34708
34708
34695
34692
34682
34672
34671
34676
34664
34684
34660
34672
34676
34688
34700
34701
34724
34718
34726
34724
34737
34720
34740
34718
34725
34719
34709
34709
34700
34708
34700
34716
34724
34712
34737
34758
34744
34754
34768
34768
34756
34778
34770
34756
34764
34752
34750
34756
34740
34748
34736
34744
34756
34758
34772
34773
34796
34782
34806
34806
34796
34804
34796
34796
34788
34788
34774
34776
34784
34764
34788
34776
34798
34788
34809
34821
34828
34832
34841
34860
34852
34852
34839
34848
34837
34836
34836
34844
34837
34828
34830
34844
34840
34853
34864
34877
34882
34896
34904
34898
34913
34901
34912
34900
34894
34894
34892
34884
34892
34884
34887
34892
34884
34912
34902
34919
34928
34932
34950
34944
34944
34944
34942
34934
34916
34928
34908
34912
34906
34912
34901
34916
34916
34912
34932
34933
34940
34940
34950
34958
34938
34944
34932
34935
34932
34925
34916
34905
34916
34902
34897
34904
34900
34916
34919
34925
34930
34940
34945
34942
34948
34936
34926
34938
34914
34910
34900
34885
34895
34880
34888
34888
34878
34895
34896
34908
34912
34914
34924
34908
34922
34912
34916
34894
34900
34880
34882
34876
34862
34865
34858
34862
34862
34868
34868
34887
34884
34888
34884
34894
34889
34892
34882
34876
34869
34854
34856
34838
34844
34824
34844
34832
34846
34838
34848
34856
34860
34861
34865
34869
34868
34857
34868
34844
34852
34832
34838
34828
34836
34817
34820
34822
34815
34833
34828
34838
34844
34845
34856
34863
34853
34854
34848
34841
34840
34820
34812
34806
34805
34802
34792
34808
34798
34820
34812
34823
34821
34829
34837
34836
34849
34820
34828
34812
34821
34808
34796
34789
34788
34776
34780
34782
34778
34796
34788
34800
34799
34807
34809
34804
34813
34798
34796
34791
34788
34761
34762
34752
34752
34751
34740
34734
34738
34744
34743
34752
34747
34762
34753
34752
34742
34742
34742
34720
34718
34704
34708
34690
34689
34676
34668
34677
34660
34679
34670
34690
34684
34686
34692
34680
34690
34664
34670
34648
34646
34636
34616
34606
34600
34602
34591
34596
34582
34592
34584
34596
34585
34596
34595
34596
34594
34582
34577
34564
34564
34544
34532
34520
34528
34508
34524
34500
34510
34502
34524
34518
34532
34533
34541
34534
34536
34532
34530
34530
34508
34510
34492
34488
34481
34472
34466
34460
34469
34479
34476
34474
34476
34466
34480
34466
34472
34452
34452
34436
34440
34408
34402
34392
34376
34366
34373
34360
34358
34362
34368
34369
34375
34376
34384
34370
34372
34368
34365
34362
34368
34348
34352
34348
34344
34340
34340
34344
34348
34358
34373
34382
34384
34392
34400
34408
34408
34412
34397
34412
34402
34400
34397
34404
34392
34389
34396
34389
34412
34405
34418
34436
34436
34440
34448
34460
34456
34464
34452
34456
34436
34446
34422
34425
34420
34420
34414
34416
34412
34428
34412
34426
34428
34438
34423
34436
34412
34428
34400
34404
34394
34374
34365
34336
34346
34334
34328
34316
34320
34307
34308
34294
34312
34296
34300
34278
34288
34264
34257
34245
34240
34204
34200
34182
34168
34172
34142
34148
34124
34136
34124
34126
34117
34126
34116
34116
34088
34088
34077
34057
34044
34016
34008
33996
33980
33967
33956
33940
33936
33932
33935
33924
33932
33924
33917
33911
33906
33890
33876
33860
33846
33838
33814
33807
33788
33780
33761
33764
33748
33754
33751
33756
33758
33758
33752
33748
33740
33736
33724
33717
33709
33696
33684
33674
33658
33656
33648
33654
33644
33656
33652
33660
33656
33668
33664
33676
33658
33662
33652
33648
33636
33636
33608
33620
33600
33603
33588
33600
33600
33600
33602
33608
33622
33622
33636
33632
33628
33630
33614
33622
33605
33608
33596
33602
33582
33594
33572
33593
33572
33599
33590
33604
33604
33617
33609
33617
33608
33616
33612
33600
33596
33600
33576
33582
33570
33570
33562
33568
33572
33577
33568
33582
33588
33606
33596
33624
33598
33610
33600
33609
33584
33592
33580
33585
33582
33569
33572
33576
33584
33573
33594
33588
33612
33600
33626
33616
33625
33612
33618
33606
33600
33596
33591
33580
33573
33573
33572
33564
33572
33572
33575
33580
33600
33602
33602
33600
33600
33598
33592
33588
33576
33572
33556
33564
33550
33557
33540
33540
33548
33540
33556
33552
33568
33564
33574
33576
33572
33556
33575
33556
33562
33536
33540
33520
33528
33521
33528
33506
33533
33524
33540
33536
33548
33560
33556
33568
33554
33568
33560
33564
33550
33548
33542
33544
33528
33540
33525
33544
33534
33548
33537
33565
33566
33584
33580
33596
33588
33581
33583
33584
33568
33572
33553
33556
33558
33556
33550
33536
33550
33540
33566
33557
33580
33578
33598
33588
33596
33584
33591
33568
33576
33564
33566
33549
33556
33549
33536
33536
33548
33549
33544
33558
33562
33568
33578
33570
33580
33560
33576
33548
33558
33538
33548
33528
33534
33516
33518
33508
33524
33516
33528
33524
33540
33540
33552
33540
33563
33538
33542
33527
33524
33514
33512
33506
33496
33492
33482
33476
33480
33484
33490
33493
33494
33509
33519
33505
33508
33492
33508
33476
33492
33460
33468
33449
33446
33444
33444
33425
33429
33434
33434
33444
33436
33461
33447
33454
33444
33448
33446
33424
33422
33408
33400
33388
33390
33379
33362
33375
33372
33356
33372
33375
33384
33385
33376
33389
33372
33380
33370
33374
33340
33336
33317
33316
33309
33296
33301
33284
33301
33289
33296
33290
33308
33296
33306
33300
33303
33300
33284
33272
33268
33267
33233
33242
33220
33224
33205
33210
33212
33208
33212
33220
33213
33224
33220
33216
33222
33213
33216
33208
33198
33192
33176
33184
33164
33168
33156
33168
33161
33168
33170
33181
33185
33200
33200
33205
33204
33188
33204
33181
33189
33172
33158
33156
33146
33136
33135
33127
33120
33124
33126
33140
33128
33136
33132
33133
33134
33120
33116
33108
33102
33084
33084
33056
33062
33047
33050
33045
33048
33044
33052
33056
33076
33072
33084
33068
33096
33078
33094
33062
33076
33056
33055
33037
33036
33024
33032
33020
33024
33024
33040
33036
33048
33060
33054
33062
33057
33069
33054
33056
33044
33037
33049
33028
33028
33020
33012
33012
33012
33032
33015
33045
33032
33049
33052
33052
33060
33052
33048
33040
33044
33016
33021
33004
33008
32998
32996
32982
32986
32992
32988
33005
32996
33005
33001
33004
32980
32984
32972
32968
32948
32938
32932
32908
32896
32866
32879
32858
32854
32847
32841
32840
32820
32834
32808
32816
32800
32784
32753
32736
32724
32698
32688
32666
32643
32624
32604
32592
32581
32560
32560
32540
32540
32521
32525
32496
32493
32460
32448
32428
32408
32376
32360
32338
32318
32292
32278
32261
32241
32230
32216
32208
32184
32191
32175
32172
32137
32140
32096
32092
32060
32040
32012
31996
31964
31946
31930
31910
31900
31880
31881
31854
31864
31838
31828
31804
31802
31776
31767
31744
31718
31712
31668
31657
31629
31628
31594
31588
31560
31566
31544
31540
31535
31524
31516
31485
31498
31470
31456
31440
31416
31401
31360
31360
31324
31320
31296
31294
31268
31272
31250
31262
31236
31244
31220
31220
31198
31191
31168
31157
31135
31110
31092
31082
31063
31048
31022
31024
30996
30996
30978
30980
30968
30975
30956
30957
30932
30932
30902
30902
30872
30869
30837
30836
30794
30792
30772
30773
30764
30758
30745
30736
30738
30725
30730
30716
30724
30692
30688
30680
30652
30644
30626
30624
30600
30586
30583
30565
30568
30564
30564
30553
30561
30549
30556
30548
30550
30522
30529
30516
30500
30492
30468
30460
30436
30440
30424
30424
30416
30421
30408
30412
30408
30418
30404
30412
30410
30394
30394
30376
30372
30352
30352
30336
30340
30316
30322
30308
30307
30304
30317
30306
30320
30319
30314
30328
30308
30321
30300
30306
30304
30290
30285
30272
30274
30264
30255
30264
30253
30256
30274
30261
30269
30280
30272
30280
30280
30284
30280
30272
30272
30248
30264
30244
30244
30226
30228
30218
30228
30228
30239
30230
30238
30260
30232
30255
30249
30240
30245
30232
30244
30212
30216
30191
30200
30177
30196
30180
30192
30178
30194
30189
30196
30208
30198
30212
30200
30204
30196
30180
30188
30180
30168
30153
30148
30146
30136
30148
30140
30148
30143
30151
30158
30160
30170
30162
30170
30160
30160
30158
30152
30145
30137
30142
30121
30134
30117
30118
30110
30126
30121
30128
30133
30146
30152
30152
30156
30151
30150
30142
30148
30136
30130
30109
30124
30104
30112
30108
30112
30110
30112
30120
30125
30136
30136
30136
30143
30136
30145
30126
30122
30118
30116
30101
30104
30085
30092
30084
30088
30084
30083
30092
30097
30108
30096
30108
30104
30108
30098
30102
30084
30084
30062
30068
30052
30055
30040
30041
30034
30044
30036
30046
30052
30060
30050
30069
30060
30063
30048
30052
30044
30032
30016
30020
29998
30006
29993
29996
29998
29988
30005
29990
30016
30018
30030
30027
30026
30020
30023
30004
30012
29996
29994
29988
29982
29969
29968
29968
29968
29980
29972
29992
29984
30012
29988
30012
30012
30028
29997
30016
29997
30008
29996
29996
29988
29996
29991
30004
30004
30013
30020
30027
30052
30056
30060
30085
30073
30096
30080
30096
30074
30080
30068
30075
30065
30064
30068
30064
30078
30052
30080
30070
30080
30088
30096
30101
30105
30100
30090
30096
30078
30087
30080
30078
30074
30062
30076
30072
30081
30080
30100
30100
30113
30124
30129
30142
30135
30144
30142
30136
30132
30140
30132
30124
30118
30118
30120
30106
30116
30114
30121
30132
30144
30164
30164
30176
30175
30186
30168
30192
30172
30180
30167
30180
30172
30174
30172
30177
30184
30192
30204
30214
30236
30244
30262
30272
30284
30288
30302
30292
30307
30308
30304
30310
30305
30324
30316
30333
30328
30352
30357
30372
30400
30409
30428
30428
30448
30450
30456
30456
30458
30462
30454
30463
30447
30460
30449
30460
30464
30472
30484
30492
30496
30505
30517
30512
30526
30513
30524
30508
30521
30506
30493
30484
30477
30484
30481
30478
30476
30476
30478
30485
30496
30504
30516
30514
30520
30508
30512
30500
30508
30494
30492
30480
30472
30478
30472
30464
30470
30468
30488
30486
30503
30502
30521
30514
30532
30540
30530
30541
30528
30526
30528
30524
30520
30528
30521
30532
30528
30546
30550
30564
30576
30580
30602
30608
30624
30620
30644
30628
30644
30636
30646
30638
30640
30645
30648
30648
30668
30688
30680
30700
30720
30740
30758
30760
30782
30780
30800
30786
30806
30806
30804
30816
30806
30816
30831
30824
30836
30856
30868
30890
30900
30920
30942
30952
30968
30978
30994
30998
31008
30997
31008
31013
31020
31022
31028
31031
31055
31068
31088
31109
31124
31144
31161
31173
31197
31192
31220
31222
31232
31232
31233
31248
31252
31253
31273
31272
31298
