RESPIRATION
26124
26263
26388
26522
26658
26789
26929
27073
27200
27338
27480
27625
27760
27900
28036
28182
28333
28472
28609
28750
28890
29048
29188
29318
29464
29612
29756
29900
30038
30180
30324
30468
30612
30748
30896
31036
31182
31328
31469
31612
31752
31896
32045
32188
32332
32478
32626
32773
32910
33071
33208
33365
33496
33652
33808
33952
34102
34256
34396
34552
34692
34852
35013
35148
35312
35456
35604
35756
35916
36056
36204
36352
36517
36668
36814
36975
37116
37272
37422
37580
37738
37888
38044
38200
38348
38508
38660
38820
38964
39124
39271
39431
39580
39740
39888
40039
40198
40350
40508
40648
40808
40961
41124
41265
41424
41564
41720
41880
42024
42186
42328
42488
42636
42784
42936
43081
43238
43368
43520
43672
43816
43940
44088
44232
44369
44502
44640
44780
44904
45038
45185
45316
45444
45578
45704
45832
45964
46076
46204
46340
46456
46580
46698
46825
46944
47060
47172
47292
47410
47532
47650
47740
47872
47976
48104
48216
48320
48430
48532
48644
48746
48864
48968
49069
49184
49277
49384
49480
49585
49692
49792
49904
49992
50096
50196
50285
50381
50480
50574
50660
50772
50849
50956
51044
51134
51232
51320
51416
51496
51583
51668
51754
51849
51926
52030
52108
52184
52288
52364
52444
52528
52612
52700
52776
52852
52952
53028
53104
53176
53248
53332
53420
53494
53556
53636
53720
53797
53876
53956
54005
54080
54164
54228
54304
54372
54436
54512
54584
54656
54724
54797
54864
54916
54996
55068
55141
55188
55248
55324
55392
55460
55524
55588
55644
55708
55764
55844
55900
55960
56024
56060
56136
56196
56260
56327
56388
56444
56492
56552
56608
56668
56728
56780
56852
56884
56956
57008
57060
57112
57152
57212
57269
57335
57368
57436
57463
57529
57568
57624
57676
57729
57782
57820
57864
57924
57964
58024
58079
58132
58164
58212
58256
58300
58356
58406
58452
58480
58526
58574
58620
58668
58708
58742
58804
58836
58884
58920
58960
59000
59040
59084
59130
59168
59212
59244
59286
59310
59360
59404
59436
59492
59524
59568
59588
59636
59676
59708
59741
59796
59828
59864
59892
59936
59965
59996
60044
60068
60095
60127
60165
60204
60236
60272
60301
60326
60372
60392
60436
60474
60480
60520
60564
60588
60629
60660
60684
60720
60748
60782
60816
60836
60868
60896
60928
60952
60988
60996
61024
61040
61070
61084
61116
61132
61140
61188
61198
61220
61220
61248
61264
61278
61292
61324
61337
61340
61368
61380
61396
61401
61444
61446
61473
61484
61504
61528
61540
61572
61576
61605
61612
61644
61656
61676
61693
61708
61736
61751
61784
61784
61797
61818
61836
61856
61852
61864
61886
61887
61908
61917
61928
61948
61940
61936
61949
61959
61976
61974
61956
61964
61980
61972
61972
61972
61972
61958
61956
61968
61940
61940
61932
61924
61940
61904
61924
61896
61880
61872
61868
61856
61844
61824
61820
61820
61806
61796
61796
61792
61776
61773
61764
61764
61756
61764
61756
61748
61760
61748
61744
61726
61720
61732
61712
61692
61686
61679
61649
61636
61636
61616
61584
61557
61537
61518
61484
61460
61440
61412
61380
61360
61308
61292
61249
61208
61184
61144
61100
61056
61004
60956
60932
60876
60836
60796
60756
60724
60660
60632
60584
60540
60504
60452
60408
60356
60302
60256
60224
60188
60124
60084
60032
59968
59912
59884
59808
59760
59726
59669
59604
59536
59492
59420
59364
59316
59230
59189
59096
59032
58967
58887
58812
58732
58648
58568
58476
58392
58288
58184
58103
58004
57892
57788
57680
57576
57464
57364
57236
57133
57024
56904
56772
56670
56528
56416
56308
56172
56061
55917
55808
55687
55560
55428
55303
55172
55048
54932
54791
54671
54542
54416
54284
54158
54020
53892
53764
53638
53505
53378
53248
53112
52992
52868
52732
52604
52480
52342
52230
52085
51946
51822
51692
51556
51401
51260
51128
50972
50828
50676
50526
50359
50197
50032
49870
49700
49520
49336
49160
48972
48782
48596
48400
48192
47996
47792
47588
47372
47156
46944
46720
46500
46274
46048
45800
45560
45319
45079
44818
44560
44305
44040
43780
43508
43232
42952
42676
42396
42116
41836
41556
41298
41014
40749
40484
40228
39956
39692
39436
39180
38932
38672
38430
38172
37935
37684
37440
37205
36948
36713
36484
36248
36004
35766
35550
35308
35078
34860
34629
34404
34184
33956
33736
33515
33284
33080
32850
32644
32418
32200
31998
31776
31568
31352
31142
30940
30730
30528
30324
30109
29912
29708
29506
29316
29116
28910
28730
28533
28340
28142
27960
27770
27584
27404
27212
27024
26849
26668
26480
26308
26135
25958
25778
25616
25452
25272
25094
24933
24772
24608
24438
24277
24124
23953
23789
23641
23484
23328
23172
23024
22868
22710
22577
22428
22275
22136
21996
21850
21708
21566
21433
21296
21156
21029
20892
20764
20628
20502
20376
20244
20112
19989
19873
19746
19625
19515
19392
19280
19160
19053
18940
18839
18728
18624
18513
18412
18311
18217
18116
18020
17926
17836
17749
17665
17570
17489
17404
17324
17237
17172
17085
17014
16942
16866
16804
16724
16654
16589
16522
16455
16396
16337
16260
16202
16149
16090
16028
15972
15922
15860
15804
15749
15688
15641
15587
15536
15482
15439
15386
15332
15281
15237
15182
15144
15101
15050
15014
14966
14922
14884
14846
14809
14768
14735
14698
14658
14622
14592
14560
14528
14500
14471
14448
14416
14399
14364
14342
14316
14288
14276
14252
14234
14209
14188
14178
14159
14141
14117
14104
14090
14061
14060
14041
14027
14019
13996
13986
13970
13961
13942
13930
13914
13904
13891
13876
13860
13846
13833
13824
13807
13797
13788
13774
13762
13753
13734
13730
13721
13709
13697
13684
13676
13671
13662
13650
13648
13641
13626
13615
13612
13604
13600
13595
13584
13577
13576
13566
13560
13550
13540
13534
13533
13520
13512
13505
13509
13493
13484
13473
13472
13465
13464
13448
13450
13451
13452
13445
13448
13446
13444
13448
13455
13452
13464
13477
13482
13496
13511
13522
13535
13548
13572
13580
13610
13633
13647
13674
13700
13730
13757
13781
13812
13846
13880
13908
13948
13982
14021
14056
14092
14124
14172
14212
14247
14296
14334
14379
14412
14462
14500
14542
14585
14628
14679
14720
14760
14805
14856
14900
14946
14986
15033
15076
15124
15164
15205
15248
15281
15328
15364
15412
15450
15492
15532
15563
15602
15644
15681
15709
15749
15780
15810
15844
15881
15907
15940
15966
15992
16017
16040
16069
16089
16116
16128
16156
16170
16196
16200
16217
16229
16240
16248
16256
16264
16261
16262
16275
16256
16253
16246
16240
16228
16218
16197
16186
16165
16148
16128
16104
16079
16051
16014
15989
15956
15924
15895
15856
15820
15781
15748
15698
15661
15625
15582
15544
15490
15450
15413
15368
15325
15287
15238
15192
15148
15100
15058
15016
14972
14924
14882
14836
14796
14748
14709
14661
14613
14581
14531
14487
14444
14399
14357
14312
14269
14224
14178
14132
14092
14040
14000
13942
13909
13858
13822
13763
13726
13681
13642
13586
13549
13510
13464
13420
13389
13348
13309
13272
13238
13205
13168
13140
13112
13084
13052
13025
12997
12972
12944
12919
12892
12868
12842
12825
12797
12778
12753
12734
12710
12687
12671
12650
12640
12617
12602
12582
12571
12556
12548
12537
12532
12521
12517
12508
12505
12504
12509
12512
12513
12516
12519
12523
12532
12534
12544
12546
12562
12565
12568
12584
12581
12592
12609
12612
12611
12632
12632
12642
12649
12664
12670
12684
12702
12708
12709
12729
12744
12760
12780
12800
12809
12836
12846
12870
12895
12909
12928
12949
12980
12994
13024
13037
13066
13091
13118
13130
13153
13178
13198
13224
13251
13276
13309
13344
13366
13395
13432
13464
13489
13522
13558
13592
13623
13655
13693
13727
13751
13782
13819
13858
13888
13919
13945
13984
14022
14052
14086
14113
14150
14188
14222
14255
14286
14321
14349
14382
14415
14438
14470
14497
14521
14540
14564
14585
14604
14618
14629
14646
14654
14660
14669
14670
14664
14664
14654
14648
14640
14630
14610
14600
14580
14556
14533
14508
14481
14444
14416
14385
14344
14314
14272
14239
14198
14154
14106
14074
14026
13980
13938
13897
13852
13813
13756
13717
13674
13622
13582
13537
13491
13440
13407
13358
13313
13268
13221
13182
13136
13098
13048
13009
12965
12922
12877
12832
12790
12748
12700
12658
12610
12572
12517
12474
12432
12385
12340
12290
12249
12204
12152
12110
12057
12008
11963
11914
11849
11810
11756
11700
11652
11598
11536
11488
11426
11369
11309
11254
11197
11137
11076
11016
10952
10891
10834
10771
10702
10646
10572
10517
10446
10383
10308
10244
10178
10112
10052
9979
9924
9854
9793
9728
9671
9605
9542
9490
9415
9359
9309
9239
9188
9125
9072
9009
8955
8905
8840
8787
8736
8672
8620
8568
8516
8461
8408
8350
8299
8247
8187
8142
8094
8037
7996
7938
7894
7842
7793
7747
7695
7643
7598
7553
7504
7460
7413
7360
7314
7269
7228
7183
7128
7087
7045
7008
6962
6917
6873
6829
6792
6756
6717
6683
6642
6605
6565
6535
6499
6469
6433
6410
6373
6340
6317
6285
6252
6225
6200
6154
6140
6104
6074
6050
6013
5986
5955
5924
5898
5861
5829
5800
5772
5739
5710
5679
5648
5616
5586
5550
5520
5493
5463
5436
5404
5375
5342
5315
5284
5266
5228
5205
5179
5154
5124
5103
5074
5056
5026
5001
4982
4958
4930
4907
4890
4864
4845
4820
4798
4774
4749
4732
4709
4691
4672
4650
4630
4607
4589
4565
4545
4529
4514
4490
4472
4460
4436
4421
4398
4380
4371
4343
4329
4309
4287
4266
4250
4235
4218
4198
4178
4165
4145
4124
4111
4090
4071
4059
4041
4013
4000
3981
3969
3947
3934
3917
3889
3886
3862
3843
3828
3809
3797
3785
3757
3748
3736
3714
3699
3684
3667
3647
3634
3622
3604
3590
3577
3560
3541
3526
3509
3494
3481
3461
3449
3438
3425
3412
3394
3391
3383
3365
3356
3349
3348
3341
3327
3324
3322
3313
3316
3316
3318
3316
3320
3317
3322
3332
3341
3339
3351
3364
3370
3381
3389
3404
3418
3434
3445
3464
3480
3501
3514
3537
3554
3577
3604
3623
3650
3672
3696
3721
3751
3773
3800
3826
3861
3890
3918
3950
3975
4011
4041
4074
4101
4135
4174
4203
4232
4265
4298
4341
4363
4404
4441
4470
4502
4537
4572
4595
4638
4660
4702
4741
4773
4797
4832
4861
4893
4926
4950
4987
5020
5047
5078
5100
5136
5164
5185
5226
5252
5285
5305
5340
5361
5396
5428
5452
5487
5516
5542
5580
5604
5638
5668
5704
5736
5775
5810
5835
5877
5914
5954
5991
6028
6070
6104
6150
6189
6226
6261
6306
6350
6393
6442
6479
6528
6567
6610
6649
6692
6735
6776
6819
6853
6906
6944
6984
7019
7061
7105
7137
7179
7222
7263
7296
7342
7378
7420
7446
7494
7525
7569
7608
7641
7684
7724
7754
7785
7832
7863
7904
7934
7972
8008
8046
8077
8116
8152
8188
8217
8260
8291
8324
8364
8388
8432
8470
8488
8524
8552
8584
8617
8650
8674
8704
8726
8754
8781
8803
8835
8846
8868
8890
8910
8924
8958
8968
8986
8999
9019
9036
9036
9054
9069
9076
9080
9097
9111
9113
9128
9130
9136
9143
9150
9152
9164
9159
9161
9162
9162
9166
9166
9160
9161
9159
9156
9147
9145
9137
9124
9113
9115
9106
9093
9082
9069
9056
9043
9029
9018
8998
8982
8973
8948
8924
8912
8896
8866
8852
8832
8807
8788
8772
8750
8724
8702
8678
8656
8634
8608
8580
8552
8533
8494
8480
8449
8422
8394
8369
8334
8311
8277
8250
8217
8191
8161
8128
8100
8068
8040
8016
7989
7952
7929
7896
7868
7842
7810
7782
7745
7719
7693
7660
7624
7604
7575
7544
7522
7493
7466
7434
7410
7386
7356
7334
7308
7288
7262
7237
7210
7186
7167
7139
7113
7085
7072
7037
7012
6980
6958
6926
6912
6878
6849
6814
6793
6760
6736
6705
6670
6645
6620
6592
6565
6546
6517
6487
6468
6438
6416
6401
6376
6353
6327
6320
6293
6273
6260
6247
6224
6210
6200
6186
6174
6163
6154
6144
6130
6124
6115
6107
6097
6095
6090
6087
6076
6078
6079
6080
6071
6070
6074
6083
6083
6090
6099
6104
6117
6128
6146
6150
6173
6196
6212
6232
6247
6277
6294
6314
6337
6372
6389
6415
6442
6467
6497
6528
6556
6581
6606
6640
6671
6705
6732
6762
6793
6822
6847
6889
6918
6958
6988
7020
7055
7100
7132
7168
7206
7240
7273
7316
7361
7396
7442
7476
7517
7556
7591
7640
7675
7724
7760
7796
7842
7882
7922
7960
8009
8043
8085
8121
8163
8204
8245
8289
8328
8362
8405
8449
8487
8521
8564
8609
8639
8682
8727
8768
8802
8844
8886
8922
8965
9001
9041
9084
9121
9172
9202
9252
9282
9330
9376
9412
9450
9492
9540
9579
9613
9662
9700
9741
9788
9825
9873
9912
9954
9988
10024
10068
10107
10150
10185
10216
10262
10293
10330
10362
10396
10430
10468
10495
10530
10553
10590
10615
10634
10668
10692
10724
10749
10788
10802
10828
10852
10863
10900
10912
10934
10956
10976
10988
11008
11020
11049
11056
11074
11090
11102
11109
11122
11137
11144
11156
11161
11170
11184
11192
11191
11209
11216
11221
11222
11231
11232
11236
11242
11244
11249
11250
11250
11252
11248
11256
11256
11254
11253
11252
11250
11252
11249
11246
11236
11236
11232
11223
11223
11220
11206
11204
11187
11189
11183
11176
11165
11151
11141
11137
11126
11114
11097
11099
11082
11069
11064
11044
11034
11024
11004
10989
10978
10974
10954
10940
10924
10917
10902
10889
10871
10854
10849
10821
10813
10804
10789
10772
10749
10750
10725
10719
10703
10686
10684
10661
10652
10644
10634
10628
10614
10607
10596
10596
10587
10580
10578
10572
10570
10574
10564
10561
10564
10560
10556
10564
10558
10559
10563
10560
10568
10566
10572
10576
10582
10581
10588
10590
10602
10609
10613
10624
10624
10632
10648
10658
10656
10661
10680
10688
10692
10704
10708
10720
10729
10744
10754
10761
10774
10790
10796
10812
10826
10834
10850
10864
10876
10893
10912
10925
10943
10952
10971
10989
10998
11024
11045
11060
11074
11100
11116
11134
11154
11179
11190
11213
11234
11252
11274
11291
11316
11342
11360
11383
11406
11428
11451
11473
11491
11519
11541
11569
11586
11612
11633
11651
11680
11699
11721
11739
11767
11788
11808
11832
11851
11874
11893
11915
11938
11956
11974
11994
12019
12041
12061
12082
12100
12120
12140
12166
12185
12202
12231
12249
12265
12293
12313
12333
12354
12374
12388
12409
12429
12452
12466
12482
12508
12522
12548
12564
12580
12602
12617
12634
12652
12668
12687
12708
12718
12737
12747
12769
12793
12806
12820
12837
12860
12872
12885
12905
12918
12936
12952
12972
12986
12997
13020
13034
13052
13068
13090
13101
13116
13129
13152
13170
13178
13199
13217
13231
13248
13262
13278
13298
13305
13323
13340
13360
13375
13386
13399
13416
13442
13450
13460
13476
13488
13504
13518
13520
13538
13548
13564
13569
13582
13593
13602
13600
13609
13622
13624
13636
13638
13642
13648
13652
13653
13652
13656
13648
13651
13638
13633
13626
13624
13618
13597
13600
13582
13572
13560
13545
13532
13516
13496
13484
13463
13444
13429
13416
13394
13370
13349
13336
13309
13291
13270
13242
13226
13208
13185
13164
13144
13120
13095
13075
13048
13018
13000
12982
12956
12932
12912
12889
12864
12847
12815
12800
12769
12748
12728
12701
12684
12657
12639
12611
12594
12573
12552
12536
12516
12489
12477
12452
12435
12420
12396
12376
12364
12341
12326
12310
12293
12269
12261
12244
12231
12212
12206
12182
12166
12155
12133
12128
12112
12096
12088
12074
12062
12053
12040
12032
12020
12003
11999
11989
11988
11977
11975
11969
11966
11964
11952
11956
11948
11951
11952
11945
11948
11946
11956
11956
11957
11961
11962
11966
11975
11970
11972
11984
11983
11986
11993
11997
11992
11997
12001
11997
12000
12000
11997
11995
11994
11983
11984
11976
11973
11956
11961
11950
11940
11926
11920
11911
11898
11885
11881
11865
11854
11840
11828
11822
11803
11796
11781
11768
11744
11744
11729
11713
11695
11684
11668
11652
11636
11625
11605
11592
11574
11553
11550
11519
11494
11488
11474
11448
11429
11412
11397
11372
11360
11337
11316
11300
11272
11250
11231
11213
11190
11170
11149
11126
11102
11087
11060
11050
11026
10999
10976
10946
10935
10915
10895
10878
10862
10846
10819
10808
10794
10770
10758
10744
10719
10709
10694
10679
10662
10645
10636
10617
10606
10588
10569
10552
10543
10521
10500
10488
10472
10456
10437
10420
10393
10384
10367
10343
10330
10310
10293
10280
10268
10247
10234
10213
10198
10181
10165
10143
10132
10106
10095
10071
10065
10040
10025
10008
9981
9961
9943
9920
9900
9874
9854
9829
9800
9784
9750
9728
9703
9677
9649
9622
9596
9568
9540
9517
9481
9454
9424
9391
9370
9339
9305
9278
9252
9224
9190
9159
9128
9099
9070
9038
9009
8968
8940
8898
8862
8823
8780
8742
8697
8658
8610
8566
8517
8466
8414
8363
8314
8261
8204
8157
8101
8043
7990
7935
7887
7821
7769
7712
7655
7605
7545
7484
7430
7370
7316
7265
7202
7142
7091
7030
6980
6928
6876
6824
6764
6720
6664
6614
6565
6516
6464
6417
6366
6325
6270
6219
6172
6128
6087
6036
5989
5956
5913
5867
5828
5794
5748
5707
5671
5636
5602
5572
5538
5509
5473
5445
5412
5389
5357
5332
5304
5278
5257
5234
5214
5198
5164
5144
5124
5103
5086
5062
5038
5023
5002
4981
4964
4943
4927
4903
4890
4868
4849
4833
4816
4800
4783
4758
4754
4741
4717
4701
4693
4671
4669
4654
4640
4625
4612
4605
4598
4584
4574
4564
4559
4555
4544
4544
4532
4534
4522
4525
4521
4519
4514
4518
4513
4519
4519
4521
4516
4523
4532
4535
4534
4548
4545
4553
4556
4568
4575
4580
4594
4602
4608
4616
4625
4646
4651
4666
4674
4693
4693
4709
4725
4737
4749
4761
4773
4792
4796
4815
4824
4839
4859
4862
4888
4896
4921
4932
4950
4959
4972
4989
4998
5021
5028
5044
5060
5073
5080
5092
5106
5119
5130
5143
5150
5158
5160
5169
5170
5174
5189
5198
5192
5204
5202
5210
5217
5220
5214
5220
5219
5224
5222
5232
5238
5240
5227
5245
5246
5242
5248
5250
5252
5253
5254
5252
5252
5252
5253
5253
5258
5252
5247
5248
5248
5237
5237
5221
5237
5222
5224
5226
5218
5216
5212
5205
5197
5199
5192
5188
5187
5180
5174
5168
5160
5156
5143
5142
5126
5116
5101
5097
5078
5063
5053
5036
5019
4998
4983
4969
4956
4931
4918
4898
4876
4865
4838
4820
4801
4784
4766
4747
4735
4719
4700
4686
4661
4653
4641
4620
4607
4589
4581
4566
4555
4548
4533
4532
4518
4512
4504
4498
4484
4485
4476
4467
4466
4465
4457
4452
4451
4450
4446
4451
4440
4443
4444
4445
4441
4444
4440
4443
4448
4443
4444
4448
4452
4459
4453
4453
4455
4457
4466
4474
4478
4481
4483
4483
4486
4492
4492
4500
4508
4516
4520
4522
4519
4529
4537
4538
4540
4545
4551
4551
4552
4564
4571
4569
4569
4574
4575
4573
4579
4576
4574
4572
4572
4574
4578
4574
4572
4577
4570
4565
4564
4556
4556
4558
4554
4549
4549
4546
4540
4540
4533
4539
4536
4528
4528
4525
4524
4521
4516
4516
4514
4514
4509
4508
4500
4512
4504
4498
4495
4495
4490
4484
4480
4477
4468
4466
4467
4462
4467
4465
4460
4452
4449
4450
4444
4437
4436
4438
4435
4432
4429
4425
4416
4417
4410
4404
4400
4399
4390
4395
4386
4384
4384
4382
4364
4370
4362
4350
4354
4348
4350
4342
4327
4334
4327
4324
4315
4310
4310
4308
4298
4294
4284
4286
4282
4277
4276
4268
4266
4262
4261
4249
4244
4246
4239
4242
4238
4230
4229
4229
4229
4226
4227
4225
4222
4225
4223
4227
4231
4229
4233
4236
4233
4238
4244
4241
4244
4247
4250
4249
4247
4255
4254
4255
4254
4252
4252
4247
4246
4240
4239
4232
4231
4224
4220
4217
4213
4202
4194
4183
4179
4162
4156
4140
4135
4126
4115
4101
4079
4073
4060
4052
4032
4024
4009
3989
3977
3964
3946
3932
3910
3900
3878
3863
3844
3818
3806
3780
3761
3746
3723
3708
3683
3660
3639
3618
3594
3568
3548
3516
3497
3470
3444
3421
3395
3370
3348
3318
3297
3272
3251
3220
3196
3172
3164
3140
3109
3084
3068
3042
3026
3004
2987
2956
2938
2924
2900
2880
2862
2849
2822
2801
2790
2771
2743
2734
2707
2693
2683
2661
2650
2625
2605
2591
2573
2557
2535
2524
2499
2487
2469
2461
2437
2419
2410
2399
2382
2368
2347
2335
2321
2308
2292
2281
2269
2246
2242
2238
2222
2215
2197
2194
2186
2181
2169
2166
2163
2157
2154
2149
2139
2135
2133
2129
2128
2129
2129
2121
2120
2127
2128
2131
2129
2133
2134
2137
2143
2146
2154
2155
2164
2170
2170
2177
2190
2198
2210
2215
2227
2235
2245
2260
2270
2280
2293
2312
2327
2338
2349
2360
2377
2389
2403
2421
2425
2441
2454
2472
2485
2494
2505
2520
2538
2551
2562
2587
2597
2623
2635
2650
2669
2690
2713
2725
2739
2759
2778
2797
2812
2825
2843
2856
2874
2884
2896
2916
2926
2932
2945
2963
2968
2988
3000
3002
3013
3029
3034
3052
3058
3065
3076
3087
3098
3098
3110
3118
3128
3142
3148
3158
3169
3183
3199
3207
3220
3233
3244
3268
3284
3294
3308
3325
3347
3354
3370
3391
3406
3419
3440
3453
3486
3493
3509
3534
3556
3580
3604
3620
3648
3659
3690
3709
3733
3761
3787
3805
3821
3852
3877
3903
3926
3950
3975
3999
4024
4042
4060
4084
4102
4127
4140
4170
4187
4200
4224
4244
4259
4283
4301
4310
4338
4357
4371
4393
4408
4426
4450
4466
4485
4500
4522
4540
4562
4568
4588
4620
4632
4655
4669
4686
4713
4728
4752
4778
4793
4820
4844
4868
4884
4916
4934
4965
4983
5013
5034
5060
5089
5116
5150
5168
5204
5231
5260
5293
5324
5353
5396
5427
5467
5502
5532
5564
5609
5636
5676
5720
5756
5793
5834
5876
5918
5959
6004
6053
6093
6140
6183
6228
6277
6323
6373
6420
6475
6518
6563
6609
6674
6724
6764
6814
6864
6915
6962
7018
7063
7112
7168
7221
7268
7325
7375
7423
7486
7530
7586
7641
7692
7734
7802
7848
7900
7956
8005
8056
8098
8152
8196
8250
8290
8333
8384
8429
8468
8510
8557
8588
8632
8674
8711
8747
8784
8808
8850
8889
8916
8948
8985
9020
9049
9081
9118
9146
9173
9208
9236
9264
9297
9326
9346
9380
9409
9437
9464
9485
9525
9544
9572
9602
9628
9653
9685
9708
9743
9768
9796
9825
9849
9884
9912
9948
9977
10007
10039
10068
10110
10138
10169
10210
10238
10277
10312
10342
10373
10414
10453
10488
10523
10560
10596
10634
10660
10701
10744
10780
10809
10848
10880
10908
10937
10972
11016
11037
11076
11104
11135
11159
11196
11225
11256
11283
11317
11346
11376
11402
11428
11457
11486
11516
11536
11561
11588
11612
11639
11658
11686
11708
11727
11752
11775
11794
11815
11843
11869
11898
11916
11943
11968
11988
12024
12045
12078
12104
12133
12156
12182
12208
12236
12269
12294
12321
12350
12388
12406
12440
12470
12496
12532
12568
12596
12626
12664
12692
12718
12756
12783
12811
12848
12878
12912
12941
12972
13004
13036
13064
13102
13128
13160
13185
13211
13241
13272
13293
13320
13358
13378
13407
13432
13460
13486
13517
13541
13562
13600
13617
13655
13673
13703
13730
13752
13770
13799
13829
13852
13878
13896
13918
13945
13956
13980
14005
14021
14037
14060
14076
14096
14111
14123
14148
14160
14183
14200
14220
14242
14252
14264
14289
14304
14324
14335
14360
14372
14386
14404
14416
14436
14462
14473
14484
14508
14520
14545
14562
14578
14591
14616
14636
14657
14684
14697
14727
14744
14766
14790
14818
14838
14856
14892
14915
14937
14964
14990
15010
15036
15072
15096
15122
15145
15174
15201
15224
15258
15276
15311
15328
15360
15387
15412
15426
15455
15473
15496
15519
15538
15556
15582
15598
15620
15644
15656
15680
15702
15723
15742
15768
15782
15804
15816
15838
15858
15877
15900
15918
15933
15951
15972
15993
16004
16028
16059
16072
16093
16111
16124
16152
16172
16196
16216
16237
16264
16280
16302
16326
16348
16375
16394
16420
16440
16465
16486
16516
16532
16557
16588
16612
16632
16666
16689
16721
16752
16776
16812
16840
16872
16908
16938
16972
16996
17033
17072
17100
17132
17168
17210
17244
17276
17301
17348
17378
17412
17444
17484
17513
17552
17584
17620
17660
17700
17728
17766
17804
17837
17869
17914
17952
17978
18021
18047
18084
18116
18148
18177
18212
18240
18270
18308
18333
18364
18392
18419
18446
18470
18502
18525
18556
18567
18598
18616
18634
18656
18664
18689
18704
18719
18742
18748
18756
18778
18781
18786
18804
18812
18821
18828
18844
18851
18860
18863
18873
18882
18888
18897
18908
18912
18921
18928
18932
18944
18956
18969
18980
18984
18985
19000
19015
19020
19028
19044
19048
19070
19076
19096
19104
19124
19128
19153
19164
19176
19193
19217
19233
19248
19274
19290
19308
19332
19356
19375
19396
19420
19446
19464
19492
19513
19544
19564
19588
19615
19641
19672
19692
19716
19748
19776
19799
19824
19846
19880
19908
19932
19959
19990
20012
20036
20066
20093
20110
20136
20160
20193
20213
20238
20263
20286
20313
20335
20365
20384
20416
20425
20458
20476
20506
20532
20544
20567
20585
20602
20628
20644
20670
20676
20704
20713
20732
20757
20768
20784
20801
20824
20840
20856
20872
20885
20912
20924
20942
20957
20984
20998
21016
21030
21048
21078
21095
21116
21136
21157
21176
21194
21217
21246
21268
21288
21316
21334
21356
21383
21406
21436
21461
21484
21513
21536
21558
21588
21612
21646
21668
21697
21722
21742
21776
21804
21834
21855
21882
21912
21940
21966
21999
22021
22052
22084
22108
22134
22168
22186
22212
22244
22272
22294
22327
22354
22380
22406
22432
22460
22484
22508
22538
22563
22584
22606
22640
22661
22680
22705
22730
22761
22781
22800
22828
22844
22870
22885
22912
22936
22948
22970
22984
23001
23020
23034
23055
23065
23082
23090
23105
23120
23140
23156
23164
23173
23186
23200
23205
23222
23239
23244
23260
23269
23278
23293
23301
23318
23332
23334
23341
23361
23364
23386
23394
23394
23416
23424
23433
23442
23454
23465
23478
23489
23492
23507
23510
23525
23540
23550
23560
23573
23584
23594
23608
23620
23638
23656
23676
23684
23700
23714
23728
23748
23768
23782
23802
23822
23839
23856
23877
23892
23910
23927
23946
23963
23980
24000
24013
24030
24045
24056
24080
24090
24112
24132
24144
24158
24172
24188
24204
24210
24224
24243
24256
24269
24284
24298
24308
24314
24338
24354
24362
24376
24380
24394
24401
24418
24437
24452
24456
24472
24476
24493
24500
24518
24524
24536
24548
24568
24578
24585
24598
24612
24628
24634
24644
24654
24666
24680
24688
24702
24711
24724
24732
24747
24753
24772
24777
24782
24796
24812
24816
24833
24835
24844
24864
24872
24880
24892
24906
24916
24922
24942
24944
24952
24962
24970
24974
24980
24992
25006
25012
25024
25022
25038
25037
25044
25049
25061
25066
25078
25069
25078
25084
25095
25098
25101
25104
25116
25113
25113
25124
25124
25127
25132
25140
25146
25148
25153
25154
25156
25161
25164
25168
25176
25180
25182
25192
25194
25196
25200
25201
25214
25221
25220
25236
25239
25248
25247
25252
25264
25278
25280
25288
25300
25296
25306
25314
25324
25332
25330
25340
25348
25357
25362
25369
25376
25386
25396
25399
25409
25424
25434
25438
25446
25460
25466
25476
25480
25490
25501
25520
25522
25532
25544
25558
25566
25572
25584
25599
25607
25616
25628
25637
25656
25674
25674
25676
25692
25708
25712
25717
25740
25748
25756
25770
25784
25788
25796
25816
25826
25836
25852
25862
25872
25889
25892
25904
25920
25932
25938
25952
25964
25977
25988
26009
26020
26024
26036
26050
26062
26080
26088
26101
26116
26128
26148
26152
26166
26186
26197
26212
26220
26236
26250
26264
26274
26297
26312
26324
26329
26348
26360
26377
26392
26406
26416
26426
26452
26464
26476
26494
26506
26526
26540
26564
26568
26590
26596
26606
26629
26640
26652
26670
26684
26690
26702
26712
26722
26744
26758
26758
26776
26784
26796
26804
26812
26824
26838
26846
26860
26864
26876
26887
26904
26910
26920
26924
26932
26951
26948
26964
26975
26988
26996
27020
27020
27032
27046
27055
27064
27083
27088
27106
27120
27132
27150
27154
27180
27184
27200
27208
27232
27244
27263
27276
27286
27305
27320
27340
27356
27375
27396
27409
27421
27438
27452
27468
27484
27500
27512
27520
27536
27552
27562
27579
27588
27594
27604
27622
27632
27642
27652
27652
27664
27676
27688
27692
27700
27708
27720
27728
27722
27735
27740
27743
27748
27748
27756
27756
27764
27770
27767
27770
27765
27769
27764
27764
27768
27767
27769
27768
27760
27758
27756
27768
27764
27760
27768
27760
27775
27764
27768
27772
27768
27776
27783
27780
27782
27794
27804
27796
27806
27808
27820
27824
27830
27841
27850
27846
27860
27866
27881
27886
27901
27912
27916
27922
27938
27950
27956
27969
27982
27990
27998
28012
28020
28036
28053
28061
28068
28084
28104
28108
28124
28132
28148
28152
28168
28181
28196
28212
28220
28240
28252
28258
28280
28288
28308
28320
28328
28348
28362
28380
28388
28413
28421
28434
28454
28456
28478
28494
28513
28525
28543
28552
28570
28580
28604
28622
28624
28642
28657
28676
28702
28712
28722
28736
28764
28765
28780
28796
28820
28828
28840
28860
28868
28880
28900
28912
28928
28934
28953
28959
28974
28985
29000
29008
29012
29033
29048
29060
29068
29076
29088
29094
29100
29118
29124
29134
29146
29159
29164
29175
29190
29198
29212
29216
29236
29244
29246
29264
29265
29277
29293
29309
29317
29330
29346
29357
29372
29375
29392
29405
29408
29422
29434
29452
29464
29474
29497
29509
29522
29524
29544
29565
29577
29597
29604
29620
29644
29648
29678
29688
29702
29724
29733
29756
29764
29784
29793
29821
29832
29849
29866
29887
29900
29929
29936
29956
29972
29988
30016
30032
30048
30066
30077
30098
30111
30132
30148
30169
30185
30208
30220
30245
30258
30276
30295
30312
30340
30348
30377
30384
30408
30434
30448
30462
30492
30516
30528
30543
30564
30587
30611
30628
30646
30677
30696
30708
30735
30754
30773
30790
30817
30832
30850
30878
30885
30910
30928
30948
30968
30994
31004
31024
31036
31064
31080
31092
31116
31128
31144
31164
31184
31196
31204
31230
31248
31252
31276
31296
31308
31324
31340
31344
31365
31378
31392
31408
31416
31430
31441
31460
31473
31487
31500
31510
31512
31521
31540
31550
31561
31565
31580
31593
31590
31604
31618
31622
31625
31626
31637
31656
31652
31660
31670
31665
31678
31686
31694
31702
31708
31710
31720
31720
31732
31728
31740
31744
31748
31752
31751
31756
31767
31768
31772
31772
31777
31770
31776
31780
31780
31777
31780
31780
31788
31796
31788
31796
31788
31792
31792
31789
31796
31805
31798
31798
31804
31810
31804
31820
31816
31824
31818
31824
31832
31830
31837
31840
31842
31844
31852
31848
31852
31861
31864
31873
31876
31886
31885
31894
31898
31903
31916
31916
31916
31934
31928
31924
31948
31940
31944
31958
31960
31970
31972
31973
31980
31983
31988
31991
31999
32003
32000
32014
32016
32024
32032
32025
32022
32040
32037
32040
32036
32041
32040
32048
32052
32047
32044
32052
32060
32057
32053
32056
32060
32056
32054
32066
32064
32060
32062
32060
32066
32064
32060
32060
32062
32061
32066
32064
32070
32068
32070
32078
32072
32076
32076
32072
32078
32072
32074
32068
32072
32074
32068
32064
32064
32064
32068
32066
32068
32068
32080
32076
32084
32087
32076
32088
32093
32094
32100
32116
32120
32120
32118
32124
32136
32140
32141
32160
32165
32168
32169
32175
32176
32196
32188
32184
32202
32197
32196
32200
32192
32196
32204
32197
32201
32196
32194
32196
32192
32200
32198
32188
32199
32196
32197
32198
32198
32204
32196
32192
32194
32204
32196
32206
32208
32206
32208
32204
32204
32193
32196
32196
32188
32193
32186
32188
32184
32184
32173
32170
32172
32172
32164
32167
32169
32148
32153
32140
32149
32140
32134
32134
32132
32126
32132
32122
32132
32122
32117
32117
32113
32108
32108
32110
32104
32110
32101
32096
32102
32102
32100
32100
32098
32096
32108
32100
32098
32094
32098
32103
32096
32100
32102
32096
32100
32092
32095
32086
32084
32080
32084
32084
32084
32076
32072
32069
32078
32066
32066
32076
32072
32070
32064
32061
32064
32061
32059
32062
32056
32044
32052
32056
32050
32052
32056
32052
32058
32046
32050
32048
32056
32064
32056
32052
32052
32049
32037
32049
32057
32048
32050
32052
32046
32042
32038
32040
32036
32036
32035
32034
32025
32028
32022
32016
32004
31999
32005
31996
31990
31988
31984
31982
31973
31980
31972
31960
31956
31948
31944
31932
31937
31920
31926
31908
31904
31892
31894
31893
31885
31868
31869
31868
31860
31848
31848
31837
31844
31828
31825
31822
31820
31816
31808
31806
31800
31804
31799
31808
31802
31808
31790
31800
31792
31796
31804
31804
31805
31810
31816
31815
31823
31824
31830
31842
31848
31856
31864
31876
31876
31896
31890
31908
31916
31932
31944
31964
31975
31984
31992
32006
32030
32038
32054
32068
32074
32098
32108
32126
32134
32156
32172
32191
32196
32212
32225
32240
32264
32276
32285
32300
32316
32328
32340
32348
32360
32377
32389
32390
32398
32416
32423
32432
32438
32450
32452
32462
32454
32465
32473
32476
32485
32492
32488
32502
32496
32504
32498
32508
32508
32522
32524
32516
32525
32536
32532
32536
32542
32548
32552
32556
32557
32565
32570
32572
32581
32581
32590
32604
32604
32604
32606
32623
32625
32628
32634
32637
32651
32650
32657
32663
32664
32677
32685
32688
32694
32700
32718
32720
32726
32732
32736
32740
32752
32761
32764
32772
32782
32790
32794
32796
32808
32814
32820
32832
32832
32844
32845
32846
32860
32866
32865
32876
32885
32888
32884
32896
32908
32908
32912
32913
32924
32926
32928
32932
32932
32928
32928
32930
32935
32940
32945
32948
32952
32948
32951
32945
32945
32960
32958
32968
32961
32964
32970
32970
32968
32966
32968
32972
32972
32978
32976
32988
32989
32986
32996
32984
32994
32992
32996
32996
33000
32998
32996
33001
33002
33004
33016
33014
33020
33020
33024
33028
33032
33028
33029
33050
33052
33045
33050
33056
33056
33054
33066
33065
33076
33072
33076
33072
33080
33076
33092
33096
33092
33104
33108
33112
33105
33114
33120
33122
33120
33134
33130
33125
33140
33136
33144
33144
33148
33154
33156
33153
33156
33164
33172
33180
33176
33180
33188
33188
33176
33188
33184
33189
33200
33199
33198
33208
33208
33202
33214
33216
33212
33212
33212
33216
33220
33216
33225
33228
33228
33230
33232
33236
33224
33230
33236
33232
33234
33236
33242
33248
33246
33246
33247
33258
33252
33254
33246
33260
33264
33265
33258
33264
33268
33270
33274
33271
33270
33276
33277
33276
33288
33280
33285
33292
33284
33294
33304
33305
33305
33306
33308
33316
33321
33326
33332
33324
33326
33330
33332
33340
33332
33335
33341
33344
33352
33351
33353
33348
33360
33364
33368
33367
33368
33372
33374
33380
33380
33388
33382
33388
33390
33396
33400
33392
33396
33397
33388
33412
33394
33406
33396
33402
33404
33405
33414
33404
33412
33412
33408
33408
33410
33413
33405
33412
33409
33412
33420
33413
33409
33420
33416
33422
33420
33420
33424
33434
33420
33420
33421
33429
33433
33430
33424
33434
33434
33430
33430
33440
33441
33434
33440
33444
33439
33428
33440
33434
33440
33442
33440
33444
33447
33442
33451
33457
33444
33453
33447
33453
33456
33454
33448
33460
33464
33452
33464
33456
33462
33460
33460
33471
33460
33464
33461
33461
33458
33461
33462
33452
33464
33462
33455
33458
33454
33460
33456
33454
33448
33460
33454
33452
33461
33456
33456
33456
33450
33450
33453
33441
33452
33452
33444
33442
33448
33444
33450
33444
33440
33444
33441
33437
33439
33444
33440
33430
33437
33437
33432
33439
33428
33430
33433
33432
33436
33433
33433
33429
33437
33429
33430
33428
33436
33436
33430
33425
33432
33420
33433
33440
33424
33432
33428
33425
33424
33424
33417
33420
33420
33412
33416
33417
33415
33412
33412
33399
33404
33398
33404
33400
33402
33389
33390
33390
33385
33381
33382
33377
33377
33375
33368
33360
33360
33352
33356
33348
33352
33344
33346
33336
33336
33335
33334
33334
33329
33321
33318
33318
33320
33320
33316
33313
33310
33306
33300
33301
33300
33305
33292
33296
33293
33300
33288
33290
33284
33282
33286
33278
33288
33288
33276
33282
33284
33286
33278
33272
33277
33264
33268
33273
33272
33270
33260
33262
33264
33260
33260
33272
33255
33258
33252
33250
33252
33254
33244
33246
33246
33238
33236
33246
33244
33230
33228
33224
33224
33214
33224
33216
33200
33204
33208
33196
33200
33188
33190
33189
33185
33181
33182
33184
33176
33180
33188
33177
33176
33172
33180
33172
33172
33172
33168
33172
33172
33172
33164
33170
33168
33169
33173
33172
33180
33184
33182
33186
33188
33196
33196
33193
33202
33204
33208
33216
33216
33216
33216
33225
33236
33237
33236
33252
33249
33255
33252
33258
33270
33274
33284
33284
33284
33294
33294
33297
33304
33308
33306
33316
33312
33320
33321
33327
33332
33328
33332
33332
33345
33338
33348
33352
33348
33350
33349
33358
33360
33364
33364
33364
33374
33376
33372
33380
33380
33388
33393
33396
33396
33404
33404
33412
33409
33416
33413
33424
33420
33430
33422
33440
33436
33431
33425
33436
33433
33436
33432
33431
33436
33436
33431
33436
33445
33439
33438
33436
33439
33444
33452
33458
33452
33456
33464
33462
33468
33458
33468
33469
33471
33471
33472
33468
33478
33476
33484
33476
33476
33480
33484
33486
33486
33488
33486
33494
33496
33496
33506
33508
33512
33513
33524
33522
33528
33542
33552
33556
33565
33576
33578
33604
33602
33616
33636
33646
33656
33662
33684
33685
33696
33710
33720
33726
33740
33753
33772
33777
33788
33802
33806
33820
33829
33834
33854
33856
33864
33868
33877
33894
33908
33911
33920
33925
33930
33948
33948
33964
33960
33970
33977
33988
33994
33989
34004
34008
34001
34014
34020
34020
34032
34028
34032
34037
34040
34044
34052
34053
34052
34064
34060
34061
34068
34061
34072
34072
34071
34068
34076
34084
34080
34080
34082
34080
34084
34084
34074
34084
34082
34084
34088
34081
34094
34081
34090
34092
34084
34086
34084
34084
34084
34092
34088
34094
34100
34098
34112
34096
34104
34114
34113
34104
34116
34119
34124
34124
34138
34144
34144
34136
34148
34142
34152
34154
34158
34164
34170
34172
34176
34180
34189
34196
34200
34198
34193
34209
34205
34221
34216
34228
34222
34228
34240
34236
34236
34252
34254
34253
34257
34265
34276
34268
34276
34284
34285
34294
34292
34304
34308
34311
34310
34309
34325
34340
34336
34341
34346
34348
34356
34360
34361
34372
34372
34384
34389
34400
34408
34408
34412
34421
34436
34443
34444
34452
34468
34466
34480
34495
34503
34510
34510
34522
34530
34544
34548
34566
34570
34578
34592
34598
34612
34609
34628
34640
34641
34652
34662
34663
34676
34685
34692
34704
34708
34719
34726
34732
34746
34752
34752
34752
34759
34768
34770
34772
34774
34769
34780
34782
34786
34792
34788
34788
34788
34784
34796
34790
34788
34788
34788
34796
34796
34784
34784
34784
34778
34772
34784
34776
34768
34766
34764
34760
34758
34746
34745
34742
34741
34736
34734
34728
34720
34727
34716
34718
34708
34709
34702
34696
34692
34686
34680
34684
34680
34687
34680
34676
34668
34676
34668
34666
34668
34673
34666
34664
34668
34668
34664
34668
34662
34672
34668
34661
34663
34660
34668
34664
34652
34652
34654
34652
34654
34640
34654
34650
34644
34644
34648
34644
34654
34636
34637
34640
34642
34644
34640
34637
34628
34620
34628
34632
34628
34618
34613
34620
34613
34612
34612
34612
34608
34609
34606
34598
34596
34598
34592
34598
34596
34596
34590
34584
34584
34584
34574
34583
34581
34580
34572
34572
34576
34574
34572
34568
34572
34568
34572
34568
34572
34564
34561
34556
34564
34562
34561
34554
34557
34556
34552
34552
34556
34549
34553
34548
34548
34543
34543
34532
34544
34540
34536
34540
34530
34534
34526
34524
34522
34516
34524
34524
34516
34514
34501
34516
34508
34504
34490
34496
34492
34492
34486
34488
34484
34492
34482
34476
34478
34476
34484
34476
34472
34480
34476
34484
34487
34488
34488
34500
34496
34496
34501
34501
34508
34500
34508
34518
34524
34532
34528
34538
34552
34548
34550
34558
34556
34564
34572
34582
34588
34590
34599
34594
34604
34609
34614
34614
34628
34628
34636
34637
34644
34644
34653
34656
34661
34664
34660
34676
34678
34680
34692
34684
34694
34704
34708
34708
34716
34720
34725
34732
34736
34736
34740
34748
34755
34754
34750
34756
34774
34756
34772
34774
34768
34776
34782
34785
34780
34790
34791
34800
34798
34792
34804
34807
34814
34808
34808
34822
34815
34816
34823
34816
34820
34820
34836
34836
34829
34830
34834
34832
34836
34841
34830
34828
34832
34832
34840
34840
34836
34836
34837
34831
34830
34834
34836
34820
34828
34832
34828
34825
34837
34824
34824
34825
34832
34828
34836
34824
34818
34822
34824
34821
34824
34836
34829
34815
34831
34820
34820
34816
34812
34820
34809
34810
34812
34814
34805
34816
34805
34817
34820
34812
34817
34823
34817
34816
34823
34822
34831
34812
34825
34820
34826
34832
34838
34826
34830
34834
34824
34838
34824
34838
34828
34836
34833
34840
34828
34836
34836
34841
34833
34840
34832
34831
34845
34838
34836
34844
34838
34842
34848
34836
34846
34848
34848
34852
34848
34847
34852
34857
34866
34860
34853
34856
34856
34864
34868
34864
34862
34872
34874
34871
34879
34869
34876
34876
34870
34880
34889
34884
34897
34890
34893
34896
34902
34908
34896
34900
34908
34908
34908
34916
34917
34906
34916
34912
34916
34900
34902
34916
34914
34916
34910
34916
34904
34912
34908
34917
34900
34900
34916
34904
34904
34889
34902
34894
34888
34890
34896
34897
34893
34900
34892
34896
34893
34898
34896
34892
34900
34892
34902
34908
34900
34900
34910
34905
34900
34916
34914
34917
34918
34922
34933
34927
34932
34928
34936
34948
34948
34942
34948
34956
34964
34964
34964
34974
34972
34989
34988
34988
34988
34991
35008
35002
35000
35010
35007
35009
35006
35012
35018
35022
35022
35016
35015
35028
35028
35022
35038
35044
35032
35042
35042
35046
35056
35058
35048
35048
35052
35060
35062
35064
35068
35076
35082
35082
35094
35092
35092
35092
35103
35108
35114
35122
35120
35134
35132
35136
35132
35148
35156
35169
35166
35170
35170
35178
35188
35197
35190
35193
35208
35220
35216
35216
35224
35231
35232
35237
35236
35245
35248
35252
35256
35255
35253
35256
35268
35264
35268
35279
35269
35284
35273
35278
35286
35284
35281
35276
35280
35272
35280
35273
35280
35276
35276
35274
35280
35276
35264
35268
35267
35266
35260
35263
35260
35250
35256
35256
35240
35244
35236
35236
35228
35232
35234
35226
35224
35216
35220
35213
35204
35207
35205
35200
35198
35192
35196
35194
35184
35191
35188
35188
35183
35192
35184
35188
35176
35183
35178
35182
35172
35176
35180
35178
35171
35172
35180
35174
35172
35172
35180
35169
35180
35177
35169
35172
35180
35178
35172
35170
35175
35176
35174
35165
35176
35180
35176
35180
35176
35180
35172
35180
35176
35189
35182
35180
35188
35190
35177
35188
35180
35188
35194
35200
35202
35199
35204
35208
35212
35212
35215
35215
35216
35232
35232
35230
35246
35240
35252
35249
35248
35248
35257
35274
35273
35272
35269
35268
35276
35276
35284
35276
35276
35279
35273
35272
35276
35264
35269
35276
35272
35270
35265
35276
35276
35282
35272
35272
35284
35276
35277
35269
35270
35274
35272
35276
35276
35272
35266
35268
35277
35272
35264
35265
35269
35260
35268
35265
35263
35260
35266
35264
35264
35256
35268
35260
35262
35258
35254
35265
35266
35277
35273
35268
35284
35289
35297
35296
35305
35320
35326
35336
35352
35352
35373
35376
35382
35384
35396
35412
35412
35428
35432
35428
35442
35444
35460
35460
35462
35477
35472
35484
35495
35494
35494
35502
35508
35518
35514
35517
35528
35530
35528
35540
35536
35543
35542
35545
35545
35552
35552
35560
35564
35572
35568
35578
35580
35572
35572
35578
35582
35588
35586
35590
35592
35599
35606
35600
35605
35600
35600
35610
35608
35612
35616
35612
35620
35616
35622
35626
35628
35630
35624
35625
35631
35628
35629
35632
35624
35628
35628
35622
35624
35624
35622
35626
35623
35620
35624
35616
35616
35620
35612
35604
35614
35620
35610
35604
35608
35604
35606
35596
35600
35600
35604
35598
35593
35590
35592
35586
35588
35588
35585
35594
35584
35588
35592
35590
35592
35594
35588
35588
35598
35588
35588
35596
35597
35604
35596
35599
35616
35604
35608
35614
35616
35616
35624
35620
35620
35625
35638
35644
35646
35648
35644
35654
35660
35660
35664
35665
35678
35686
35688
35696
35702
35703
35720
35717
35721
35724
35732
35744
35748
35750
35756
35768
35772
35780
35776
35780
35791
35796
35788
35800
35800
35802
35812
35816
35817
35816
35820
35824
35824
35836
35830
35848
35847
35852
35852
35860
35868
35868
35872
35876
35876
35886
35880
35888
35890
35897
35912
35900
35908
35909
35908
35930
35934
35940
35932
35938
35956
35948
35944
35962
35964
35959
35968
35972
35979
35972
35986
35974
35989
35986
35988
35986
35988
35996
35990
35990
35998
35997
35990
35996
35989
35994
35993
35988
35988
35984
35996
35984
35984
35976
35976
35989
35980
35973
35966
35974
35966
35968
35962
35959
35957
35940
35956
35952
35948
35942
35940
35944
35940
35946
35950
35944
35942
35948
35948
35948
35944
35959
35960
35964
35964
35964
35964
35972
35980
35974
35974
35976
35976
35975
35974
35981
35975
35976
35980
35980
35988
35984
35984
35980
35990
35978
35988
35977
35984
35985
35984
35988
35980
35976
35980
35984
35981
35980
35974
35978
35980
35982
35978
35990
35973
35980
35984
35980
35973
35988
35976
35982
35986
35983
35982
35994
35988
35996
35993
36012
35993
35992
36008
36004
35998
36007
36004
36020
36012
36008
36020
36022
36020
36021
36028
36024
36036
36024
36020
36029
36032
36028
36032
36040
36032
36046
36040
36036
36034
36036
36038
36032
36036
36036
36040
36028
36034
36040
36036
36034
36036
36036
36031
36033
36036
36039
36034
36030
36034
36044
36036
36044
36032
36040
36052
36048
36048
36048
36052
36053
36064
36068
36064
36066
36068
36076
36076
36076
36082
36086
36096
36100
36102
36104
36114
36108
36116
36129
36135
36135
36138
36146
36138
36151
36148
36158
36161
36177
36164
36175
36180
36178
36172
36180
36184
36192
36204
36197
36197
36204
36200
36193
36202
36212
36200
36208
36206
36216
36208
36214
36213
36216
36212
36216
36224
36218
36229
36220
36220
36212
36220
36220
36228
36236
36216
36224
36230
36228
36220
36220
36224
36222
36229
36228
36224
36220
36220
36236
36231
36222
36222
36226
36216
36228
36224
36228
36224
36238
36228
36229
36236
36236
36230
36238
36238
36233
36244
36240
36248
36244
36244
36238
36225
36237
36244
36236
36242
36240
36239
36236
36238
36224
36228
36228
36224
36222
36221
36220
36212
36212
36204
36212
36196
36196
36196
36200
36192
36196
36185
36188
36185
36173
36180
36176
36174
36168
36170
36162
36160
36164
36156
36155
36152
36156
36152
36146
36142
36152
36141
36141
36140
36138
36132
36128
36140
36120
36128
36127
36124
36124
36122
36124
36126
36112
36120
36120
36116
36122
36120
36124
36112
36116
36104
36112
36112
36104
36104
36104
36103
36105
36100
36103
36097
36090
36096
36092
36092
36092
36086
36082
36085
36068
36069
36068
36064
36060
36056
36052
36044
36048
36044
36031
36038
36020
36020
36022
36012
36010
36001
35995
35992
35980
35976
35978
35974
35960
35964
35958
35964
35956
35954
35942
35942
35940
35932
35932
35932
35930
35924
35924
35918
35922
35928
35918
35921
35910
35908
35912
35912
35912
35905
35904
35904
35909
35905
35904
35904
35898
35896
35896
35902
35903
35900
35892
35898
35902
35888
35884
35893
35888
35900
35887
35892
35882
35892
35900
35889
35892
35884
35884
35878
35892
35886
35881
35863
35884
35877
35876
35876
35884
35868
35872
35876
35876
35876
35872
35864
35880
35872
35872
35876
35880
35872
35866
35868
35861
35863
35872
35858
35856
35860
35868
35868
35860
35860
35861
35868
35860
35862
35860
35847
35853
35853
35845
35849
35852
35852
35838
35836
35844
35836
35844
35836
35836
35828
35832
35828
35816
35828
35824
35820
35815
35813
35816
35816
35820
35808
35808
35808
35804
35806
35792
35800
35804
35798
35800
35800
35790
35792
35800
35792
35792
35792
35796
35788
35789
35790
35788
35796
35788
35788
35782
35780
35785
35782
35774
35780
35780
35786
35777
35786
35777
35780
35780
35780
35773
35768
35760
35766
35768
35762
35752
35750
35750
35748
35744
35744
35742
35730
35728
35724
35726
35716
35709
35708
35704
35698
35692
35694
35681
35680
35676
35665
35668
35668
35656
35640
35644
35636
35637
35625
35620
35625
35616
35613
35604
35596
35596
35588
35580
35585
35572
35572
35569
35564
35556
35564
35552
35544
35556
35544
35540
35545
35544
35532
35534
35536
35534
35536
35536
35526
35534
35529
35532
35528
35522
35524
35542
35522
35520
35532
35524
35532
35525
35525
35524
35520
35518
35528
35528
35516
35520
35510
35516
35520
35509
35510
35504
35498
35513
35496
35488
35496
35490
35492
35495
35480
35480
35484
35478
35477
35473
35465
35462
35472
35465
35454
35455
35464
35452
35444
35454
35440
35442
35442
35446
35440
35434
35428
35429
35429
35428
35421
35424
35412
35418
35418
35412
35412
35410
35418
35410
35412
35417
35412
35412
35409
35408
35413
35413
35412
35413
35417
35412
35425
35421
35428
35420
35413
35422
35417
35412
35422
35414
35409
35408
35400
35406
35404
35404
35396
35388
35382
35377
35372
35375
35368
35364
35364
35366
35354
35352
35350
35338
35340
35350
35338
35340
35334
35330
35324
35320
35312
35309
35316
35300
35298
35298
35300
35292
35284
35292
35274
35276
35276
35284
35258
35264
35248
35257
35256
35252
35248
35246
35250
35244
35248
35252
35266
35262
35264
35268
35270
35268
35280
35284
35288
35300
35308
35308
35318
35332
35346
35338
35352
35352
35365
35373
35396
35388
35394
35404
35404
35418
35424
35428
35433
35438
35438
35439
35448
35456
35460
35470
35468
35468
35466
35472
35484
35478
35478
35480
35484
35484
35480
35495
35487
35492
35484
35488
35492
35492
35488
35484
35488
35480
35482
35493
35477
35482
35480
35479
35470
35476
35468
35474
35468
35472
35472
35469
35462
35464
35462
35470
35460
35462
35455
35454
35460
35448
35448
35436
35444
35444
35441
35447
35432
35432
35428
35428
35426
35436
35418
35420
35423
35420
35430
35420
35418
35416
35417
35401
35412
35412
35398
35406
35400
35396
35400
35393
35396
35376
35384
35376
35372
35381
35372
35364
35362
35352
35356
35348
35335
35344
35324
35328
35316
35308
35304
35303
35297
35296
35280
35284
35284
35276
35268
35252
35262
35252
35248
35238
35236
35244
35228
35228
35222
35228
35228
35220
35212
35217
35207
35200
35214
35200
35196
35200
35201
35196
35196
35201
35202
35196
35204
35196
35208
35204
35204
35197
35212
35214
35212
35216
35220
35217
35228
35232
35224
35244
35228
35240
35240
35236
35244
35244
35252
35264
35258
35268
35268
35270
35270
35274
35280
35286
35293
35294
35290
35292
35300
35294
35293
35300
35301
35308
35304
35305
35308
35312
35312
35311
35304
35316
35313
35316
35318
35316
35316
35317
35310
35322
35318
35316
35312
35308
35316
35324
35318
35310
35311
35312
35308
35312
35312
35310
35300
35304
35300
35303
35302
35297
35296
35294
35289
35288
35289
35288
35276
35279
35263
35271
35263
35261
35256
35264
35246
35233
35237
35234
35220
35220
35215
35212
35207
35193
35205
35189
35184
35196
35188
35172
35184
35172
35164
35164
35170
35170
35164
35164
35160
35160
35160
35156
35153
35148
35153
35160
35156
35152
35150
35144
35144
35148
35136
35148
35134
35141
35144
35138
35130
35128
35143
35138
35135
35138
35134
35140
35132
35134
35140
35135
35136
35136
35140
35132
35134
35140
35131
35140
35140
35136
35136
35132
35136
35132
35138
35133
35140
35130
35132
35129
35130
35124
35132
35138
35121
35136
35124
35116
35127
35116
35132
35113
35129
35120
35116
35117
35122
35114
35110
35118
35110
35108
35112
35108
35108
35112
35116
35116
35124
35110
35108
35108
35102
35112
35109
35116
35112
35117
35116
35113
35112
35114
35112
35116
35114
35112
35121
35109
35116
35116
35120
35120
35116
35112
35118
35120
35116
35116
35125
35116
35120
35120
35122
35112
35120
35124
35108
35120
35116
35116
35109
35116
35116
35116
35112
35108
35108
35113
35108
35104
35103
35104
35106
35108
35108
35102
35096
35097
35100
35104
35093
35100
35092
35096
35104
35108
35096
35101
35100
35102
35100
35108
35105
35104
35113
35104
35108
35112
35110
35108
35104
35110
35122
35122
35116
35122
35128
35124
35132
35128
35126
35128
35136
35138
35142
35148
35148
35151
35156
35154
35152
35168
35162
35164
35164
35164
35172
35164
35170
35164
35173
35173
35181
35172
35172
35183
35184
35185
35175
35176
35168
35184
35180
35186
35182
35181
35182
35181
35181
35169
35172
35176
35176
35178
35172
35169
35174
35173
35172
35170
35168
35168
35164
35164
35174
35164
35173
35172
35166
35164
35169
35156
35164
35164
35160
35156
35148
35148
35154
35156
35150
35140
35153
35136
35138
35140
35140
35140
35134
35127
35124
35124
35116
35112
35109
35110
35116
35110
35101
35100
35096
35096
35096
35092
35080
35078
35076
35076
35072
35064
35061
35061
35056
35052
35044
35044
35046
35044
35036
35034
35028
35032
35031
35028
35020
35029
35022
35020
35016
35010
35004
35005
35004
35004
35012
35007
35004
35004
35012
35012
35010
35012
35012
35010
35008
35008
35012
35012
35020
35012
35020
35024
35024
35018
35022
35024
35017
35022
35020
35030
35028
35036
35026
35040
35024
35030
35028
35021
35026
35032
35024
35020
35016
35010
35012
35020
35012
35000
34999
35012
35001
34997
34992
34988
34991
34984
34978
34980
34964
34978
34972
34967
34966
34953
34958
34946
34960
34949
34945
34952
34941
34940
34935
34929
34948
34933
34933
34928
34940
34924
34929
34928
34928
34932
34928
34926
34920
34925
34926
34922
34925
34922
34926
34925
34928
34926
34928
34928
34929
34924
34924
34928
34932
34935
34924
34937
34926
34929
34928
34928
34937
34932
34932
34933
34924
34932
34936
34933
34932
34928
34926
34934
34929
34932
34929
34920
34933
34935
34924
34929
34927
34926
34936
34921
34924
34932
34926
34935
34921
34924
34924
34919
34924
34917
34920
34916
34918
34920
34912
34913
34913
34912
34918
34910
34912
34918
34907
34904
34912
34908
34912
34908
34900
34904
34905
34904
34901
34901
34900
34895
34896
34890
34888
34887
34886
34880
34880
34888
34894
34884
34877
34876
34872
34872
34878
34868
34862
34864
34854
34857
34852
34852
34856
34860
34850
34846
34849
34844
34836
34837
34836
34832
34836
34836
34828
34830
34828
34838
34829
34831
34828
34822
34824
34833
34828
34822
34828
34824
34824
34820
34823
34817
34828
34828
34821
34824
34828
34825
34820
34816
34820
34820
34813
34820
34812
34817
34816
34836
34821
34813
34808
34812
34808
34797
34800
34804
34796
34793
34782
34788
34776
34781
34772
34761
34764
34756
34756
34754
34748
34741
34740
34720
34728
34720
34720
34719
34720
34716
34700
34703
34695
34684
34680
34682
34689
34676
34664
34664
34661
34661
34660
34660
34648
34655
34654
34647
34648
34648
34652
34649
34648
34652
34649
34652
34656
34657
34652
34656
34664
34658
34660
34660
34676
34672
34684
34684
34690
34692
34690
34696
34692
34708
34702
34710
34719
34717
34717
34724
34728
34730
34728
34732
34735
34736
34733
34738
34744
34744
34740
34744
34744
34741
34738
34744
34744
34748
34752
34732
34737
34734
34726
34730
34718
34724
34716
34708
34712
34708
34702
34700
34704
34704
34696
34692
34684
34677
34681
34681
34676
34670
34674
34677
34668
34677
34661
34668
34663
34660
34660
34664
34658
34653
34656
34660
34660
34664
34660
34657
34668
34660
34668
34663
34659
34658
34660
34660
34656
34660
34644
34645
34644
34632
34636
34626
34620
34620
34616
34612
34604
34608
34594
34600
34596
34583
34584
34583
34576
34572
34552
34548
34545
34544
34535
34524
34520
34509
34502
34496
34486
34484
34476
34472
34452
34457
34448
34446
34437
34433
34424
34416
34412
34400
34404
34390
34384
34376
34364
34372
34358
34368
34368
34368
34362
34368
34369
34372
34372
34377
34380
34380
34396
34386
34390
34400
34416
34416
34412
34422
34427
34426
34436
34440
34444
34460
34464
34464
34478
34468
34468
34484
34489
34493
34496
34501
34504
34508
34516
34524
34524
34521
34528
34536
34532
34532
34541
34539
34548
34551
34554
34550
34552
34556
34564
34564
34567
34572
34568
34564
34565
34568
34566
34553
34561
34564
34564
34560
34558
34562
34564
34564
34552
34564
34550
34545
34557
34552
34551
34549
34540
34552
34545
34544
34534
34532
34524
34526
34524
34521
34517
34513
34512
34500
34501
34492
34496
34485
34492
34485
34476
34478
34464
34470
34468
34460
34456
34444
34436
34437
34432
34428
34422
34417
34404
34392
34394
34392
34390
34391
34376
34382
34373
34361
34364
34366
34364
34360
34362
34348
34341
34340
34342
34341
34341
34348
34332
34340
34340
34341
34336
34336
34340
34338
34336
34340
34346
34340
34344
34352
34352
34352
34361
34360
34367
34372
34370
34380
34384
34389
34396
34395
34404
34408
34418
34420
34414
34420
34420
34436
34444
34432
34452
34448
34456
34461
34457
34458
34465
34460
34476
34469
34469
34466
34474
34480
34478
34476
34484
34482
34480
34480
34488
34484
34484
34494
34485
34485
34488
34486
34494
34489
34492
34493
34500
34500
34494
34501
34500
34496
34500
34502
34508
34503
34512
34516
34516
34520
34528
34516
34532
34533
34525
34532
34538
34540
34534
34544
34546
34559
34551
34548
34552
34557
34560
34552
34557
34572
34575
34576
34576
34572
34580
34580
34582
34590
34585
34584
34596
34593
34594
34594
34596
34604
34600
34601
34593
34596
34612
34600
34612
34604
34596
34608
34598
34604
34604
34600
34596
34594
34590
34596
34591
34591
34584
34580
34576
34574
34576
34572
34580
34570
34573
34577
34578
34576
34581
34575
34572
34575
34574
34572
34570
34576
34570
34566
34572
34568
34560
34561
34552
34560
34567
34564
34556
34560
34552
34548
34560
34549
34564
34552
34556
34556
34556
34554
34548
34560
34556
34547
34553
34552
34545
34549
34552
34556
34549
34543
34550
34548
34552
34552
34547
34552
34548
34548
34548
34554
34552
34557
34548
34558
34560
34552
34556
34548
34548
34550
34558
34546
34550
34548
34550
34545
34542
34542
34548
34548
34548
34545
34552
34544
34546
34546
34540
34541
34532
34540
34532
34534
34532
34532
34528
34524
34524
34520
34526
34522
34512
34520
34524
34512
34509
34512
34504
34512
34513
34517
34506
34508
34504
34511
34508
34500
34500
34506
34508
34504
34500
34516
34509
34502
34510
34502
34497
34512
34522
34522
34512
34520
34530
34522
34520
34520
34527
34528
34524
34526
34525
34532
34536
34544
34537
34533
34551
34550
34552
34564
34556
34554
34562
34564
34568
34570
34569
34566
34571
34580
34578
34574
34569
34580
34582
34582
34580
34588
34588
34589
34586
34590
34588
34584
34589
34589
34584
34585
34592
34584
34588
34592
34593
34592
34586
34590
34592
34588
34590
34596
34596
34604
34592
34594
34584
34592
34597
34596
34590
34598
34600
34598
34593
34588
34608
34600
34612
34597
34612
34598
34607
34601
34618
34606
34617
34622
34616
34614
34615
34620
34618
34612
34628
34628
34632
34620
34627
34624
34624
34620
34629
34621
34629
34628
34625
34628
34636
34632
34630
34636
34632
34636
34634
34640
34632
34636
34640
34632
34637
34632
34637
34640
34634
34645
34640
34636
34640
34628
34628
34636
34632
34628
34624
34616
34628
34628
34628
34616
34620
34613
34623
34620
34609
34604
34604
34596
34604
34594
34593
34588
34581
34586
34592
34582
34573
34581
34572
34572
34560
34560
34553
34567
34558
34560
34548
34545
34544
34548
34538
34540
34534
34534
34532
34532
34526
34529
34532
34527
34518
34528
34520
34510
34508
34510
34504
34497
34504
34496
34500
34488
34484
34486
34487
34476
34460
34471
34460
34456
34452
34446
34444
34445
34446
34440
34440
34434
34432
34424
34422
34424
34424
34431
34432
34420
34416
34408
34424
34414
34418
34408
34412
34399
34400
34404
34403
34404
34396
34398
34400
34398
34393
34390
34388
34388
34384
34396
34388
34388
34380
34384
34380
34380
34383
34384
34372
34372
34376
34372
34372
34357
34366
34364
34360
34364
34361
34344
34349
34356
34345
34348
34341
34348
34340
34332
34342
34344
34338
34333
34330
34328
34336
34336
34337
34340
34334
34334
34342
34334
34334
34328
34333
34340
34330
34330
34326
34332
34333
34328
34336
34332
34330
34328
34327
34327
34332
34332
34329
34327
34332
34324
34328
34326
34327
34318
34336
34338
34328
34332
34316
34322
34314
34314
34324
34311
34316
34316
34308
34305
34304
34292
34296
34286
34286
34286
34277
34280
34268
34264
34264
34254
34252
34244
34238
34236
34220
34218
34216
34217
34204
34193
34188
34192
34184
34172
34172
34158
34148
34149
34129
34134
34130
34117
34112
34118
34101
34097
34088
34084
34072
34080
34068
34068
34060
34060
34056
34046
34044
34036
34038
34020
34037
34040
34021
34020
34020
34018
34014
34010
34012
33998
33994
34000
33996
33996
33996
33988
33980
33976
33982
33976
33964
33968
33960
33964
33956
33956
33956
33951
33948
33934
33932
33926
33916
33922
33916
33908
33902
33890
33900
33894
33882
33869
33870
33868
33860
33853
33844
33838
33828
33832
33821
33820
33804
33800
33800
33787
33776
33768
33768
33761
33752
33745
33732
33726
33719
33719
33704
33700
33692
33686
33687
33670
33668
33656
33656
33652
33638
33632
33626
33617
33600
33600
33596
33592
33584
33578
33573
33558
33550
33542
33543
33538
33520
33518
33516
33505
33503
33500
33489
33492
33482
33476
33460
33468
33462
33454
33448
33452
33441
33428
33437
33424
33423
33412
33420
33420
33407
33396
33397
33388
33391
33384
33384
33384
33378
33372
33372
33374
33368
33360
33369
33358
33349
33356
33348
33354
33342
33336
33328
33332
33332
33328
33328
33316
33320
33310
33308
33312
33304
33302
33302
33296
33290
33288
33284
33294
33284
33280
33284
33284
33276
33270
33282
33278
33279
33276
33276
33268
33271
33268
33265
33268
33261
33257
33256
33256
33246
33244
33232
33236
33232
33225
33214
33204
33199
33194
33191
33172
33176
33156
33156
33148
33152
33144
33137
33134
33124
33119
33116
33104
33102
33098
33090
33086
33073
33072
33060
33054
33048
33044
33039
33026
33012
33013
33004
32998
32994
32991
32975
32974
32970
32950
32952
32950
32934
32929
32922
32928
32921
32919
32922
32918
32918
32904
32920
32917
32929
32920
32928
32932
32934
32933
32940
32948
32948
32953
32959
32960
32968
32976
32970
32981
32982
32996
32992
32992
32996
33006
33009
33012
33009
33014
33016
33016
33025
33036
33032
33032
33030
33038
33044
33046
33038
33052
33048
33044
33049
33041
33054
33052
33044
33047
33052
33052
33054
33056
33060
33060
33056
33054
33056
33052
33048
33054
33052
33052
33049
33046
33050
33038
33053
33049
33038
33030
33046
33036
33025
33026
33028
33032
33032
33016
33014
33012
33004
33006
33012
33004
32988
32988
32996
32988
32988
32976
32980
32984
32964
32972
32972
32958
32968
32964
32960
32956
32943
32948
32940
32948
32940
32933
32933
32927
32924
32920
32921
32920
32916
32908
32902
32903
32902
32900
32894
32896
32892
32878
32882
32888
32878
32872
32870
32868
32872
32876
32874
32868
32861
32864
32868
32866
32869
32860
32869
32868
32870
32868
32868
32872
32874
32864
32864
32871
32880
32870
32881
32878
32881
32892
32892
32884
32889
32900
32900
32900
32903
32911
32910
32906
32919
32916
32928
32928
32930
32916
32929
32929
32928
32934
32940
32938
32934
32940
32948
32949
32948
32952
32956
32956
32949
32953
32956
32948
32958
32951
32960
32956
32960
32956
32960
32956
32956
32962
32952
32948
32956
32960
32948
32948
32940
32952
32954
32942
32944
32937
32940
32933
32936
32928
32934
32912
32924
32916
32911
32916
32902
32908
32902
32901
32896
32886
32884
32886
32880
32876
32886
32869
32876
32870
32873
32868
32868
32864
32855
32858
32856
32848
32844
32852
32844
32848
32836
32838
32832
32832
32835
32832
32830
32828
32828
32815
32809
32809
32810
32817
32806
32801
32796
32794
32800
32792
32796
32780
32782
32780
32780
32774
32772
32766
32764
32769
32768
32764
32756
32756
32745
32754
32752
32744
32740
32740
32735
32732
32729
32728
32724
32717
32710
32704
32698
32696
32692
32689
32685
32686
32677
32672
32670
32670
32672
32658
32650
32656
32647
32640
32637
32632
32628
32633
32624
32628
32625
32628
32624
32628
32613
32614
32613
32621
32612
32616
32620
32617
32617
32624
32624
32625
32624
32620
32622
32624
32636
32624
32628
32628
32634
32622
32632
32630
32632
32628
32628
32636
32634
32632
32636
32632
32636
32636
32638
32640
32636
32638
32640
32638
32638
32638
32642
32632
32641
32644
32638
32644
32638
32633
32636
32647
32638
32632
32640
32638
32634
32634
32642
32628
32638
32628
32622
32631
32624
32631
32622
32622
32622
32616
32614
32612
32606
32604
32604
32604
32598
32600
32598
32584
32592
32581
32590
32588
32577
32580
32576
32575
32574
32580
32578
32568
32572
32574
32576
32574
32561
32565
32574
32560
32564
32565
32564
32561
32566
32561
32568
32569
32580
32577
32572
32576
32576
32578
32576
32572
32580
32584
32584
32582
32586
32590
32588
32592
32603
32601
32596
32605
32608
32604
32604
32617
32612
32610
32616
32617
32622
32620
32626
32624
32629
32628
32636
32640
32640
32638
32640
32645
32644
32642
32656
32652
32660
32658
32656
32661
32672
32666
32672
32672
32664
32672
32672
32684
32680
32672
32673
32674
32676
32682
32676
32680
32677
32676
32685
32684
32676
32676
32666
32661
32669
32676
32672
32668
32664
32664
32666
32669
32660
32660
32654
32657
32644
32650
32646
32634
32634
32639
32622
32624
32624
32613
32608
32606
32606
32598
32596
32588
32580
32576
32560
32562
32556
32556
32548
32549
32545
32540
32533
32529
32520
32520
32502
32504
32500
32492
32482
32488
32484
32476
32472
32473
32460
32463
32450
32454
32446
32448
32452
32450
32433
32444
32440
32429
32433
32436
32431
32418
32426
32418
32425
32417
32419
32404
32412
32406
32402
32401
32400
32388
32388
32388
32380
32374
32372
32360
32366
32358
32356
32350
32344
32332
32333
32336
32318
32321
32320
32316
32310
32308
32308
32300
32294
32300
32296
32294
32288
32288
32284
32276
32276
32280
32268
32278
32268
32268
32273
32262
32266
32252
32260
32257
32260
32257
32256
32253
32255
32257
32250
32252
32252
32253
32252
32244
32252
32248
32242
32238
32229
32228
32229
32234
32226
32226
32218
32212
32209
32208
32192
32196
32190
32186
32184
32180
32166
32160
32165
32160
32152
32140
32136
32136
32132
32124
32117
32116
32110
32110
32110
32103
32097
32092
32096
32097
32094
32092
32083
32078
32086
32078
32084
32077
32076
32073
32076
32072
32080
32068
32080
32076
32076
32072
32071
32081
32084
32084
32084
32082
32084
32090
32096
32101
32096
32101
32106
32108
32108
32113
32124
32120
32121
32128
32124
32126
32120
32127
32136
32140
32149
32142
32140
32132
32145
32156
32149
32149
32154
32150
32145
32159
32165
32159
32152
32160
32145
32156
32152
32161
32160
32160
32153
32160
32149
32168
32153
32157
32154
32164
32160
32160
32153
32156
32160
32158
32156
32160
32156
32164
32151
32160
32164
32164
32161
32162
32172
32176
32172
32180
32180
32176
32167
32180
32178
32185
32176
32182
32192
32194
32180
32188
32194
32190
32192
32208
32186
32193
32193
32192
32196
32199
32193
32200
32196
32204
32200
32196
32188
32182
32185
32190
32184
32186
32184
32177
32173
32177
32168
32172
32164
32172
32164
32164
32156
32151
32152
32148
32148
32140
32137
32136
32133
32136
32136
32136
32134
32140
32132
32140
32136
32130
32132
32132
32132
32127
32138
32136
32136
32138
32148
32145
32152
32150
32148
32164
32166
32172
32168
32180
32173
32186
32185
32196
32198
32210
32204
32208
32224
32224
32225
32220
32226
32237
32240
32248
32252
32254
32257
32263
32260
32270
32268
32279
32278
32286
32284
32292
32298
32294
32300
32304
32300
32308
32313
32308
32314
32308
32316
32321
32312
32325
32320
32310
32321
32311
32316
32320
32318
32322
32324
32318
32322
32320
32332
32326
32320
32326
32324
32320
32324
32317
32312
32324
32324
32324
32322
32316
32322
32324
32330
32320
32329
32324
32324
32325
32324
32320
32325
32312
32316
32300
32316
32308
32298
32296
32295
32284
32282
32280
32280
32266
32268
32257
32256
32250
32244
32241
32248
32238
32232
32228
32228
32224
32225
32220
32208
32206
32200
32196
32196
32196
32180
32186
32181
32180
32176
32176
32164
32157
32161
32149
32151
32134
32147
32134
32126
32120
32126
32128
32120
32112
32108
32113
32119
32120
32118
32112
32122
32120
32124
32128
32128
32144
32135
32144
32148
32160
32157
32164
32164
32169
32180
32180
32182
32186
32190
32196
32207
32202
32208
32217
32224
32228
32224
32228
32236
32232
32241
32249
32248
32252
32250
32253
32266
32264
32270
32272
32276
32285
32284
32278
32292
32289
32288
32292
32292
32290
32286
32290
32292
32292
32292
32294
32288
32288
32285
32292
32276
32280
32280
32272
32274
32268
32264
32261
32260
32264
32263
32245
32260
32252
32240
32236
32241
32239
32233
32241
32228
32224
32228
32224
32224
32213
32213
32208
32204
32208
32201
32194
32191
32184
32184
32181
32174
32180
32174
32172
32166
32162
32159
32156
32154
32150
32140
32149
32132
32144
32140
32141
32140
32132
32128
32125
32116
32126
32116
32117
32106
32102
32101
32104
32096
32093
32090
32088
32072
32066
32066
32068
32064
32060
32055
32050
32056
32044
32044
32036
32036
32032
32026
32024
32020
32016
32014
32010
32004
32017
32010
32012
32009
32008
31998
32002
31992
31994
31996
32000
32008
31998
32000
32008
32012
32006
32016
32024
32028
32028
32028
32032
32037
32037
32052
32052
32064
32064
32072
32068
32065
32072
32090
32092
32101
32110
32112
32112
32124
32127
32143
32142
32154
32153
32172
32172
32172
32180
32192
32188
32205
32208
32206
32222
32222
32230
32228
32239
32244
32244
32248
32253
32249
32264
32262
32270
32277
32276
32268
32280
32280
32274
32284
32286
32280
32288
32284
32286
32286
32292
32290
32292
32296
32300
32293
32296
32296
32292
32300
32300
32305
32308
32304
32312
32305
32305
32300
32304
32312
32316
32316
32316
32316
32328
32322
32332
32328
32324
32334
32328
32336
32335
32333
32350
32348
32348
32349
32353
32356
32360
32359
32361
32370
32369
32380
32388
32388
32389
32398
32404
32402
32412
32412
32416
32426
32422
32424
32425
32421
32432
32436
32432
32439
32438
32437
32439
32444
32445
32446
32444
32438
32452
32456
32448
32452
32453
32462
32462
32468
32464
32464
32460
32468
32468
32464
32471
32464
32472
32468
32474
32481
32478
32484
32482
32484
32489
32492
32500
32500
32506
32516
32516
32524
32516
32532
32536
32533
32538
32557
32552
32558
32564
32564
32564
32576
32582
32592
32596
32604
32604
32608
32608
32613
32619
32617
32628
32632
32638
32636
32641
32646
32656
32648
32652
32656
32661
32660
32668
32668
32676
32676
32682
32678
32684
32684
32688
32688
32692
32700
32702
32708
32702
32708
32709
32715
32716
32723
32728
32728
32732
32728
32732
32734
32743
32740
32744
32748
32750
32758
32756
32762
32760
32762
32757
32768
32768
32772
32765
32770
32778
32774
32778
32780
32782
32781
32782
32796
32794
32783
32788
32794
32802
32807
32805
32804
32805
32806
32804
32806
32808
32812
32814
32820
32813
32820
32816
32810
32812
32812
32812
32817
32816
32815
32810
32808
32807
32812
32820
32812
32808
32809
32814
32808
32808
32812
32800
32804
32804
32812
32813
32810
32804
32804
32812
32804
32816
32812
32812
32814
32812
32814
32816
32808
32806
32806
32810
32812
32800
32808
32804
32814
32805
32805
32812
32804
32801
32804
32796
32804
32797
32803
32804
32805
32810
32798
32790
32801
32800
32808
32812
32796
32804
32805
32800
32796
32802
32807
32804
32800
32786
32800
32798
32802
32801
32801
32794
32796
32800
32802
32791
32797
32791
32800
32789
32789
32788
32784
32788
32782
32778
32776
32782
32783
32774
32768
32763
32766
32756
32758
32753
32751
32745
32740
32732
32740
32744
32730
32728
32728
32724
32717
32711
32712
32704
32707
32708
32700
32690
32680
32695
32692
32685
32676
32672
32664
32666
32658
32668
32660
32664
32644
32646
32657
32644
32652
32632
32644
32639
32640
32628
32624
32631
32620
32628
32628
32616
32622
32608
32616
32616
32613
32604
32608
32601
32601
32604
32606
32600
32596
32596
32594
32588
32588
32588
32584
32582
32580
32576
32574
32569
32569
32556
32556
32564
32553
32549
32546
32540
32542
32543
32540
32534
32534
32526
32524
32520
32519
32516
32518
32518
32504
32512
32508
32503
32500
32504
32504
32504
32506
32504
32509
32506
32502
32508
32511
32505
32516
32512
32517
32522
32512
32512
32520
32520
32517
32532
32528
32526
32529
32535
32532
32536
32536
32532
32542
32544
32549
32542
32552
32548
32550
32552
32542
32554
32552
32552
32549
32550
32549
32549
32550
32550
32549
32536
32548
32536
32544
32540
32536
32540
32540
32535
32534
32526
32524
32519
32525
32528
32520
32520
32524
32513
32525
32520
32516
32508
32512
32519
32510
32509
32504
32501
32508
32516
32508
32510
32516
32512
32511
32512
32516
32518
32516
32513
32529
32516
32516
32520
32520
32517
32525
32519
32524
32518
32520
32519
32516
32516
32525
32524
32516
32521
32514
32513
32516
32516
32516
32510
32503
32500
32500
32508
32503
32506
32492
32496
32492
32484
32485
32490
32481
32476
32478
32469
32464
32460
32459
32454
32452
32444
32442
32436
32432
32430
32428
32416
32421
32423
32412
32412
32404
32404
32388
32384
32384
32379
32382
32380
32374
32372
32372
32369
32356
32360
32352
32348
32344
32352
32340
32340
32337
32332
32325
32332
32328
32320
32316
32317
32316
32317
32316
32309
32300
32301
32304
32302
32308
32306
32305
32300
32302
32304
32296
32304
32298
32302
32292
32300
32296
32302
32292
32292
32292
32292
32290
32285
32298
32294
32290
32290
32292
32279
32288
32284
32284
32286
32292
32280
32288
32284
32276
32285
32284
32284
32288
32276
32286
32282
32281
32286
32280
32276
32284
32274
32276
32273
32276
32280
32280
32288
32284
32276
32273
32278
32274
32276
32272
32276
32271
32260
32268
32264
32261
32260
32256
32252
32252
32246
32248
32252
32246
32238
32240
32249
32234
32228
32240
32236
32236
32244
32228
32237
32238
32228
32242
32230
32233
32228
32230
32232
32225
32225
32220
32220
32216
32204
32204
32196
32196
32189
32180
32188
32186
32172
32172
32165
32168
32172
32168
32172
32172
32166
32164
32160
32164
32160
32162
32156
32156
32164
32148
32157
32156
32152
32143
32144
32144
32136
32140
32140
32140
32126
32132
32128
32121
32124
32127
32120
32124
32109
32113
32096
32101
32096
32096
32106
32100
32091
32109
32101
32104
32109
32112
32111
32113
32128
32124
32128
32129
32137
32136
32144
32142
32152
32160
32156
32164
32168
32174
32174
32176
32180
32180
32184
32188
32192
32193
32200
32200
32206
32209
32212
32216
32220
32220
32224
32220
32224
32228
32239
32236
32240
32242
32244
32255
32252
32251
32256
32263
32272
32268
32272
32280
32276
32284
32287
32282
32290
32288
32296
32289
32292
32292
32292
32303
32294
32293
32295
32304
32304
32297
32288
32288
32292
32284
32286
32284
32286
32276
32276
32274
32269
32262
32258
32244
32248
32246
32245
32242
32241
32232
32228
32225
32218
32212
32202
32204
32194
32192
32188
32184
32177
32180
32158
32157
32156
32150
32144
32133
32126
32132
32122
32117
32111
32098
32097
32094
32088
32092
32068
32068
32064
32064
32056
32056
32047
32040
32032
32032
32028
32022
32024
32012
32012
32004
32004
31989
31994
31984
31982
31984
31972
31972
31968
31968
31960
31956
31958
31952
31952
31942
31940
31938
31940
31936
31930
31936
31936
31924
31928
31918
31929
31920
31916
31918
31916
31924
31916
31926
31922
31926
31925
31928
31928
31918
31928
31924
31929
31920
31930
31930
31928
31924
31926
31930
31933
31934
31938
31926
31925
31932
31935
31932
31928
31925
31924
31932
31940
31924
31926
31928
31920
31924
31925
31930
31920
31924
31924
31928
31920
31922
31924
31916
31918
31919
31924
31916
31909
31916
31916
31908
31914
31901
31905
31908
31904
31909
31901
31901
31900
31904
31894
31908
31896
31898
31898
31897
31901
31900
31896
31896
31888
31888
31894
31892
31892
31894
31894
31884
31892
31892
31889
31876
31878
31876
31874
31870
31868
31868
31857
31870
31868
31864
31864
31855
31854
31846
31845
31841
31848
31844
31853
31841
31842
31845
31848
31841
31849
31844
31842
31844
31844
31841
31846
31842
31836
31842
31842
31852
31844
31844
31838
31848
31844
31842
31852
31848
31841
31846
31856
31855
31846
31848
31853
31852
31852
31852
31855
31856
31848
31854
31855
31852
31860
31856
31854
31852
31853
31856
31854
31848
31848
31854
31844
31850
31855
31844
31844
31836
31840
31844
31842
31844
31844
31838
31836
31836
31844
31837
31832
31838
31836
31828
31834
31830
31828
31823
31828
31823
31823
31824
31821
31823
31814
31818
31812
31818
31812
31808
31812
31808
31806
31808
31808
31800
31789
31796
31796
31804
31798
31796
31796
31798
31800
31800
31796
31796
31796
31796
31792
31806
31804
31796
31806
31800
31800
31802
31814
31813
31808
31820
31820
31820
31822
31822
31824
31824
31838
31834
31831
31838
31840
31840
31844
31846
31852
31850
31844
31852
31860
31852
31865
31869
31860
31868
31864
31863
31884
31871
31873
31880
31877
31892
31878
31889
31880
31889
31884
31886
31884
31886
31884
31888
31892
31887
31889
31892
31884
31890
31887
31884
31886
31892
31884
31889
31878
31880
31884
31884
31888
31886
31874
31884
31880
31881
31881
31889
31882
31884
31880
31894
31884
31892
31884
31888
31897
31892
31900
31884
31896
31896
31892
31894
31897
31898
31896
31898
31897
31896
31892
31892
31896
31900
31904
31894
31894
31892
31900
31896
31896
31896
31896
31901
31908
31909
31904
31908
31904
31896
31902
31897
31900
31888
31900
31894
31888
31890
31880
31880
31876
31877
31872
31864
31862
31857
31850
31844
31856
31848
31828
31820
31832
31810
31810
31804
31798
31786
31780
31782
31776
31770
31764
31752
31756
31746
31744
31740
31723
31725
31720
31713
31714
31708
31704
31690
31692
31692
31692
31684
31687
31681
31680
31669
31670
31662
31664
31652
31662
31656
31652
31654
31652
31652
31648
31646
31647
31656
31646
31656
31646
31647
31653
31644
31652
31648
31652
31650
31658
31654
31656
31656
31670
31662
31660
31676
31669
31660
31678
31676
31680
31678
31684
31678
31688
31688
31686
31692
31703
31700
31696
31697
31706
31710
31709
31712
31713
31708
31713
31710
31724
31712
31714
31720
31726
31724
31725
31732
31730
31724
31728
31726
31740
31732
31728
31734
31736
31736
31740
31728
31728
31726
31732
31720
31724
31727
31724
31720
31720
31719
31716
31719
31712
31708
31708
31708
31712
31704
31705
31692
31700
31698
31680
31687
31684
31684
31684
31684
31680
31684
31676
31672
31672
31664
31672
31668
31660
31662
31668
31655
31656
31658
31660
31652
31652
31660
31654
31652
31650
31650
31648
31652
31652
31647
31642
31640
31644
31646
31644
31648
31640
31636
31646
31644
31650
31652
31644
31642
31647
31648
31642
31646
31648
31644
31640
31638
31646
31640
31638
31646
31632
31646
31636
31636
31634
31638
31640
31631
31628
31631
31623
31622
31620
31606
31612
31612
31612
31614
31599
31598
31596
31596
31591
31594
31592
31576
31589
31572
31568
31569
31572
31564
31556
31558
31556
31548
31553
31550
31552
31548
31534
31537
31536
31528
31527
31518
31520
31508
31516
31508
31501
31498
31496
31487
31492
31495
31489
31476
31486
31476
31466
31476
31477
31470
31468
31460
31472
31460
31460
31460
31464
31458
31454
31452
31446
31448
31446
31442
31441
31448
31439
31439
31440
31436
31432
31434
31428
31428
31429
31424
31424
31424
31416
31424
31422
31420
31416
31421
31412
31416
31412
31408
31410
31407
31400
31404
31406
31404
31398
31396
31397
31400
31402
31400
31408
31400
31400
31408
31408
31406
31420
31413
31416
31410
31416
31408
31410
31420
31412
31417
31421
31420
31413
31405
31414
31408
31415
31412
31412
31420
31412
31404
31404
31404
31404
31408
31402
31397
31396
31396
31398
31396
31400
31392
31378
31388
31394
31384
31380
31378
31380
31372
31376
31364
31360
31364
31356
31349
31346
31342
31348
31334
31336
31340
31332
31328
31328
31323
31319
31322
31324
31304
31312
31312
31301
31306
31304
31300
31296
31296
31296
31304
31296
31292
31294
31296
31300
31293
31292
31304
31292
31288
31295
31292
31293
31284
31289
31284
31276
31268
31268
31268
31268
31264
31264
31262
31260
31252
31260
31254
31248
31250
31244
31236
31238
31244
31237
31232
31228
31222
31225
31220
31212
31212
31204
31196
31188
31192
31196
31180
31178
31176
31166
31160
31156
31153
31148
31142
31141
31134
31132
31116
31121
31118
31116
31105
31100
31103
31100
31100
31100
31096
31086
31092
31096
31095
31092
31104
31105
31098
31097
31104
31106
31108
31109
31108
31116
31124
31119
31126
31128
31136
31133
31140
31144
31142
31146
31150
31156
31156
31153
31164
31159
31156
31167
31168
31169
31164
31168
31177
31166
31172
31168
31172
31172
31170
31172
31178
31168
31170
31168
31165
31167
31164
31158
31152
31157
31150
31148
31141
31140
31140
31136
31126
31124
31122
31119
31115
31104
31100
31095
31084
31080
31080
31068
31066
31060
31064
31056
31052
31036
31040
31024
31019
31012
31014
31012
30992
30999
30980
30976
30974
30968
30952
30951
30950
30940
30928
30922
30914
30903
30900
30893
30889
30884
30870
30872
30858
30849
30848
30846
30839
30827
30824
30818
30812
30816
30794
30793
30792
30788
30778
30780
30773
30768
30766
30772
30764
30754
30761
30750
30748
30744
30746
30744
30749
30744
30738
30744
30740
30742
30738
30749
30744
30744
30760
30752
30756
30756
30757
30760
30770
30765
30768
30778
30780
30780
30781
30790
30788
30798
30798
30806
30807
30816
30820
30820
30820
30828
30829
30836
30833
30844
30854
30855
30852
30852
30852
30866
30868
30877
30874
30866
30873
30872
30880
30876
30884
30882
30884
30886
30886
30888
30896
30892
30892
30888
30892
30895
30887
30888
30892
30892
30896
30896
30900
30898
30892
30901
30901
30908
30908
30900
30909
30916
30912
30913
30914
30916
30922
30920
30924
30926
30934
30940
30940
30938
30948
30944
30950
30948
30953
30956
30958
30967
30961
30969
30968
30980
30970
30980
30968
30970
30969
30974
30982
30976
30986
30972
30972
30977
30972
30972
30980
30970
30968
30970
30962
30957
30968
30952
30952
30956
30952
30949
30950
30944
30940
30941
30934
30932
30924
30928
30916
30920
30920
30913
30916
30908
30916
30914
30916
30916
30920
30916
30920
30920
30924
30920
30916
30928
30922
30918
30924
30920
30932
30924
30926
30930
30932
30934
30940
30936
30936
30946
30948
30956
30944
30952
30964
30953
30972
30968
30976
30972
30976
30974
30980
30988
30989
30993
31000
31000
31008
31008
31014
31022
31028
31030
31024
31021
31030
31024
31036
31032
31036
31033
31040
31044
31043
31044
31038
31041
31032
31040
31040
31036
31036
31032
31027
31036
31030
31032
31026
31025
31020
31023
31017
31015
31004
31016
31012
31000
30993
30996
30990
30990
30989
30980
30988
30980
30970
30970
30972
30964
30964
30953
30952
30951
30948
30948
30945
30942
30936
30936
30934
30932
30934
30924
30920
30913
30908
30916
30916
30918
30912
30914
30908
30910
30913
30912
30914
30908
30912
30912
30914
30912
30908
30912
30913
30920
30914
30920
30920
30920
30920
30922
30924
30933
30932
30924
30929
30928
30928
30932
30942
30934
30924
30934
30940
30948
30938
30938
30936
30940
30942
30948
30946
30946
30951
30944
30950
30946
30949
30952
30956
30952
30953
30954
30948
30960
30952
30952
30950
30958
30953
30960
30964
30960
30958
30952
30953
30956
30960
30964
30946
30952
30952
30952
30952
30957
30959
30960
30948
30956
30959
30954
30954
30948
30952
30945
30948
30952
30960
30950
30948
30960
30948
30952
30948
30948
30943
30940
30944
30948
30936
30937
30938
30936
30930
30936
30930
30932
30930
30930
30924
30920
30916
30916
30920
30914
30912
30910
30912
30914
30910
30898
30908
30904
30900
30904
30903
30900
30896
30896
30897
30890
30892
30894
30884
30893
30892
30883
30884
30882
30888
30877
30884
30878
30878
30864
30865
30874
30872
30862
30864
30860
30852
30856
30861
30848
30844
30852
30850
30846
30844
30848
30840
30840
30839
30836
30837
30838
30836
30822
30830
30826
30828
30822
30816
30820
30823
30809
30812
30812
30796
30804
30796
30797
30798
30792
30790
30792
30784
30784
30784
30780
30783
30782
30775
30778
30776
30766
30765
30770
30764
30766
30760
30762
30760
30754
30758
30758
30756
30760
30748
30753
30746
30753
30756
30756
30748
30748
30748
30748
30756
30754
30742
30740
30748
30744
30748
30744
30746
30748
30737
30740
30748
30748
30737
30740
30742
30737
30741
30742
30742
30735
30734
30732
30736
30734
30732
30732
30732
30736
30728
30730
30733
30734
30730
30734
30732
30742
30722
30720
30718
30716
30716
30717
30712
30710
30716
30712
30708
30700
30702
30696
30700
30692
30689
30692
30686
30681
30680
30680
30682
30672
30677
30670
30672
30665
30672
30664
30652
30664
30658
30656
30662
30660
30654
30652
30653
30644
30648
30644
30639
30644
30636
30630
30628
30628
30617
30623
30622
30606
30612
30608
30598
30600
30596
30596
30597
30592
30583
30580
30580
30572
30564
30571
30567
30551
30551
30544
30540
30541
30526
30531
30522
30524
30517
30510
30504
30500
30494
30488
30486
30481
30472
30474
30461
30466
30465
30460
30449
30452
30449
30440
30440
30444
30436
30432
30432
30429
30428
30420
30414
30420
30412
30412
30413
30408
30407
30404
30400
30410
30392
30404
30392
30394
30390
30392
30392
30385
30376
30380
30384
30380
30372
30368
30370
30367
30353
30352
30358
30351
30352
30346
30348
30340
30344
30324
30336
30336
30328
30324
30320
30320
30314
30318
30316
30312
30301
30300
30290
30296
30290
30292
30285
30282
30276
30282
30268
30273
30264
30260
30258
30273
30260
30256
30258
30252
30256
30256
30252
30248
30252
30248
30250
30249
30248
30240
30253
30252
30254
30250
30252
30252
30254
30260
30252
30256
30260
30255
30267
30253
30276
30274
30271
30272
30280
30278
30285
30300
30304
30300
30302
30308
30313
30321
30321
30329
30334
30344
30352
30356
30369
30368
30376
30384
30389
30394
30402
30408
30414
30420
30417
30431
30429
30422
30434
30436
30436
30436
30433
30428
30430
30432
30430
30430
30424
30422
30416
30412
30412
30420
30418
30416
30405
30412
30420
30414
30408
30408
30408
30404
30408
30410
30398
30396
30392
30396
30390
30391
30382
30382
30380
30376
30377
30377
30365
30368
30366
30364
30373
30376
30364
30360
30361
30364
30364
30368
30372
30372
30369
30369
30372
30378
30382
30384
30382
30392
30404
30408
30412
30424
30430
30436
30436
30444
30448
30453
30464
30466
30466
30480
30485
30492
30493
30502
30505
30516
30520
30522
30521
30538
30534
30544
30542
30552
30560
30564
30564
30571
30572
30580
30584
30588
30594
30593
30598
30598
30604
30604
30606
30608
30617
30612
30616
30622
30623
30628
30624
30624
30624
30621
30625
30617
30620
30621
30620
30613
30612
30612
30612
30606
30604
30596
30598
30588
30588
30582
30580
30574
30570
30564
30564
30558
30550
30551
30543
30540
30536
30533
30524
30516
30508
30505
30502
30500
30502
30496
30488
30484
30487
30484
30486
30485
30480
30468
30470
30474
30478
30477
30468
30476
30471
30470
30471
30472
30468
30468
30464
30462
30464
30469
30464
30469
30460
30466
30469
30464
30472
30464
30477
30476
30468
30481
30486
30482
30484
30480
30484
30488
30490
30496
30500
30489
30500
30501
30500
30504
30504
30512
30509
30500
30514
30516
30518
30520
30520
30526
30528
30532
30532
30532
30538
30534
30540
30542
30540
30548
30556
30556
30556
30556
30556
30564
30566
30564
30572
30572
30566
30575
30572
30588
30584
30591
30588
30598
30587
30601
30596
30606
30602
30602
30608
30615
30618
30614
30613
30620
30625
30628
30625
30632
30631
30638
30640
30641
30648
30648
30644
30654
30660
30660
30657
30658
30666
30670
30672
30678
30676
30680
30679
30684
30688
30688
30699
30686
30698
30696
30700
30708
30708
30708
30726
30720
30720
30724
30726
30732
30736
30745
30744
30741
30747
30756
30762
30758
30770
30768
30776
30776
30786
30789
30796
30796
30794
30796
30807
30805
30812
30812
30816
30820
30824
30834
30828
30840
30842
30838
30844
30854
30854
30856
30868
30864
30872
30868
30884
30880
30884
30878
30892
30888
30892
30894
30902
30908
30905
30910
30910
30913
30904
30908
30913
30908
30905
30906
30906
30909
30908
30896
30901
30896
30894
30896
30894
30888
30892
30888
30890
30884
30886
30873
30876
30876
30874
30874
30864
30866
30870
30856
30865
30857
30858
30861
30864
30860
30860
30868
30865
30863
30870
30872
30870
30868
30873
30884
30884
30888
30886
30886
30896
30896
30900
30908
30904
30908
30905
30910
30920
30919
30920
30923
30926
30925
30936
30934
30934
30936
30934
30940
30948
30942
30944
30936
30948
30941
30942
30949
30951
30944
30946
30946
30953
30948
30948
30949
30950
30938
30952
30946
30944
30948
30948
30951
30938
30938
30942
30943
30934
30938
30944
30944
30944
30940
30943
30928
30934
30937
30942
30937
30946
30942
30940
30944
30948
30948
30948
30952
30954
30958
30970
30964
30964
30972
30966
30968
30978
30980
30984
30985
30994
31002
31012
31008
31012
31016
31028
31036
31037
31025
31042
31040
31043
31041
31044
31049
31055
31049
31058
31070
31068
31060
31070
31069
31072
31073
31072
31081
31084
31085
31084
31088
31084
31093
31080
31090
31085
31084
31080
31083
31085
31076
31084
31080
31080
31076
31076
31072
31060
31068
31072
31068
31057
31070
31053
31056
31042
31052
31042
31042
31048
31044
31029
31038
31033
31024
31028
31025
31023
31013
31013
31008
31010
31012
31004
31001
30993
30990
30984
30984
30980
30980
30966
30968
30959
30952
30954
30952
30944
30948
30941
30936
30926
30932
30924
30929
30922
30920
30908
30912
30916
30908
30900
30906
30906
30904
30908
30896
30896
30904
30890
30898
30900
30908
30906
30900
30903
30906
30897
30904
30905
30910
30905
30900
30908
30904
30908
30914
30914
30916
30920
30928
30926
30932
30936
30936
30940
30937
30946
30951
30956
30956
30968
30964
30956
30962
30975
30965
30970
30972
30983
30978
30980
30989
30980
30976
30984
30988
30987
30984
30986
30990
30988
30981
30989
30983
30974
30976
30980
30975
30980
30976
30973
30976
30964
30976
30975
30980
30974
30976
30977
30980
30968
30977
30978
30981
30988
30988
30990
30991
30988
30996
30996
30998
31000
31004
31014
31010
31020
31017
31022
31028
31032
31040
31044
31054
31056
31076
31070
31068
31080
31088
31093
31104
31109
31120
31136
31131
31140
31140
31148
31158
31172
31182
31170
31196
31198
31204
31212
31214
31217
31228
31238
31238
31240
31249
31248
31254
31263
31266
31272
31268
31273
31282
31278
31284
31290
31288
31296
31288
31289
31294
31300
31300
31300
31305
31306
31302
31308
31304
31311
31308
31312
31316
31313
31320
31318
31332
31322
31328
31332
31324
31332
31330
31329
31330
31335
31330
31324
31336
31338
31340
31336
31340
31336
31347
31343
31344
31341
31345
31342
31352
31358
31360
31367
31350
31356
31358
31366
31359
31356
31354
31345
31364
31364
31356
31353
31362
31364
31357
31360
31356
31366
31366
31360
31360
31362
31360
31361
31356
31360
31364
31364
31360
31368
31364
31362
31364
31358
31368
31361
31366
31359
31364
31362
31356
31364
31356
31358
31361
31356
31364
31357
31354
31362
31360
31372
31360
31365
31360
31362
31377
31370
31372
31366
31370
31378
31382
31380
31385
31384
31398
31396
31392
31396
31401
31398
31404
31408
31414
31418
31423
31422
31426
31428
31440
31434
31440
31445
31438
31452
31444
31451
31461
31457
31458
31460
31456
31460
31460
31460
31462
31463
31461
31460
31461
31460
31461
31460
31452
31465
31452
31456
31456
31447
31440
31445
31440
31440
31442
31446
31436
31436
31430
31436
31425
31428
31420
31426
31420
31413
31422
31416
31412
31412
31414
31406
31413
31406
31412
31396
31408
31402
31400
31400
31397
31392
31396
31390
31394
31397
31398
31391
31394
31391
31390
31392
31380
31380
31386
31390
31376
31377
31380
31372
31375
31376
31372
31370
31370
31367
31366
31364
31368
31364
31356
31354
31352
31349
31348
31341
31340
31348
31348
31340
31336
31328
31328
31321
31322
31324
31316
31306
31316
31300
31308
31289
31280
31276
31266
31264
31249
31240
31236
31220
31220
31220
31207
31201
31200
31192
31188
31180
31176
31169
31165
31169
31164
31162
31153
31148
31145
31142
31139
31137
31132
31132
31124
31118
31124
31117
31116
31109
31108
31112
31113
31100
31098
31100
31101
31104
31096
31087
31089
31094
31089
31094
31094
31096
31096
31102
31100
31108
31109
31110
31116
31124
31128
31132
31142
31144
31144
31156
31152
31165
31172
31174
31171
31185
31189
31196
31206
31206
31208
31215
31222
31220
31230
31235
31231
31240
31236
31241
31248
31256
31256
31260
31271
31276
31268
31279
31279
31289
31288
31288
31288
31296
31296
31297
31296
31304
31303
31302
31305
31308
31306
31304
31305
31312
31306
31309
31310
31312
31316
31324
31309
31313
31312
31311
31312
31313
31318
31313
31306
31308
31308
31306
31312
31298
31300
31292
31300
31296
31300
31295
31292
31293
31295
31284
31291
31284
31280
31280
31276
31273
31277
31266
31268
31268
31264
31256
31262
31264
31258
31260
31246
31255
31252
31253
31252
31252
31249
31248
31244
31242
31244
31244
31233
31244
31239
31237
31239
31235
31236
31238
31228
31232
31232
31242
31236
31236
31230
31234
31237
31239
31232
31236
31243
31232
31237
31228
31242
31246
31244
31248
31244
31244
31249
31257
31254
31262
31264
31262
31260
31264
31268
31280
31276
31281
31294
31293
31297
31305
31312
31320
31320
31326
31328
31332
31340
31341
31352
31364
31362
31369
31376
31384
31388
31400
31400
31402
31413
31424
31428
31438
31444
31448
31460
31460
31470
31470
31482
31480
31494
31508
31510
31509
31516
31526
31532
31532
31548
31552
31561
31558
31572
31576
31575
31585
31588
31598
31596
31600
31604
31613
31620
31620
31617
31628
31633
31632
31630
31642
31646
31648
31652
31650
31652
31655
31660
31665
31656
31662
31662
31660
31657
31657
31668
31668
31667
31665
31668
31660
31660
31670
31670
31664
31676
31672
31664
31665
31669
31669
31668
31672
31672
31660
31669
31665
31676
31660
31665
31668
31671
31676
31672
31669
31677
31676
31668
31676
31674
31680
31680
31678
31690
31688
31689
31700
31694
31704
31708
31718
31716
31721
31716
31728
31735
31728
31732
31736
31744
31738
31748
31748
31740
31744
31746
31743
31744
31745
31751
31750
31752
31749
31756
31752
31752
31749
31752
31749
31748
31749
31750
31744
31745
31755
31744
31740
31749
31740
31737
31744
31742
31740
31740
31748
31748
31740
31742
31756
31756
31748
31753
31764
31758
31764
31760
31766
31776
31780
31777
31784
31788
31786
31794
31796
31808
31796
31802
31813
31812
31820
31818
31820
31827
31830
31820
31826
31844
31838
31837
31844
31845
31844
31856
31841
31849
31848
31853
31849
31856
31856
31865
31864
31860
31860
31860
31862
31856
31862
31864
31860
31862
31865
31863
31864
31868
31868
31864
31860
31860
31862
31857
31864
31862
31868
31856
31860
31862
31854
31856
31868
31862
31860
31861
31860
31856
31852
31860
31860
31864
31857
31860
31856
31864
31866
31868
31862
31863
31873
31878
31884
31873
31874
31884
31884
31876
31876
31889
31886
31888
31892
31888
31896
31896
31904
31897
31897
31900
31904
31906
31898
31905
31904
31906
31910
31912
31908
31905
31914
31908
31908
31912
31924
31920
31912
31906
31916
31918
31916
31924
31918
31919
31924
31924
31924
31930
31924
31925
31920
31934
31932
31920
31930
31930
31928
31932
31932
31928
31936
31940
31930
31932
31937
31932
31934
31936
31932
31936
31940
31940
31932
31936
31926
31928
31928
31921
31912
31924
31914
31912
31909
31905
31908
31901
31901
31908
31902
31896
31900
31892
31900
31896
31879
31888
31888
31881
31892
31873
31878
31877
31878
31880
31868
31872
31868
31861
31866
31860
31855
31857
31856
31860
31852
31848
31855
31848
31848
31846
31853
31854
31848
31840
31844
31850
31852
31854
31860
31866
31856
31865
31868
31868
31868
31876
31872
31876
31878
31885
31892
31901
31904
31908
31916
31920
31932
31929
31940
31940
31948
31956
31972
31972
31982
31988
32008
32001
32012
32020
32029
32034
32036
32054
32056
32062
32068
32080
32086
32088
32096
32100
32112
32114
32113
32120
32129
32131
32132
32138
32134
32148
32151
32158
32158
32158
32164
32164
32164
32170
32174
32164
32174
32180
32182
32180
32181
32176
32193
32185
32190
32196
32192
32182
32188
32192
32196
32196
32204
32197
32196
32193
32206
32200
32200
32204
32200
32206
32210
32204
32208
32202
32212
32206
32216
32212
32216
32207
32212
32218
32226
32224
32225
32224
32224
32222
32228
32240
32234
32237
32236
32238
32239
32240
32232
32247
32242
32248
32244
32236
32246
32245
32241
32246
32240
32260
32249
32240
32241
32246
32252
32244
32240
32244
32240
32252
32257
32249
32254
32244
32252
32251
32250
32251
32256
32252
32256
32252
32255
32260
32258
32256
32261
32254
32261
32252
32270
32260
32252
32260
32261
32254
32252
32256
32246
32245
32250
32239
32232
32245
32244
32236
32236
32235
32229
32220
32220
32212
32220
32210
32208
32212
32200
32200
32188
32190
32180
32188
32170
32176
32173
32164
32168
32152
32156
32141
32145
32136
32134
32128
32126
32120
32108
32100
32097
32088
32088
32076
32076
32070
32064
32062
32054
32048
32044
32046
32033
32036
32028
32020
32025
32024
32018
32016
32006
32000
32007
32004
31992
31998
31988
31990
31988
31989
31980
31976
31980
31973
31976
31976
31968
31970
31968
31966
31964
31968
31968
31968
31960
31960
31952
31952
31949
31954
31950
31948
31952
31950
31942
31944
31932
31929
31926
31928
31932
31930
31920
31918
31912
31924
31908
31909
31897
31904
31902
31900
31901
31902
31892
31896
31892
31888
31878
31879
31871
31872
31868
31868
31868
31858
31860
31852
31852
31849
31842
31840
31848
31848
31844
31846
31840
31844
31839
31846
31844
31841
31838
31844
31844
31844
31840
31838
31838
31847
31840
31844
31844
31834
31838
31844
31844
31848
31848
31838
31844
31840
31842
31848
31844
31839
31832
31833
31840
31829
31822
31831
31830
31828
31822
31824
31822
31816
31813
31821
31812
31816
31805
31810
31808
31810
31804
31800
31804
31804
31800
31788
31798
31800
31796
31792
31792
31786
31788
31796
31788
31784
31793
31780
31787
31782
31770
31780
31781
31780
31777
31784
31788
31776
31782
31784
31785
31768
31780
31780
31780
31769
31768
31772
31764
31764
31754
31745
31748
31740
31737
31732
31718
31716
31712
31700
31700
31690
31685
31681
31678
31678
31669
31664
31671
31662
31652
31645
31646
31644
31628
31624
31621
31616
31612
31594
31592
31585
31581
31578
31560
31554
31544
31540
31534
31518
31514
31516
31504
31496
31496
31484
31468
31473
31468
31456
31460
31458
31446
31454
31449
31449
31444
31448
31457
31457
31457
31458
31458
31462
31464
31463
31472
31477
31477
31487
31484
31484
31496
31492
31496
31496
31502
31505
31503
31510
31504
31506
31516
31520
31516
31524
31513
31520
31524
31524
31520
31524
31528
31530
31524
31525
31528
31532
31528
31533
31529
31537
31536
31536
31528
31540
31536
31533
31537
31546
31542
31529
31535
31540
31530
31532
31536
31536
31524
31530
31530
31527
31537
31531
31526
31536
31532
31529
31532
31527
31534
31522
31528
31528
31522
31524
31518
31516
31524
31510
31518
31510
31514
31502
31496
31490
31501
31485
31488
31497
31494
31480
31484
31488
31482
31482
31476
31482
31469
31468
31481
31460
31472
31472
31468
31472
31468
31472
31468
31466
31465
31453
31460
31459
31456
31457
31454
31456
31446
31449
31448
31451
31444
31444
31440
31449
31433
31440
31444
31436
31445
31444
31443
31444
31445
31441
31446
31448
31444
31452
31448
31460
31457
31449
31456
31460
31457
31461
31464
31470
31479
31486
31480
31476
31484
31477
31480
31486
31484
31496
31499
31501
31506
31498
31508
31504
31520
31516
31518
31515
31521
31519
31522
31524
31530
31526
31540
31527
31532
31532
31528
31532
31536
31540
31552
31540
31544
31545
31551
31552
31556
31554
31553
31558
31561
31564
31568
31570
31572
31572
31573
31582
31576
31580
31580
31580
31588
31589
31588
31594
31588
31588
31592
31597
31591
31600
31596
31599
31596
31601
31600
31589
31597
31601
31600
31598
31592
31604
31596
31588
31588
31601
31593
31588
31592
31581
31578
31586
31576
31568
31566
31568
31564
31560
31552
31553
31552
31557
31543
31554
31549
31548
31544
31540
31541
31541
31541
31536
31542
31536
31532
31534
31524
31532
31534
31530
31528
31529
31532
31526
31532
31530
31540
31540
31541
31540
31550
31548
31559
31550
31560
31564
31556
31560
31566
31568
31568
31574
31574
31588
31576
31582
31580
31588
31578
31580
31584
31580
31590
31589
31596
31590
31600
31590
31596
31602
31602
31593
31598
31599
31604
31610
31605
31604
31604
31612
31613
31610
31614
31620
31620
31612
31628
31620
31632
31630
31636
31638
31652
31646
31648
31652
31654
31660
31658
31672
31668
31673
31676
31676
31692
31685
31690
31700
31701
31700
31704
31712
31716
31724
31720
31719
31728
31740
31732
31735
31748
31753
31760
31768
31756
31758
31764
31777
31778
31788
31786
31796
31798
31796
31800
31814
31822
31824
31833
31832
31846
31850
31852
31849
31860
31860
31868
31873
31876
31880
31878
31888
31884
31892
31898
31898
31900
31898
31902
31908
31904
31908
31905
31910
31906
31918
31916
31926
31924
31921
31917
31916
31920
31924
31928
31932
31932
31924
31928
31936
31930
31931
31924
31936
31936
31940
31937
31940
31941
31944
31944
31953
31948
31946
31949
31956
31948
31956
31962
31960
31964
31964
31974
31977
31984
31973
31976
31984
31993
31997
31994
32000
32004
32010
32000
32012
32012
32016
32006
32022
32017
32028
32028
32028
32024
32032
32030
32042
32039
32044
32044
32052
32048
32048
32058
32052
32060
32064
32064
32062
32068
32062
32064
32068
32064
32076
32076
32066
32069
32068
32068
32068
32068
32060
32060
32062
32058
32062
32060
32058
32060
32056
32052
32053
32042
32052
32049
32042
32044
32036
32034
32040
32040
32037
32036
32040
32030
32033
32032
32032
32030
32032
32029
32023
32014
32018
32024
32014
32020
32018
32015
32020
32010
32010
32012
32016
32006
32007
32004
32004
32008
31998
32008
32004
31996
32008
31998
32007
32008
32004
31996
31998
32004
31998
31990
31992
31992
31988
31994
31988
31988
31980
31979
31972
31968
31972
31972
31976
31968
31968
31965
31964
31956
31960
31949
31952
31952
31953
31944
31952
31950
31956
31956
31950
31948
31952
31944
31956
31972
31960
31966
31969
31975
31976
31976
31980
31978
31985
31993
31996
31997
31994
32000
32010
32020
32016
32020
32024
32030
32036
32037
32050
32052
32060
32065
32066
32070
32076
32088
32085
32093
32092
32104
32111
32122
32116
32120
32128
32132
32140
32144
32141
32150
32156
32153
32153
32156
32160
32168
32164
32167
32166
32177
32164
32176
32173
32172
32172
32174
32173
32174
32184
32177
32189
32172
32177
32170
32184
32170
32184
32188
32183
32185
32192
32182
32182
32184
32187
32196
32188
32188
32188
32188
32192
32192
32192
32192
32200
32202
32197
32210
32204
32212
32204
32204
32210
32204
32214
32214
32215
32224
32214
32228
32220
32224
32228
32224
32220
32224
32228
32228
32229
32221
32228
32229
32224
32230
32212
32220
32216
32224
32218
32206
32207
32197
32201
32184
32172
32180
32176
32164
32166
32157
32144
32134
32145
32130
32128
32116
32116
32105
32092
32088
32088
32074
32068
32060
32056
32044
32050
32032
32016
32024
32016
32004
31992
31988
31988
31980
31969
31972
31956
31960
31948
31948
31938
31936
31928
31929
31924
31927
31924
31918
31912
31911
31900
31908
31912
31904
31904
31892
31904
31896
31900
31896
31881
31886
31888
31880
31876
31876
31868
31868
31864
31868
31857
31860
31848
31849
31847
31848
31848
31830
31831
31830
31828
31832
31816
31818
31808
31812
31800
31794
31800
31788
31785
31780
31776
31769
31768
31764
31756
31748
31748
31752
31740
31728
31728
31718
31721
31716
31711
31716
31704
31704
31704
31696
31698
31689
31686
31680
31681
31672
31668
31660
31664
31670
31662
31668
31652
31652
31652
31648
31644
31636
31644
31639
31634
31640
31630
31628
31628
31630
31628
31612
31620
31610
31612
31604
31609
31597
31598
31596
31596
31592
31588
31590
31591
31588
31590
31584
31582
31584
31582
31584
31588
31580
31572
31567
31580
31576
31568
31574
31566
31568
31572
31561
31559
31564
31560
31568
31564
31556
31554
31556
31552
31553
31552
31548
31550
31550
31550
31536
31540
31541
31537
31536
31532
31528
31529
31526
31524
31524
31520
31524
31524
31508
31516
31516
31504
31505
31504
31508
31508
31496
31503
31490
31492
31484
31477
31474
31460
31470
31454
31452
31436
31430
31420
31412
31396
31398
31385
31375
31365
31361
31348
31338
31343
31326
31314
31311
31303
31292
31285
31280
31272
31271
31268
31252
31245
31242
31230
31220
31210
31204
31202
31202
31182
31180
31182
31173
31168
31152
31157
31152
31146
31140
31130
31128
31125
31121
31124
31116
31108
31108
31112
31108
31114
31105
31108
31108
31108
31104
31108
31110
31111
31120
31125
31129
31126
31136
31140
31148
31142
31150
31148
31163
31150
31158
31166
31161
31160
31172
31172
31180
31175
31172
31176
31180
31176
31177
31188
31184
31192
31196
31188
31183
31193
31190
31200
31194
31192
31196
31200
31189
31198
31192
31200
31188
31180
31193
31186
31180
31184
31180
31176
31181
31174
31182
31171
31170
31172
31170
31172
31152
31162
31157
31158
31152
31148
31140
31140
31137
31132
31128
31127
31120
31116
31110
31114
31104
31104
31088
31088
31084
31084
31068
31064
31068
31062
31064
31049
31048
31044
31041
31028
31028
31012
31012
31012
31012
31004
31000
30992
30988
30988
30980
30975
30972
30968
30958
30958
30952
30948
30951
30934
30942
30938
30924
30928
30928
30916
30916
30918
30914
30912
30904
30908
30900
30892
30888
30896
30892
30894
30889
30884
30884
30882
30884
30881
30870
30870
30876
30871
30872
30864
30868
30874
30862
30872
30868
30868
30870
30869
30862
30868
30872
30876
30864
30870
30876
30880
30872
30884
30877
30888
30884
30886
30892
30892
30895
30900
30904
30900
30908
30912
30913
30916
30917
30916
30916
30917
30929
30924
30932
30932
30929
30939
30932
30936
30942
30945
30940
30944
30952
30950
30952
30952
30954
30956
30956
30964
30966
30968
30980
30980
30976
30980
30974
30982
30972
30982
30986
30980
30988
31000
30993
31000
30993
30998
30997
31005
31004
31010
31008
31011
31004
31014
31020
31024
31024
31025
31013
31027
31030
31032
31030
31028
31040
31042
31044
31042
31048
31046
31046
31048
31044
31062
31056
31052
31060
31064
31063
31065
31060
31062
31071
31065
31068
31064
31076
31076
31085
31076
31069
31076
31080
31080
31073
31084
31085
31088
31078
31092
31081
31096
31100
31096
31101
31108
31104
31109
31124
31116
31126
31120
31129
31128
31140
31138
31140
31140
31143
31140
31143
31140
31154
31164
31160
31169
31169
31174
31172
31173
31183
31185
31188
31200
31196
31204
31210
31205
31217
31216
31230
31228
31228
31228
31240
31250
31256
31253
31258
31260
31260
31264
31272
31276
31278
31280
31288
31292
31300
31298
31298
31304
31313
31316
31314
31320
31328
31328
31340
31345
31349
31352
31358
31368
31364
31380
31368
31388
31393
31392
31405
31416
31418
31422
31424
31438
31441
31444
31452
31458
31454
31456
31468
31484
31476
31488
31502
31505
31508
31516
31524
31520
31538
31544
31533
31548
31548
31554
31572
31566
31564
31578
31578
31588
31584
31591
31594
31600
31607
31607
31612
31607
31622
31622
31637
31632
31636
31639
31638
31652
31656
31660
31660
31670
31664
31668
31672
31674
31681
31684
31690
31688
31692
31700
31704
31704
31714
31717
31713
31712
31720
31724
31718
31724
31732
31724
31732
31745
31742
31749
31744
31751
31758
31756
31759
31758
31772
31776
31775
31777
31784
31785
31790
31800
31804
31812
31812
31822
31820
31812
31821
31824
31834
31841
31845
31852
31853
31860
31855
31864
31866
31872
31880
31888
31893
31889
31884
31904
31902
31901
31904
31908
31911
31918
31920
31924
31930
31924
31936
31929
31930
31926
31936
31938
31942
31940
31942
31938
31940
31938
31938
31935
31937
31936
31934
31932
31936
31935
31928
31929
31916
31929
31918
31912
31905
31902
31892
31896
31880
31877
31879
31868
31860
31849
31849
31849
31831
31830
31816
31810
31796
31792
31788
31768
31764
31749
31751
31732
31728
31716
31712
31688
31689
31680
31673
31662
31656
31644
31625
31616
31610
31606
31598
31588
31572
31572
31560
31560
31552
31540
31529
31526
31520
31504
31505
31492
31494
31484
31476
31476
31473
31468
31460
31446
31448
31441
31446
31432
31432
31424
31424
31422
31418
31420
31414
31412
31412
31408
31402
31409
31397
31402
31400
31401
31393
31396
31384
31396
31392
31384
31393
31392
31390
31382
31398
31384
31390
31396
31388
31390
31386
31386
31392
31392
31392
31386
31388
31396
31386
31404
31383
31396
31393
31396
31396
31398
31394
31396
31398
31400
31393
31396
31400
31390
31394
31400
31402
31396
31392
31390
31386
31392
31368
31382
31374
31374
31378
31370
31368
31364
31357
31356
31352
31360
31348
31337
31332
31325
31332
31320
31308
31308
31305
31304
31300
31288
31280
31270
31268
31262
31241
31244
31233
31224
31216
31204
31197
31192
31174
31166
31148
31145
31129
31120
31110
31105
31084
31084
31061
31052
31040
31028
31012
31004
30984
30980
30966
30948
30934
30930
30918
30902
30892
30880
30871
30860
30852
30847
30828
30812
30812
30801
30791
30776
30772
30769
30754
30751
30750
30736
30728
30716
30711
30716
30700
30704
30692
30686
30676
30680
30666
30668
30660
30657
30660
30642
30648
30628
30632
30628
30627
30628
30620
30614
30610
30615
30612
30605
30594
30596
30596
30588
30585
30586
30584
30568
30565
30566
30562
30556
30551
30537
30534
30518
30516
30518
30516
30501
30495
30485
30482
30472
30468
30457
30449
30446
30432
30424
30424
30418
30416
30404
30398
30394
30386
30385
30376
30368
30356
30354
30361
30340
30345
30326
30336
30320
30317
30308
30308
30295
30292
30284
30288
30274
30268
30268
30264
30257
30256
30246
30250
30244
30241
30236
30228
30228
30225
30222
30214
30220
30212
30216
30204
30198
30192
30194
30191
30192
30190
30180
30184
30188
30177
30184
30172
30169
30174
30173
30169
30176
30174
30168
30164
30180
30178
30172
30180
30176
30173
30181
30178
30190
30183
30180
30188
30198
30193
30188
30190
30196
30198
30192
30193
30196
30196
30198
30194
30196
30198
30196
30204
30189
30192
30184
30194
30190
30180
30184
30177
30182
30171
30180
30172
30176
30168
30174
30168
30168
30168
30168
30172
30152
30160
30159
30156
30154
30148
30141
30144
30145
30144
30136
30138
30133
30132
30132
30124
30128
30122
30116
30116
30120
30112
30121
30115
30108
30116
30108
30116
30104
30116
30108
30117
30106
30118
30114
30118
30109
30108
30112
30113
30108
30116
30116
30120
30124
30126
30127
30132
30135
30136
30136
30144
30144
30152
30155
30157
30159
30154
30163
30172
30171
30168
30172
30176
30172
30188
30176
30182
30176
30173
30180
30180
30180
30190
30189
30192
30192
30196
30198
30196
30198
30204
30209
30204
30208
30206
30214
30212
30204
30209
30206
30208
30202
30208
30200
30210
30200
30202
30198
30189
30196
30188
30181
30188
30188
30188
30182
30168
30168
30166
30174
30169
30160
30172
30166
30164
30168
30180
30177
30184
30173
30186
30180
30188
30202
30200
30208
30204
30220
30222
30222
30222
30226
30230
30236
30240
30244
30244
30252
30248
30260
30253
30260
30254
30263
30268
30266
30264
30264
30272
30272
30276
30273
30272
30285
30282
30276
30276
30292
30286
30284
30280
30286
30280
30276
30268
30276
30272
30268
30263
30260
30257
30256
30254
30248
30244
30240
30238
30228
30222
30224
30224
30217
30205
30208
30200
30200
30189
30182
30178
30180
30174
30172
30149
30148
30154
30144
30138
30132
30129
30120
30112
30100
30100
30092
30090
30068
30060
30055
30048
30044
30040
30028
30020
30018
30010
29996
29988
29993
29976
29974
29968
29958
29948
29936
29942
29934
29920
29924
29911
29914
29898
29896
29898
29890
29892
29878
29876
29866
29860
29856
29854
29850
29848
29844
29840
29842
29844
29836
29828
29840
29823
29828
29828
29820
29832
29821
29820
29818
29828
29819
29813
29820
29828
29828
29826
29820
29818
29828
29828
29824
29829
29820
29829
29820
29831
29828
29825
29829
29837
29833
29834
29839
29834
29836
29833
29844
29852
29844
29852
29850
29857
29853
29854
29862
29860
29862
29873
29864
29874
29876
29876
29888
29880
29886
29882
29881
29889
29900
29884
29890
29894
29896
29900
29892
29902
29904
29905
29892
29900
29904
29904
29909
29901
29904
29901
29904
29916
29914
29908
29909
29914
29913
29912
29913
29916
29912
29916
29909
29924
29914
29916
29924
29924
29927
29924
29924
29928
29935
29932
29928
29924
29932
29938
29936
29940
29940
29940
29950
29948
29950
29950
29944
29948
29952
29948
29956
29960
29956
29960
29960
29959
29956
29956
29960
29968
29968
29962
29966
29972
29969
29966
29976
29972
29982
29982
29985
29990
29988
29989
29988
29992
30002
30004
30004
30012
30016
30012
30012
30026
30026
30020
30021
30025
30026
30028
30028
30021
30031
30020
30020
30021
30026
30012
30016
30024
30016
30010
30012
30002
30004
30000
29993
29989
29994
29992
29985
29974
29981
29973
29968
29974
29968
29962
29964
29956
29962
29956
29952
29949
29952
29944
29944
29942
29944
29934
29943
29938
29941
29940
29936
29940
29938
29940
29938
29937
29948
29948
29945
29949
29954
29956
29962
29969
29964
29976
29972
29973
29980
29984
29988
29988
29998
29997
29998
30000
30009
30016
30009
30020
30020
30032
30032
30022
30032
30036
30032
30044
30038
30054
30048
30052
30064
30060
30062
30072
30068
30076
30072
30082
30086
30084
30086
30084
30096
30100
30101
30100
30104
30108
30109
30108
30113
30113
30110
30114
30117
30120
30120
30124
30122
30117
30120
30116
30116
30116
30114
30116
30116
30116
30112
30112
30108
30110
30102
30116
30103
30101
30100
30102
30088
30098
30092
30096
30092
30095
30088
30090
30088
30088
30076
30088
30078
30069
30086
30076
30084
30086
30076
30077
30080
30070
30074
30077
30072
30072
30066
30072
30076
30076
30072
30068
30074
30072
30074
30072
30074
30078
30076
30076
30087
30072
30070
30076
30082
30076
30072
30084
30072
30080
30073
30077
30084
30080
30086
30080
30084
30088
30076
30084
30082
30088
30092
30085
30090
30095
30092
30092
30096
30088
30097
30104
30101
30093
30092
30100
30098
30104
30104
30102
30094
30098
30108
30106
30094
30100
30101
30102
30104
30100
30108
30100
30094
30094
30096
30096
30094
30090
30096
30092
30085
30080
30076
30088
30084
30084
30076
30081
30078
30068
30069
30070
30064
30066
30068
30063
30054
30055
30060
30045
30044
30046
30041
30040
30030
30037
30028
30029
30024
30016
30016
30020
30012
30010
30010
29994
29992
29992
29998
29997
29992
29990
29984
29984
29980
29982
29976
29976
29974
29976
29968
29973
29972
29972
29972
29964
29974
29976
29976
29981
29976
29980
29984
29984
29984
29984
29988
29984
29992
29991
29988
29992
29997
29996
29996
30004
30007
30014
30012
30012
30012
30022
30028
30028
30032
30038
30036
30048
30046
30052
30055
30057
30060
30055
30064
30068
30076
30074
30072
30072
30080
30079
30080
30084
30084
30092
30090
30086
30092
30090
30097
30092
30094
30090
30100
30100
30100
30108
30090
30093
30092
30094
30096
30082
30088
30100
30094
30095
30092
30089
30090
30092
30096
30088
30088
30087
30094
30092
30088
30094
30097
30090
30096
30098
30088
30092
30088
30100
30104
30096
30108
30100
30108
30105
30108
30107
30118
30116
30120
30121
30118
30120
30128
30125
30122
30133
30136
30124
30133
30132
30133
30136
30138
30134
30140
30141
30134
30136
30142
30139
30128
30137
30136
30132
30134
30124
30124
30132
30128
30116
30120
30111
30112
30108
30113
30105
30100
30094
30088
30097
30082
30084
30076
30074
30068
30062
30057
30062
30054
30052
30050
30042
30040
30040
30036
30033
30024
30030
30020
30018
30017
30012
30012
30008
30000
29996
29992
29993
29988
29988
29982
29976
29979
29972
29972
29969
29968
29958
29962
29952
29958
29946
29948
29944
29936
29940
29932
29929
29932
29927
29942
29937
29930
29926
29934
29932
29928
29930
29936
29932
29924
29924
29924
29928
29924
29921
29928
29929
29926
29924
29926
29932
29924
29924
29924
29916
29912
29920
29920
29920
29924
29912
29910
29914
29910
29914
29905
29906
29909
29909
29912
29906
29898
29896
29896
29892
29889
29890
29895
29884
29889
29880
29876
29878
29873
29876
29872
29865
29862
29865
29860
29854
29864
29846
29846
29844
29840
29837
29836
29828
29828
29825
29824
29819
29812
29816
29816
29806
29804
29809
29810
29806
29796
29808
29804
29794
29792
29796
29796
29800
29796
29796
29792
29804
29792
29789
29796
29794
29796
29796
29798
29798
29798
29796
29796
29800
29796
29792
29796
29792
29788
29791
29801
29792
29802
29792
29796
29798
29797
29801
29802
29796
29796
29804
29804
29800
29800
29797
29802
29812
29822
29812
29812
29816
29822
29825
29830
29824
29832
29836
29840
29837
29847
29853
29848
29848
29844
29850
29845
29836
29854
29845
29842
29845
29836
29836
29828
29828
29824
29812
29807
29814
29809
29814
29800
29800
29796
29804
29796
29790
29796
29781
29781
29772
29778
29772
29765
29761
29762
29758
29765
29752
29750
29748
29748
29748
29740
29728
29734
29732
29724
29720
29720
29720
29718
29720
29718
29710
29716
29705
29716
29717
29724
29725
29724
29735
29746
29736
29748
29756
29764
29772
29780
29792
29796
29810
29820
29824
29837
29854
29860
29877
29876
29889
29898
29912
29921
29926
29934
29942
29958
29964
29984
29997
30000
30008
30025
30021
30032
30048
30056
30056
30069
30081
30092
30096
30096
30118
30118
30126
30120
30132
30134
30137
30144
30152
30160
30156
30151
30152
30156
30164
30168
30171
30168
30174
30182
30173
30169
30168
30160
30170
30168
30162
30168
30168
30165
30159
30154
30151
30156
30154
30146
30144
30136
30141
30137
30132
30129
30114
30118
30110
30112
30116
30100
30100
30088
30096
30082
30086
30080
30082
30073
30068
30064
30069
30060
30054
30055
30052
30038
30038
30030
30036
30032
30028
30016
30015
30004
30014
29998
29988
29989
29988
29988
29981
29974
29976
29966
29968
29956
29957
29960
29952
29940
29935
29940
29935
29930
29924
29921
29920
29914
29911
29906
29908
29900
29892
29893
29895
29890
29896
29892
29884
29895
29884
29874
29872
29876
29877
29873
29871
29876
29872
29876
29868
29874
29872
29866
29866
29864
29868
29876
29872
29868
29873
29876
29872
29876
29880
29878
29876
29882
29883
29880
29880
29877
29876
29888
29884
29881
29876
29886
29886
29886
29890
29884
29882
29884
29870
29892
29878
29873
29874
29876
29876
29870
29868
29872
29869
29864
29868
29864
29860
29861
29858
29852
29848
29844
29844
29836
29840
29834
29836
29826
29828
29820
29812
29810
29809
29807
29792
29796
29796
29780
29784
29772
29773
29767
29764
29754
29752
29752
29742
29736
29729
29730
29728
29717
29709
29710
29700
29703
29688
29679
29678
29676
29664
29655
29650
29652
29653
29640
29636
29633
29628
29620
29612
29614
29602
29604
29602
29600
29596
29590
29580
29584
29584
29572
29574
29581
29578
29570
29569
29575
29580
29577
29568
29573
29572
29573
29570
29561
29572
29572
29562
29558
29560
29556
29561
29559
29544
29548
29552
29558
29545
29543
29550
29546
29536
29540
29543
29536
29533
29530
29540
29534
29533
29524
29526
29534
29518
29521
29520
29520
29522
29525
29516
29518
29524
29512
29513
29527
29520
29512
29513
29512
29516
29518
29512
29517
29520
29516
29520
29527
29524
29525
29526
29525
29534
29537
29534
29537
29536
29540
29542
29540
29542
29544
29544
29549
29569
29548
29552
29568
29568
29568
29560
29572
29576
29572
29576
29584
29585
29585
29592
29596
29600
29596
29588
29601
29605
29600
29612
29608
29610
29620
29628
29624
29620
29628
29632
29628
29628
29632
29640
29637
29640
29636
29642
29640
29646
29648
29648
29642
29648
29653
29660
29662
29668
29667
29668
29670
29672
29668
29676
29676
29685
29684
29684
29686
29684
29702
29700
29708
29706
29704
29712
29711
29720
29722
29724
29732
29724
29738
29748
29742
29746
29751
29752
29760
29761
29762
29772
29781
29776
29788
29788
29786
29792
29792
29804
29804
29810
29816
29817
29816
29816
29828
29829
29836
29830
29836
29845
29848
29850
29853
29862
29858
29858
29856
29863
29860
29871
29868
29872
29876
29880
29876
29876
29879
29878
29877
29888
29872
29882
29888
29869
29871
29872
29876
29873
29876
29868
29870
29874
29864
29860
29860
29862
29860
29850
29854
29856
29841
29846
29842
29844
29842
29836
29831
29830
29832
29828
29825
29820
29813
29812
29818
29813
29816
29807
29807
29806
29810
29798
29796
29796
29794
29790
29790
29800
29788
29784
29780
29783
29774
29776
29774
29774
29772
29768
29766
29764
29765
29766
29764
29761
29760
29758
29752
29754
29760
29756
29748
29754
29748
29742
29744
29748
29740
29745
29736
29738
29732
29742
29740
29732
29732
29736
29733
29732
29722
29718
29721
29728
29720
29724
29716
29724
29718
29716
29712
29716
29710
29704
29704
29716
29708
29704
29712
29706
29700
29706
29711
29704
29704
29706
29710
29696
29700
29700
29702
29702
29698
29700
29692
29695
29700
29698
29689
29688
29688
29684
29678
29684
29681
29686
29679
29670
29680
29685
29678
29676
29674
29660
29664
29668
29666
29666
29660
29659
29660
29656
29658
29660
29660
29660
29658
29660
29664
29660
29662
29662
29661
29660
29664
29664
29660
29666
29672
29674
29676
29676
29676
29678
29692
29684
29684
29692
29690
29690
29692
29698
29698
29696
29698
29700
29698
29692
29700
29694
29700
29704
29692
29698
29698
29700
29694
29696
29692
29700
29690
29686
29698
29694
29692
29696
29688
29702
29696
29696
29686
29692
29691
29696
29694
29692
29703
29695
29698
29702
29693
29702
29704
29710
29710
29710
29709
29720
29724
29720
29724
29732
29732
29740
29744
29752
29748
29752
29770
29760
29767
29768
29780
29784
29788
29793
29794
29798
29806
29813
29817
29821
29828
29834
29828
29841
29847
29844
29853
29852
29857
29860
29860
29867
29866
29878
29873
29868
29876
29880
29884
29890
29888
29880
29892
29888
29908
29896
29901
29906
29904
29900
29904
29904
29909
29908
29912
29908
29914
29915
29905
29908
29904
29904
29902
29902
29904
29901
29900
29900
29893
29890
29894
29885
29884
29880
29880
29872
29878
29866
29869
29869
29865
29862
29856
29856
29854
29844
29856
29848
29846
29842
29844
29850
29848
29840
29839
29834
29836
29836
29836
29838
29832
29834
29840
29840
29838
29832
29839
29844
29846
29846
29840
29836
29844
29852
29840
29848
29848
29856
29854
29853
29864
29865
29868
29864
29862
29876
29872
29884
29885
29876
29890
29884
29886
29892
29896
29898
29902
29908
29908
29908
29908
29908
29906
29916
29916
29912
29912
29909
29916
29911
29912
29916
29921
29914
29920
29913
29912
29911
29902
29908
29902
29905
29906
29901
29896
29893
29892
29888
29896
29892
29894
29884
29888
29889
29882
29875
29876
29871
29860
29856
29874
29862
29864
29868
29863
29860
29852
29860
29856
29850
29842
29844
29848
29852
29839
29840
29844
29837
29848
29846
29842
29840
29844
29850
29850
29837
29848
29849
29846
29846
29854
29852
29857
29858
29860
29860
29864
29869
29870
29876
29880
29874
29882
29892
29892
29896
29894
29900
29900
29904
29913
29908
29914
29911
29908
29908
29902
29906
29906
29902
29911
29906
29902
29901
29912
29918
29908
29914
29916
29925
29928
29925
29924
29920
29924
29928
29927
29927
29924
29925
29917
29916
29923
29929
29916
29912
29916
29912
29908
29908
29898
29900
29902
29892
29886
29898
29888
29885
29880
29876
29880
29880
29880
29876
29884
29882
29882
29886
29889
29887
29898
29892
29898
29912
29912
29924
29928
29934
29937
29948
29956
29956
29964
29968
29976
29984
29985
29986
29988
30006
30008
30016
30012
30030
30042
30046
30041
30042
30058
30065
30064
30080
30080
30080
30093
30096
30104
30112
30116
30118
30126
30124
30132
30144
30140
30149
30148
30153
30158
30156
30153
30154
30170
30168
30168
30169
30165
30164
30166
30164
30164
30162
30166
30156
30152
30148
30148
30152
30152
30137
30144
30137
30128
30136
30128
30128
30121
30116
30116
30108
30104
30100
30092
30092
30076
30072
30068
30072
30058
30063
30054
30046
30044
30040
30028
30028
30016
30010
30010
30004
30002
29992
29990
29984
29988
29988
29971
29972
29972
29965
29968
29960
29958
29956
29952
29953
29949
29943
29941
29942
29944
29945
29932
29933
29930
29934
29932
29927
29928
29928
29916
29926
29934
29922
29928
29935
29924
29925
29932
29932
29928
29929
29925
29928
29930
29937
29930
29928
29936
29943
29940
29953
29952
29956
29950
29950
29946
29944
29945
29948
29956
29940
29956
29958
29959
29958
29964
29968
29972
29968
29968
29972
29973
29977
29972
29978
29982
29976
29976
29976
29988
29988
29984
29989
29988
29994
29997
29996
29994
30004
30000
30004
30004
30006
30006
30008
30016
30012
30017
30024
30020
30018
30012
30018
30026
30016
30020
30016
30020
30026
30020
30024
30024
30020
30024
30017
30024
30024
30024
30025
30028
30029
30029
30031
30030
30030
30034
30036
30036
30040
30036
30046
30048
30041
30046
30050
30052
30056
30052
30052
30056
30052
30066
30064
30064
30064
30080
30071
30072
30074
30068
30072
30078
30087
30076
30078
30076
30080
30084
30080
30094
30092
30088
30088
30092
30088
30096
30092
30098
30104
30104
30105
30104
30110
30116
30116
30114
30120
30125
30128
30132
30132
30137
30132
30138
30136
30142
30135
30138
30136
30141
30140
30136
30130
30128
30132
30132
30134
30124
30132
30124
30126
30121
30118
30130
30118
30117
30120
30118
30116
30114
30116
30112
30108
30106
30109
30104
30105
30096
30100
30100
30096
30097
30096
30100
30104
30108
30098
30102
30103
30107
30108
30104
30108
30106
30117
30108
30112
30113
30116
30118
30126
30116
30126
30122
30124
30130
30126
30132
30130
30132
30136
30141
30140
30142
30134
30142
30140
30140
30146
30136
30133
30137
30148
30140
30140
30143
30140
30138
30140
30136
30136
30133
30144
30146
30144
30136
30140
30140
30142
30138
30142
30141
30148
30148
30148
30140
30148
30142
30146
30148
30148
30152
30148
30154
30148
30154
30148
30164
30161
30158
30173
30172
30164
30166
30169
30180
30165
30168
30176
30180
30180
30180
30180
30184
30192
30189
30188
30196
30189
30201
30204
30210
30209
30210
30216
30206
30212
30200
30212
30215
30220
30214
30205
30216
30217
30212
30209
30218
30219
30212
30214
30216
30220
30217
30218
30218
30214
30212
30224
30221
30222
30227
30232
30217
30222
30228
30224
30220
30232
30222
30237
30228
30230
30236
30240
30232
30238
30245
30240
30244
30248
30248
