RESPIRATION
48332
48320
48328
48316
48312
48318
48300
48297
48295
48276
48276
48268
48262
48252
48236
48231
48212
48200
48197
48198
48160
48145
48132
48135
48116
48096
48082
48072
48068
48038
48020
47994
47988
47984
47956
47940
47936
47908
47884
47860
47842
47820
47812
47792
47752
47736
47732
47700
47668
47645
47633
47608
47588
47556
47534
47532
47480
47470
47452
47430
47398
47380
47380
47332
47308
47296
47268
47242
47230
47213
47185
47168
47140
47130
47093
47070
47069
47038
47009
46988
46968
46958
46924
46890
46876
46862
46839
46812
46796
46769
46740
46728
46697
46676
46652
46640
46604
46588
46564
46532
46528
46500
46468
46464
46424
46396
46376
46356
46341
46312
46292
46262
46260
46222
46200
46186
46164
46136
46101
46087
46070
46044
46016
45981
45960
45949
45909
45888
45876
45840
45800
45784
45756
45740
45700
45678
45652
45616
45590
45574
45544
45524
45484
45449
45420
45404
45360
45332
45308
45284
45244
45212
45190
45156
45116
45088
45048
45014
44983
44948
44921
44884
44836
44816
44784
44742
44696
44663
44632
44596
44560
44528
44482
44442
44408
44372
44334
44292
44264
44232
44188
44156
44128
44080
44039
44004
43960
43928
43902
43862
43825
43782
43750
43716
43676
43632
43596
43572
43526
43488
43452
43416
43380
43336
43306
43268
43232
43189
43144
43112
43080
43034
43000
42960
42924
42884
42844
42808
42777
42732
42696
42660
42612
42582
42544
42492
42464
42428
42384
42329
42308
42268
42220
42188
42142
42116
42062
42020
41988
41948
41908
41864
41828
41796
41758
41702
41670
41626
41594
41566
41521
41476
41436
41416
41364
41324
41300
41264
41212
41184
41142
41116
41084
41036
41002
40969
40920
40893
40854
40828
40788
40752
40718
40676
40650
40620
40574
40548
40512
40500
40441
40416
40378
40341
40316
40276
40250
40220
40188
40156
40120
40092
40049
40024
40000
39956
39924
39896
39860
39836
39796
39782
39736
39724
39676
39648
39614
39581
39552
39532
39500
39456
39429
39405
39367
39349
39308
39281
39260
39216
39193
39169
39136
39102
39080
39036
39016
38996
38948
38932
38910
38869
38850
38828
38785
38760
38744
38716
38688
38652
38636
38620
38598
38560
38548
38528
38512
38485
38472
38456
38428
38420
38407
38378
38362
38344
38338
38313
38293
38288
38272
38258
38240
38224
38216
38200
38196
38174
38153
38150
38140
38116
38105
38100
38104
38080
38060
38052
38052
38031
38028
38008
38004
38001
37991
37990
37965
37962
37958
37956
37942
37932
37933
37926
37918
37916
37916
37911
37903
37892
37897
37892
37880
37881
37879
37880
37869
37862
37857
37857
37854
37844
37841
37832
37834
37836
37824
37816
37804
37804
37800
37796
37790
37780
37768
37766
37760
37745
37738
37736
37716
37716
37704
37703
37690
37676
37670
37665
37654
37636
37623
37606
37608
37592
37576
37573
37552
37542
37536
37524
37528
37504
37492
37485
37476
37472
37460
37449
37444
37432
37422
37415
37412
37415
37412
37396
37388
37389
37382
37378
37376
37381
37378
37370
37372
37384
37370
37380
37383
37364
37368
37368
37374
37372
37378
37383
37393
37382
37392
37397
37408
37393
37414
37414
37417
37416
37424
37434
37456
37448
37455
37468
37469
37472
37481
37511
37492
37506
37516
37524
37532
37544
37560
37549
37564
37572
37582
37584
37598
37612
37620
37621
37639
37649
37656
37660
37684
37696
37708
37700
37724
37732
37740
37756
37765
37788
37797
37796
37816
37816
37828
37844
37846
37866
37880
37856
37876
37888
37888
37905
37913
37928
37928
37938
37937
37941
37964
37964
37965
37974
37984
37996
37996
37996
38001
38016
38020
38036
38040
38036
38048
38052
38076
38071
38084
38086
38092
38112
38124
38122
38125
38140
38158
38156
38160
38168
38180
38188
38184
38194
38209
38208
38206
38215
38220
38224
38232
38223
38232
38236
38241
38232
38234
38244
38236
38240
38244
38228
38228
38224
38232
38230
38228
38214
38204
38207
38204
38208
38201
38182
38188
38176
38181
38172
38152
38152
38156
38152
38138
38128
38128
38124
38120
38108
38092
38100
38108
38089
38084
38082
38080
38076
38068
38069
38068
38068
38056
38048
38046
38046
38052
38028
38037
38023
38031
38031
38033
38008
38016
38028
38022
38014
38015
38005
38016
38004
38001
37990
37984
37988
37980
37968
37964
37969
37950
37942
37944
37940
37930
37918
37908
37908
37908
37888
37882
37880
37872
37868
37872
37863
37868
37860
37868
37868
37864
37884
37870
37860
37880
37892
37887
37900
37907
37910
37924
37936
37945
37958
37962
37988
37997
38008
38028
38036
38052
38069
38088
38100
38130
38140
38164
38172
38200
38223
38240
38257
38292
38296
38332
38364
38376
38396
38432
38458
38484
38500
38535
38572
38588
38614
38646
38680
38692
38724
38769
38780
38806
38836
38860
38881
38908
38932
38957
38980
39000
39028
39046
39058
39088
39110
39126
39136
39159
39188
39208
39204
39222
39248
39250
39264
39280
39292
39312
39316
39329
39340
39356
39374
39369
39389
39404
39412
39416
39441
39457
39460
39478
39486
39508
39526
39524
39536
39562
39576
39582
39599
39624
39638
39642
39664
39687
39690
39708
39724
39744
39760
39780
39791
39812
39812
39828
39854
39868
39863
39880
39902
39912
39920
39948
39957
39957
39972
39988
39988
40001
40009
40016
40028
40045
40040
40056
40068
40072
40084
40084
40106
40116
40124
40124
40160
40149
40164
40174
40184
40196
40205
40212
40220
40220
40232
40234
40254
40250
40258
40260
40260
40264
40252
40265
40258
40260
40252
40256
40242
40238
40230
40225
40228
40191
40188
40184
40167
40140
40133
40113
40108
40096
40084
40056
40040
40041
40008
39976
39960
39936
39928
39894
39868
39848
39832
39806
39776
39774
39744
39704
39692
39668
39628
39596
39576
39552
39520
39494
39469
39438
39420
39381
39344
39317
39300
39256
39222
39192
39153
39137
39085
39057
39028
38991
38948
38918
38884
38846
38808
38772
38740
38704
38668
38636
38596
38556
38528
38492
38462
38429
38396
38366
38340
38296
38280
38247
38208
38180
38145
38128
38102
38056
38040
38020
37993
37954
37936
37924
37886
37860
37840
37816
37788
37768
37746
37724
37696
37679
37648
37636
37610
37594
37572
37540
37529
37500
37478
37448
37436
37416
37396
37364
37356
37320
37303
37277
37260
37238
37212
37188
37168
37146
37120
37090
37072
37056
37026
37004
36973
36956
36924
36903
36868
36840
36816
36796
36772
36727
36703
36673
36644
36608
36581
36550
36534
36492
36452
36432
36390
36356
36332
36298
36268
36226
36194
36164
36140
36100
36064
36044
36008
35966
35940
35908
35876
35837
35807
35782
35754
35708
35678
35650
35628
35588
35556
35534
35504
35464
35444
35408
35382
35356
35308
35296
35268
35240
35204
35184
35166
35129
35100
35084
35053
35012
35004
34986
34942
34924
34916
34872
34864
34830
34810
34796
34753
34746
34733
34700
34692
34656
34638
34636
34607
34584
34572
34548
34524
34520
34488
34472
34456
34439
34444
34413
34392
34388
34372
34352
34349
34330
34317
34307
34306
34284
34271
34268
34256
34252
34228
34225
34220
34199
34188
34190
34172
34167
34149
34146
34151
34135
34122
34104
34096
34092
34096
34081
34064
34055
34046
34052
34036
34019
34017
34010
34006
33982
33989
33985
33972
33962
33960
33964
33936
33936
33936
33928
33924
33914
33912
33913
33911
33900
33897
33894
33904
33908
33892
33876
33886
33901
33880
33884
33888
33890
33878
33879
33888
33886
33880
33865
33889
33892
33877
33868
33885
33880
33873
33860
33876
33873
33858
33852
33847
33851
33840
33832
33816
33820
33820
33796
33785
33789
33773
33748
33748
33748
33740
33725
33696
33692
33681
33674
33660
33626
33616
33608
33600
33568
33560
33550
33524
33504
33498
33484
33455
33438
33426
33412
33384
33356
33348
33330
33318
33292
33268
33260
33236
33214
33204
33172
33168
33154
33128
33112
33085
33076
33068
33036
33022
33000
33004
32988
32950
32944
32930
32915
32882
32874
32876
32844
32824
32808
32796
32785
32752
32730
32721
32716
32688
32656
32644
32642
32612
32589
32566
32558
32546
32512
32492
32460
32455
32433
32416
32376
32357
32336
32334
32302
32276
32260
32233
32214
32181
32162
32148
32122
32088
32080
32068
32033
32001
31978
31972
31951
31912
31897
31884
31860
31832
31808
31792
31781
31758
31732
31700
31677
31666
31652
31636
31608
31586
31556
31548
31532
31512
31484
31454
31452
31428
31420
31392
31364
31345
31325
31316
31298
31261
31240
31220
31204
31187
31158
31140
31130
31096
31068
31033
31019
30996
30980
30968
30920
30896
30861
30837
30812
30788
30756
30710
30692
30672
30625
30593
30562
30536
30492
30447
30429
30394
30353
30308
30279
30252
30206
30163
30125
30090
30062
30020
29972
29940
29908
29862
29813
29792
29759
29712
29668
29634
29599
29568
29520
29484
29439
29410
29380
29348
29304
29272
29244
29220
29176
29134
29096
29064
29048
29009
28964
28932
28903
28876
28850
28806
28774
28737
28700
28676
28645
28606
28566
28524
28504
28468
28412
28368
28338
28311
28270
28214
28167
28112
28085
28045
27984
27932
27892
27852
27802
27740
27684
27639
27590
27520
27460
27412
27358
27302
27237
27172
27108
27056
26983
26920
26852
26785
26726
26650
26567
26495
26433
26372
26292
26209
26136
26068
26004
25914
25828
25760
25681
25612
25535
25445
25367
25306
25220
25149
25060
24986
24916
24836
24756
24669
24621
24540
24460
24376
24314
24258
24166
24090
24036
23976
23886
23821
23764
23686
23615
23566
23508
23428
23364
23320
23252
23185
23140
23077
23009
22964
22895
22840
22796
22732
22669
22628
22570
22506
22457
22409
22340
22293
22242
22179
22135
22084
22016
21972
21913
21856
21817
21756
21693
21658
21600
21540
21489
21450
21398
21338
21296
21247
21188
21145
21100
21048
20996
20956
20912
20846
20822
20772
20719
20675
20640
20588
20546
20512
20480
20417
20390
20351
20312
20260
20229
20196
20146
20108
20084
20047
19996
19960
19938
19902
19853
19832
19800
19752
19725
19701
19660
19620
19604
19572
19534
19508
19470
19446
19417
19394
19354
19320
19304
19276
19234
19216
19188
19156
19124
19100
19079
19056
19016
18984
18968
18942
18914
18885
18858
18841
18806
18772
18748
18725
18709
18686
18648
18624
18610
18584
18564
18524
18505
18484
18462
18434
18404
18385
18372
18352
18316
18292
18272
18260
18244
18218
18180
18169
18156
18128
18106
18085
18076
18052
18029
18005
17990
17973
17954
17939
17930
17910
17898
17882
17864
17850
17828
17823
17798
17792
17781
17772
17761
17748
17750
17736
17710
17703
17694
17686
17678
17662
17649
17652
17640
17629
17612
17617
17607
17592
17593
17584
17577
17560
17555
17547
17552
17542
17528
17520
17526
17517
17499
17505
17503
17484
17484
17486
17481
17476
17472
17472
17473
17470
17463
17464
17473
17474
17460
17468
17476
17466
17468
17467
17478
17480
17484
17484
17488
17505
17500
17501
17524
17526
17532
17537
17543
17564
17573
17573
17584
17607
17609
17612
17626
17650
17657
17664
17676
17696
17716
17713
17728
17753
17762
17764
17781
17801
17824
17829
17842
17865
17879
17888
17902
17925
17945
17940
17969
17984
17992
17996
18028
18028
18044
18064
18073
18084
18113
18120
18119
18138
18154
18158
18181
18194
18204
18211
18224
18240
18250
18248
18256
18276
18297
18292
18296
18305
18319
18325
18332
18340
18352
18352
18361
18370
18360
18358
18364
18376
18375
18378
18372
18373
18373
18380
18368
18368
18368
18368
18368
18344
18360
18354
18340
18328
18327
18329
18316
18296
18300
18298
18277
18273
18266
18272
18248
18238
18225
18224
18217
18200
18182
18184
18173
18160
18146
18137
18132
18109
18094
18096
18082
18072
18056
18041
18037
18030
18008
17990
17989
17977
17961
17946
17924
17910
17901
17880
17862
17850
17851
17830
17802
17781
17772
17756
17732
17705
17695
17680
17650
17621
17612
17591
17572
17537
17513
17502
17472
17448
17432
17397
17376
17357
17338
17295
17280
17255
17228
17191
17173
17150
17118
17089
17072
17044
17006
16984
16958
16930
16886
16873
16853
16811
16783
16768
16736
16706
16664
16653
16625
16582
16560
16545
16520
16481
16454
16428
16417
16380
16340
16320
16304
16269
16233
16222
16192
16162
16126
16111
16096
16060
16036
16003
15980
15960
15930
15896
15871
15848
15821
15782
15749
15731
15702
15671
15634
15616
15588
15562
15526
15487
15450
15420
15397
15364
15335
15311
15262
15222
15198
15154
15122
15082
15048
15012
14969
14932
14904
14862
14814
14777
14742
14698
14656
14613
14584
14536
14496
14458
14424
14374
14333
14306
14260
14216
14190
14152
14106
14075
14048
14001
13980
13937
13896
13874
13845
13815
13776
13757
13732
13700
13678
13645
13612
13602
13566
13544
13524
13488
13466
13458
13429
13408
13380
13364
13327
13318
13300
13282
13244
13224
13210
13186
13161
13149
13121
13100
13090
13065
13040
13020
13008
12993
12967
12945
12943
12919
12896
12895
12877
12856
12841
12839
12817
12796
12790
12788
12768
12748
12738
12737
12723
12703
12694
12693
12674
12665
12660
12656
12634
12624
12618
12610
12597
12593
12586
12573
12556
12556
12548
12536
12520
12507
12495
12486
12481
12461
12446
12436
12422
12412
12402
12374
12367
12348
12324
12319
12305
12278
12258
12253
12226
12205
12191
12169
12152
12133
12102
12089
12070
12047
12030
12010
11996
11965
11949
11932
11902
11882
11872
11849
11820
11806
11795
11776
11750
11730
11722
11703
11676
11660
11654
11638
11620
11602
11596
11572
11560
11555
11540
11532
11520
11500
11496
11482
11475
11477
11472
11460
11454
11447
11444
11442
11431
11436
11428
11414
11419
11423
11420
11418
11418
11426
11424
11412
11420
11427
11426
11428
11429
11431
11430
11442
11448
11456
11453
11454
11464
11468
11468
11468
11479
11486
11484
11496
11508
11506
11518
11526
11532
11532
11549
11565
11563
11566
11582
11586
11586
11599
11612
11622
11621
11628
11653
11660
11660
11663
11681
11695
11695
11706
11720
11732
11732
11748
11754
11764
11775
11799
11788
11809
11810
11829
11825
11848
11844
11865
11870
11874
11888
11892
11896
11899
11921
11934
11936
11945
11940
11954
11968
11970
11976
11972
11988
12004
12014
12006
12014
12028
12034
12036
12045
12045
12057
12066
12068
12076
12069
12079
12090
12086
12095
12099
12106
12107
12098
12113
12118
12117
12116
12126
12129
12128
12122
12134
12128
12137
12133
12142
12139
12137
12142
12152
12148
12144
12146
12136
12150
12154
12150
12147
12154
12160
12160
12155
12149
12165
12157
12156
12153
12164
12164
12162
12170
12167
12167
12170
12171
12165
12177
12184
12173
12180
12170
12172
12190
12176
12192
12186
12191
12192
12197
12208
12202
12202
12212
12206
12220
12229
12218
12233
12222
12232
12246
12246
12249
12260
12262
12260
12268
12285
12276
12290
12288
12297
12297
12310
12322
12324
12327
12338
12339
12354
12361
12354
12366
12381
12376
12377
12404
12394
12400
12399
12412
12416
12415
12425
12429
12423
12424
12434
12430
12430
12441
12447
12444
12434
12434
12440
12436
12422
12430
12433
12422
12412
12412
12420
12404
12398
12404
12398
12386
12380
12382
12366
12359
12348
12344
12344
12332
12320
12298
12306
12296
12277
12270
12268
12248
12236
12225
12218
12196
12183
12168
12159
12149
12133
12121
12102
12095
12086
12056
12043
12038
12022
12004
11972
11959
11953
11934
11904
11888
11877
11865
11825
11812
11798
11774
11748
11732
11708
11687
11652
11638
11631
11602
11574
11560
11539
11515
11490
11479
11444
11422
11406
11383
11356
11333
11328
11293
11274
11261
11234
11208
11202
11173
11150
11137
11117
11090
11074
11064
11036
11020
11010
10991
10960
10945
10927
10912
10897
10880
10850
10839
10828
10804
10785
10774
10766
10736
10722
10710
10692
10666
10658
10641
10622
10615
10594
10568
10563
10544
10517
10522
10489
10482
10455
10438
10432
10405
10383
10380
10358
10337
10312
10302
10280
10252
10240
10220
10198
10165
10152
10122
10097
10072
10061
10034
9994
9972
9958
9924
9895
9872
9839
9800
9788
9749
9716
9689
9664
9629
9594
9564
9541
9514
9474
9430
9406
9379
9343
9310
9266
9233
9214
9177
9140
9109
9076
9033
9009
8981
8946
8902
8873
8852
8804
8767
8743
8708
8677
8646
8610
8591
8546
8519
8496
8456
8425
8390
8357
8334
8304
8273
8246
8213
8178
8154
8132
8104
8073
8041
8018
7997
7966
7937
7918
7890
7851
7834
7816
7785
7763
7734
7715
7688
7652
7648
7615
7589
7573
7544
7518
7500
7476
7448
7424
7395
7367
7358
7332
7304
7290
7266
7243
7223
7197
7173
7149
7150
7117
7092
7082
7071
7050
7027
7021
6993
6985
6974
6953
6942
6934
6916
6903
6906
6883
6872
6870
6854
6838
6838
6820
6810
6804
6786
6783
6776
6755
6751
6740
6737
6722
6711
6687
6688
6672
6652
6644
6636
6612
6603
6603
6583
6565
6558
6545
6532
6522
6500
6489
6487
6472
6452
6437
6431
6412
6398
6386
6372
6357
6344
6338
6320
6306
6300
6276
6264
6256
6242
6239
6221
6195
6186
6187
6175
6151
6150
6132
6124
6121
6100
6084
6082
6071
6053
6050
6028
6025
6013
5997
5985
5980
5969
5956
5948
5924
5925
5912
5885
5884
5877
5855
5852
5828
5821
5806
5797
5778
5773
5753
5738
5727
5702
5707
5685
5681
5668
5637
5628
5620
5597
5592
5573
5556
5553
5549
5527
5515
5515
5489
5492
5478
5470
5454
5450
5436
5432
5414
5412
5397
5386
5374
5375
5367
5357
5344
5346
5335
5323
5324
5314
5296
5290
5287
5282
5264
5270
5271
5261
5249
5238
5240
5231
5220
5211
5208
5202
5190
5186
5183
5168
5165
5157
5156
5137
5124
5122
5123
5104
5099
5093
5079
5071
5067
5059
5046
5026
5032
5014
5000
4996
4989
4973
4956
4946
4937
4924
4911
4895
4880
4873
4858
4842
4831
4821
4794
4775
4777
4747
4735
4729
4708
4680
4670
4664
4645
4621
4611
4581
4572
4554
4525
4516
4504
4479
4461
4453
4433
4412
4394
4385
4361
4343
4326
4309
4287
4274
4256
4233
4220
4207
4188
4163
4146
4132
4114
4082
4078
4062
4043
4016
4011
3991
3974
3956
3951
3932
3915
3904
3893
3881
3869
3847
3840
3834
3826
3808
3802
3796
3797
3789
3772
3769
3770
3767
3753
3754
3757
3741
3749
3749
3743
3739
3740
3741
3734
3729
3735
3741
3741
3732
3731
3728
3731
3731
3736
3730
3728
3739
3735
3732
3744
3738
3738
3740
3744
3736
3749
3754
3748
3744
3745
3739
3750
3758
3758
3753
3767
3764
3768
3767
3772
3785
3783
3783
3789
3789
3806
3808
3807
3807
3823
3825
3823
3834
3841
3853
3858
3861
3865
3878
3882
3888
3888
3896
3908
3907
3912
3917
3922
3927
3928
3938
3942
3945
3952
3960
3958
3971
3972
3966
3966
3976
3973
3976
3982
3979
3984
3992
3983
3988
3982
3979
3979
3974
3970
3970
3975
3960
3958
3949
3948
3939
3939
3922
3912
3903
3907
3888
3882
3863
3851
3838
3833
3817
3793
3780
3769
3744
3731
3717
3690
3676
3658
3632
3617
3599
3568
3556
3527
3510
3487
3469
3446
3420
3409
3378
3352
3338
3305
3294
3267
3238
3217
3199
3173
3151
3125
3109
3088
3059
3041
3030
2999
2981
2969
2934
2916
2906
2884
2862
2850
2820
2804
2781
2768
2758
2735
2708
2706
2681
2657
2644
2628
2602
2590
2578
2561
2540
2527
2512
2488
2472
2465
2450
2427
2418
2404
2381
2369
2364
2343
2326
2305
2288
2287
2263
2259
2237
2225
2204
2190
2183
2173
2158
2139
2126
2122
2097
2088
2085
2061
2053
2046
2027
2013
2000
1989
1960
1959
1955
1943
1924
1912
1906
1893
1879
1871
1859
1846
1827
1828
1811
1797
1788
1777
1772
1763
1752
1734
1724
1719
1706
1692
1675
1675
1666
1650
1642
1634
1620
1616
1600
1599
1589
1574
1562
1555
1540
1534
1526
1518
1514
1496
1489
1482
1471
1463
1459
1450
1442
1425
1424
1420
1415
1406
1407
1401
1385
1384
1383
1381
1365
1368
1371
1357
1357
1355
1350
1348
1347
1338
1335
1335
1332
1318
1317
1318
1315
1304
1298
1300
1292
1279
1274
1267
1266
1249
1241
1243
1227
1216
1213
1206
1196
1189
1182
1172
1166
1164
1148
1141
1142
1124
1119
1122
1113
1101
1094
1092
1082
1082
1067
1064
1056
1049
1049
1037
1032
1026
1017
1017
1010
1002
998
986
985
981
974
965
960
961
947
943
941
934
926
926
917
910
911
900
893
895
891
881
879
869
868
866
853
847
846
836
834
832
832
826
820
820
808
805
806
798
806
800
790
801
797
799
810
805
809
817
827
826
838
854
859
864
880
890
904
927
933
948
965
983
997
1016
1035
1055
1069
1088
1110
1140
1151
1174
1196
1213
1236
1257
1280
1293
1323
1347
1364
1383
1412
1425
1445
1479
1493
1514
1534
1570
1590
1611
1635
1663
1690
1716
1736
1759
1790
1811
1843
1855
1892
1919
1934
1959
1988
2021
2045
2065
2088
2114
2141
2153
2178
2204
2230
2246
2270
2301
2322
2338
2361
2382
2403
2421
2440
2467
2486
2500
2520
2544
2564
2579
2600
2615
2642
2660
2676
2703
2723
2740
2753
2774
2800
2826
2846
2869
2892
2924
2938
2964
2985
3017
3045
3065
3091
3126
3156
3183
3216
3250
3280
3316
3353
3384
3417
3464
3503
3549
3595
3633
3678
3721
3780
3823
3875
3930
3993
4040
4097
4161
4224
4286
4340
4412
4477
4548
4612
4682
4767
4836
4906
4983
5073
5139
5227
5300
5391
5475
5560
5645
5728
5821
5912
6000
6090
6174
6273
6368
6459
6544
6635
6736
6831
6922
7013
7109
7200
7295
7382
7491
7578
7664
7756
7855
7948
8032
8124
8221
8297
8399
8488
8572
8648
8741
8835
8915
9002
9082
9172
9240
9318
9398
9485
9566
9634
9712
9792
9853
9924
10002
10072
10134
10205
10276
10340
10404
10466
10518
10586
10647
10693
10751
10815
10866
10914
10970
11028
11066
11122
11156
11217
11254
11304
11340
11384
11429
11464
11512
11549
11591
11621
11665
11704
11740
11770
11812
11848
11877
11909
11944
11979
12014
12049
12076
12103
12146
12176
12209
12234
12277
12305
12340
12364
12414
12442
12478
12504
12542
12580
12618
12652
12682
12721
12770
12806
12834
12876
12922
12959
12997
13030
13082
13124
13149
13194
13238
13284
13322
13365
13406
13453
13488
13536
13584
13624
13657
13700
13745
13784
13822
13874
13912
13952
13988
14034
14076
14117
14158
14206
14246
14284
14330
14378
14415
14452
14498
14536
14588
14620
14669
14702
14736
14784
14833
14873
14912
14952
15004
15034
15076
15120
15165
15204
15252
15288
15328
15366
15412
15451
15492
15530
15574
15620
15657
15698
15740
15772
15822
15862
15898
15944
15987
16021
16068
16106
16152
16177
16228
16270
16310
16344
16390
16428
16470
16511
16548
16586
16630
16678
16720
16756
16801
16841
16878
16926
16969
17007
17057
17094
17132
17177
17219
17265
17296
17342
17391
17433
17470
17513
17558
17607
17649
17696
17738
17790
17828
17863
17912
17964
18004
18049
18088
18144
18190
18230
18284
18326
18373
18421
18468
18508
18558
18612
18656
18710
18753
18802
18860
18900
18950
19006
19058
19096
19148
19204
19250
19299
19356
19398
19446
19500
19552
19607
19654
19702
19753
19808
19849
19896
19951
20002
20060
20118
20162
20212
20264
20316
20368
20416
20476
20524
20576
20628
20681
20726
20789
20832
20884
20949
20992
21052
21103
21164
21206
21264
21316
21375
21430
21474
21537
21594
21648
21706
21758
21816
21872
21920
21982
22041
22096
22148
22208
22269
22320
22375
22429
22484
22553
22602
22654
22714
22777
22832
22876
22932
23000
23050
23108
23165
23215
23274
23335
23392
23433
23502
23556
23620
23665
23722
23774
23834
23896
23944
23996
24062
24116
24167
24220
24276
24334
24396
24450
24500
24558
24620
24672
24733
24784
24836
24901
24960
25015
25068
25132
25190
25254
25303
25360
25417
25484
25538
25604
25660
25722
25772
25844
25904
25957
26018
26084
26144
26204
26259
26312
26372
26448
26506
26562
26620
26678
26740
26804
26860
26917
26976
27036
27100
27161
27208
27276
27336
27393
27444
27505
27564
27621
27680
27734
27796
27852
27912
27958
28024
28088
28137
28184
28252
28302
28362
28404
28470
28522
28576
28630
28686
28736
28788
28840
28894
28940
29000
29046
29094
29146
29196
29260
29301
29340
29400
29452
29496
29544
29588
29636
29688
29732
29772
29828
29872
29920
29964
30015
30062
30108
30147
30185
30244
30280
30334
30381
30410
30454
30503
30549
30592
30640
30690
30726
30761
30815
30852
30889
30940
30990
31029
31072
31117
31160
31202
31250
31292
31333
31382
31428
31455
31504
31552
31590
31629
31676
31720
31758
31801
31846
31884
31924
31974
32014
32047
32094
32134
32184
32216
32258
32310
32356
32392
32442
32488
32532
32576
32628
32676
32714
32766
32820
32866
32908
32961
33009
33072
33109
33168
33221
33277
33320
33380
33444
33492
33546
33600
33668
33713
33761
33820
33884
33936
33996
34047
34100
34164
34212
34268
34328
34377
34436
34485
34540
34594
34644
34692
34749
34801
34858
34908
34936
34996
35047
35092
35140
35190
35236
35292
35327
35366
35408
35454
35500
35540
35580
35618
35652
35692
35724
35766
35800
35840
35876
35900
35940
35975
35998
36030
36056
36094
36124
36140
36169
36192
36217
36248
36280
36300
36317
36356
36364
36400
36408
36420
36449
36468
36483
36501
36518
36540
36558
36560
36578
36606
36612
36621
36646
36664
36664
36674
36692
36704
36708
36712
36726
36736
36744
36744
36760
36772
36776
36774
36784
36790
36798
36812
36805
36816
36822
36826
36828
36834
36836
36846
36849
36856
36868
36864
36877
36887
36884
36892
36910
36912
36918
36917
36943
36948
36950
36966
36970
36990
37000
37009
37020
37036
37040
37060
37076
37084
37100
37106
37128
37152
37160
37180
37188
37210
37232
37246
37264
37282
37296
37314
37332
37356
37372
37392
37402
37428
37452
37471
37492
37503
37534
37548
37568
37594
37612
37632
37648
37668
37684
37708
37726
37748
37765
37777
37796
37822
37842
37860
37878
37892
37912
37928
37944
37960
37974
37989
38016
38012
38029
38056
38064
38091
38093
38108
38124
38134
38145
38157
38180
38182
38188
38208
38224
38234
38240
38248
38260
38276
38292
38296
38311
38324
38336
38344
38354
38356
38368
38388
38396
38406
38416
38420
38437
38447
38452
38468
38476
38481
38494
38503
38524
38532
38540
38544
38560
38572
38588
38588
38604
38609
38624
38638
38650
38660
38676
38682
38685
38705
38720
38724
38736
38733
38752
38764
38780
38788
38799
38804
38820
38833
38829
38842
38854
38862
38877
38886
38892
38902
38924
38920
38928
38948
38956
38956
38968
38965
38990
39008
39008
39020
39040
39044
39048
39066
39076
39092
39096
39108
39132
39130
39141
39152
39172
39188
39200
39212
39220
39236
39260
39269
39288
39297
39310
39324
39335
39348
39362
39388
39397
39405
39418
39425
39444
39456
39480
39484
39504
39510
39532
39540
39544
39562
39576
39588
39600
39608
39624
39618
39632
39652
39652
39668
39672
39684
39696
39708
39702
39710
39716
39724
39732
39740
39740
39752
39752
39768
39768
39765
39774
39778
39796
39785
39788
39804
39804
39804
39800
39820
39820
39817
39826
39812
39828
39822
39816
39824
39834
39832
39824
39820
39822
39836
39820
39824
39816
39812
39812
39800
39804
39808
39800
39791
39790
39791
39778
39776
39776
39752
39748
39745
39740
39738
39720
39720
39714
39704
39688
39685
39681
39670
39652
39652
39637
39633
39614
39604
39604
39594
39588
39576
39560
39568
39551
39546
39532
39520
39512
39492
39492
39488
39476
39473
39460
39460
39448
39444
39424
39431
39425
39412
39404
39398
39393
39392
39381
39364
39372
39366
39348
39356
39344
39342
39344
39328
39328
39326
39328
39315
39310
39320
39304
39304
39293
39300
39289
39294
39276
39284
39284
39287
39268
39264
39260
39268
39260
39244
39253
39244
39236
39240
39244
39232
39229
39224
39220
39226
39210
39212
39208
39200
39200
39192
39196
39196
39200
39192
39184
39188
39192
39180
39172
39172
39180
39168
39177
39168
39176
39164
39170
39157
39164
39148
39145
39150
39149
39138
39136
39140
39132
39121
39124
39117
39120
39108
39093
39094
39086
39076
39068
39062
39056
39040
39036
39024
39017
39000
38996
38984
38988
38972
38956
38952
38932
38910
38901
38888
38884
38856
38852
38840
38824
38808
38788
38788
38765
38748
38734
38724
38709
38692
38664
38654
38642
38628
38592
38580
38568
38556
38532
38510
38492
38494
38464
38440
38420
38404
38378
38366
38340
38325
38294
38287
38268
38254
38228
38213
38185
38174
38144
38145
38120
38104
38085
38068
38052
38036
38028
37996
37982
37973
37958
37943
37928
37912
37905
37888
37873
37860
37838
37821
37816
37793
37783
37765
37748
37732
37726
37704
37694
37680
37656
37638
37628
37620
37589
37577
37557
37550
37526
37511
37484
37476
37452
37438
37416
37400
37380
37356
37328
37316
37287
37274
37247
37216
37214
37192
37164
37138
37117
37108
37064
37056
37032
37022
36996
36982
36950
36948
36920
36898
36884
36860
36840
36836
36821
36807
36794
36781
36767
36754
36748
36740
36724
36716
36709
36694
36686
36686
36668
36672
36656
36656
36648
36646
36638
36628
36618
36636
36616
36607
36604
36598
36593
36580
36580
36582
36576
36558
36560
36552
36554
36544
36529
36532
36517
36516
36508
36508
36512
36496
36492
36496
36488
36484
36487
36476
36460
36461
36464
36452
36444
36432
36428
36434
36417
36401
36398
36391
36392
36381
36364
36352
36342
36328
36320
36305
36298
36284
36268
36262
36250
36225
36220
36198
36176
36172
36156
36132
36120
36104
36084
36066
36044
36031
36002
35984
35972
35951
35920
35904
35880
35864
35838
35812
35798
35776
35748
35729
35708
35676
35656
35641
35596
35580
35556
35532
35500
35480
35456
35428
35393
35376
35346
35316
35292
35273
35252
35225
35201
35172
35152
35124
35102
35078
35056
35038
35008
34996
34972
34949
34938
34900
34882
34868
34852
34830
34820
34805
34778
34761
34740
34729
34716
34692
34694
34665
34648
34644
34622
34609
34610
34589
34572
34566
34557
34546
34532
34524
34520
34504
34501
34482
34478
34472
34464
34457
34441
34430
34428
34416
34404
34408
34398
34388
34372
34369
34357
34350
34344
34334
34328
34320
34301
34301
34292
34276
34274
34257
34252
34244
34224
34216
34205
34184
34172
34169
34160
34144
34132
34132
34108
34092
34086
34072
34056
34052
34028
34018
34002
33982
33974
33960
33947
33932
33924
33900
33885
33878
33864
33840
33828
33820
33792
33776
33764
33757
33732
33714
33702
33684
33668
33646
33632
33610
33598
33568
33562
33544
33525
33510
33481
33468
33450
33442
33412
33392
33378
33353
33344
33332
33310
33284
33274
33263
33244
33216
33204
33182
33168
33152
33134
33120
33102
33081
33078
33056
33034
33016
32993
32984
32974
32958
32928
32913
32908
32888
32868
32849
32836
32812
32800
32784
32772
32740
32732
32720
32700
32684
32668
32654
32639
32608
32594
32579
32573
32557
32528
32512
32504
32490
32472
32452
32439
32430
32416
32400
32380
32372
32359
32348
32330
32312
32306
32296
32284
32284
32265
32248
32239
32234
32229
32224
32213
32204
32202
32190
32188
32172
32173
32164
32156
32144
32149
32140
32132
32120
32116
32124
32116
32109
32100
32095
32096
32092
32080
32086
32092
32080
32064
32066
32065
32064
32057
32042
32046
32042
32034
32036
32032
32024
32020
32015
32015
32008
31992
31984
31990
31974
31968
31952
31948
31934
31920
31908
31889
31885
31873
31856
31836
31832
31817
31802
31781
31766
31754
31734
31712
31700
31676
31652
31650
31622
31596
31570
31556
31532
31500
31492
31468
31433
31406
31376
31354
31312
31290
31260
31216
31193
31156
31118
31081
31055
31004
30960
30924
30886
30840
30792
30744
30712
30664
30604
30556
30512
30464
30404
30354
30301
30252
30201
30139
30084
30028
29974
29912
29860
29796
29741
29684
29613
29558
29500
29431
29374
29310
29240
29183
29124
29053
28988
28937
28869
28796
28732
28666
28598
28526
28464
28401
28332
28256
28200
28114
28056
27990
27920
27838
27780
27712
27640
27567
27504
27432
27360
27302
27235
27162
27096
27036
26952
26894
26825
26765
26686
26622
26564
26496
26428
26360
26286
26231
26164
26102
26027
25974
25912
25840
25782
25726
25656
25588
25544
25486
25429
25374
25308
25260
25200
25150
25092
25046
24989
24936
24892
24844
24785
24742
24702
24657
24612
24574
24541
24488
24454
24414
24378
24334
24295
24264
24226
24193
24168
24128
24096
24076
24040
24004
23984
23964
23929
23909
23880
23874
23840
23820
23802
23779
23756
23744
23728
23702
23686
23672
23655
23637
23625
23612
23585
23573
23572
23556
23532
23520
23516
23496
23483
23470
23454
23436
23418
23408
23398
23388
23365
23356
23330
23311
23308
23292
23268
23244
23236
23217
23196
23172
23162
23146
23119
23100
23074
23056
23036
23010
22984
22970
22938
22914
22898
22881
22853
22829
22802
22790
22764
22742
22716
22692
22682
22655
22630
22612
22590
22568
22545
22526
22501
22488
22460
22437
22424
22398
22382
22364
22348
22322
22309
22288
22261
22238
22226
22216
22180
22166
22141
22135
22111
22086
22068
22052
22035
22016
21984
21965
21940
21925
21900
21873
21850
21838
21812
21782
21765
21732
21702
21683
21668
21640
21602
21582
21559
21536
21508
21476
21449
21429
21405
21380
21345
21327
21313
21280
21252
21232
21200
21180
21153
21134
21117
21096
21078
21048
21029
21016
20999
20986
20964
20948
20926
20914
20902
20885
20869
20850
20838
20825
20810
20792
20778
20768
20760
20742
20728
20705
20709
20696
20676
20660
20646
20643
20625
20605
20588
20582
20576
20544
20542
20521
20518
20500
20468
20464
20448
20427
20413
20398
20390
20364
20348
20328
20308
20301
20284
20257
20237
20222
20204
20188
20168
20137
20124
20113
20080
20056
20032
20024
20000
19972
19942
19916
19894
19876
19848
19824
19801
19770
19743
19712
19684
19664
19640
19606
19580
19552
19524
19497
19470
19436
19402
19384
19349
19313
19286
19256
19226
19188
19159
19137
19102
19064
19027
18998
18966
18930
18900
18858
18836
18800
18764
18724
18690
18660
18628
18598
18556
18517
18497
18452
18428
18390
18362
18319
18290
18264
18234
18204
18164
18138
18116
18084
18052
18020
18005
17976
17949
17928
17898
17881
17857
17833
17818
17806
17784
17758
17737
17729
17706
17700
17680
17671
17660
17649
17636
17620
17616
17598
17596
17592
17585
17576
17567
17556
17558
17559
17550
17545
17536
17534
17532
17534
17526
17532
17518
17530
17529
17524
17528
17530
17540
17532
17538
17540
17544
17546
17553
17556
17562
17570
17574
17586
17588
17590
17604
17612
17618
17628
17637
17636
17656
17663
17678
17684
17696
17704
17722
17734
17743
17752
17770
17780
17791
17809
17825
17830
17848
17865
17877
17891
17905
17920
17932
17950
17964
17977
18000
18008
18024
18047
18062
18074
18092
18105
18124
18140
18161
18178
18193
18212
18226
18246
18266
18284
18300
18325
18340
18366
18384
18411
18428
18457
18476
18496
18529
18560
18582
18612
18641
18672
18704
18734
18767
18809
18838
18873
18919
18953
18992
19034
19074
19118
19162
19201
19251
19287
19332
19372
19428
19471
19514
19564
19612
19658
19708
19750
19806
19853
19904
19948
19999
20046
20100
20141
20192
20240
20290
20343
20388
20450
20488
20540
20593
20640
20688
20735
20784
20838
20888
20942
20985
21039
21087
21134
21194
21236
21288
21332
21393
21444
21498
21556
21600
21662
21708
21764
21818
21884
21932
21984
22042
22093
22152
22204
22260
22316
22376
22434
22484
22552
22606
22668
22722
22780
22837
22892
22949
23002
23068
23118
23176
23232
23298
23352
23404
23460
23524
23575
23630
23688
23742
23798
23852
23908
23957
24006
24066
24116
24168
24222
24276
24322
24362
24422
24467
24516
24566
24612
24656
24705
24750
24796
24852
24884
24928
24984
25016
25052
25097
25139
25178
25221
25257
25290
25332
25370
25404
25440
25468
25516
25548
25581
25612
25656
25686
25712
25750
25777
25812
25852
25872
25912
25944
25972
26006
26028
26068
26096
26124
26156
26188
26215
26241
26268
26305
26332
26364
26392
26421
26453
26473
26498
26529
26562
26604
26620
26650
26686
26708
26741
26770
26800
26820
26858
26890
26912
26948
26970
27002
27031
27058
27084
27116
27141
27169
27194
27218
27252
27277
27304
27332
27352
27378
27398
27432
27449
27473
27496
27524
27553
27570
27596
27621
27636
27663
27688
27716
27729
27764
27790
27809
27838
27860
27885
27908
27934
27964
27986
28014
28036
28065
28092
28118
28142
28165
28196
28234
28260
28288
28319
28348
28376
28420
28454
28482
28516
28547
28588
28618
28648
28687
28722
28764
28800
28832
28872
28912
28952
28988
29028
29070
29111
29156
29196
29238
29276
29316
29359
29404
29448
29487
29521
29564
29597
29638
29685
29724
29761
29794
29828
29871
29908
29943
29980
30011
30055
30084
30116
30145
30180
30220
30240
30276
30298
30342
30357
30406
30436
30452
30492
30512
30551
30572
30608
30638
30668
30692
30729
30756
30788
30820
30848
30878
30914
30944
30969
31002
31040
31073
31108
31142
31169
31201
31228
31271
31300
31340
31368
31404
31442
31484
31506
31548
31584
31621
31655
31688
31724
31770
31816
31840
31887
31930
31970
32014
32052
32092
32140
32185
32216
32264
32316
32356
32399
32446
32497
32537
32592
32644
32686
32741
32792
32848
32896
32949
33009
33058
33108
33172
33217
33272
33334
33393
33450
33510
33573
33632
33696
33753
33825
33880
33936
33988
34064
34120
34180
34252
34310
34372
34437
34494
34558
34620
34676
34742
34796
34856
34912
34972
35032
35084
35140
35196
35245
35300
35348
35393
35444
35488
35536
35583
35615
35652
35688
35738
35768
35796
35830
35864
35885
35916
35940
35956
35972
36009
36024
36044
36056
36064
36088
36092
36100
36114
36112
36128
36132
36132
36140
36140
36142
36140
36126
36128
36124
36126
36112
36110
36108
36092
36092
36076
36069
36050
36044
36037
36020
36004
36000
35980
35958
35944
35936
35924
35890
35878
35868
35840
35818
35796
35774
35768
35724
35704
35672
35652
35608
35584
35556
35508
35484
35446
35415
35368
35329
35284
35252
35204
35150
35108
35060
35008
34952
34903
34846
34796
34740
34672
34629
34578
34521
34452
34386
34332
34269
34212
34153
34097
34029
33970
33912
33855
33784
33730
33664
33612
33557
33487
33420
33358
33302
33249
33188
33120
33068
33008
32950
32886
32820
32754
32704
32640
32576
32516
32448
32390
32348
32280
32213
32160
32096
32041
31974
31925
31862
31801
31752
31686
31626
31572
31516
31464
31402
31352
31296
31246
31184
31140
31081
31036
30988
30936
30876
30836
30784
30728
30680
30632
30591
30537
30494
30444
30385
30342
30295
30244
30194
30149
30088
30044
29984
29932
29887
29840
29790
29732
29680
29624
29568
29516
29452
29396
29354
29294
29234
29176
29112
29060
29002
28956
28896
28832
28773
28712
28652
28600
28548
28481
28426
28370
28296
28238
28180
28126
28064
28000
27936
27880
27820
27752
27700
27629
27576
27527
27460
27396
27336
27289
27228
27168
27108
27054
26996
26945
26897
26830
26788
26738
26681
26637
26581
26537
26482
26429
26393
26353
26300
26260
26213
26173
26136
26093
26056
26020
25994
25952
25912
25888
25852
25820
25796
25764
25739
25703
25674
25657
25628
25598
25573
25551
25533
25510
25485
25468
25432
25414
25392
25374
25338
25324
25294
25272
25252
25222
25192
25168
25148
25112
25077
25041
25016
24976
24936
24900
24862
24820
24767
24724
24668
24630
24576
24521
24460
24390
24336
24281
24216
24148
24070
24005
23929
23856
23776
23708
23625
23544
23462
23380
23298
23205
23118
23042
22948
22856
22764
22673
22576
22488
22396
22304
22200
22108
22014
21916
21813
21724
21617
21523
21432
21332
21234
21136
21041
20946
20849
20741
20656
20561
20457
20370
20280
20172
20086
19996
19890
19796
19702
19606
19514
19412
19322
19233
19136
19044
18949
18857
18767
18671
18581
18489
18392
18303
18206
18115
18025
17929
17840
17740
17654
17558
17468
17376
17276
17184
17084
16996
16908
16805
16717
16625
16532
16434
16344
16248
16162
16061
15974
15886
15792
15701
15604
15525
15436
15336
15254
15156
15064
14983
14904
14812
14721
14637
14546
14468
14378
14299
14220
14137
14051
13980
13904
13821
13740
13671
13592
13513
13436
13364
13287
13220
13138
13060
12993
12920
12844
12773
12701
12624
12556
12482
12405
12342
12258
12190
12116
12046
11972
11900
11832
11756
11689
11608
11536
11470
11398
11324
11250
11184
11114
11045
10965
10892
10831
10759
10689
10619
10556
10482
10408
10340
10284
10216
10145
10084
10021
9962
9885
9824
9765
9700
9635
9572
9511
9451
9389
9326
9281
9208
9145
9086
9039
8978
8919
8864
8814
8756
8698
8646
8594
8542
8496
8449
8404
8358
8316
8279
8240
8196
8169
8124
8089
8059
8033
7998
7969
7952
7933
7911
7885
7875
7864
7847
7831
7826
7820
7814
7812
7802
7796
7797
7804
7805
7807
7809
7816
7817
7826
7837
7841
7846
7865
7873
7883
7895
7912
7920
7945
7952
7971
7987
8002
8016
8032
8048
8057
8076
8089
8104
8119
8133
8157
8167
8185
8204
8212
8224
8244
8258
8263
8274
8297
8308
8316
8333
8344
8347
8361
8369
8384
8393
8395
8408
8424
8428
8425
8447
8457
8462
8469
8472
8484
8493
8500
8509
8516
8521
8526
8530
8542
8545
8550
8560
8565
8570
8572
8583
8590
8598
8607
8605
8611
8617
8622
8627
8636
8644
8639
8648
8663
8667
8666
8676
8684
8686
8691
8699
8708
8709
8715
8716
8728
8735
8743
8744
8759
8751
8770
8771
8769
8782
8789
8800
8804
8807
8812
8826
8827
8832
8836
8840
8846
8848
8856
8862
8863
8869
8875
8880
8884
8888
8893
8891
8898
8900
8906
8900
8904
8912
8915
8908
8914
8922
8912
8913
8923
8922
8921
8924
8932
8934
8935
8936
8942
8949
8946
8959
8965
8962
8971
8983
8989
8999
9001
9018
9021
9032
9043
9049
9060
9070
9088
9092
9111
9120
9125
9139
9147
9161
9174
9187
9200
9215
9225
9244
9254
9260
9278
9287
9298
9318
9330
9345
9351
9361
9380
9396
9406
9417
9426
9442
9458
9472
9486
9497
9513
9532
9542
9567
9579
9607
9621
9646
9660
9686
9708
9732
9762
9780
9818
9840
9865
9903
9933
9968
9996
10041
10068
10104
10148
10184
10221
10261
10307
10336
10382
10424
10464
10511
10544
10598
10642
10684
10718
10770
10812
10864
10906
10952
10994
11051
11094
11136
11178
11236
11274
11332
11368
11424
11474
11524
11566
11622
11667
11710
11772
11814
11866
11914
11956
12017
12064
12108
12162
12208
12262
12313
12360
12413
12463
12510
12561
12604
12652
12701
12748
12792
12841
12889
12930
12979
13021
13070
13108
13138
13192
13228
13271
13308
13344
13384
13420
13453
13489
13526
13553
13584
13616
13652
13680
13708
13744
13759
13790
13813
13842
13868
13890
13909
13934
13953
13965
13988
14008
14020
14044
14060
14065
14080
14101
14108
14132
14136
14156
14165
14170
14191
14198
14206
14217
14234
14241
14244
14258
14274
14281
14286
14308
14316
14317
14330
14348
14353
14368
14375
14383
14397
14404
14424
14426
14438
14454
14465
14470
14482
14488
14497
14508
14521
14536
14542
14556
14566
14573
14579
14598
14608
14613
14628
14632
14638
14652
14659
14669
14677
14692
14702
14708
14720
14724
14751
14747
14765
14770
14785
14792
14801
14808
14822
14831
14836
14854
14864
14872
14888
14896
14907
14914
14924
14932
14940
14956
14960
14972
14979
14995
14995
15004
15016
15028
15030
15040
15045
15046
15058
15057
15056
15072
15076
15074
15081
15090
15084
15093
15096
15091
15092
15097
15092
15089
15086
15088
15092
15078
15070
15072
15064
15062
15045
15041
15032
15019
15016
14994
14988
14969
14956
14942
14930
14908
14888
14872
14856
14828
14807
14785
14764
14740
14718
14689
14661
14642
14616
14589
14568
14533
14501
14474
14447
14415
14388
14358
14328
14294
14272
14238
14206
14174
14148
14117
14090
14054
14029
14002
13968
13940
13914
13880
13852
13822
13796
13770
13745
13721
13688
13660
13629
13597
13568
13548
13524
13494
13460
13438
13404
13383
13356
13329
13300
13261
13229
13212
13182
13152
13118
13092
13065
13037
13001
12982
12941
12917
12886
12854
12832
12802
12772
12742
12708
12682
12652
12618
12591
12558
12528
12500
12464
12435
12404
12374
12349
12320
12285
12250
12224
12201
12168
12140
12108
12084
12053
12020
11996
11961
11933
11906
11882
11858
11817
11797
11770
11737
11714
11686
11657
11637
11601
11577
11553
11533
11506
11479
11458
11429
11412
11403
11382
11363
11340
11326
11309
11312
11296
11284
11268
11264
11268
11253
11254
11252
11253
11250
11263
11262
11268
11268
11281
11289
11300
11301
11316
11332
11340
11348
11364
11377
11396
11397
11408
11428
11438
11457
11464
11476
11492
11505
11516
11535
11540
11549
11561
11572
11583
11594
11604
11616
11616
11624
11640
11638
11648
11655
11662
11665
11672
11676
11686
11689
11695
11700
11699
11704
11710
11716
11718
11716
11724
11724
11726
11724
11730
11729
11724
11727
11724
11725
11716
11724
11713
11710
11708
11702
11698
11694
11684
11688
11684
11671
11668
11665
11657
11650
11646
11637
11637
11629
11619
11613
11609
11601
11606
11594
11577
11584
11572
11576
11567
11565
11559
11558
11549
11545
11545
11544
11536
11532
11534
11536
11528
11533
11526
11528
11526
11525
11530
11529
11531
11532
11536
11537
11536
11542
11545
11545
11548
11554
11558
11558
11556
11557
11566
11572
11578
11578
11588
11592
11595
11592
11598
11604
11606
11610
11616
11619
11621
11625
11629
11632
11628
11637
11644
11647
11646
11650
11660
11664
11665
11679
11684
11684
11694
11692
11696
11708
11710
11716
11716
11729
11734
11730
11739
11748
11750
11748
11758
11758
11761
11766
11762
11769
11770
11772
11768
11769
11778
11769
11772
11776
11776
11776
11782
11784
11779
11778
11780
11782
11793
11782
11788
11788
11786
11782
11782
11786
11780
11781
11784
11788
11787
11786
11792
11786
11795
11792
11796
11799
11795
11799
11804
11812
11819
11810
11824
11834
11834
11832
11849
11853
11857
11860
11877
11888
11897
11905
11917
11936
11938
11950
11960
11969
11982
11998
12012
12028
12036
12057
12068
12078
12099
12111
12121
12149
12160
12175
12189
12216
12222
12247
12257
12276
12290
12304
12326
12340
12357
12374
12390
12412
12427
12440
12457
12471
12486
12505
12516
12530
12552
12568
12576
12598
12609
12620
12646
12654
12673
12687
12697
12712
12736
12740
12760
12785
12793
12805
12821
12848
12862
12869
12889
12907
12928
12941
12958
12981
12994
13016
13028
13040
13066
13082
13093
13119
13124
13142
13167
13176
13200
13212
13229
13239
13257
13276
13285
13300
13312
13327
13340
13358
13368
13384
13399
13412
13424
13432
13449
13470
13476
13490
13506
13517
13534
13548
13557
13571
13587
13599
13620
13634
13649
13667
13680
13700
13716
13726
13757
13773
13794
13811
13828
13860
13882
13904
13936
13960
13982
14006
14036
14066
14096
14120
14155
14181
14217
14239
14276
14308
14340
14377
14416
14445
14477
14514
14552
14583
14620
14657
14690
14732
14761
14798
14826
14866
14904
14942
14972
15002
15042
15068
15106
15133
15173
15205
15234
15266
15296
15335
15368
15388
15426
15457
15494
15522
15558
15586
15616
15652
15682
15715
15748
15768
15790
15824
15854
15880
15916
15935
15964
15990
16010
16034
16066
16084
16112
16137
16164
16172
16194
16228
16241
16254
16280
16298
16320
16326
16343
16362
16377
16396
16408
16418
16440
16456
16466
16477
16484
16506
16516
16526
16532
16545
16556
16566
16569
16578
16592
16601
16608
16614
16624
16632
16638
16652
16656
16660
16668
16684
16685
16696
16696
16708
16719
16725
16724
16740
16751
16765
16768
16784
16790
16789
16812
16816
16833
16838
16857
16866
16870
16888
16904
16912
16930
16942
16962
16978
16996
17010
17013
17042
17054
17068
17092
17116
17132
17152
17181
17193
17212
17238
17258
17288
17312
17328
17356
17382
17406
17424
17457
17478
17499
17536
17556
17582
17612
17633
17665
17685
17716
17736
17764
17790
17812
17836
17860
17884
17904
17929
17956
17972
18012
18028
18052
18078
18102
18117
18156
18172
18196
18223
18246
18275
18301
18326
18360
18381
18408
18432
18468
18490
18524
18552
18576
18614
18644
18670
18700
18734
18762
18796
18823
18861
18887
18920
18956
18988
19015
19053
19086
19121
19152
19193
19228
19255
19296
19329
19372
19405
19436
19474
19514
19556
19590
19624
19672
19704
19740
19781
19812
19854
19896
19934
19964
20005
20044
20092
20126
20160
20200
20248
20279
20314
20348
20389
20428
20468
20501
20541
20576
20614
20652
20696
20730
20780
20807
20848
20896
20932
20972
21020
21056
21103
21144
21188
21236
21274
21318
21369
21410
21460
21496
21548
21605
21642
21688
21738
21794
21828
21881
21930
21988
22022
22082
22124
22180
22224
22272
22326
22372
22428
22472
22528
22570
22624
22678
22729
22776
22827
22884
22938
22982
23042
23090
23148
23204
23248
23305
23364
23412
23474
23525
23576
23637
23696
23748
23806
23866
23916
23972
24032
24096
24142
24206
24264
24316
24373
24429
24484
24542
24600
24654
24704
24756
24814
24870
24920
24976
25033
25089
25139
25188
25244
25296
25349
25409
25453
25508
25552
25616
25656
25711
25776
25825
25880
25928
25988
26034
26102
26156
26209
26270
26321
26382
26437
26504
26554
26617
26676
26736
26800
26852
26924
26985
27044
27108
27170
27238
27300
27363
27424
27494
27558
27626
27692
27756
27816
27882
27944
28028
28096
28160
28228
28301
28365
28436
28510
28572
28640
28708
28776
28845
28910
28981
29044
29109
29174
29248
29308
29376
29434
29508
29568
29632
29688
29762
29821
29880
29938
30002
30060
30124
30178
30244
30292
30353
30412
30474
30540
30588
30648
30710
30776
30817
30880
30934
31002
31060
31108
31172
31227
31280
31350
31404
31460
31524
31580
31648
31712
31768
31825
31884
31949
32012
32084
32140
32200
32263
32338
32389
32452
32524
32588
32649
32706
32778
32844
32908
32980
33052
33104
33177
33242
33308
33374
33446
33504
33572
33644
33711
33774
33837
33908
33970
34032
34100
34164
34230
34288
34348
34420
34476
34540
34614
34669
34728
34800
34856
34922
34980
35040
35110
35164
35226
35294
35344
35414
35462
35528
35577
35640
35698
35761
35824
35882
35943
36008
36064
36133
36188
36248
36303
36356
36424
36476
36529
36592
36669
36708
36768
36828
36870
36933
36996
37048
37098
37160
37216
37284
37334
37378
37440
37497
37556
37608
37662
37727
37776
37830
37885
37934
37998
38052
38106
38160
38208
38278
38316
38372
38432
38484
38532
38589
38637
38696
38749
38792
38852
38900
38956
39014
39058
39108
39164
39224
39268
39318
39377
39430
39472
39536
39577
39640
39690
39740
39796
39844
39900
39943
39994
40052
40104
40161
40208
40260
40308
40368
40420
40472
40525
40572
40617
40676
40716
40774
40820
40856
40924
40964
41008
41060
41110
41152
41207
41256
41292
41348
41384
41430
41476
41519
41572
41614
41652
41688
41741
41768
41820
41852
41892
41932
41976
42016
42048
42084
42116
42160
42188
42228
42252
42298
42326
42353
42388
42408
42449
42476
42492
42518
42548
42578
42596
42624
42648
42664
42688
42721
42740
42748
42780
42784
42812
42824
42836
42868
42878
42886
42916
42943
42946
42968
42978
42992
43012
43028
43036
43052
43068
43088
43104
43112
43128
43137
43156
43166
43168
43188
43212
43225
43222
43244
43254
43266
43284
43302
43308
43324
43337
43356
43367
43376
43384
43400
43418
43428
43436
43448
43466
43482
43489
43512
43517
43535
43552
43568
43584
43588
43605
43620
43628
43632
43637
43652
43656
43669
43680
43684
43685
43692
43696
43716
43708
43708
43710
43716
43727
43712
43716
43726
43728
43734
43732
43728
43720
43718
43724
43724
43724
43734
43728
43728
43730
43736
43732
43726
43720
43724
43728
43724
43716
43720
43712
43705
43700
43702
43686
43684
43672
43660
43645
43644
43628
43616
43602
43591
43584
43560
43544
43532
43512
43496
43468
43468
43440
43412
43388
43365
43344
43320
43300
43284
43262
43234
43212
43188
43160
43144
43128
43093
43080
43060
43024
43004
42968
42952
42928
42894
42872
42842
42808
42788
42746
42726
42688
42656
42620
42592
42556
42516
42488
42448
42412
42372
42332
42292
42246
42208
42168
42120
42076
42036
41996
41937
41892
41848
41802
41756
41712
41664
41620
41564
41520
41469
41412
41372
41324
41276
41215
41182
41130
41078
41039
40976
40936
40888
40836
40800
40756
40704
40658
40624
40580
40540
40496
40452
40408
40368
40340
40310
40264
40224
40192
40156
40124
40092
40060
40032
40000
39972
39940
39916
39888
39866
39844
39816
39788
39764
39732
39716
39696
39678
39657
39620
39616
39600
39580
39558
39540
39524
39513
39493
39486
39468
39441
39432
39404
39400
39374
39364
39348
39336
39316
39293
39292
39272
39265
39240
39232
39212
39196
39176
39164
39150
39136
39113
39102
39088
39065
39057
39036
39028
39000
38984
38968
38948
38920
38910
38892
38880
38856
38836
38820
38800
38795
38772
38752
38727
38717
38702
38677
38664
38646
38630
38620
38599
38584
38572
38550
38543
38528
38518
38504
38476
38480
38464
38450
38436
38426
38407
38407
38390
38383
38375
38360
38364
38344
38340
38337
38332
38328
38320
38311
38305
38292
38288
38284
38282
38279
38271
38270
38268
38273
38269
38266
38252
38260
38260
38264
38260
38260
38256
38257
38257
38253
38266
38261
38270
38277
38272
38268
38268
38280
38285
38282
38282
38288
38297
38304
38310
38318
38321
38328
38340
38342
38348
38360
38368
38380
38394
38400
38407
38406
38416
38442
38438
38460
38460
38468
38484
38492
38500
38500
38512
38529
38520
38540
38548
38550
38556
38564
38574
38584
38596
38606
38612
38631
38649
38656
38668
38688
38690
38720
38724
38729
38741
38772
38780
38793
38792
38817
38829
38836
38856
38870
38880
38900
38905
38916
38928
38948
38940
38956
38976
38965
38983
38996
38984
39004
39001
39000
39012
39012
39004
38996
39008
39006
39004
39004
38999
38996
38992
38984
38980
38972
38962
38952
38950
38940
38928
38912
38902
38890
38890
38873
38868
38852
38850
38840
38828
38814
38808
38789
38786
38772
38772
38756
38751
38736
38725
38716
38712
38696
38688
38678
38672
38677
38660
38660
38641
38648
38636
38638
38637
38626
38624
38628
38624
38622
38628
38633
38620
38628
38628
38626
38632
38639
38655
38652
38656
38660
38670
38680
38689
38692
38688
38698
38716
38724
38724
38736
38744
38760
38772
38776
38778
38801
38796
38809
38812
38828
38824
38833
38844
38860
38856
38868
38874
38874
38890
38880
38896
38892
38896
38900
38893
38908
38912
38896
38900
38900
38908
38904
38893
38894
38896
38897
38896
38880
38892
38888
38880
38878
38876
38876
38864
38862
38864
38862
38856
38856
38848
38860
38848
38848
38840
38852
38845
38846
38832
38836
38828
38830
38820
38816
38816
38817
38808
38814
38812
38804
38800
38796
38788
38790
38784
38784
38780
38776
38780
38781
38764
38772
38772
38772
38774
38760
38772
38765
38772
38772
38768
38780
38777
38781
38773
38782
38781
38780
38780
38788
38799
38788
38788
38784
38792
38808
38799
38800
38804
38804
38806
38807
38813
38810
38816
38816
38820
38812
38820
38828
38828
38828
38832
38832
38848
38844
38844
38852
38861
38857
38869
38870
38876
38886
38884
38892
38892
38892
38904
38912
38916
38927
38936
38940
38938
38949
38964
38964
38968
38980
38984
38996
39002
39008
39018
39020
39034
39036
39040
39048
39054
39060
39078
39092
39092
39112
39109
39133
39133
39141
39164
39164
39172
39180
39207
39197
39222
39229
39244
39258
39268
39288
39300
39300
39332
39342
39348
39364
39380
39392
39404
39425
39444
39456
39456
39472
39496
39516
39512
39533
39536
39560
39577
39577
39596
39612
39628
39640
39646
39658
39668
39678
39700
39704
39717
39734
39740
39748
39760
39766
39780
39783
39799
39823
39815
39836
39844
39848
39856
39874
39872
39868
39888
39896
39905
39912
39918
39930
39940
39943
39948
39964
39968
39982
39972
39994
40004
40006
40020
40020
40026
40036
40049
40062
40081
40084
40096
40108
40120
40132
40130
40148
40164
40185
40194
40200
40216
40234
40264
40266
40288
40288
40311
40332
40332
40356
40376
40392
40420
40420
40444
40466
40484
40504
40526
40549
40557
40573
40608
40612
40641
40664
40688
40702
40724
40748
40764
40776
40799
40812
40840
40856
40876
40885
40904
40920
40940
40938
40965
40976
40978
40996
40996
41010
41019
41024
41016
41018
41028
41026
41024
41024
41025
41018
41009
41008
40997
40996
40992
40984
40981
40964
40958
40958
40932
40920
40914
40896
40884
40876
40853
40856
40828
40822
40812
40801
40786
40780
40757
40752
40736
40722
40716
40702
40678
40670
40663
40640
40626
40628
40614
40604
40588
40582
40572
40556
40544
40533
40520
40501
40494
40481
40462
40448
40436
40428
40416
40404
40386
40372
40352
40337
40320
40304
40295
40276
40270
40248
40238
40220
40196
40188
40181
40153
40132
40128
40105
40084
40068
40056
40036
40024
40004
39996
39972
39964
39940
39928
39908
39888
39884
39867
39848
39828
39815
39806
39792
39780
39764
39750
39742
39724
39718
39708
39690
39688
39680
39664
39652
39636
39634
39616
39616
39608
39604
39596
39592
39584
39580
39568
39568
39564
39551
39552
39549
39556
39544
39544
39550
39545
39540
39532
39532
39532
39532
39525
39528
39520
39520
39528
39514
39516
39508
39504
39502
39500
39490
39480
39477
39478
39468
39470
39452
39449
39444
39425
39412
39401
39396
39389
39373
39372
39360
39336
39333
39325
39288
39282
39266
39252
39244
39228
39198
39175
39156
39126
39113
39084
39074
39036
39022
39001
38972
38954
38932
38906
38884
38869
38836
38812
38788
38770
38745
38721
38684
38677
38641
38615
38592
38576
38548
38524
38500
38471
38448
38425
38396
38375
38356
38338
38320
38288
38274
38244
38231
38208
38188
38180
38147
38132
38108
38084
38068
38052
38041
38027
38001
37988
37984
37964
37950
37932
37930
37916
37908
37888
37892
37873
37864
37860
37852
37836
37832
37820
37806
37804
37792
37774
37760
37760
37748
37728
37724
37716
37708
37696
37672
37660
37652
37640
37628
37620
37596
37576
37580
37565
37540
37540
37517
37509
37500
37480
37468
37444
37438
37428
37418
37408
37391
37379
37372
37348
37348
37329
37316
37298
37297
37289
37276
37263
37246
37246
37236
37215
37208
37208
37192
37188
37172
37161
37168
37148
37132
37125
37120
37108
37096
37092
37078
37068
37054
37052
37040
37024
37028
37012
37004
36996
36988
36972
36958
36962
36952
36929
36932
36928
36908
36908
36897
36888
36888
36870
36868
36850
36840
36840
36832
36821
36812
36805
36796
36796
36768
36760
36756
36748
36738
36718
36717
36705
36694
36677
36656
36652
36646
36626
36612
36596
36581
36582
36572
36550
36534
36524
36504
36502
36478
36464
36454
36436
36420
36404
36394
36372
36360
36344
36324
36316
36297
36282
36269
36256
36234
36232
36215
36196
36185
36167
36160
36148
36128
36120
36089
36088
36077
36052
36050
36032
36012
36014
35985
35980
35964
35958
35952
35932
35924
35908
35902
35894
35880
35868
35857
35848
35846
35828
35826
35812
35804
35800
35796
35792
35772
35776
35768
35760
35756
35749
35748
35724
35718
35716
35708
35699
35684
35684
35676
35672
35652
35648
35636
35630
35620
35613
35604
35588
35562
35559
35545
35540
35532
35510
35496
35497
35477
35460
35436
35425
35417
35394
35384
35362
35358
35336
35316
35310
35284
35281
35257
35246
35236
35216
35196
35186
35166
35162
35136
35125
35113
35104
35092
35066
35060
35040
35041
35021
35012
34996
34988
34978
34970
34960
34949
34946
34932
34916
34911
34910
34900
34893
34881
34873
34868
34852
34852
34849
34840
34822
34818
34810
34806
34800
34796
34784
34778
34762
34764
34756
34748
34742
34724
34719
34716
34702
34702
34692
34680
34676
34661
34654
34646
34630
34627
34621
34612
34594
34585
34576
34572
34564
34544
34544
34526
34516
34502
34492
34484
34464
34468
34438
34428
34415
34398
34390
34369
34360
34344
34321
34308
34300
34284
34268
34252
34233
34220
34202
34181
34174
34162
34144
34128
34117
34104
34090
34080
34068
34056
34049
34024
34017
34007
33996
33986
33986
33972
33959
33956
33940
33932
33916
33908
33900
33893
33884
33873
33859
33863
33848
33829
33829
33812
33805
33796
33784
33775
33764
33744
33733
33724
33726
33700
33690
33672
33662
33650
33628
33620
33612
33582
33572
33552
33540
33520
33508
33496
33478
33453
33452
33428
33412
33400
33380
33369
33357
33346
33324
33312
33303
33286
33269
33262
33252
33236
33232
33219
33208
33196
33180
33174
33174
33165
33150
33136
33132
33112
33114
33098
33090
33079
33064
33056
33050
33034
33018
33006
32994
32973
32965
32940
32932
32906
32895
32881
32868
32839
32822
32804
32784
32769
32745
32734
32700
32686
32668
32647
32620
32608
32589
32566
32540
32522
32492
32480
32450
32426
32408
32380
32357
32334
32310
32288
32268
32244
32220
32197
32180
32152
32132
32116
32090
32068
32040
32028
32008
31984
31964
31948
31924
31914
31893
31872
31853
31832
31828
31800
31782
31765
31740
31725
31701
31682
31668
31641
31620
31604
31584
31556
31537
31526
31496
31473
31448
31436
31417
31396
31365
31349
31328
31316
31288
31268
31240
31222
31196
31178
31152
31140
31100
31087
31060
31040
31024
30996
30968
30946
30920
30894
30868
30852
30820
30800
30780
30756
30732
30700
30676
30663
30628
30607
30580
30556
30536
30508
30480
30468
30433
30416
30404
30372
30348
30330
30309
30276
30264
30232
30216
30188
30172
30148
30128
30108
30076
30058
30037
30016
30001
29976
29952
29932
29910
29888
29868
29849
29830
29812
29788
29775
29753
29729
29714
29692
29681
29662
29640
29624
29602
29585
29584
29568
29540
29535
29521
29506
29492
29476
29462
29446
29442
29428
29417
29417
29404
29384
29381
29380
29362
29366
29348
29342
29344
29340
29322
29325
29324
29312
29308
29304
29296
29296
29296
29292
29294
29287
29286
29294
29284
29292
29289
29290
29280
29293
29294
29296
29292
29300
29293
29292
29297
29288
29296
29288
29287
29281
29277
29279
29270
29273
29260
29260
29252
29236
29222
29220
29217
29200
29193
29184
29168
29152
29142
29132
29117
29097
29092
29067
29055
29032
29020
29006
28988
28969
28957
28936
28916
28904
28882
28866
28836
28824
28804
28780
28760
28741
28719
28698
28680
28663
28636
28616
28592
28568
28550
28532
28504
28482
28464
28437
28417
28400
28380
28366
28338
28328
28316
28304
28277
28255
28245
28230
28225
28206
28190
28180
28172
28157
28144
28136
28122
28116
28112
28101
28096
28092
28077
28082
28070
28068
28066
28067
28052
28052
28045
28052
28044
28046
28046
28044
28040
28046
28046
28052
28048
28065
28064
28064
28072
28072
28092
28100
28097
28116
28125
28132
28143
28156
28164
28174
28186
28200
28207
28214
28228
28250
28254
28261
28280
28286
28308
28312
28324
28340
28342
28352
28369
28377
28381
28396
28406
28412
28413
28440
28440
28452
28460
28462
28472
28476
28480
28496
28504
28514
28509
28516
28516
28525
28529
28532
28540
28536
28544
28544
28536
28546
28538
28550
28544
28548
28548
28544
28542
28544
28540
28545
28539
28532
28535
28538
28537
28545
28534
28540
28542
28551
28540
28548
28552
28548
28552
28560
28564
28576
28580
28588
28593
28608
28611
28617
28625
28645
28653
28660
28673
28684
28696
28716
28728
28734
28748
28760
28782
28804
28812
28828
28848
28864
28878
28889
28915
28932
28944
28962
28980
29004
29020
29034
29052
29068
29084
29108
29112
29129
29148
29157
29190
29192
29208
29220
29247
29249
29270
29294
29302
29322
29332
29350
29370
29388
29400
29416
29436
29456
29471
29482
29508
29524
29548
29566
29589
29586
29620
29644
29662
29673
29698
29720
29745
29765
29792
29801
29836
29854
29877
29896
29924
29948
29981
29992
30020
30041
30068
30096
30120
30142
30170
30192
30216
30244
30264
30289
30304
30329
30352
30376
30400
30420
30434
30460
30479
30492
30510
30528
30540
30560
30564
30588
30595
30612
30620
30636
30641
30653
30660
30663
30671
30676
30681
30680
30686
30700
30700
30712
30720
30725
30732
30744
30754
30756
30768
30780
30786
30807
30808
30828
30844
30858
30880
30889
30900
30930
30944
30964
30992
31005
31028
31052
31082
31106
31129
31161
31191
31216
31248
31280
31316
31344
31372
31412
31448
31479
31530
31556
31591
31636
31676
31706
31744
31788
31833
31874
31904
31941
31982
32028
32053
32088
32128
32168
32202
32230
32268
32308
32336
32375
32401
32429
32456
32484
32520
32546
32573
32592
32629
32640
32668
32684
32712
32732
32753
32766
32788
32813
32836
32842
32856
32884
32900
32916
32933
32950
32960
32976
32992
33013
33036
33044
33064
33071
33084
33104
33122
33134
33156
33166
33180
33189
33204
33224
33230
33241
33252
33262
33274
33282
33300
33296
33308
33316
33317
33313
33327
33336
33328
33341
33336
33348
33350
33348
33352
33348
33357
33356
33362
33359
33357
33364
33365
33364
33367
33367
33367
33364
33368
33368
33361
33365
33366
33360
33372
33372
33358
33354
33352
33352
33348
33346
33354
33349
33352
33348
33348
33356
33348
33340
33332
33336
33332
33321
33332
33324
33314
33312
33314
33308
33294
33288
33284
33274
33261
33252
33246
33238
33225
33216
33208
33188
33189
33178
33168
33160
33148
33136
33122
33117
33116
33088
33086
33076
33064
33058
33048
33040
33028
33020
33015
33000
32998
32984
32974
32968
32956
32944
32931
32919
32912
32900
32886
32884
32865
32860
32840
32832
32808
32796
32785
32766
32766
32740
32731
32720
32704
32696
32680
32678
32668
32648
32632
32628
32616
32608
32604
32596
32572
32572
32562
32560
32561
32548
32536
32532
32532
32514
32500
32504
32502
32490
32474
32464
32457
32452
32450
32444
32436
32418
32416
32400
32394
32388
32380
32372
32365
32364
32350
32354
32338
32344
32326
32328
32326
32321
32320
32324
32313
32314
32313
32312
32312
32306
32310
32308
32315
32312
32305
32309
32308
32308
32308
32306
32312
32304
32312
32318
32316
32316
32328
32320
32328
32325
32338
32332
32342
32348
32353
32348
32358
32368
32364
32369
32373
32372
32384
32388
32389
32388
32388
32402
32397
32404
32404
32409
32407
32396
32400
32400
32406
32404
32388
32394
32405
32388
32388
32381
32388
32388
32388
32382
32378
32384
32376
32382
32370
32384
32374
32385
32377
32381
32381
32378
32384
32384
32388
32399
32396
32406
32406
32416
32425
32448
32444
32460
32474
32484
32506
32516
32536
32552
32567
32592
32612
32630
32656
32674
32693
32713
32745
32765
32793
32812
32832
32853
32879
32912
32924
32948
32974
33004
33020
33053
33076
33096
33116
33140
33164
33188
33204
33236
33266
33280
33304
33324
33338
33376
33390
33414
33436
33452
33480
33502
33511
33544
33561
33572
33598
33620
33632
33660
33664
33684
33704
33724
33728
33744
33764
33776
33788
33808
33809
33822
33833
33852
33856
33868
33878
33888
33898
33909
33910
33924
33928
33940
33949
33952
33964
33968
33968
33983
33976
33989
33989
33990
33996
34004
34000
34010
34018
34028
34020
34028
34023
34030
34032
34038
34038
34036
34038
34040
34036
34036
34032
34040
34034
34028
34032
34030
34026
34025
34012
34014
34017
34015
34006
34012
34000
34000
33999
33988
33984
33994
33982
33980
33974
33972
33970
33964
33957
33962
33956
33952
33948
33956
33946
33947
33948
33935
33940
33932
33938
33940
33940
33933
33936
33932
33936
33936
33942
33948
33944
33936
33948
33940
33944
33940
33944
33948
33943
33940
33948
33946
33953
33948
33949
33940
33932
33946
33940
33930
33932
33920
33918
33908
33904
33897
33882
33871
33871
33860
33848
33842
33844
33824
33816
33806
33784
33769
33756
33753
33732
33713
33704
33678
33669
33658
33633
33617
33604
33594
33570
33542
33530
33508
33492
33469
33456
33429
33414
33390
33374
33356
33335
33321
33300
33278
33261
33236
33236
33212
33196
33176
33164
33140
33138
33120
33104
33094
33080
33068
33060
33044
33032
33028
33008
33004
32996
32984
32972
32968
32957
32950
32945
32948
32934
32930
32928
32924
32916
32910
32899
32905
32909
32901
32892
32900
32902
32900
32900
32894
32888
32900
32894
32886
32888
32884
32884
32893
32879
32886
32888
32890
32892
32884
32886
32888
32894
32884
32892
32884
32896
32889
32894
32897
32901
32908
32916
32909
32925
32916
32914
32928
32932
32940
32933
32944
32944
32944
32956
32961
32948
32956
32964
32972
32970
32964
32958
32956
32966
32959
32958
32960
32952
32950
32938
32940
32932
32928
32924
32912
32905
32896
32892
32876
32877
32862
32858
32846
32840
32826
32820
32812
32804
32800
32780
32776
32759
32759
32750
32737
32726
32720
32708
32696
32695
32685
32680
32670
32666
32672
32664
32652
32646
32640
32640
32640
32629
32629
32628
32630
32620
32617
32620
32618
32616
32616
32609
32610
32612
32614
32614
32604
32607
32612
32608
32600
32604
32604
32604
32602
32590
32592
32609
32588
32584
32585
32596
32590
32588
32594
32588
32596
32590
32588
32586
32590
32580
32588
32588
32589
32592
32580
32594
32586
32580
32588
32580
32585
32596
32590
32590
32589
32592
32600
32594
32597
32600
32590
32585
32592
32586
32590
32586
32584
32584
32574
32568
32562
32564
32546
32554
32549
32537
32521
32524
32504
32500
32488
32480
32476
32458
32457
32448
32428
32422
32410
32391
32382
32383
32364
32353
32340
32332
32321
32300
32290
32284
32265
32258
32244
32228
32212
32200
32188
32166
32156
32142
32132
32118
32100
32084
32068
32058
32044
32020
32014
31992
31983
31964
31940
31930
31913
31901
31884
31876
31856
31845
31831
31815
31800
31800
31772
31766
31760
31738
31732
31720
31709
31701
31684
31682
31670
31656
31644
31628
31630
31616
31612
31598
31584
31574
31573
31552
31542
31530
31530
31518
31505
31500
31489
31476
31468
31466
31462
31447
31441
31446
31429
31428
31420
31412
31420
31412
31404
31405
31392
31389
31388
31392
31388
31384
31377
31377
31381
31376
31374
31384
31373
31373
31365
31366
31376
31375
31360
31369
31368
31370
31372
31378
31370
31376
31380
31377
31380
31384
31374
31386
31372
31373
31377
31372
31372
31366
31372
31364
31360
31364
31359
31356
31356
31340
31349
31348
31340
31321
31325
31321
31313
31309
31298
31292
31285
31280
31274
31268
31262
31252
31252
31244
31239
31228
31216
31220
31196
31196
31188
31177
31168
31156
31141
31137
31120
31108
31092
31085
31062
31052
31032
31024
31009
30997
30974
30956
30938
30920
30905
30892
30880
30866
30852
30836
30820
30812
30801
30786
30776
30762
30756
30736
30729
30722
30717
30705
30696
30690
30684
30676
30664
30660
30660
30651
30644
30622
30636
30612
30617
30596
30604
30584
30584
30564
30564
30564
30549
30537
30537
30530
30514
30512
30508
30500
30492
30492
30484
30488
30486
30484
30478
30468
30468
30461
30472
30470
30472
30475
30480
30479
30486
30492
30488
30496
30498
30500
30516
30520
30536
30532
30543
30546
30552
30558
30570
30568
30576
30584
30584
30596
30594
30610
30612
30618
30621
30620
30626
30631
30628
30644
30644
30642
30652
30660
30660
30654
30658
30660
30664
30666
30662
30668
30672
30676
30673
30669
30668
30677
30670
30673
30672
30672
30676
30680
30673
30674
30668
30660
30672
30670
30655
30660
30661
30658
30665
30656
30652
30646
30649
30644
30641
30630
30636
30633
30613
30620
30612
30606
30602
30589
30590
30588
30580
30580
30566
30555
30548
30542
30540
30522
30510
30504
30496
30482
30480
30464
30451
30440
30424
30420
30398
30392
30370
30364
30348
30334
30326
30302
30288
30274
30260
30244
30229
30214
30192
30176
30164
30153
30127
30113
30104
30082
30056
30044
30022
30016
29984
29970
29951
29924
29905
29894
29868
29853
29834
29816
29790
29773
29756
29740
29719
29697
29684
29664
29648
29636
29608
29604
29580
29560
29553
29536
29524
29508
29492
29473
29465
29450
29440
29420
29418
29401
29388
29376
29374
29362
29349
29340
29324
29319
29303
29306
29286
29292
29281
29281
29272
29262
29249
29245
29244
29226
29233
29226
29225
29206
29212
29200
29200
29192
29188
29180
29172
29172
29164
29164
29160
29153
29146
29142
29140
29126
29120
29116
29111
29112
29102
29093
29092
29080
29084
29066
29057
29042
29052
29038
29031
29016
29006
29004
29000
28981
28988
28972
28965
28960
28946
28938
28936
28926
28916
28913
28896
28896
28887
28880
28877
28860
28860
28850
28840
28834
28816
28817
28807
28800
28788
28775
28768
28756
28745
28730
28726
28714
28708
28696
28684
28674
28664
28652
28644
28628
28612
28608
28598
28580
28564
28552
28538
28520
28506
28500
28481
28466
28452
28443
28436
28412
28401
28383
28370
28350
28348
28332
28325
28305
28300
28292
28282
28268
28260
28252
28238
28240
28224
28226
28220
28208
28200
28201
28200
28188
28184
28185
28183
28177
28173
28172
28172
28172
28184
28186
28178
28181
28192
28192
28202
28200
28212
28220
28220
28232
28240
28246
28248
28258
28272
28282
28295
28308
28320
28328
28340
28356
28360
28374
28388
28404
28410
28426
28428
28448
28464
28476
28480
28490
28500
28514
28524
28540
28549
28560
28568
28573
28590
28605
28608
28620
28636
28642
28655
28658
28664
28676
28680
28689
28697
28702
28708
28708
28720
28719
28726
28724
28735
28744
28736
28740
28740
28740
28748
28734
28744
28744
28736
28732
28734
28737
28728
28725
28716
28724
28716
28704
28704
28696
28693
28684
28676
28678
28673
28666
28656
28650
28648
28640
28636
28624
28628
28628
28620
28604
28601
28598
28584
28584
28582
28576
28574
28564
28564
28553
28548
28540
28536
28530
28524
28522
28518
28508
28511
28500
28496
28494
28488
28484
28486
28480
28478
28474
28470
28456
28465
28456
28454
28450
28436
28440
28438
28428
28424
28418
28412
28404
28408
28391
28397
28380
28368
28368
28356
28354
28340
28335
28334
28328
28314
28302
28296
28285
28284
28274
28276
28260
28260
28246
28244
28226
28222
28209
28204
28200
28197
28186
28168
28162
28154
28138
28134
28130
28114
28098
28092
28078
28068
28060
28044
28032
28028
28014
28004
27992
27972
27969
27960
27946
27936
27922
27912
27892
27884
27874
27862
27848
27830
27824
27808
27796
27781
27776
27753
27742
27728
27708
27703
27687
27678
27668
27652
27640
27628
27617
27604
27584
27572
27566
27546
27534
27524
27508
27496
27489
27468
27452
27448
27434
27413
27404
27388
27380
27373
27346
27332
27330
27312
27292
27292
27268
27248
27236
27228
27209
27190
27168
27162
27144
27121
27096
27086
27068
27044
27028
26999
26990
26964
26940
26918
26889
26864
26848
26816
26792
26768
26742
26716
26688
26656
26628
26596
26566
26544
26516
26485
26461
26422
26400
26380
26340
26310
26281
26250
26217
26192
26164
26140
26104
26074
26044
26024
25988
25960
25928
25896
25864
25836
25810
25775
25746
25712
25676
25659
25614
25594
25554
25524
25500
25460
25426
25396
25358
25328
25298
25256
25228
25192
25156
25126
25086
25058
25015
24984
24950
24912
24872
24841
24804
24768
24729
24684
24649
24616
24578
24542
24504
24462
24424
24392
24348
24314
24266
24232
24199
24152
24120
24084
24046
24004
23972
23940
23904
23868
23836
23788
23766
23736
23696
23664
23632
23597
23575
23546
23516
23482
23462
23436
23405
23382
23362
23330
23310
23285
23258
23236
23212
23192
23172
23143
23128
23102
23080
23062
23046
23020
23006
22982
22968
22942
22924
22904
22892
22864
22853
22828
22810
22796
22781
22765
22740
22728
22711
22697
22684
22663
22641
22628
22613
22600
22583
22564
22553
22536
22513
22501
22490
22467
22453
22437
22426
22413
22394
22376
22362
22346
22338
22320
22302
22286
22277
22256
22240
22225
22219
22196
22181
22169
22154
22132
22120
22108
22095
22080
22058
22048
22033
22010
21990
21969
21960
21950
21925
21918
21892
21880
21861
21838
21830
21812
21804
21777
21762
21750
21732
21720
21702
21688
21670
21658
21650
21630
21624
21604
21584
21569
21560
21542
21534
21524
21497
21482
21472
21457
21442
21430
21410
21396
21380
21366
21352
21333
21320
21306
21284
21273
21249
21236
21220
21201
21174
21157
21143
21116
21101
21080
21060
21040
21020
21000
20977
20960
20944
20913
20892
20868
20844
20829
20808
20782
20766
20738
20714
20697
20678
20652
20628
20604
20580
20554
20532
20512
20488
20456
20441
20412
20396
20366
20340
20322
20292
20268
20245
20218
20202
20178
20146
20132
20111
20080
20063
20036
20023
20000
19969
19948
19930
19908
19892
19865
19842
19813
19801
19792
19765
19742
19720
19710
19681
19666
19647
19628
19604
19592
19567
19552
19530
19509
19500
19476
19454
19438
19427
19408
19383
19374
19360
19348
19324
19312
19296
19280
19266
19252
19232
19208
19196
19181
19164
19143
19130
19116
19094
19082
19062
19044
19028
19010
18980
18967
18937
18921
18890
18884
18860
18836
18815
18792
18764
18746
18722
18702
18681
18659
18634
18612
18584
18556
18540
18517
18490
18470
18446
18416
18401
18377
18352
18332
18317
18285
18272
18244
18232
18210
18191
18167
18149
18137
18112
18094
18072
18063
18044
18034
18012
18004
17988
17982
17964
17959
17944
17940
17926
17920
17918
17900
17895
17894
17889
17884
17869
17876
17872
17876
17868
17866
17856
17860
17856
17856
17862
17860
17850
17852
17858
17858
17854
17850
17858
17853
17846
17846
17854
17852
17844
17840
17845
17844
17840
17836
17841
17839
17848
17836
17833
17829
17827
17830
17828
17822
17826
17820
17816
17815
17812
17805
17804
17802
17804
17796
17790
17792
17790
17785
17773
17776
17772
17762
17756
17741
17742
17737
17730
17722
17712
17708
17704
17699
17683
17672
17665
17672
17656
17656
17648
17634
17636
17634
17622
17616
17616
17612
17597
17586
17592
17589
17588
17576
17575
17572
17566
17566
17561
17556
17557
17561
17549
17548
17554
17546
17546
17541
17544
17548
17541
17541
17534
17533
17533
17530
17538
17532
17528
17529
17526
17526
17531
17529
17528
17530
17529
17538
17534
17540
17532
17540
17550
17551
17548
17560
17564
17568
17573
17578
17578
17580
17594
17593
17597
17603
17614
17616
17628
17628
17628
17634
17636
17648
17650
17659
17662
17670
17680
17682
17684
17698
17702
17697
17708
17711
17710
17716
17724
17724
17724
17728
17730
17732
17732
17744
17740
17736
17732
17745
17745
17744
17743
17749
17744
17740
17740
17734
17730
17740
17732
17727
17728
17728
17724
17722
17724
17728
17724
17729
17732
17730
17728
17730
17730
17741
17740
17744
17744
17748
17749
17749
17772
17766
17777
17783
17792
17797
17808
17814
17818
17828
17833
17836
17849
17860
17870
17876
17887
17892
17902
17908
17920
17925
17940
17947
17955
17962
17968
17980
17985
17992
18002
18002
18016
18020
18032
18034
18042
18044
18053
18070
18055
18064
18066
18085
18088
18095
18101
18108
18112
18120
18122
18124
18142
18141
18152
18161
18171
18180
18196
18200
18205
18213
18224
18231
18245
18262
18269
18276
18292
18302
18312
18328
18326
18351
18354
18372
18376
18380
18400
18412
18420
18427
18434
18450
18462
18468
18482
18492
18500
18522
18532
18540
18546
18574
18575
18594
18597
18616
18633
18640
18656
18668
18680
18698
18709
18720
18734
18750
18764
18786
18795
18812
18826
18833
18853
18866
18884
18890
18906
18924
18944
18950
18969
18980
19004
19014
19024
19040
19052
19076
19087
19102
19111
19132
19141
19156
19162
19177
19187
19198
19214
19218
19236
19238
19249
19254
19266
19272
19278
19293
19308
19306
19306
19309
19324
19331
19333
19340
19344
19352
19359
19364
19366
19366
19372
19376
19377
19384
19386
19392
19396
19394
19392
19400
19410
19404
19401
19401
19415
19414
19417
19416
19420
19416
19419
19418
19414
19424
19421
19424
19417
19414
19427
19420
19420
19416
19418
19416
19414
19420
19416
19414
19414
19416
19417
19414
19408
19405
19408
19409
19408
19407
19400
19394
19396
19398
19395
19390
19394
19392
19384
19372
19376
19380
19370
19372
19372
19368
19368
19364
19360
19361
19353
19356
19350
19340
19342
19333
19336
19326
19332
19327
19316
19312
19308
19306
19300
19292
19293
19284
19272
19270
19270
19261
19261
19254
19246
19245
19231
19238
19224
19220
19212
19216
19208
19202
19203
19196
19185
19182
19180
19172
19168
19160
19152
19146
19144
19137
19130
19122
19120
19110
19108
19109
19104
19097
19098
19092
19088
19083
19076
19076
19077
19079
19077
19074
19077
19077
19076
19074
19074
19077
19080
19076
19082
19086
19084
19091
19092
19093
19094
19100
19101
19096
19108
19100
19104
19110
19103
19108
19108
19108
19101
19108
19105
19109
19103
19101
19102
19095
19095
19086
19086
19083
19084
19072
19061
19061
19052
19044
19042
19028
19022
19018
19007
19008
18993
18984
18976
18966
18957
18948
18940
18924
18917
18904
18892
18882
18869
18853
18844
18834
18825
18810
18793
18776
18766
18750
18740
18718
18698
18689
18672
18654
18639
18620
18604
18598
18572
18560
18542
18521
18504
18490
18479
18462
18436
18424
18406
18392
18380
18360
18345
18332
18314
18301
18288
18268
18257
18236
18225
18220
18200
18186
18176
18160
18158
18137
18136
18124
18114
18104
18090
18084
18076
18076
18063
18063
18060
18054
18052
18052
18052
18047
18044
18041
18047
18047
18052
18052
18056
18057
18064
18064
18064
18076
18080
18087
18094
18097
18113
18113
18116
18129
18139
18146
18158
18164
18177
18186
18200
18201
18221
18229
18245
18249
18268
18277
18282
18298
18312
18322
18330
18341
18352
18364
18372
18379
18393
18402
18405
18413
18423
18428
18432
18439
18440
18444
18458
18456
18455
18460
18465
18467
18464
18472
18476
18472
18480
18488
18482
18480
18478
18477
18481
18479
18486
18474
18479
18470
18474
18469
18464
18460
18460
18454
18449
18441
18430
18428
18430
18424
18414
18403
18400
18398
18388
18378
18372
18376
18365
18364
18361
18358
18353
18341
18340
18347
18340
18332
18336
18331
18332
18330
18322
18324
18320
18318
18319
18318
18316
18308
18311
18304
18314
18306
18302
18304
18306
18303
18308
18304
18306
18296
18302
18304
18300
18305
18305
18308
18306
18308
18312
18315
18317
18326
18326
18334
18330
18336
18342
18353
18360
18356
18358
18370
18381
18385
18396
18396
18405
18410
18420
18444
18442
18452
18458
18468
18472
18484
18489
18502
18518
18524
18526
18538
18542
18558
18562
18566
18584
18588
18598
18606
18618
18628
18634
18630
18643
18657
18656
18672
18676
18689
18700
18701
18711
18718
18721
18725
18736
18743
18752
18754
18756
18772
18776
18780
18793
18794
18801
18816
18815
18818
18833
18834
18839
18853
18860
18858
18860
18879
18878
18880
18884
18894
18902
18908
18910
18916
18921
18928
18940
18940
18944
18944
18960
18960
18961
18961
18970
18975
18984
18981
18989
18988
18998
19002
19010
19012
19016
19021
19020
19029
19036
19037
19038
19044
19052
19063
19060
19070
19068
19077
19084
19078
19083
19096
19094
19096
19106
19108
19114
19114
19122
19125
19126
19134
19136
19144
19145
19157
19157
19158
19172
19166
19170
19174
19177
19180
19177
19189
19185
19193
19188
19194
19194
19197
19189
19196
19205
19205
19198
19204
19206
19213
19212
19217
19218
19214
19222
19231
19236
19235
19236
19242
19252
19249
19248
19266
19266
19270
19276
19285
19289
19297
19296
19301
19311
19324
19330
19330
19338
19356
19362
19366
19376
19380
19392
19406
19420
19428
19440
19456
19465
19477
19493
19509
19521
19536
19545
19558
19570
19584
19599
19621
19628
19643
19660
19668
19684
19700
19718
19727
19744
19753
19768
19781
19788
19808
19822
19834
19846
19857
19873
19886
19896
19910
19918
19929
19940
19951
19972
19981
19990
20004
20010
20021
20032
20044
20056
20068
20079
20087
20100
20101
20118
20118
20138
20138
20153
20168
20180
20190
20188
20200
20210
20216
20219
20232
20236
20254
20260
20264
20276
20280
20288
20296
20306
20311
20318
20333
20344
20348
20358
20369
20374
20385
20388
20401
20416
20417
20428
20428
20436
20445
20452
20466
20468
20473
20478
20480
20488
20494
20500
20511
20516
20524
20526
20532
20536
20544
20550
20560
20564
20572
20574
20580
20588
20601
20604
20618
20626
20632
20646
20654
20657
20672
20678
20686
20702
20712
20724
20738
20752
20762
20767
20783
20798
20805
20818
20834
20840
20849
20862
20880
20888
20904
20919
20918
20936
20946
20958
20964
20976
20990
21006
21018
21021
21031
21041
21050
21068
21068
21078
21087
21092
21109
21117
21122
21129
21134
21140
21152
21156
21156
21172
21166
21177
21183
21188
21188
21200
21207
21210
21206
21212
21210
21212
21217
21220
21222
21224
21228
21236
21228
21236
21232
21236
21240
21234
21236
21237
21236
21238
21236
21240
21236
21236
21237
21240
21234
21236
21237
21238
21230
21226
21232
21232
21234
21238
21236
21236
21244
21238
21244
21240
21244
21249
21253
21256
21258
21259
21266
21264
21266
21276
21272
21285
21276
21290
21289
21292
21297
21301
21306
21310
21310
21317
21316
21324
21332
21344
21342
21350
21358
21367
21373
21380
21385
21388
21404
21416
21426
21440
21444
21449
21464
21474
21489
21497
21514
21520
21525
21540
21550
21554
21568
21576
21583
21588
21598
21604
21601
21606
21612
21621
21624
21632
21626
21629
21636
21636
21640
21638
21640
21644
21644
21649
21644
21645
21644
21652
21648
21650
21648
21661
21660
21664
21668
21665
21672
21668
21676
21672
21676
21670
21680
21678
21688
21684
21686
21694
21690
21701
21701
21697
21697
21707
21704
21712
21714
21712
21720
21712
21725
21720
21724
21729
21722
21720
21724
21722
21722
21720
21724
21724
21724
21722
21720
21722
21727
21716
21713
21721
21714
21718
21717
21710
21705
21712
21712
21714
21716
21720
21718
21712
21718
21717
21722
21733
21732
21732
21736
21742
21743
21752
21756
21761
21772
21784
21792
21800
21800
21809
21819
21824
21836
21844
21860
21864
21871
21872
21889
21894
21904
21914
21916
21922
21932
21946
21957
21960
21974
21984
21992
21997
22014
22024
22042
22048
22056
22067
22074
22087
22100
22113
22116
22135
22144
22156
22161
22186
22196
22204
22219
22228
22244
22253
22260
22270
22279
22294
22304
22316
22324
22332
22342
22348
22358
22366
22376
22376
22389
22397
22400
22400
22412
22414
22424
22428
22432
22436
22436
22446
22445
22447
22449
22464
22465
22461
22472
22472
22476
22488
22488
22496
22500
22501
22508
22512
22519
22520
22526
22533
22542
22544
22552
22564
22572
22568
22578
22581
22588
22601
22604
22608
22606
22620
22628
22625
22637
22646
22644
22654
22660
22668
22682
22687
22693
22700
22708
22716
22716
22736
22735
22744
22748
22760
22773
22778
22793
22796
22812
22812
22816
22826
22836
22852
22860
22872
22882
22886
22900
22909
22922
22929
22946
22948
22958
22976
22988
22998
23004
23020
23032
23040
23049
23070
23072
23082
23088
23106
23116
23126
23134
23144
23160
23173
23175
23188
23196
23210
23212
23221
23229
23240
23244
23256
23262
23278
23288
23296
23306
23312
23326
23330
23340
23342
23352
23365
23370
23380
23385
23396
23406
23417
23420
23437
23439
23444
23457
23464
23470
23477
23484
23496
23508
23510
23520
23534
23540
23552
23557
23566
23576
23584
23591
23597
23607
23615
23624
23632
23636
23654
23664
23668
23677
23684
23700
23708
23714
23725
23732
23742
23753
23754
23764
23777
23784
23788
23796
23799
23816
23818
23828
23832
23846
23858
23860
23863
23876
23879
23888
23900
23905
23916
23919
23929
23944
23948
23957
23973
23977
23982
23992
23996
24024
24020
24034
24036
24053
24062
24072
24080
24093
24104
24112
24120
24132
24148
24153
24160
24176
24180
24188
24200
24210
24216
24223
24236
24242
24250
24260
24260
24265
24276
24288
24293
24305
24304
24305
24322
24325
24336
24341
24358
24362
24376
24380
24392
24400
24414
24430
24436
24448
24456
24474
24486
24502
24513
24524
24548
24556
24573
24593
24613
24626
24647
24664
24669
24687
24708
24724
24744
24760
24771
24786
24801
24826
24836
24848
24866
24882
24893
24912
24928
24936
24956
24964
24981
24993
25000
25012
25028
25045
25054
25063
25076
25084
25100
25112
25117
25129
25136
25154
25162
25166
25180
25184
25199
25204
25216
25210
25228
25241
25242
25254
25263
25268
25264
25277
25280
25284
25296
25304
25295
25306
25312
25318
25320
25318
25330
25332
25336
25338
25352
25344
25358
25348
25360
25361
25372
25370
25377
25388
25380
25384
25386
25392
25392
25397
25409
25412
25410
25417
25412
25422
25429
25436
25436
25446
25442
25450
25454
25460
25465
25477
25488
25496
25500
25500
25516
25524
25533
25540
25548
25557
25568
25572
25578
25593
25602
25616
25620
25632
25641
25654
25666
25674
25682
25696
25708
25718
25724
25737
25743
25752
25760
25770
25780
25786
25794
25796
25800
25809
25814
25812
25830
25836
25834
25841
25854
25852
25860
25870
25872
25876
25876
25882
25882
25900
25900
25905
25908
25922
25916
25924
25932
25943
25940
25944
25948
25960
25960
25966
25962
25972
25976
25984
25984
25990
25988
25988
26004
25995
25994
26004
26010
26015
26020
26012
26020
26024
26026
26024
26026
26038
26036
26042
26040
26044
26050
26048
26048
26058
26062
26068
26071
26080
26080
26084
26092
26100
26103
26108
26120
26122
26136
26138
26150
26157
26168
26170
26178
26188
26200
26206
26210
26222
26232
26237
26246
26249
26264
26278
26278
26290
26292
26306
26306
26329
26320
26342
26345
26356
26364
26370
26380
26386
26396
26404
26404
26412
26424
26428
26432
26440
26448
26455
26460
26468
26464
26468
26476
26476
26486
26492
26496
26489
26500
26502
26511
26524
26510
26516
26520
26524
26528
26534
26544
26538
26540
26550
26556
26562
26559
26570
26572
26584
26584
26596
26600
26610
26612
26628
26633
26642
26652
26660
26672
26684
26688
26702
26716
26726
26740
26753
26769
26772
26784
26800
26806
26820
26836
26852
26856
26868
26892
26894
26904
26927
26928
26943
26948
26958
26972
26977
26996
27008
27007
27012
27030
27040
27048
27048
27060
27073
27076
27084
27086
27108
27108
27108
27116
27125
27138
27142
27152
27154
27166
27176
27173
27184
27182
27204
27208
27216
27228
27221
27240
27240
27248
27260
27263
27278
27294
27295
27300
27321
27324
27340
27352
27359
27382
27392
27398
27420
27429
27448
27460
27480
27493
27512
27530
27549
27576
27588
27600
27624
27632
27660
27676
27692
27714
27730
27742
27764
27772
27800
27817
27832
27851
27860
27876
27893
27916
27934
27942
27958
27981
28000
28020
28030
28052
28056
28080
28099
28120
28132
28156
28180
28190
28210
28238
28248
28270
28284
28305
28328
28351
28364
28380
28409
28420
28442
28460
28477
28490
28514
28532
28540
28558
28577
28592
28612
28626
28636
28650
28672
28677
28696
28700
28716
28732
28742
28760
28764
28775
28780
28804
28794
28810
28816
28829
28836
28837
28850
28858
28866
28869
28876
28880
28882
28892
28892
28900
28906
28912
28917
28916
28924
28936
28934
28942
28936
28942
28944
28950
28960
28954
28956
28960
28962
28964
28961
28969
28964
28974
28972
28977
28972
28980
28985
28984
28984
28980
28996
28992
28996
29004
29008
29005
29017
29018
29016
29028
29031
29036
29040
29040
29052
29056
29064
29069
29071
29076
29092
29096
29101
29112
29117
29130
29132
29140
29144
29153
29158
29176
29182
29188
29196
29207
29216
29228
29233
29236
29246
29254
29270
29274
29276
29286
29294
29300
29300
29314
29316
29321
29324
29332
29338
29340
29340
29345
29344
29344
29346
29351
29356
29358
29359
29360
29348
29358
29356
29358
29364
29365
29361
29360
29364
29364
29364
29365
29367
29368
29368
29374
29372
29359
29370
29368
29367
29366
29368
29364
29360
29357
29356
29356
29357
29351
29344
29349
29345
29342
29332
29340
29325
29324
29318
29313
29309
29312
29300
29297
29284
29284
29278
29265
29261
29265
29244
29252
29240
29232
29228
29230
29217
29216
29200
29201
29192
29196
29192
29184
29182
29168
29172
29166
29158
29156
29156
29153
29148
29148
29148
29150
29144
29140
29150
29150
29151
29140
29152
29144
29152
29148
29151
29160
29156
29148
29148
29142
29154
29144
29152
29148
29149
29148
29146
29141
29148
29144
29144
29144
29140
29136
29138
29140
29132
29132
29129
29137
29128
29134
29136
29134
29131
29132
29130
29144
29134
29141
29141
29138
29156
29144
29158
29165
29164
29170
29177
29179
29186
29188
29202
29204
29212
29216
29218
29224
29229
29232
29238
29251
29252
29256
29262
29276
29264
29276
29277
29278
29284
29278
29286
29286
29290
29288
29298
29292
29300
29296
29293
29300
29304
29297
29297
29298
29304
29308
29300
29308
29300
29302
29310
29304
29297
29308
29301
29298
29308
29304
29294
29294
29302
29308
29296
29298
29295
29290
29290
29292
29284
29284
29284
29281
29284
29271
29268
29262
29258
29246
29244
29241
29228
29230
29225
29208
29208
29196
29183
29184
29170
29158
29140
29134
29128
29120
29108
29085
29077
29056
29052
29040
29020
29006
28989
28972
28957
28948
28924
28904
28889
28878
28852
28832
28823
28805
28784
28772
28757
28737
28708
28697
28684
28665
28645
28626
28604
28596
28576
28558
28550
28524
28508
28484
28468
28452
28434
28408
28389
28368
28354
28332
28308
28292
28278
28256
28236
28221
28204
28184
28168
28144
28125
28102
28090
28066
28053
28036
28020
27997
27976
27956
27949
27932
27921
27900
27884
27861
27848
27834
27822
27809
27792
27772
27753
27748
27728
27714
27702
27686
27660
27652
27638
27621
27612
27597
27578
27560
27548
27536
27517
27500
27481
27464
27458
27433
27429
27406
27378
27366
27343
27325
27309
27292
27280
27250
27236
27222
27204
27180
27169
27143
27126
27109
27084
27061
27047
27029
27012
26988
26974
26946
26920
26908
26885
26865
26840
26820
26801
26780
26760
26745
26728
26698
26682
26660
26644
26624
26597
26582
26558
26545
26520
26504
26482
26472
26447
26429
26412
26403
26378
26360
26341
26332
26318
26305
26288
26272
26260
26240
26225
26212
26196
26189
26169
26164
26148
26132
26132
26121
26112
26100
26087
26082
26068
26063
26058
26052
26048
26036
26025
26016
26020
26012
26004
26009
25999
25996
25982
25988
25982
25980
25976
25964
25961
25965
25956
25954
25946
25950
25948
25940
25935
25934
25930
25920
25922
25920
25916
25918
25908
25908
25912
25909
25906
25910
25906
25902
25903
25912
25900
25912
25903
25896
25910
25900
25908
25901
25911
25907
25914
25914
25916
25926
25908
25920
25924
25929
25940
25932
25937
25941
25941
25950
25952
25954
25968
25980
25985
25980
25992
26001
26015
26018
26024
26032
26054
26058
26069
26084
26098
26111
26124
26138
26150
26166
26184
26202
26225
26238
26260
26284
26300
26332
26346
26380
26406
26428
26448
26489
26508
26542
26570
26608
26636
26668
26708
26742
26772
26808
26848
26878
26916
26951
26984
27023
27060
27104
27148
27180
27218
27252
27288
27329
27366
27396
27441
27486
27516
27552
27593
27624
27656
27692
27724
27762
27797
27821
27856
27894
27924
27952
27981
28010
28041
28076
28094
28128
28156
28190
28220
28252
28277
28312
28343
28372
28397
28428
28458
28492
28508
28542
28560
28600
28618
28641
28672
28688
28716
28746
28762
28784
28806
28832
28855
28879
28904
28914
28940
28961
28980
29005
29025
29047
29068
29084
29106
29120
29138
29158
29173
29194
29212
29226
29248
29260
29272
29292
29296
29312
29320
29330
29340
29356
29358
29377
29386
29390
29392
29410
29408
29412
29416
29420
29428
29430
29434
29438
29436
29438
29444
29452
29452
29452
29450
29458
29450
29468
29466
29470
29473
29480
29480
29488
29496
29496
29504
29518
29524
29520
29529
29538
29541
29559
29568
29576
29584
29604
29604
29620
29635
29648
29652
29664
29676
29700
29714
29716
29733
29748
29764
29779
29786
29796
29820
29832
29842
29864
29879
29893
29904
29930
29945
29967
29978
29992
30009
30028
30042
30053
30074
30086
30101
30116
30132
30150
30161
30168
30182
30191
30192
30202
30220
30240
30239
30252
30244
30246
30258
30264
30268
30262
30260
30269
30272
30274
30272
30262
30270
30272
30268
30265
30261
30261
30255
30260
30248
30248
30240
30236
30224
30223
30218
30208
30208
30188
30180
30169
30152
30156
30136
30128
30120
30108
30088
30076
30072
30053
30040
30024
30012
29992
29992
29972
29958
29936
29924
29916
29904
29890
29876
29866
29862
29838
29828
29828
29808
29808
29790
29784
29772
29765
29759
29756
29741
29738
29730
29721
29718
29710
29701
29698
29694
29699
29686
29689
29684
29688
29684
29676
29682
29688
29689
29684
29685
29692
29692
29693
29694
29700
29694
29694
29700
29704
29708
29708
29706
29706
29719
29712
29724
29718
29730
29724
29724
29728
29732
29737
29728
29736
29736
29734
29756
29751
29752
29755
29754
29769
29760
29776
29780
29777
29785
29792
29796
29800
29804
29812
29814
29822
29823
29837
29828
29834
29840
29852
29841
29856
29857
29858
29860
29863
29860
29862
29868
29867
29862
29869
29865
29868
29865
29858
29861
29864
29868
29854
29857
29853
29852
29845
29840
29832
29832
29834
29816
29820
29807
29808
29797
29796
29783
29776
29772
29756
29753
29750
29734
29722
29710
29700
29696
29682
29678
29666
29656
29645
29633
29625
29615
29608
29593
29588
29581
29570
29562
29556
29543
29525
29526
29504
29494
29488
29474
29462
29448
29436
29434
29426
29410
29402
29394
29386
29373
29364
29356
29345
29330
29319
29324
29312
29298
29288
29281
29278
29256
29253
29248
29232
29220
29215
29204
29198
29196
29176
29164
29158
29154
29148
29134
29133
29119
29112
29106
29096
29086
29070
29072
29060
29054
29044
29038
29028
29013
29012
29001
29000
28986
28983
28969
28968
28962
28952
28949
28944
28922
28928
28916
28904
28904
28892
28892
28878
28870
28868
28860
28848
28846
28834
28825
28815
28804
28804
28790
28784
28774
28764
28753
28744
28740
28730
28710
28718
28702
28700
28686
28673
28665
28668
28648
28636
28634
28622
28624
28604
28604
28593
28585
28592
28580
28568
28556
28554
28548
28540
28532
28520
28521
28506
28495
28485
28478
28482
28470
28463
28456
28446
28436
28420
28420
28407
28396
28393
28380
28365
28357
28348
28341
28328
28320
28316
28302
28298
28272
28272
28261
28245
28240
28232
28228
28220
28205
28187
28180
28176
28162
28150
28135
28129
28126
28108
28104
28094
28078
28069
28068
28056
28052
28039
28040
28036
28030
28012
28016
28004
27993
27996
27988
27984
27973
27980
27966
27964
27964
27957
27962
27948
27950
27944
27943
27938
27936
27927
27930
27928
27919
27920
27922
27912
27910
27913
27908
27912
27912
27908
27916
27915
27912
27918
27920
27920
27929
27928
27926
27932
27933
27948
27948
27952
27943
27956
27948
27960
27963
27960
27952
27955
27954
27951
27956
27946
27941
27941
27938
27932
27926
27918
27916
27908
27900
27892
27888
27876
27866
27863
27841
27842
27832
27815
27813
27802
27796
27785
27775
27770
27760
27753
27741
27736
27728
27720
27720
27704
27700
27696
27696
27684
27684
27677
27678
27681
27680
27676
27670
27678
27677
27686
27688
27692
27696
27700
27704
27714
27714
27724
27725
27730
27740
27742
27744
27750
27758
27764
27768
27772
27774
27776
27783
27775
27782
27790
27793
27792
27796
27788
27804
27806
27800
27806
27805
27810
27804
27817
27812
27810
27816
27816
27812
27813
27812
27816
27812
27817
27816
27812
27812
27813
27809
27802
27797
27804
27796
27794
27788
27785
27777
27772
27782
27774
27764
27758
27750
27745
27747
27740
27725
27724
27724
27708
27704
27700
27693
27688
27680
27678
27661
27665
27657
27655
27648
27637
27640
27620
27626
27620
27616
27610
27605
27609
27604
27600
27594
27586
27586
27590
27588
27587
27585
27577
27582
27572
27577
27572
27576
27566
27561
27572
27575
27567
27562
27560
27559
27561
27556
27556
27548
27545
27541
27544
27545
27540
27540
27537
27537
27525
27525
27517
27520
27516
27516
27508
27501
27504
27497
27494
27492
27490
27490
27484
27478
27480
27468
27464
27458
27460
27449
27453
27438
27436
27434
27420
27427
27423
27420
27413
27401
27402
27400
27392
27388
27383
27380
27376
27366
27366
27360
27360
27364
27361
27350
27361
27352
27343
27352
27348
27348
27345
27338
27350
27344
27344
27339
27348
27344
27348
27343
27342
27343
27350
27340
27338
27357
27354
27360
27356
27353
27365
27362
27364
27366
27369
27375
27375
27370
27376
27374
27384
27388
27386
27382
27376
27384
27388
27392
27394
27392
27400
27394
27400
27412
27408
27408
27405
27412
27410
27418
27425
27422
27424
27428
27420
27424
27428
27428
27431
27436
27432
27432
27442
27442
27440
27444
27436
27444
27436
27444
27447
27448
27450
27444
27450
27449
27454
27449
27464
27462
27462
27458
27468
27468
27476
27478
27484
27480
27492
27500
27502
27510
27516
27524
27530
27549
27548
27560
27566
27575
27582
27594
27604
27620
27620
27628
27638
27644
27650
27660
27671
27673
27684
27690
27702
27701
27716
27724
27728
27736
27744
27748
27758
27772
27784
27790
27796
27808
27824
27828
27840
27853
27864
27874
27884
27896
27913
27920
27925
27948
27956
27968
27982
27990
28004
28016
28028
28036
28044
28060
28060
28066
28092
28094
28100
28108
28112
28124
28128
28130
28128
28134
28145
28144
28145
28148
28154
28148
28148
28148
28151
28145
28145
28144
28142
28143
28138
28128
28128
28129
28116
28112
28116
28114
28101
28108
28092
28088
28088
28080
28069
28061
28060
28060
28048
28032
28036
28020
28014
28000
27990
27977
27973
27958
27940
27937
27932
27902
27897
27889
27869
27860
27840
27841
27832
27808
27804
27792
27774
27761
27749
27737
27716
27708
27696
27681
27668
27652
27635
27624
27612
27595
27584
27568
27558
27543
27527
27520
27504
27492
27476
27460
27450
27432
27428
27410
27398
27376
27370
27362
27356
27336
27332
27320
27304
27300
27297
27269
27269
27268
27262
27249
27238
27226
27220
27206
27202
27189
27187
27180
27170
27168
27148
27146
27137
27131
27120
27108
27102
27097
27088
27092
27076
27061
27050
27048
27048
27036
27039
27018
27023
27016
27002
27002
26997
26996
26991
26972
26967
26966
26963
26960
26954
26941
26940
26933
26932
26917
26909
26912
26908
26898
26888
26878
26876
26868
26856
26849
26848
26834
26824
26817
26816
26804
26792
26789
26782
26774
26756
26751
26748
26737
26729
26707
26704
26696
26694
26680
26670
26666
26660
26656
26644
26632
26637
26628
26613
26604
26604
26597
26594
26592
26578
26578
26572
26570
26566
26559
26548
26552
26538
26542
26528
26520
26527
26524
26508
26508
26508
26506
26500
26493
26487
26484
26476
26469
26465
26474
26462
26448
26456
26445
26442
26426
26424
26424
26414
26416
26413
26405
26396
26400
26388
26382
26374
26374
26361
26364
26356
26349
26341
26335
26328
26326
26313
26312
26308
26296
26293
26297
26276
26270
26266
26264
26249
26240
26234
26233
26226
26212
26207
26201
26188
26181
26169
26164
26157
26145
26134
26125
26116
26106
26092
26080
26072
26060
26048
26044
26034
26021
26012
25999
25994
25980
25972
25960
25956
25937
25928
25920
25909
25900
25894
25881
25872
25868
25858
25856
25840
25836
25828
25826
25820
25804
25808
25801
25792
25792
25776
25770
25777
25772
25777
25774
25776
25772
25776
25775
25776
25788
25786
25788
25805
25808
25804
25820
25816
25828
25844
25850
25857
25870
25878
25892
25900
25905
25926
25936
25952
25956
25971
25980
26000
26004
26014
26028
26042
26052
26062
26077
26084
26100
26116
26132
26148
26156
26173
26180
26198
26210
26220
26236
26252
26264
26274
26292
26308
26308
26318
26338
26344
26354
26369
26382
26388
26406
26410
26419
26428
26437
26440
26440
26450
26456
26468
26473
26472
26472
26476
26482
26481
26484
26490
26476
26490
26486
26490
26489
26489
26489
26482
26482
26480
26484
26474
26472
26476
26473
26468
26470
26461
26456
26453
26445
26440
26434
26425
26420
26409
26404
26397
26388
26370
26364
26353
26344
26338
26320
26312
26298
26284
26281
26268
26264
26253
26244
26236
26225
26217
26208
26200
26196
26184
26181
26183
26172
26172
26160
26154
26152
26153
26154
26148
26148
26148
26150
26148
26144
26145
26148
26148
26152
26150
26144
26148
26149
26148
26154
26148
26152
26152
26156
26160
26160
26160
26162
26154
26158
26164
26170
26164
26176
26170
26172
26169
26176
26176
26174
26182
26190
26188
26196
26194
26201
26197
26200
26212
26208
26206
26213
26209
26212
26210
26217
26212
26212
26220
26213
26214
26212
26216
26212
26202
26212
26204
26209
26199
26196
26188
26189
26180
26184
26181
26178
26176
26170
26178
26180
26176
26160
26172
26166
26168
26168
26166
26168
26166
26166
26164
26160
26167
26168
26172
26168
26160
26173
26170
26164
26164
26166
26169
26165
26164
26168
26172
26176
26170
26180
26170
26174
26183
26180
26180
26182
26185
26186
26200
26191
26196
26204
26209
26212
26213
26214
26220
26232
26242
26244
26240
26254
26264
26269
26276
26288
26288
26288
26300
26298
26315
26325
26328
26326
26340
26342
26352
26348
26358
26364
26379
26382
26385
26388
26398
26404
26403
26408
26412
26412
26416
26424
26424
26430
26432
26436
26440
26448
26445
26452
26452
26458
26466
26470
26478
26472
26476
26484
26492
26497
26514
26512
26528
26535
26548
26548
26564
26576
26590
26592
26608
26623
26638
26653
26670
26688
26704
26713
26740
26758
26768
26788
26809
26824
26837
26860
26876
26900
26908
26938
26942
26959
26987
27006
27020
27034
27048
27065
27080
27092
27108
27120
27144
27156
27176
27188
27202
27217
27236
27247
27268
27280
27298
27310
27324
27342
27353
27368
27388
27398
27408
27420
27442
27461
27464
27482
27493
27511
27522
27536
27542
27566
27572
27576
27596
27606
27616
27623
27636
27652
27655
27666
27676
27681
27684
27706
27700
27708
27720
27724
27732
27736
27743
27744
27759
27764
27770
27764
27776
27776
27776
27784
27783
27796
27796
27798
27802
27805
27810
27813
27816
27816
27820
27826
27824
27832
27839
27838
27836
27840
27852
27848
27846
27848
27854
27856
27860
27872
27876
27877
27877
27876
27886
27884
27894
27898
27900
27900
27910
27913
27912
27928
27920
27930
27940
27941
27944
27952
27948
27957
27966
27972
27972
27986
27992
28002
28004
28020
28028
28036
28045
28058
28060
28074
28088
28100
28104
28122
28134
28144
28156
28167
28183
28194
28202
28217
28233
28236
28248
28266
28272
28288
28303
28308
28329
28334
28350
28345
28372
28377
28388
28398
28404
28413
28426
28426
28436
28445
28452
28464
28465
28478
28480
28496
28500
28504
28512
28522
28516
28520
28540
28534
28541
28552
28548
28552
28556
28561
28568
28574
28578
28592
28598
28594
28603
28610
28610
28620
28628
28632
28638
28644
28652
28656
28658
28674
28673
28680
28695
28696
28700
28712
28712
28712
28734
28724
28736
28744
28744
28758
28760
28766
28767
28768
28782
28780
28793
28798
28804
28809
28813
28827
28828
28836
28844
28852
28853
28861
28868
28877
28876
28881
28892
28900
28905
28903
28913
28923
28928
28941
28937
28942
28946
28962
28958
28965
28956
28968
28975
28965
28972
28965
28972
28968
28966
28966
28954
28952
28949
28942
28934
28928
28922
28916
28908
28901
28897
28892
28880
28874
28868
28866
28868
28852
28852
28854
28840
28839
28846
28834
28836
28826
28828
28828
28822
28824
28833
28832
28830
28838
28841
28845
28847
28848
28852
28863
28869
28878
28887
28900
28912
28929
28940
28960
28970
28998
29012
29036
29061
29072
29096
29124
29142
29172
29205
29228
29246
29284
29304
29332
29360
29392
29405
29444
29468
29494
29524
29544
29566
29600
29620
29644
29674
29692
29724
29743
29764
29776
29812
29840
29856
29869
29900
29920
29944
29954
29981
30002
30023
30048
30062
30092
30100
30124
30146
30162
30188
30197
30212
30236
30252
30266
30285
30292
30313
30332
30346
30357
30364
30380
30393
30402
30412
30428
30436
30445
30460
30471
30473
30478
30500
30496
30510
30511
30528
30540
30543
30548
30560
30562
30572
30580
30594
30600
30604
30616
30622
30632
30640
30644
30660
30668
30676
30687
30692
30701
30704
30717
30724
30730
30750
30756
30760
30764
30780
30788
30791
30800
30816
30828
30824
30836
30853
30856
30870
30883
30889
30894
30916
30916
30936
30944
30960
30960
30980
30992
31004
31008
31024
31041
31050
31064
31087
31096
31109
31110
31140
31146
31164
31170
31196
31205
31218
31238
31252
31268
31280
31300
31312
31328
31343
31362
31382
31404
31412
31424
31446
31470
31480
31497
31521
31536
31544
31562
31589
31597
31612
31637
31660
31668
31694
31704
31722
31741
31764
31778
31796
31817
31828
31842
31870
31880
31896
31920
31936
31952
31970
31980
32004
32022
32034
32046
32064
32076
32092
32108
32124
32137
32148
32162
32177
32196
32202
32225
32238
32255
32263
32292
32298
32316
32336
32352
32364
32382
32404
32416
32431
32452
32464
32484
32501
32518
32537
32549
32580
32593
32612
32628
32644
32656
32676
32696
32712
32726
32746
32766
32782
32800
32815
32837
32848
32857
32872
32895
32904
32924
32940
32970
32972
32984
33007
33016
33046
33048
33072
33080
33096
33108
33132
33149
33166
33180
33201
33214
33228
33252
33260
33288
33316
33318
33348
33368
33384
33401
33420
33452
33474
33492
33512
33544
33564
33588
33608
33624
33641
33670
33692
33710
33741
33756
33780
33807
33830
33848
33866
33894
33918
33940
33958
33988
34008
34024
34054
34072
34093
34117
34148
34165
34186
34220
34245
34264
34288
34318
34344
34372
34404
34420
34450
34484
34502
34534
34552
34589
34614
34637
34675
34688
34728
34753
34776
34799
34820
34854
34888
34908
34940
34972
34990
35024
35046
35069
35100
35129
35164
35188
35214
35247
35268
35296
35324
35348
35385
35413
35436
35458
35489
35512
35542
35568
35600
35626
35655
35678
35712
35736
35764
35792
35820
35848
35877
35908
35928
35964
36006
36032
36062
36084
36100
36145
36173
36200
36228
36253
36272
36312
36336
36364
36392
36420
36449
36472
36498
36524
36556
36588
36604
36644
36654
36694
36727
36742
36778
36796
36818
36841
36868
36901
36927
36952
36964
37001
37028
37056
37068
37104
37135
37152
37180
37208
37244
37268
37294
37316
37342
37376
37396
37425
37452
37482
37497
37528
37556
37590
37612
37630
37662
37686
37716
37748
37772
37796
37820
37849
37884
37908
37926
37954
37985
38020
38040
38060
38088
38126
38144
38173
38206
38228
38265
38293
38332
38356
38380
38408
38436
38472
38496
38526
38544
38578
38607
38641
38661
38688
38712
38752
38765
38790
38820
38844
38876
38894
38928
38952
38973
38996
39020
39044
39070
39092
39106
39143
39162
39184
39204
39232
39244
39276
39292
39322
39336
39361
39391
39404
39428
39456
39484
39498
39522
39544
39575
39594
39609
39636
39660
39688
39712
39736
39768
39792
39816
39844
39849
39896
39920
39940
39967
39999
40024
40040
40072
40100
40126
40156
40176
40204
40236
40264
40273
40318
40344
40360
40388
40407
40432
40471
40489
40500
40537
40553
40588
40605
40646
40654
40684
40692
40729
40754
40780
40807
40828
40858
40869
40901
40924
40950
40972
40998
41024
41047
41077
41089
41111
41150
41180
41196
41215
41248
41285
41302
41332
41356
41380
41415
41429
41460
41492
41516
41540
41574
41596
41629
41658
41684
41708
41740
41764
41802
41837
41856
41880
41913
41936
41970
41992
42024
42056
42076
42120
42137
42168
42184
42220
42244
42274
42308
42336
42360
42390
42420
42456
42481
42512
42542
42572
42598
42636
42650
42688
42722
42740
42780
42802
42831
42870
42894
42926
42952
42980
43012
43042
43064
43092
43136
43152
43180
43216
43238
43273
43296
43332
43361
43388
43428
43456
43484
43516
43545
43576
43614
43654
43672
43708
43744
43788
43816
43850
43884
43920
43965
43984
44028
44064
44106
44141
44169
44214
44240
44280
44312
44348
44384
44430
44453
44484
44520
44550
44590
44632
44660
44708
44735
44776
44801
44854
44881
44922
44958
44988
45034
45072
45096
45144
45176
45216
45254
45284
45332
45374
45404
45440
45476
45512
45556
45592
45644
45676
45708
45760
45784
45838
45860
45894
45932
45968
46016
46044
46092
46142
46168
46204
46236
46272
46311
46356
46392
46425
46462
46492
46532
46566
46600
46631
46670
46708
46740
46774
46812
46838
46884
46925
46953
46984
47028
47058
47088
47132
47168
47200
47228
47272
47310
47344
47380
47424
47452
47492
47542
47568
47608
47649
47680
47728
47764
47806
47847
47880
47924
47962
48007
48044
48094
48127
48180
48220
48260
48300
48344
48376
48430
48479
48512
48552
48596
48640
48680
48732
48766
48824
48868
48904
48936
49000
49028
49084
49112
49160
49212
49252
49294
49334
49381
49422
49476
49511
49553
49604
49652
49692
49740
49788
49811
49868
49916
49948
49988
50036
50076
50116
50164
50200
50236
50279
50328
50364
50405
50448
50492
50522
50572
50604
50656
50686
50728
50776
50822
50864
50893
50944
50988
51028
51080
51124
51167
51201
51252
51296
51336
51390
51432
51476
51532
51583
51628
51672
51720
51768
51812
51861
51928
51948
52004
52049
52096
52144
52212
52252
52301
52348
52404
52448
52504
52552
52612
52646
52719
52752
52814
52852
52908
52957
53004
53052
53121
53176
53224
53288
53348
53397
53448
53502
53570
53632
53692
53752
53828
53877
53936
54005
54072
54144
54204
54272
54336
54416
54480
54544
54630
54688
54764
54818
54908
54970
55040
55100
55162
55238
55296
55360
55416
55496
55568
55612
55680
55734
55802
55864
55918
55980
56052
56107
56166
56212
56284
56340
56398
56456
56520
56576
56638
56676
56748
56793
56844
56900
56964
57012
57070
57124
57180
57220
57284
57325
57388
57430
57476
57532
57596
57630
57688
57744
57788
57830
57872
57928
57991
58028
58084
58120
58164
58199
58246
58309
58348
58384
58444
58476
58528
58568
58594
58648
58716
58736
58788
58838
58863
58906
58941
58982
59024
59069
59112
59132
59170
59214
59244
59276
59312
59337
59364
59408
59446
59460
59492
59516
59566
59584
59618
59637
59676
59700
59720
59744
59776
59796
59832
59860
59876
59916
59940
59972
59990
60008
60040
60056
60084
60121
60132
60164
60190
60204
60232
60248
60270
60303
60316
60348
60352
60388
60404
60428
60454
60471
60484
60520
60542
60560
60588
60600
60624
60647
60668
60680
60694
60732
60730
60764
60792
60784
60839
60846
60860
60878
60900
60896
60932
60942
60956
60980
60996
61008
61016
61044
61055
61079
61080
61096
61112
61134
61156
61152
61160
61170
61191
61182
61192
61220
61224
61236
61240
61244
61268
61260
61268
61274
61292
61286
61292
61300
61300
61296
61296
61306
61308
61292
61296
61316
61308
61304
61306
61301
61282
61304
61288
61260
61249
61260
61260
61236
61213
61216
61208
61172
61164
61164
61148
61124
61108
61088
61060
61044
61014
60997
60968
60948
60924
60901
60864
60852
60817
60783
60772
60720
60708
60676
60644
60617
60588
60556
60519
60500
60448
60439
60396
60364
60332
60300
60268
60223
60196
60160
60132
60100
60048
60023
59988
59965
59926
59892
59844
59816
59788
59756
59724
59676
59648
59620
59596
59540
59502
59461
59440
59412
59372
59332
59308
59272
59223
59200
59160
59133
59100
59068
59030
58998
58964
58936
58892
58876
58828
58804
58760
58740
58704
58668
58632
58612
58580
58540
58520
58484
58460
58436
58388
58397
58344
58318
58284
58268
58232
58204
58188
58166
58132
58092
58076
58056
58020
57992
57972
57932
57916
57900
57870
57839
57796
57788
57752
57724
57700
57668
57634
57612
57572
57556
57528
57500
57476
57430
57396
57348
57332
57304
57260
57238
57184
57156
57128
57084
57054
57012
56980
56940
56896
56864
56824
56788
56750
56708
56666
56632
56590
56552
56508
56472
56440
56400
56364
56316
56272
56240
56196
56152
56108
56092
56028
55992
55964
55936
55888
55852
55815
55778
55740
55700
55668
55636
55613
55560
55535
55484
55456
55428
55400
55372
55332
55300
55264
55236
55200
55174
55136
55102
55082
55034
55020
54961
54944
54910
54878
54837
54812
54777
54733
54704
54668
54637
54602
54564
54516
54484
54448
54412
54384
54337
54292
54256
54228
54176
54142
54100
54060
54000
53965
53927
53880
53832
53792
53756
53704
53654
53605
53560
53512
53464
53408
53367
53324
53260
53220
53160
53100
53044
52988
52928
52864
52812
52728
52688
52632
52560
52484
52422
52348
52292
52204
52134
52060
51992
51916
51832
51764
51688
51600
51524
51440
51372
51292
51199
51117
51032
50948
50863
50767
50676
50604
50516
50423
50340
50244
50152
50064
49972
49884
49788
49704
49616
49527
49432
49348
49252
49164
49068
48969
48894
48800
48708
48622
48540
48456
48373
48270
48189
48094
48008
47916
47829
47742
47652
47578
47481
47390
47308
47224
47126
47040
46960
46858
46776
46684
46604
46520
46436
46348
46256
46168
46072
45988
45894
45818
45724
45632
45548
45456
45360
45281
45190
45100
45004
44904
44838
44728
44636
44564
44460
44362
44276
44196
44104
44008
43916
43824
43732
43637
43541
43438
43352
43264
43172
43064
42980
42884
42778
42676
42585
42488
42400
42296
42210
42108
42021
41908
41829
41736
41632
41545
41444
41356
41272
41172
41092
41005
40908
40821
40733
40644
40562
40470
40388
40304
40220
40140
40049
39960
39884
39798
39717
39636
39550
39464
39388
39294
39224
39128
39056
38980
38892
38812
38728
38641
38565
38484
38399
38309
38236
38156
38065
37977
37904
37816
37716
37640
37560
37463
37388
37286
37205
37121
37024
36949
36852
36775
36692
36598
36508
36416
36332
36244
36148
36060
35977
35888
35804
35709
35628
35537
35449
35362
35281
35198
35100
35017
34934
34840
34759
34668
34596
34496
34404
34332
34244
34156
34066
33998
33898
33804
33724
33636
33556
33465
33383
33295
33216
33126
33044
32956
32876
32796
32705
32624
32544
32472
32388
32304
32220
32133
32055
31976
31895
31812
31740
31660
31581
31504
31428
31348
31268
31190
31112
31032
30952
30870
30800
30726
30650
30578
30496
30422
30338
30268
30192
30124
30052
29969
29894
29818
29740
29668
29599
29514
29452
29372
29300
29218
29150
29068
29008
28928
28846
28772
28705
28625
28544
28473
28401
28324
28244
28174
28098
28030
27948
27878
27800
27724
27652
27582
27516
27440
27372
27295
27221
27152
27081
27009
26928
26868
26796
26724
26650
26584
26517
26437
26362
26304
26232
26168
26088
26020
25946
25880
25800
25740
25666
25601
25532
25457
25396
25320
25252
25180
25112
25039
24972
24904
24836
24774
24708
24642
24572
24496
24433
24368
24308
24237
24172
24114
24046
23972
23908
23856
23783
23724
23672
23605
23540
23480
23425
23362
23304
23236
23180
23129
23072
23012
22949
22897
22837
22777
22724
22671
22612
22569
22509
22457
22400
22350
22308
22250
22192
22144
22091
22041
21995
21950
21892
21849
21806
21750
21704
21661
21612
21568
21522
21476
21432
21393
21348
21312
21270
21220
21182
21143
21098
21060
21017
20980
20930
20899
20861
20820
20782
20740
20706
20674
20636
20586
20562
20516
20476
20444
20416
20376
20340
20298
20273
20229
20190
20164
20120
20088
20050
20020
19988
19946
19916
19881
19844
19812
19780
19744
19714
19672
19645
19613
19578
19550
19508
19476
19445
19412
19380
19344
19319
19274
19248
19216
19176
19149
19114
19082
19046
19008
18980
18945
18911
18885
18850
18820
18787
18756
18728
18702
18672
18636
18614
18585
18550
18529
18498
18468
18447
18411
18391
18360
18324
18308
18276
18254
18226
18199
18172
18144
18113
18092
18070
18039
18020
17988
17964
17942
17910
17882
17846
17828
17796
17773
17740
17726
17689
17664
17628
17610
17576
17549
17521
17495
17468
17436
17405
17377
17345
17316
17292
17262
17230
17204
17172
17148
17117
17096
17062
17034
17005
16976
16954
16924
16898
16873
16844
16822
16795
16766
16746
16722
16699
16676
16652
16631
16604
16589
16567
16541
16527
16507
16485
16463
16452
16425
16406
16396
16364
16349
16324
16316
16287
16268
16256
16234
16213
16196
16173
16157
16136
16116
16100
16078
16057
16052
16033
16009
16004
15982
15969
15945
15934
15916
15905
15888
15881
15858
15844
15832
15817
15805
15786
15773
15766
15755
15738
15724
15710
15696
15685
15665
15652
15636
15628
15614
15590
15581
15568
15542
15536
15520
15504
15492
15476
15462
15440
15421
15408
15392
15372
15358
15345
15320
15309
15294
15280
15256
15244
15229
15212
15196
15180
15167
15148
15132
15116
15100
15082
15064
15052
15044
15028
15010
14998
14996
14972
14958
14948
14932
14924
14913
14901
14886
14878
14868
14853
14842
14839
14830
14815
14804
14801
14788
14774
14768
14757
14749
14739
14726
14724
14713
14705
14696
14689
14667
14664
14649
14640
14629
14621
14612
14601
14589
14577
14570
14558
14550
14543
14525
14522
14510
14508
14496
14492
14482
14468
14469
14460
14454
14446
14445
14433
14430
14420
14414
14400
14405
14393
14398
14386
14376
14377
14373
14373
14362
14364
14360
14357
14354
14352
14349
14350
14348
14354
14355
14347
14352
14345
14350
14349
14353
14353
14350
14350
14346
14341
14347
14346
14346
14344
14336
14342
14342
14330
14329
14326
14326
14322
14318
14311
14316
14308
14298
14296
14291
14288
14280
14276
14273
14264
14256
14246
14242
14232
14220
14214
14204
14196
14177
14174
14164
14157
14145
14134
14129
14116
14106
14093
14076
14074
14062
14054
14041
14032
14021
14008
13996
13989
13978
13976
13959
13953
13953
13936
13924
13920
13910
13908
13901
13892
13889
13884
13870
13877
13860
13857
13860
13853
13852
13855
13852
13846
13841
13844
13837
13840
13838
13842
13840
13835
13832
13829
13833
13821
13832
13815
13824
13820
13822
13816
13818
13810
13804
13808
13806
13796
13804
13798
13798
13796
13794
13792
13792
13785
13788
13784
13792
13793
13786
13793
13792
13788
13788
13788
13792
13792
13795
13785
13791
13796
13796
13797
13802
13805
13797
13799
13804
13804
13806
13814
13815
13810
13815
13816
13816
13820
13813
13832
13824
13832
13829
13837
13842
13840
13852
13852
13848
13852
13850
13855
13866
13864
13864
13869
13868
13878
13882
13882
13878
13882
13893
13893
13892
13891
13892
13898
13906
13913
13915
13917
13922
13930
13930
13936
13948
13941
13952
13956
13969
13974
13972
13990
13993
13999
14008
14012
14032
14032
14048
14055
14072
14072
14084
14092
14102
14114
14120
14133
14133
14155
14160
14178
14190
14202
14212
14219
14228
14237
14246
14263
14273
14288
14299
14305
14325
14332
14344
14356
14371
14388
14402
14408
14421
14436
14448
14460
14474
14486
14500
14510
14520
14528
14534
14553
14560
14565
14575
14582
14596
14598
14601
14607
14613
14614
14624
14626
14632
14630
14642
14648
14651
14645
14654
14655
14658
14660
14661
14668
14668
14673
14670
14672
14664
14672
14665
14673
14668
14668
14670
14672
14672
14670
14667
14668
14669
14670
14669
14668
14674
14675
14672
14672
14676
14677
14688
14682
14690
14698
14700
14700
14716
14719
14725
14732
14741
14743
14757
14769
14775
14785
14792
14796
14810
14827
14832
14849
14863
14868
14882
14902
14908
14921
14938
14941
14953
14968
14978
14988
15004
15012
15024
15030
15042
15053
15060
15073
15072
15086
15100
15102
15112
15127
15130
15140
15144
15153
15159
15169
15172
15180
15197
15196
15204
15208
15217
15224
15226
15234
15244
15242
15244
15260
15262
15263
15266
15272
15272
15270
15277
15277
15271
15280
15279
15284
15284
15280
15280
15284
15285
15279
15274
15273
15270
15268
15272
15262
15264
15264
15262
15256
15260
15252
15248
15246
15241
15232
15232
15226
15213
15220
15204
15206
15198
15193
15187
15176
15177
15172
15160
15150
15147
15141
15133
15132
15118
15116
15110
15108
15103
15102
15091
15089
15087
15087
15080
15078
15078
15077
15082
15080
15083
15089
15094
15096
15096
15100
15104
15120
15115
15128
15132
15137
15148
15152
15160
15164
15177
15189
15194
15207
15214
15224
15236
15244
15260
15274
15286
15302
15308
15332
15346
15354
15373
15389
15412
15421
15436
15456
15476
15486
15500
15514
15532
15548
15566
15576
15599
15606
15628
15634
15656
15676
15673
15699
15706
15717
15726
15738
15749
15752
15758
15774
15780
15777
15775
15784
15790
15792
15792
15788
15787
15786
15787
15783
15780
15777
15778
15772
15769
15760
15761
15753
15748
15744
15736
15732
15724
15722
15715
15703
15700
15694
15689
15685
15674
15672
15668
15649
15648
15642
15645
15632
15626
15624
15618
15615
15604
15607
15606
15601
15604
15604
15605
15603
15602
15604
15608
15609
15614
15617
15620
15624
15626
15633
15641
15652
15658
15665
15669
15686
15686
15708
15713
15728
15740
15754
15768
15776
15786
15805
15813
15825
15847
15860
15871
15884
15896
15906
15925
15938
15948
15964
15976
15992
16005
16021
16028
16044
16055
16063
16080
16092
16100
16108
16128
16138
16146
16156
16172
16176
16190
16199
16213
16224
16229
16245
16260
16265
16272
16282
16297
16312
16317
16332
16351
16352
16366
16380
16394
16412
16420
16434
16448
16462
16465
16484
16498
16511
16522
16536
16545
16560
16575
16583
16596
16604
16616
16633
16641
16647
16659
16671
16684
16686
16696
16704
16716
16724
16730
16744
16749
16764
16768
16773
16780
16796
16802
16812
16826
16828
16838
16849
16855
16872
16876
16892
16900
16911
16924
16940
16957
16964
16976
16981
16993
17016
17028
17040
17059
17063
17085
17097
17120
17132
17148
17158
17177
17194
17213
17221
17238
17265
17280
17290
17307
17329
17347
17362
17380
17392
17408
17428
17448
17468
17482
17494
17508
17528
17550
17554
17572
17588
17604
17616
17630
17648
17665
17678
17684
17700
17717
17732
17736
17749
17763
17780
17792
17801
17812
17827
17840
17846
17861
17878
17886
17908
17926
17930
17951
17967
17978
18000
18005
18033
18038
18061
18085
18104
18120
18132
18148
18165
18180
18200
18226
18244
18255
18268
18287
18303
18324
18342
18358
18373
18386
18396
18416
18420
18436
18454
18468
18474
18488
18496
18505
18530
18538
18545
18552
18566
18574
18582
18596
18608
18613
18623
18633
18641
18649
18661
18664
18675
18679
18692
18704
18708
18724
18722
18740
18740
18758
18758
18764
18778
18786
18792
18796
18804
18812
18819
18829
18836
18832
18850
18853
18865
18868
18874
18884
18888
18900
18898
18904
18908
18919
18924
18936
18928
18942
18946
18945
18952
18963
18960
18959
18968
18966
18966
18971
18972
18976
18979
18980
18980
18984
18983
18982
18983
18988
18988
18984
18988
18988
18988
18984
18983
18986
18981
18980
18986
18984
18974
18984
18980
18973
18978
18976
18972
18980
18976
18974
18979
18967
18962
18972
18964
18972
18966
18972
18968
18972
18972
18972
18973
18972
18970
18974
18978
18980
18986
18985
18978
18988
18988
18996
18997
18992
19002
19002
19012
19016
19010
19016
19028
19024
19024
19033
19034
19030
19038
19031
19046
19046
19046
19041
19048
19052
19055
19057
19056
19060
19068
19072
19073
19076
19084
19085
19091
19089
19100
19100
19102
19108
19124
19117
19134
19136
19144
19150
19152
19161
19163
19171
19180
19186
19197
19200
19210
19216
19216
19224
19234
19231
19244
19244
19248
19256
19262
19264
19272
19277
19274
19282
19292
19290
19293
19300
19302
19300
19308
19308
19314
19310
19317
19312
19319
19320
19316
19316
19324
19321
19317
19325
19320
19313
19319
19319
19312
19312
19306
19302
19300
19294
19296
19294
19286
19286
19284
19286
19278
19271
19268
19271
19270
19268
19264
19268
19268
19264
19263
19262
19268
19268
19265
19270
19272
19278
19284
19290
19298
19300
19316
19325
19332
19348
19359
19370
19383
19404
19416
19442
19459
19476
19498
19520
19548
19560
19600
19621
19644
19676
19706
19740
19765
19798
19830
19868
19907
19935
19978
20012
20042
20084
20108
20156
20185
20223
20264
20295
20324
20367
20402
20438
20468
20514
20546
20580
20614
20650
20680
20710
20746
20780
20814
20844
20884
20914
20943
20970
21007
21032
21070
21104
21132
21160
21188
21220
21246
21274
21300
21331
21356
21375
21402
21428
21460
21478
21504
21522
21540
21571
21594
21606
21632
21642
21668
21678
21703
21720
21736
21747
21768
21786
21800
21810
21826
21836
21854
21860
21868
21884
21887
21898
21908
21918
21932
21932
21933
21942
21942
21950
21958
21958
21964
21972
21964
21966
21976
21981
21983
21994
21989
21990
21994
22000
22000
22008
22014
22013
22019
22018
22025
22028
22032
22037
22037
22040
