RESPIRATION
23748
23772
23798
23812
23830
23858
23875
23900
23921
23940
23957
23970
23992
24012
24029
24052
24069
24088
24109
24124
24144
24158
24182
24202
24216
24229
24254
24265
24293
24303
24324
24346
24360
24377
24398
24416
24437
24448
24474
24490
24508
24532
24545
24568
24581
24598
24615
24636
24652
24676
24706
24710
24733
24756
24772
24797
24810
24832
24866
24878
24904
24918
24936
24968
24980
25006
25028
25048
25069
25098
25118
25136
25159
25185
25206
25236
25257
25281
25304
25322
25356
25384
25405
25429
25451
25480
25492
25516
25550
25576
25594
25625
25648
25666
25692
25719
25752
25775
25793
25819
25845
25866
25896
25922
25940
25964
25996
26024
26045
26071
26089
26116
26148
26170
26191
26224
26244
26266
26300
26322
26338
26366
26392
26424
26444
26468
26488
26518
26541
26573
26593
26612
26641
26668
26694
26713
26740
26764
26792
26809
26828
26864
26888
26912
26932
26948
26980
26996
27025
27048
27070
27088
27120
27136
27164
27181
27207
27226
27250
27273
27299
27319
27332
27360
27372
27398
27420
27440
27460
27485
27495
27519
27528
27556
27574
27598
27612
27632
27655
27666
27688
27704
27726
27739
27770
27780
27802
27814
27835
27844
27870
27885
27908
27925
27935
27950
27977
27996
28000
28020
28038
28054
28071
28084
28096
28116
28132
28140
28152
28172
28180
28210
28212
28230
28239
28258
28268
28288
28288
28292
28319
28330
28340
28356
28360
28378
28388
28400
28408
28417
28430
28440
28456
28460
28478
28481
28492
28502
28512
28516
28525
28536
28544
28554
28556
28572
28580
28581
28589
28596
28600
28610
28616
28622
28628
28636
28636
28652
28652
28660
28670
28676
28676
28677
28680
28681
28693
28698
28700
28698
28710
28713
28724
28725
28728
28732
28733
28742
28744
28746
28751
28752
28756
28768
28761
28768
28772
28783
28782
28785
28785
28792
28798
28792
28802
28812
28820
28813
28816
28824
28832
28834
28844
28848
28844
28858
28858
28868
28868
28865
28884
28876
28884
28896
28904
28906
28908
28918
28927
28932
28928
28935
28942
28957
28956
28968
28964
28970
28976
28984
28993
28992
28998
29012
29012
29012
29025
29034
29044
29047
29052
29058
29061
29068
29074
29076
29081
29090
29100
29100
29104
29120
29117
29125
29124
29130
29136
29142
29152
29149
29164
29165
29172
29170
29180
29190
29188
29198
29200
29210
29217
29220
29216
29230
29236
29244
29248
29252
29257
29253
29262
29269
29274
29280
29289
29293
29298
29304
29304
29313
29316
29322
29327
29335
29338
29342
29348
29353
29356
29360
29366
29375
29376
29380
29384
29390
29393
29404
29400
29412
29409
29412
29420
29420
29433
29439
29432
29444
29446
29448
29456
29460
29460
29470
29467
29472
29476
29476
29476
29484
29492
29489
29492
29492
29500
29496
29502
29496
29514
29512
29524
29524
29521
29524
29536
29529
29536
29543
29538
29540
29536
29544
29552
29554
29550
29554
29556
29558
29556
29561
29564
29568
29560
29569
29574
29572
29573
29582
29578
29572
29586
29583
29586
29584
29588
29592
29596
29600
29600
29597
29599
29592
29596
29610
29612
29604
29604
29616
29612
29617
29616
29620
29621
29624
29622
29628
29626
29634
29632
29631
29634
29638
29640
29645
29662
29645
29649
29652
29658
29666
29656
29668
29668
29671
29680
29676
29680
29680
29677
29680
29684
29686
29689
29696
29692
29709
29708
29716
29704
29716
29726
29726
29735
29732
29736
29730
29738
29744
29754
29752
29758
29760
29768
29768
29772
29781
29788
29792
29801
29792
29798
29804
29807
29816
29816
29815
29820
29822
29829
29826
29832
29833
29830
29832
29844
29833
29832
29829
29836
29840
29836
29832
29837
29832
29828
29822
29826
29826
29830
29822
29818
29814
29814
29810
29812
29816
29804
29820
29808
29804
29807
29805
29806
29806
29796
29802
29804
29801
29804
29804
29804
29808
29800
29804
29814
29805
29812
29822
29817
29825
29824
29823
29828
29823
29838
29826
29832
29840
29836
29848
29850
29850
29852
29856
29862
29856
29862
29868
29869
29871
29872
29882
29870
29872
29872
29882
29882
29880
29884
29884
29876
29884
29884
29880
29878
29882
29882
29882
29876
29884
29884
29884
29892
29890
29890
29884
29888
29892
29888
29887
29890
29892
29888
29886
29896
29894
29908
29908
29905
29908
29908
29916
29916
29914
29916
29922
29920
29926
29932
29937
29934
29941
29948
29948
29956
29956
29953
29966
29973
29978
29980
29987
29984
30002
29992
30000
30001
30020
30024
30025
30036
30038
30044
30052
30052
30061
30061
30068
30074
30084
30100
30107
30116
30116
30116
30132
30128
30133
30149
30157
30155
30162
30170
30176
30188
30188
30196
30208
30215
30212
30225
30233
30234
30245
30244
30260
30261
30268
30279
30284
30286
30295
30302
30308
30313
30316
30324
30332
30349
30348
30353
30360
30361
30374
30374
30388
30396
30404
30416
30416
30424
30436
30442
30440
30448
30456
30465
30481
30486
30488
30498
30502
30505
30514
30522
30532
30544
30550
30557
30552
30566
30566
30578
30586
30596
30599
30599
30604
30620
30622
30624
30631
30638
30645
30654
30654
30667
30676
30676
30685
30692
30696
30700
30706
30708
30724
30727
30734
30748
30754
30756
30753
30765
30770
30776
30788
30788
30788
30796
30806
30806
30816
30824
30831
30839
30848
30852
30855
30858
30872
30872
30874
30881
30880
30880
30888
30894
30892
30908
30908
30908
30912
30920
30916
30920
30929
30928
30929
30936
30948
30944
30940
30948
30949
30951
30948
30956
30956
30956
30956
30960
30958
30960
30964
30967
30966
30965
30966
30966
30956
30969
30976
30965
30964
30974
30974
30970
30966
30960
30957
30956
30958
30960
30956
30960
30956
30961
30956
30960
30958
30961
30960
30956
30950
30954
30952
30952
30942
30944
30946
30948
30948
30951
30950
30941
30937
30944
30942
30941
30933
30936
30933
30932
30934
30937
30923
30932
30932
30924
30926
30936
30926
30926
30933
30932
30928
30942
30937
30936
30932
30934
30944
30937
30936
30941
30944
30944
30944
30951
30942
30949
30958
30952
30952
30958
30960
30959
30968
30972
30976
30980
30968
30977
30986
30984
30980
30984
30984
30978
30986
30989
30994
30988
30996
30996
30996
30997
30997
31006
31004
30998
31008
31004
31004
31004
30997
31005
31005
31008
30998
30992
31001
31000
31002
30996
30996
30996
30997
30996
30992
30994
30997
30996
30992
30996
30992
30984
30982
30985
30984
30982
30981
30976
30972
30980
30976
30968
30967
30972
30965
30972
30960
30956
30961
30952
30960
30949
30952
30946
30946
30936
30946
30936
30937
30936
30928
30936
30926
30920
30924
30922
30922
30921
30912
30917
30916
30916
30916
30908
30900
30904
30905
30911
30900
30907
30897
30896
30902
30898
30897
30896
30888
30894
30892
30892
30885
30900
30884
30892
30884
30884
30878
30892
30884
30889
30888
30886
30880
30892
30884
30882
30884
30884
30886
30880
30884
30886
30877
30888
30876
30880
30882
30884
30886
30884
30884
30876
30882
30887
30882
30885
30884
30882
30888
30887
30880
30886
30886
30888
30880
30884
30886
30881
30885
30889
30886
30886
30892
30888
30888
30888
30892
30888
30885
30889
30881
30886
30876
30884
30880
30882
30881
30880
30884
30883
30884
30876
30884
30880
30881
30871
30884
30866
30869
30868
30864
30864
30864
30853
30864
30856
30849
30848
30860
30850
30852
30850
30848
30840
30853
30848
30844
30844
30833
30839
30828
30832
30832
30829
30828
30820
30828
30824
30824
30828
30818
30818
30816
30820
30812
30818
30808
30808
30800
30796
30789
30788
30784
30776
30772
30764
30764
30756
30752
30756
30742
30740
30737
30732
30724
30710
30708
30700
30693
30692
30684
30676
30660
30656
30662
30646
30644
30640
30639
30632
30624
30620
30620
30617
30612
30610
30596
30601
30594
30590
30590
30579
30588
30580
30580
30580
30580
30572
30576
30573
30583
30572
30580
30583
30585
30580
30585
30577
30582
30592
30592
30582
30596
30598
30596
30600
30592
30593
30598
30596
30596
30594
30600
30600
30600
30600
30598
30604
30604
30604
30604
30596
30600
30600
30596
30599
30604
30600
30596
30596
30592
30596
30600
30592
30590
30586
30584
30588
30588
30589
30583
30575
30578
30580
30574
30572
30572
30572
30564
30568
30569
30564
30560
30556
30560
30556
30552
30557
30548
30539
30543
30540
30535
30529
30529
30528
30528
30528
30528
30528
30516
30524
30517
30517
30522
30510
30522
30524
30516
30510
30516
30512
30512
30517
30518
30507
30520
30510
30512
30521
30516
30522
30524
30518
30520
30520
30518
30525
30520
30528
30530
30524
30528
30532
30528
30530
30526
30529
30533
30540
30546
30538
30541
30544
30536
30548
30541
30548
30544
30549
30547
30549
30552
30560
30556
30560
30556
30554
30560
30563
30564
30563
30568
30572
30568
30573
30573
30574
30582
30580
30586
30586
30592
30585
30600
30594
30597
30600
30608
30607
30616
30624
30620
30630
30633
30630
30639
30644
30645
30644
30648
30652
30660
30656
30666
30668
30670
30676
30684
30688
30695
30692
30693
30705
30706
30702
30704
30712
30717
30725
30720
30724
30728
30737
30736
30734
30740
30752
30753
30760
30765
30760
30768
30772
30780
30776
30788
30788
30796
30800
30797
30807
30812
30812
30820
30828
30830
30841
30839
30846
30844
30852
30860
30860
30860
30871
30880
30874
30886
30882
30884
30892
30895
30896
30900
30900
30901
30910
30918
30916
30914
30920
30928
30926
30926
30924
30944
30932
30932
30940
30940
30950
30948
30944
30948
30948
30956
30950
30958
30960
30960
30978
30965
30970
30972
30972
30976
30976
30977
30986
30984
30986
30986
30992
30986
30994
30998
31001
31004
31004
31008
31008
31012
31013
31012
31007
31012
31023
31016
31016
31012
31012
31007
31012
31020
31012
31016
31017
31016
31010
31016
31017
31010
31012
31016
31012
31010
31004
31008
31008
31018
30996
30994
31000
31000
31000
31000
30996
30991
30990
30988
30988
30986
30978
30976
30984
30980
30976
30976
30972
30968
30970
30970
30964
30960
30964
30960
30963
30964
30958
30952
30956
30960
30958
30952
30949
30940
30940
30948
30944
30940
30944
30928
30928
30928
30932
30926
30928
30922
30917
30920
30920
30908
30906
30906
30904
30900
30898
30896
30897
30890
30892
30884
30886
30880
30884
30884
30873
30876
30872
30866
30868
30863
30868
30866
30861
30852
30855
30848
30853
30852
30844
30842
30852
30838
30845
30841
30846
30843
30844
30840
30844
30844
30844
30844
30837
30841
30844
30847
30836
30840
30838
30836
30836
30836
30826
30836
30848
30838
30836
30838
30844
30836
30840
30839
30836
30831
30832
30844
30836
30832
30828
30829
30824
30828
30834
30832
30838
30824
30828
30828
30824
30824
30820
30820
30824
30820
30812
30812
30812
30804
30804
30800
30804
30800
30793
30792
30786
30790
30790
30786
30782
30782
30778
30777
30773
30772
30762
30753
30756
30756
30756
30744
30744
30736
30732
30728
30725
30724
30722
30716
30720
30716
30708
30716
30704
30701
30703
30700
30694
30689
30684
30687
30692
30672
30678
30672
30676
30668
30668
30664
30670
30664
30668
30664
30664
30658
30652
30652
30654
30644
30645
30641
30644
30644
30644
30638
30632
30640
30629
30636
30636
30625
30629
30624
30626
30629
30624
30615
30615
30616
30616
30618
30616
30612
30610
30610
30609
30617
30620
30606
30611
30614
30622
30622
30614
30628
30620
30617
30616
30616
30628
30628
30624
30628
30621
30620
30629
30624
30628
30623
30632
30626
30637
30634
30632
30625
30620
30614
30622
30620
30613
30612
30610
30612
30600
30602
30596
30596
30595
30578
30584
30584
30588
30576
30570
30568
30564
30564
30564
30564
30556
30562
30556
30549
30554
30550
30548
30548
30547
30548
30548
30544
30544
30546
30548
30549
30548
30548
30562
30552
30560
30554
30552
30560
30560
30565
30572
30564
30576
30574
30570
30569
30568
30569
30576
30584
30582
30580
30576
30580
30576
30574
30568
30569
30577
30572
30576
30576
30568
30565
30564
30564
30560
30552
30556
30551
30549
30544
30544
30536
30532
30529
30524
30524
30520
30519
30510
30512
30502
30494
30496
30498
30492
30486
30474
30476
30465
30461
30458
30452
30442
30444
30444
30434
30428
30424
30428
30408
30416
30406
30404
30397
30396
30384
30382
30376
30374
30366
30364
30368
30352
30348
30348
30344
30340
30341
30332
30337
30341
30336
30332
30327
30322
30328
30325
30320
30324
30317
30321
30320
30316
30326
30320
30327
30327
30321
30327
30327
30332
30336
30337
30338
30348
30350
30343
30348
30345
30348
30348
30356
30354
30353
30353
30362
30366
30367
30380
30380
30384
30390
30396
30390
30397
30404
30404
30405
30416
30416
30420
30422
30428
30429
30436
30438
30448
30453
30457
30460
30472
30473
30476
30484
30492
30492
30497
30500
30504
30509
30510
30518
30524
30530
30532
30532
30544
30548
30544
30552
30560
30560
30574
30576
30580
30592
30586
30580
30588
30592
30598
30596
30608
30604
30604
30604
30617
30624
30620
30632
30628
30628
30632
30628
30636
30640
30638
30654
30646
30655
30656
30656
30668
30662
30660
30670
30668
30668
30676
30682
30676
30692
30693
30702
30700
30702
30709
30712
30712
30716
30721
30724
30726
30737
30735
30734
30740
30741
30744
30750
30749
30757
30760
30762
30760
30765
30774
30770
30768
30780
30778
30772
30775
30768
30785
30776
30772
30782
30785
30785
30778
30786
30792
30790
30788
30792
30792
30784
30785
30796
30795
30788
30789
30788
30788
30792
30798
30794
30793
30788
30788
30790
30798
30804
30796
30796
30792
30796
30789
30796
30797
30796
30800
30796
30800
30809
30800
30801
30807
30802
30809
30797
30816
30812
30816
30808
30812
30820
30816
30820
30820
30820
30820
30825
30826
30836
30832
30836
30832
30832
30842
30849
30839
30848
30848
30858
30856
30852
30861
30855
30868
30868
30870
30869
30868
30878
30887
30882
30890
30884
30892
30902
30900
30893
30896
30911
30902
30908
30918
30916
30920
30926
30916
30925
30926
30928
30936
30934
30934
30942
30936
30940
30945
30946
30944
30952
30950
30948
30944
30950
30944
30950
30948
30957
30941
30956
30952
30952
30952
30944
30946
30956
30948
30955
30952
30956
30952
30940
30946
30944
30944
30945
30946
30948
30940
30938
30936
30936
30927
30938
30941
30940
30932
30940
30936
30928
30924
30925
30924
30917
30916
30917
30916
30908
30916
30912
30918
30911
30904
30912
30906
30900
30906
30896
30888
30888
30889
30886
30886
30884
30876
30876
30874
30868
30865
30872
30864
30868
30862
30861
30862
30860
30858
30849
30852
30856
30861
30848
30844
30836
30838
30832
30837
30830
30832
30830
30832
30821
30828
30822
30823
30826
30832
30820
30821
30820
30813
30809
30815
30812
30805
30814
30814
30796
30798
30801
30799
30796
30793
30796
30791
30801
30798
30804
30800
30788
30796
30789
30796
30792
30788
30784
30790
30788
30778
30784
30780
30781
30780
30793
30782
30780
30782
30782
30783
30780
30777
30780
30780
30776
30782
30784
30776
30772
30780
30778
30773
30774
30776
30776
30777
30780
30772
30773
30776
30778
30778
30776
30772
30776
30774
30782
30769
30772
30765
30772
30760
30778
30772
30774
30769
30764
30764
30764
30765
30769
30768
30763
30764
30760
30762
30766
30764
30764
30758
30770
30768
30770
30760
30766
30772
30772
30772
30767
30772
30774
30780
30772
30775
30782
30785
30781
30788
30782
30780
30793
30790
30788
30788
30792
30794
30792
30790
30796
30784
30790
30784
30788
30782
30772
30775
30776
30769
30769
30764
30756
30753
30756
30740
30742
30736
30730
30729
30728
30727
30717
30708
30716
30708
30707
30710
30693
30690
30692
30689
30689
30680
30681
30680
30672
30676
30664
30669
30676
30672
30672
30672
30676
30676
30670
30674
30677
30673
30674
30684
30692
30684
30682
30684
30688
30686
30689
30686
30694
30692
30700
30700
30700
30700
30703
30708
30694
30704
30694
30701
30704
30708
30704
30711
30702
30710
30705
30709
30697
30702
30703
30704
30710
30698
30696
30702
30692
30692
30692
30694
30692
30688
30688
30692
30695
30688
30692
30688
30684
30686
30686
30678
30682
30666
30676
30669
30664
30666
30664
30660
30657
30652
30648
30652
30644
30636
30648
30631
30638
30629
30628
30628
30620
30617
30613
30604
30606
30596
30608
30594
30596
30580
30588
30585
30594
30585
30582
30586
30588
30584
30576
30580
30570
30572
30566
30569
30568
30562
30560
30558
30572
30558
30560
30556
30560
30556
30562
30564
30560
30556
30556
30556
30554
30564
30552
30561
30554
30559
30560
30554
30564
30564
30560
30569
30562
30565
30568
30569
30576
30580
30572
30576
30576
30582
30586
30592
30588
30597
30592
30605
30596
30608
30608
30616
30615
30624
30617
30628
30636
30634
30644
30638
30646
30650
30660
30660
30661
30664
30664
30676
30679
30685
30684
30692
30697
30700
30708
30713
30712
30718
30721
30728
30726
30733
30737
30744
30740
30740
30745
30743
30750
30750
30760
30760
30762
30772
30772
30768
30774
30772
30785
30784
30788
30784
30785
30792
30800
30801
30794
30804
30804
30820
30820
30829
30820
30820
30836
30842
30845
30849
30852
30857
30865
30868
30872
30885
30876
30888
30894
30896
30900
30908
30912
30918
30922
30926
30936
30944
30946
30948
30956
30956
30960
30960
30972
30970
30980
30976
30980
30976
30984
30991
31003
30992
31000
31002
31014
31008
31012
31013
31016
31022
31019
31022
31026
31028
31040
31035
31042
31040
31044
31044
31053
31053
31048
31053
31068
31060
31066
31066
31061
31072
31072
31073
31076
31068
31073
31084
31080
31084
31086
31088
31097
31096
31093
31102
31109
31104
31104
31112
31108
31104
31101
31108
31108
31113
31108
31118
31116
31120
31114
31126
31120
31126
31124
31125
31127
31125
31137
31134
31146
31136
31135
31149
31140
31141
31144
31140
31143
31148
31152
31158
31154
31160
31160
31168
31165
31172
31175
31172
31168
31184
31168
31172
31184
31173
31188
31172
31177
31176
31180
31182
31188
31192
31196
31191
31192
31193
31191
31182
31196
31188
31193
31196
31188
31192
31180
31181
31184
31185
31190
31190
31181
31184
31180
31186
31185
31180
31191
31185
31184
31185
31180
31176
31172
31176
31172
31176
31176
31169
31164
31172
31172
31168
31164
31167
31162
31166
31167
31160
31168
31154
31159
31160
31153
31148
31152
31148
31151
31146
31142
31146
31142
31140
31148
31137
31136
31140
31142
31140
31128
31130
31121
31124
31127
31118
31116
31113
31108
31124
31111
31119
31114
31110
31116
31113
31111
31112
31104
31108
31111
31108
31098
31106
31101
31092
31092
31095
31088
31084
31080
31080
31080
31076
31078
31070
31076
31076
31072
31072
31065
31061
31053
31064
31060
31060
31047
31048
31043
31044
31036
31041
31038
31041
31038
31032
31036
31028
31024
31025
31020
31020
31024
31012
31020
31010
31010
31010
31008
31005
31008
30998
31001
31002
31004
30992
31004
30996
30996
30988
30988
30986
30986
30978
30992
30980
30980
30973
30972
30972
30974
30973
30966
30966
30966
30969
30968
30972
30964
30970
30964
30960
30956
30954
30950
30952
30958
30940
30946
30944
30944
30948
30944
30936
30948
30948
30940
30944
30932
30944
30940
30936
30924
30936
30936
30932
30929
30928
30924
30928
30929
30924
30933
30928
30934
30928
30936
30946
30932
30936
30936
30938
30936
30940
30938
30948
30940
30948
30944
30952
30945
30956
30952
30960
30956
30956
30954
30954
30962
30956
30960
30962
30957
30957
30948
30948
30946
30956
30945
30941
30936
30938
30944
30936
30922
30924
30919
30916
30915
30909
30912
30910
30908
30897
30896
30896
30886
30886
30886
30881
30884
30881
30884
30872
30865
30885
30871
30876
30876
30873
30872
30874
30864
30873
30872
30880
30880
30878
30886
30880
30881
30884
30896
30890
30888
30894
30892
30910
30900
30902
30908
30902
30912
30912
30908
30910
30923
30903
30911
30913
30916
30912
30916
30916
30910
30918
30916
30916
30924
30916
30912
30911
30909
30908
30914
30908
30912
30912
30905
30900
30901
30900
30904
30902
30897
30894
30888
30890
30892
30890
30881
30881
30892
30874
30880
30877
30868
30868
30861
30864
30860
30861
30855
30848
30846
30844
30836
30840
30828
30834
30825
30824
30822
30812
30814
30801
30798
30798
30798
30792
30792
30785
30773
30786
30788
30774
30779
30780
30776
30764
30764
30768
30764
30764
30761
30762
30759
30765
30756
30764
30748
30756
30752
30759
30752
30758
30756
30756
30750
30756
30756
30756
30756
30754
30750
30749
30756
30753
30758
30756
30760
30758
30757
30760
30762
30774
30770
30774
30772
30774
30773
30777
30786
30788
30783
30785
30788
30788
30798
30805
30808
30805
30812
30819
30820
30828
30832
30828
30841
30846
30852
30860
30860
30856
30872
30881
30881
30881
30884
30892
30896
30902
30904
30905
30914
30924
30932
30928
30932
30948
30951
30956
30957
30964
30962
30973
30974
30991
30988
30990
30992
31000
31012
31009
31012
31021
31030
31032
31032
31045
31048
31048
31064
31057
31060
31067
31070
31082
31080
31088
31092
31100
31096
31104
31111
31121
31124
31126
31130
31150
31148
31153
31156
31160
31164
31170
31178
31192
31196
31200
31202
31215
31220
31232
31237
31250
31245
31252
31260
31268
31272
31280
31278
31286
31296
31301
31312
31304
31300
31316
31316
31322
31333
31337
31343
31341
31340
31352
31356
31357
31358
31356
31364
31364
31372
31376
31376
31382
31376
31388
31386
31382
31390
31396
31396
31396
31411
31400
31402
31410
31417
31412
31414
31416
31413
31418
31428
31420
31428
31425
31436
31428
31436
31433
31437
31440
31452
31448
31444
31444
31450
31452
31456
31448
31460
31457
31458
31458
31460
31456
31456
31467
31469
31469
31472
31470
31480
31484
31480
31484
31492
31492
31489
31490
31492
31500
31492
31506
31504
31511
31505
31504
31510
31514
31518
31520
31526
31524
31527
31536
31540
31536
31529
31543
31540
31545
31548
31541
31548
31550
31552
31552
31560
31560
31556
31556
31556
31560
31564
31564
31564
31566
31564
31564
31564
31574
31566
31575
31568
31569
31572
31566
31578
31572
31570
31572
31570
31573
31574
31572
31576
31572
31568
31572
31568
31572
31566
31575
31568
31566
31565
31560
31564
31569
31564
31556
31562
31562
31560
31556
31559
31552
31553
31548
31553
31554
31545
31550
31551
31553
31542
31550
31532
31546
31542
31536
31532
31536
31532
31528
31526
31530
31525
31527
31529
31530
31524
31524
31524
31520
31510
31520
31520
31508
31506
31512
31511
31506
31508
31506
31512
31511
31505
31496
31500
31494
31499
31500
31502
31504
31495
31496
31488
31488
31492
31486
31480
31488
31484
31478
31482
31477
31484
31473
31468
31472
31478
31472
31470
31464
31464
31460
31452
31457
31456
31456
31452
31448
31441
31456
31446
31450
31448
31448
31440
31444
31440
31432
31441
31436
31436
31428
31430
31428
31426
31428
31420
31426
31420
31412
31416
31417
31416
31418
31402
31412
31411
31404
31406
31404
31408
31404
31404
31394
31400
31388
31392
31393
31388
31378
31382
31380
31378
31382
31377
31380
31380
31374
31375
31374
31372
31364
31364
31368
31362
31364
31360
31364
31361
31358
31367
31354
31361
31361
31353
31348
31349
31352
31350
31351
31341
31344
31351
31345
31342
31346
31342
31344
31344
31348
31339
31340
31341
31343
31334
31342
31338
31337
31337
31341
31340
31340
31341
31343
31340
31345
31349
31345
31354
31348
31348
31348
31356
31352
31355
31353
31360
31352
31352
31364
31365
31361
31364
31361
31364
31365
31370
31365
31370
31364
31374
31365
31374
31366
31364
31361
31370
31362
31364
31346
31353
31350
31348
31348
31341
31337
31337
31332
31328
31321
31326
31316
31310
31308
31310
31301
31296
31300
31295
31295
31286
31284
31282
31289
31290
31276
31276
31277
31272
31277
31271
31272
31268
31273
31269
31262
31272
31269
31272
31268
31260
31268
31270
31276
31273
31272
31280
31284
31280
31284
31276
31284
31292
31292
31292
31288
31294
31292
31288
31298
31296
31300
31296
31292
31297
31289
31296
31289
31284
31293
31297
31290
31280
31284
31292
31272
31281
31285
31272
31272
31268
31264
31268
31256
31260
31254
31265
31252
31249
31252
31233
31248
31240
31239
31236
31228
31228
31226
31214
31212
31206
31204
31204
31201
31201
31202
31188
31188
31175
31188
31172
31172
31160
31164
31166
31158
31152
31145
31140
31146
31145
31141
31136
31133
31140
31134
31140
31124
31134
31124
31138
31132
31128
31132
31128
31132
31124
31136
31137
31132
31134
31128
31128
31134
31144
31142
31142
31144
31144
31148
31148
31150
31160
31153
31158
31168
31160
31164
31173
31173
31178
31180
31174
31188
31194
31188
31200
31204
31212
31216
31220
31216
31228
31230
31232
31240
31244
31252
31260
31260
31266
31272
31276
31284
31287
31298
31308
31317
31316
31322
31320
31326
31332
31348
31345
31348
31356
31372
31372
31376
31380
31394
31393
31404
31404
31414
31424
31428
31426
31440
31437
31444
31453
31460
31460
31460
31472
31476
31477
31484
31487
31496
31493
31508
31514
31518
31516
31524
31520
31524
31526
31533
31535
31536
31554
31552
31549
31556
31552
31564
31564
31572
31567
31574
31582
31583
31588
31590
31592
31590
31594
31597
31604
31612
31620
31620
31625
31620
31628
31632
31637
31642
31644
31650
31652
31654
31660
31668
31659
31676
31676
31677
31676
31688
31681
31685
31685
31693
31686
31692
31692
31696
31700
31694
31700
31700
31700
31700
31709
31709
31710
31706
31712
31704
31703
31704
31709
31702
31700
31702
31712
31705
31708
31708
31710
31711
31708
31708
31702
31708
31706
31708
31702
31708
31700
31704
31702
31706
31700
31694
31698
31700
31697
31702
31700
31700
31710
31706
31694
31701
31708
31694
31700
31698
31688
31692
31692
31696
31690
31689
31695
31698
31688
31693
31696
31696
31701
31692
31696
31696
31688
31692
31692
31692
31693
31685
31681
31685
31693
31697
31700
31693
31688
31700
31701
31696
31703
31700
31704
31704
31696
31700
31700
31705
31706
31701
31712
31710
31700
31712
31708
31704
31706
31713
31716
31720
31720
31720
31720
31721
31728
31717
31724
31725
31724
31732
31720
31724
31726
31736
31732
31734
31736
31728
31732
31740
31729
31730
31732
31726
31728
31732
31740
31732
31736
31729
31733
31732
31721
31732
31722
31713
31726
31722
31717
31720
31712
31724
31720
31721
31720
31721
31712
31720
31704
31710
31697
31710
31702
31708
31700
31700
31692
31690
31692
31688
31692
31684
31687
31684
31680
31680
31678
31677
31671
31660
31661
31652
31656
31648
31658
31656
31652
31660
31657
31649
31652
31648
31649
31633
31650
31632
31630
31626
31631
31632
31626
31620
31617
31622
31616
31620
31614
31620
31617
31618
31620
31616
31604
31612
31608
31612
31604
31600
31598
31606
31593
31596
31585
31594
31590
31594
31598
31582
31588
31584
31576
31582
31577
31576
31580
31577
31568
31569
31568
31572
31560
31560
31556
31552
31553
31556
31556
31550
31548
31547
31548
31550
31541
31537
31535
31544
31537
31536
31528
31534
31527
31533
31524
31522
31510
31520
31521
31521
31512
31521
31512
31504
31512
31511
31512
31508
31506
31500
31502
31500
31502
31502
31500
31492
31503
31496
31494
31498
31500
31492
31494
31493
31487
31490
31492
31488
31482
31487
31488
31478
31492
31484
31490
31488
31480
31488
31494
31486
31492
31485
31488
31490
31486
31484
31488
31488
31480
31478
31481
31486
31484
31481
31484
31484
31490
31480
31488
31487
31476
31488
31483
31480
31484
31481
31488
31476
31488
31482
31476
31480
31477
31474
31477
31479
31473
31484
31488
31478
31484
31484
31482
31489
31490
31484
31488
31496
31488
31484
31488
31488
31490
31488
31484
31480
31484
31481
31484
31481
31484
31477
31472
31476
31484
31473
31466
31465
31460
31460
31452
31441
31437
31444
31442
31431
31420
31417
31414
31428
31396
31408
31404
31394
31396
31396
31388
31381
31384
31377
31370
31365
31364
31360
31356
31360
31352
31349
31348
31356
31344
31348
31338
31348
31340
31335
31340
31340
31338
31341
31332
31332
31334
31342
31338
31336
31341
31340
31336
31346
31345
31348
31346
31340
31345
31354
31354
31357
31349
31348
31340
31348
31340
31348
31336
31332
31340
31336
31341
31340
31332
31333
31340
31325
31328
31328
31326
31325
31320
31312
31316
31304
31301
31294
31300
31298
31300
31300
31292
31284
31287
31286
31276
31268
31268
31268
31262
31254
31252
31260
31244
31244
31228
31230
31225
31224
31217
31208
31202
31200
31202
31192
31191
31184
31186
31180
31178
31180
31168
31160
31165
31162
31155
31153
31152
31148
31151
31154
31150
31154
31140
31148
31143
31146
31152
31144
31152
31152
31145
31153
31148
31157
31150
31160
31161
31172
31162
31170
31169
31169
31176
31180
31180
31194
31188
31194
31200
31201
31196
31196
31204
31212
31212
31220
31228
31224
31224
31228
31236
31240
31247
31255
31252
31268
31260
31269
31269
31268
31272
31280
31288
31290
31292
31297
31306
31311
31314
31318
31322
31326
31333
31337
31342
31350
31348
31356
31360
31364
31370
31375
31378
31384
31389
31392
31406
31403
31420
31410
31417
31424
31426
31429
31438
31439
31448
31448
31448
31456
31449
31460
31457
31468
31464
31468
31472
31473
31477
31484
31480
31484
31496
31500
31492
31500
31502
31516
31509
31508
31516
31511
31512
31520
31520
31516
31532
31532
31528
31538
31540
31542
31545
31550
31556
31556
31557
31561
31568
31568
31572
31576
31576
31572
31577
31588
31590
31592
31592
31588
31600
31609
31604
31606
31605
31620
31616
31614
31628
31620
31620
31626
31624
31624
31621
31630
31625
31636
31624
31625
31630
31634
31641
31649
31633
31637
31636
31638
31636
31642
31633
31636
31632
31636
31630
31640
31632
31626
31634
31628
31633
31640
31628
31636
31637
31628
31640
31636
31636
31628
31632
31620
31626
31633
31626
31617
31620
31612
31620
31620
31617
31621
31626
31624
31620
31620
31612
31614
31617
31616
31616
31610
31607
31606
31608
31608
31603
31600
31604
31608
31599
31604
31593
31604
31596
31594
31600
31599
31596
31600
31604
31596
31597
31600
31590
31592
31600
31592
31600
31596
31596
31592
31596
31606
31604
31596
31606
31608
31605
31608
31600
31609
31604
31598
31604
31606
31600
31609
31600
31604
31608
31607
31601
31612
31608
31606
31602
31605
31614
31614
31612
31613
31609
31612
31604
31612
31607
31606
31607
31614
31614
31620
31609
31614
31612
31612
31602
31604
31606
31604
31601
31604
31600
31600
31593
31589
31594
31596
31593
31590
31597
31590
31588
31588
31592
31584
31584
31578
31584
31581
31580
31572
31576
31568
31564
31553
31561
31557
31560
31552
31552
31552
31550
31541
31542
31537
31541
31532
31524
31524
31518
31520
31516
31517
31518
31508
31504
31509
31505
31498
31492
31504
31492
31494
31492
31492
31480
31489
31478
31476
31472
31472
31468
31462
31461
31468
31466
31468
31466
31464
31454
31450
31456
31452
31452
31452
31454
31444
31438
31444
31450
31432
31432
31436
31430
31434
31430
31432
31424
31428
31431
31428
31424
31428
31428
31425
31424
31418
31428
31420
31413
31417
31412
31408
31413
31404
31404
31406
31396
31400
31393
31400
31406
31394
31396
31386
31384
31388
31390
31386
31380
31380
31378
31376
31369
31376
31370
31368
31366
31375
31364
31368
31364
31368
31356
31356
31358
31360
31357
31351
31344
31345
31342
31344
31342
31344
31337
31332
31345
31340
31332
31333
31342
31332
31328
31332
31329
31317
31326
31332
31324
31329
31322
31321
31324
31324
31317
31316
31328
31316
31322
31319
31312
31318
31323
31314
31316
31309
31316
31312
31304
31300
31309
31311
31304
31303
31300
31300
31304
31303
31305
31312
31308
31308
31312
31308
31304
31300
31308
31308
31304
31306
31310
31304
31304
31300
31302
31296
31298
31310
31304
31312
31309
31305
31304
31306
31305
31304
31300
31297
31300
31302
31304
31298
31296
31304
31297
31298
31300
31296
31300
31300
31300
31300
31302
31302
31300
31300
31304
31302
31301
31302
31304
31308
31306
31314
31300
31308
31304
31312
31319
31316
31314
31316
31321
31314
31316
31316
31322
31313
31306
31304
31306
31304
31300
31296
31300
31292
31292
31281
31274
31281
31280
31271
31268
31266
31256
31252
31248
31244
31238
31232
31236
31229
31224
31216
31226
31218
31212
31218
31204
31204
31204
31196
31200
31202
31192
31196
31182
31184
31186
31180
31174
31175
31177
31178
31173
31168
31174
31180
31164
31176
31170
31174
31176
31176
31172
31180
31176
31176
31172
31173
31172
31173
31170
31173
31174
31169
31168
31168
31172
31172
31168
31175
31169
31167
31164
31164
31160
31160
31156
31148
31159
31153
31141
31148
31148
31141
31146
31140
31142
31136
31128
31121
31121
31125
31116
31119
31110
31108
31106
31096
31104
31080
31087
31084
31076
31084
31074
31069
31070
31056
31062
31061
31052
31048
31044
31034
31036
31030
31025
31026
31012
31012
31012
31010
31006
31001
31000
30996
30999
30992
30988
30996
30996
30994
30988
30990
30992
30988
30986
30988
30990
30980
30986
30980
30993
30988
30988
30996
30988
31000
31001
30996
31003
31000
31008
31006
31005
31016
31014
31024
31016
31018
31022
31022
31028
31028
31028
31030
31041
31042
31040
31044
31048
31056
31056
31060
31057
31065
31068
31072
31076
31084
31074
31084
31084
31085
31087
31097
31102
31108
31102
31109
31112
31112
31122
31116
31132
31135
31140
31150
31142
31140
31149
31156
31153
31167
31164
31164
31172
31176
31176
31177
31188
31193
31196
31200
31204
31208
31204
31217
31220
31226
31224
31228
31238
31232
31239
31239
31253
31248
31252
31248
31252
31262
31268
31262
31268
31270
31274
31270
31280
31287
31272
31288
31288
31293
31293
31296
31297
31300
31304
31308
31312
31309
31306
31318
31324
31320
31328
31324
31333
31333
31344
31345
31344
31354
31348
31360
31360
31360
31362
31364
31374
31370
31372
31376
31383
31380
31392
31388
31391
31388
31396
31397
31393
31396
31398
31400
31392
31407
31402
31405
31404
31400
31408
31396
31406
31406
31414
31406
31400
31402
31404
31405
31406
31404
31406
31405
31405
31397
31396
31410
31400
31404
31412
31406
31407
31404
31416
31408
31406
31404
31408
31408
31417
31414
31409
31412
31418
31418
31420
31422
31414
31420
31412
31425
31426
31428
31426
31426
31424
31431
31428
31428
31435
31444
31442
31440
31444
31450
31450
31452
31460
31468
31466
31470
31476
31472
31480
31484
31488
31492
31501
31508
31516
31514
31516
31524
31529
31540
31535
31550
31552
31561
31568
31572
31582
31588
31591
31598
31608
31620
31625
31633
31628
31644
31649
31654
31664
31673
31680
31688
31700
31705
31708
31716
31716
31732
31736
31742
31754
31756
31760
31772
31780
31784
31793
31798
31806
31816
31817
31825
31830
31838
31848
31853
31864
31871
31876
31878
31884
31892
31898
31904
31910
31912
31926
31926
31932
31940
31940
31948
31956
31964
31972
31972
31970
31981
31978
31980
31993
32004
32004
32004
32008
32007
32016
32018
32024
32024
32020
32024
32028
32032
32036
32032
32042
32040
32041
32044
32036
32042
32042
32036
32034
32038
32036
32051
32040
32046
32044
32039
32039
32044
32039
32040
32044
32034
32039
32030
32034
32042
32037
32032
32037
32029
32032
32020
32025
32028
32024
32026
32020
32020
32024
32012
32020
32016
32016
32012
32004
32005
32007
31996
31998
31997
32004
31998
31997
31994
31984
31992
31980
31988
31984
31983
31984
31972
31972
31968
31980
31964
31964
31964
31962
31962
31956
31957
31956
31956
31954
31948
31952
31950
31948
31946
31940
31948
31941
31936
31944
31944
31936
31936
31918
31931
31928
31928
31925
31930
31920
31916
31927
31924
31916
31920
31908
31917
31909
31912
31908
31908
31904
31904
31900
31897
31900
31897
31895
31895
31888
31885
31882
31886
31880
31876
31869
31871
31870
31868
31861
31857
31846
31853
31844
31852
31836
31838
31828
31822
31823
31816
31812
31808
31804
31807
31800
31797
31792
31794
31784
31792
31777
31776
31768
31764
31757
31746
31752
31748
31734
31744
31727
31732
31722
31720
31708
31708
31694
31700
31694
31692
31694
31688
31685
31677
31681
31668
31668
31652
31656
31648
31650
31649
31632
31638
31624
31628
31624
31620
31612
31612
31604
31598
31596
31592
31588
31589
31591
31577
31572
31569
31564
31564
31556
31556
31548
31540
31540
31536
31540
31530
31524
31522
31520
31510
31504
31494
31500
31497
31488
31486
31482
31478
31472
31472
31468
31464
31462
31446
31454
31444
31446
31437
31436
31440
31429
31428
31421
31421
31412
31414
31406
31409
31392
31400
31405
31392
31392
31392
31389
31384
31380
31373
31382
31368
31367
31366
31356
31350
31343
31336
31338
31335
31334
31312
31314
31308
31298
31296
31292
31280
31278
31270
31261
31256
31254
31242
31228
31216
31215
31208
31196
31197
31188
31183
31177
31167
31166
31161
31156
31151
31144
31132
31136
31129
31124
31124
31118
31118
31100
31105
31102
31098
31086
31078
31077
31076
31080
31084
31076
31071
31072
31072
31064
31064
31062
31065
31064
31058
31064
31060
31054
31056
31056
31052
31050
31052
31048
31051
31040
31034
31039
31042
31033
31032
31024
31020
31018
31022
31013
31012
31014
30996
30999
30994
30992
30992
30984
30980
30977
30967
30958
30966
30954
30952
30948
30944
30937
30933
30933
30921
30916
30917
30904
30916
30897
30894
30894
30888
30876
30872
30862
30862
30857
30855
30848
30844
30840
30836
30830
30825
30828
30824
30820
30812
30809
30804
30808
30802
30798
30800
30796
30798
30797
30796
30787
30788
30796
30796
30796
30802
30786
30796
30802
30796
30804
30804
30808
30804
30808
30813
30814
30816
30820
30825
30828
30824
30833
30830
30849
30844
30848
30848
30852
30853
30864
30864
30869
30870
30874
30876
30884
30886
30892
30896
30900
30897
30912
30916
30916
30916
30926
30910
30925
30926
30934
30936
30944
30952
30950
30959
30954
30960
30968
30974
30972
30976
30989
30988
30988
30985
30993
30996
30999
30996
31000
31008
31015
31008
31015
31020
31026
31033
31028
31032
31032
31034
31040
31044
31045
31046
31044
31040
31040
31042
31048
31050
31050
31058
31052
31048
31057
31054
31060
31055
31055
31054
31064
31065
31056
31058
31052
31056
31052
31048
31054
31046
31052
31054
31045
31048
31056
31048
31052
31041
31045
31050
31044
31044
31040
31040
31044
31050
31044
31041
31050
31044
31038
31040
31044
31036
31036
31041
31037
31038
31041
31036
31036
31028
31024
31029
31028
31028
31025
31025
31030
31028
31014
31020
31012
31020
31008
31008
31006
31000
31001
31000
30990
30984
30992
30983
30977
30980
30976
30968
30968
30968
30954
30956
30949
30948
30946
30933
30942
30936
30934
30932
30932
30920
30917
30908
30914
30910
30898
30897
30904
30889
30888
30888
30887
30882
30876
30876
30872
30868
30865
30864
30860
30860
30852
30852
30849
30844
30847
30836
30832
30824
30828
30830
30818
30821
30820
30818
30820
30812
30808
30806
30800
30793
30788
30794
30788
30788
30784
30786
30776
30776
30784
30768
30768
30766
30765
30760
30757
30756
30759
30752
30746
30749
30744
30749
30745
30741
30734
30740
30736
30732
30732
30732
30725
30720
30726
30716
30716
30712
30705
30706
30700
30700
30699
30700
30696
30695
30692
30692
30692
30684
30680
30676
30673
30668
30660
30666
30662
30658
30650
30654
30644
30648
30644
30648
30637
30621
30624
30622
30616
30615
30608
30596
30601
30598
30596
30599
30585
30581
30572
30572
30560
30556
30556
30551
30545
30542
30532
30528
30524
30521
30513
30508
30505
30498
30502
30488
30485
30472
30472
30460
30464
30458
30448
30439
30434
30424
30422
30420
30408
30404
30400
30390
30396
30389
30388
30373
30364
30356
30356
30352
30343
30340
30324
30328
30325
30312
30314
30312
30302
30294
30293
30289
30292
30276
30276
30272
30276
30258
30256
30258
30249
30253
30248
30250
30244
30237
30236
30230
30232
30222
30222
30224
30210
30220
30212
30212
30213
30208
30206
30204
30200
30197
30204
30208
30196
30202
30199
30190
30196
30196
30191
30192
30188
30197
30192
30192
30191
30190
30194
30194
30188
30196
30194
30188
30192
30194
30191
30197
30196
30193
30200
30200
30197
30196
30197
30196
30196
30196
30192
30196
30194
30194
30201
30201
30193
30199
30194
30188
30196
30190
30193
30188
30193
30190
30186
30181
30184
30186
30186
30180
30178
30180
30175
30172
30180
30176
30172
30165
30161
30160
30157
30154
30159
30148
30150
30144
30148
30142
30136
30136
30137
30134
30125
30120
30126
30116
30128
30118
30117
30101
30106
30109
30105
30099
30088
30088
30084
30082
30080
30074
30072
30064
30058
30057
30054
30044
30049
30046
30037
30033
30022
30028
30028
30020
30016
30014
30008
30000
29994
29994
29992
29980
29978
29984
29979
29968
29964
29967
29953
29949
29952
29946
29943
29940
29932
29926
29925
29920
29921
29912
29924
29904
29906
29906
29912
29904
29898
29900
29896
29896
29890
29892
29888
29890
29888
29892
29886
29888
29888
29891
29880
29885
29880
29877
29878
29886
29883
29884
29882
29884
29876
29881
29886
29888
29891
29888
29884
29893
29884
29898
29900
29900
29900
29904
29904
29916
29912
29916
29922
29920
29925
29925
29924
29930
29924
29928
29936
29934
29936
29932
29932
29933
29936
29940
29930
29930
29924
29924
29934
29924
29920
29919
29914
29904
29904
29900
29898
29892
29888
29884
29880
29892
29868
29876
29866
29864
29861
29858
29850
29852
29846
29836
29833
29832
29825
29820
29816
29812
29809
29806
29800
29796
29799
29797
29792
29790
29800
29794
29796
29794
29796
29794
29791
29796
29793
29794
29796
29790
29791
29792
29792
29794
29792
29795
29799
29794
29796
29798
29792
29800
29795
29792
29796
29796
29786
29785
29786
29784
29786
29784
29778
29782
29772
29775
29774
29777
29766
29762
29758
29765
29760
29754
29750
29748
29740
29740
29739
29732
29732
29730
29728
29726
29724
29724
29718
29706
29712
29706
29692
29694
29688
29680
29676
29673
29669
29668
29668
29660
29661
29644
29642
29632
29626
29628
29616
29630
29618
29610
29608
29601
29604
29609
29598
29594
29596
29588
29584
29588
29578
29578
29574
29567
29566
29573
29574
29572
29564
29564
29565
29560
29563
29564
29566
29558
29568
29564
29566
29572
29568
29573
29575
29570
29572
29572
29572
29580
29582
29578
29580
29580
29592
29584
29588
29588
29597
29600
29600
29601
29608
29606
29618
29614
29620
29618
29626
29629
29628
29630
29634
29640
29640
29648
29652
29648
29650
29662
29664
29660
29666
29673
29676
29680
29682
29692
29686
29688
29687
29696
29698
29706
29708
29705
29708
29720
29721
29726
29726
29728
29728
29732
29740
29744
29744
29748
29748
29752
29762
29756
29768
29765
29766
29769
29764
29774
29776
29782
29774
29773
29786
29784
29788
29781
29792
29792
29794
29792
29792
29796
29800
29796
29804
29804
29808
29810
29802
29812
29812
29818
29818
29820
29817
29823
29826
29830
29834
29836
29838
29844
29848
29856
29852
29855
29868
29864
29871
29876
29886
29888
29886
29892
29900
29900
29906
29912
29901
29907
29918
29917
29924
29930
29940
29936
29933
29946
29943
29944
29954
29952
29962
29956
29964
29968
29968
29970
29980
29980
29976
29984
29986
29984
29988
29984
29994
30000
29996
30000
30007
30004
29999
30004
30014
30016
30010
30021
30024
30020
30028
30026
30038
30030
30048
30048
30045
30052
30060
30060
30064
30065
30065
30077
30076
30081
30088
30094
30105
30104
30107
30108
30112
30120
30120
30129
30132
30140
30142
30146
30156
30162
30160
30169
30177
30176
30178
30193
30193
30205
30206
30215
30218
30224
30240
30234
30240
30258
30263
30262
30268
30268
30279
30281
30288
30292
30294
30308
30313
30319
30325
30328
30337
30348
30354
30364
30366
30370
30371
30390
30388
30397
30414
30420
30420
30432
30434
30436
30444
30444
30456
30462
30469
30476
30481
30492
30498
30504
30508
30516
30522
30532
30542
30542
30548
30559
30558
30564
30565
30576
30582
30589
30600
30603
30606
30611
30615
30628
30628
30634
30636
30648
30652
30654
30664
30676
30676
30682
30684
30684
30685
30702
30712
30716
30717
30720
30734
30740
30744
30751
30756
30766
30772
30780
30788
30795
30800
30812
30816
30828
30832
30842
30856
30868
30872
30884
30890
30897
30908
30916
30924
30948
30956
30952
30960
30966
30976
30988
30998
31012
31020
31020
31034
31040
31052
31064
31072
31082
31093
31096
31108
31112
31124
31140
31146
31143
31152
31161
31166
31176
31186
31192
31204
31204
31208
31216
31226
31224
31244
31240
31248
31262
31260
31276
31268
31279
31292
31296
31296
31302
31320
31313
31321
31321
31328
31329
31342
31348
31360
31360
31360
31368
31364
31366
31380
31381
31392
31398
31396
31396
31408
31408
31414
31420
31430
31430
31436
31432
31444
31454
31446
31444
31460
31464
31468
31471
31480
31485
31498
31494
31492
31504
31508
31508
31518
31516
31524
31528
31528
31532
31537
31540
31548
31556
31552
31553
31561
31572
31568
31568
31576
31580
31582
31588
31590
31596
31597
31598
31604
31612
31619
31616
31620
31620
31628
31628
31632
31636
31640
31639
31645
31646
31652
31652
31648
31656
31656
31653
31652
31660
31663
31660
31662
31668
31664
31669
31671
31670
31668
31675
31678
31668
31673
31676
31684
31678
31671
31668
31676
31673
31674
31676
31681
31680
31668
31676
31670
31672
31674
31676
31680
31678
31678
31677
31681
31676
31684
31681
31680
31680
31696
31696
31692
31703
31702
31708
31710
31712
31714
31725
31724
31727
31733
31748
31750
31761
31764
31768
31776
31796
31802
31801
31822
31828
31832
31844
31854
31868
31880
31884
31897
31904
31918
31928
31936
31946
31957
31972
31977
31993
31992
32005
32020
32029
32036
32056
32057
32065
32084
32086
32098
32108
32101
32118
32126
32132
32136
32140
32152
32162
32168
32172
32182
32180
32182
32204
32204
32206
32209
32225
32225
32236
32240
32246
32253
32249
32268
32266
32279
32290
32296
32306
32313
32324
32324
32341
32345
32353
32359
32372
32385
32392
32404
32414
32408
32436
32444
32460
32473
32468
32488
32502
32510
32524
32536
32540
32556
32568
32584
32586
32596
32608
32621
32636
32648
32660
32670
32680
32692
32704
32716
32724
32733
32741
32749
32757
32768
32788
32796
32804
32804
32816
32822
32838
32844
32848
32865
32876
32873
32892
32900
32900
32916
32922
32932
32942
32940
32952
32951
32968
32966
32977
32989
32992
33000
32992
33004
33008
33016
33024
33028
33040
33039
33040
33048
33048
33052
33056
33053
33057
33061
33061
33065
33060
33068
33061
33064
33060
33064
33060
33078
33072
33072
33063
33061
33066
33062
33065
33058
33058
33056
33060
33060
33048
33052
33049
33052
33052
33044
33044
33042
33044
33040
33030
33036
33028
33028
33024
33026
33024
33012
33020
33010
32998
32990
32993
33004
32992
32984
32992
32974
32973
32969
32972
32961
32964
32959
32964
32948
32942
32936
32936
32931
32933
32916
32914
32910
32901
32900
32892
32892
32886
32869
32868
32856
32848
32849
32850
32836
32825
32815
32804
32798
32778
32774
32772
32764
32754
32740
32734
32728
32716
32706
32696
32682
32676
32665
32656
32644
32628
32612
32604
32594
32578
32572
32552
32547
32532
32524
32508
32484
32476
32464
32448
32442
32418
32407
32392
32384
32372
32341
32340
32324
32310
32296
32282
32276
32257
32248
32229
32218
32213
32200
32194
32165
32161
32146
32132
32133
32116
32100
32092
32082
32072
32076
32055
32041
32036
32025
32020
32014
32008
31996
31989
31980
31973
31964
31964
31956
31945
31934
31932
31932
31919
31913
31910
31895
31896
31886
31877
31880
31864
31868
31860
31860
31848
31846
31841
31838
31836
31820
31824
31820
31812
31809
31797
31800
31804
31793
31785
31781
31784
31777
31784
31778
31772
31778
31780
31780
31769
31774
31772
31770
31778
31772
31776
31777
31774
31776
31777
31776
31780
31776
31781
31778
31788
31788
31781
31788
31796
31796
31792
31802
31808
31806
31810
31808
31824
31824
31826
31833
31839
31850
31849
31850
31860
31860
31868
31873
31872
31874
31886
31887
31878
31885
31876
31884
31889
31894
31893
31896
31904
31900
31895
31896
31900
31886
31886
31887
31888
31880
31876
31878
31876
31864
31862
31848
31840
31843
31839
31838
31824
31812
31816
31809
31809
31792
31798
31777
31778
31776
31768
31749
31756
31750
31751
31748
31740
31726
31727
31720
31720
31712
31716
31712
31710
31705
31708
31708
31701
31702
31704
31708
31698
31702
31701
31705
31717
31725
31728
31732
31744
31748
31758
31758
31758
31773
31784
31792
31796
31804
31814
31828
31836
31839
31852
31863
31876
31885
31896
31904
31909
31930
31938
31956
31966
31972
31982
31994
32012
32016
32018
32038
32040
32044
32056
32068
32068
32084
32080
32100
32100
32120
32116
32136
32143
32151
32142
32159
32168
32164
32172
32173
32183
32184
32184
32193
32204
32200
32204
32214
32216
32224
32224
32228
32231
32238
32240
32248
32252
32248
32255
32261
32258
32260
32266
32270
32268
32266
32268
32280
32274
32280
32292
32296
32298
32289
32303
32300
32304
32300
32305
32304
32300
32308
32308
32308
32304
32308
32307
32313
32308
32305
32308
32304
32316
32312
32313
32306
32308
32308
32308
32312
32308
32308
32308
32313
32318
32312
32322
32328
32326
32324
32337
32328
32334
32336
32340
32340
32344
32356
32353
32352
32356
32356
32373
32360
32384
32384
32401
32404
32408
32418
32428
32440
32444
32452
32469
32472
32482
32496
32496
32517
32532
32532
32548
32558
32578
32576
32604
32617
32630
32652
32660
32676
32692
32704
32712
32734
32745
32760
32776
32796
32800
32822
32844
32852
32868
32884
32896
32916
32920
32940
32964
32976
32984
32996
33009
33024
33040
33056
33062
33078
33098
33106
33120
33132
33148
33161
33176
33188
33204
33217
33230
33240
33254
33269
33280
33296
33308
33324
33336
33348
33372
33380
33392
33406
33420
33436
33444
33460
33482
33488
33496
33519
33536
33544
33552
33572
33572
33588
33602
33604
33624
33637
33652
33653
33674
33678
33684
33692
33706
33708
33720
33720
33728
33740
33747
33744
33752
33756
33764
33760
33772
33780
33786
33776
33788
33788
33792
33790
33790
33797
33796
33792
33785
33799
33793
33796
33800
33797
33797
33792
33788
33804
33788
33790
33800
33796
33792
33790
33788
33786
33783
33784
33788
33780
33786
33778
33780
33769
33780
33772
33774
33762
33767
33767
33764
33760
33758
33756
33753
33759
33745
33743
33750
33740
33737
33734
33736
33732
33730
33726
33721
33710
33704
33708
33700
33700
33700
33692
33689
33684
33678
33676
33676
33676
33672
33672
33664
33648
33657
33654
33664
33661
33660
33648
33652
33660
33647
33646
33649
33640
33660
33656
33655
33660
33662
33662
33660
33674
33671
33684
33686
33685
33692
33694
33700
33708
33716
33722
33724
33726
33732
33740
33744
33758
33754
33759
33764
33777
33780
33788
33790
33805
33809
33820
33828
33837
33844
33852
33866
33870
33869
33880
33893
33901
33904
33919
33932
33934
33942
33952
33956
33964
33976
33987
33989
34004
34008
34016
34020
34028
34036
34046
34058
34060
34064
34076
34072
34088
34096
34100
34100
34116
34120
34116
34130
34138
34133
34142
34148
34156
34151
34154
34161
34164
34166
34172
34175
34173
34169
34169
34176
34175
34180
34184
34176
34184
34192
34184
34196
34190
34204
34199
34206
34206
34217
34220
34217
34222
34221
34217
34232
34232
34228
34232
34240
34244
34246
34248
34257
34260
34265
34272
34272
34278
34278
34284
34301
34304
34302
34300
34316
34318
34324
34337
34336
34348
34356
34356
34364
34366
34374
34384
34396
34400
34412
34414
34426
34438
34438
34444
34456
34464
34472
34469
34488
34484
34496
34508
34520
34528
34525
34540
34556
34556
34561
34572
34581
34584
34596
34599
34604
34608
34624
34621
34629
34636
34654
34656
34662
34668
34680
34676
34687
34684
34685
34700
34696
34706
34708
34716
34721
34720
34724
34725
34734
34742
34730
34742
34742
34751
34748
34756
34752
34768
34760
34768
34772
34773
34772
34788
34774
34776
34772
34778
34780
34772
34772
34774
34772
34772
34768
34762
34770
34762
34760
34756
34752
34756
34748
34748
34744
34734
34740
34732
34734
34743
34722
34729
34730
34728
34734
34724
34724
34726
34724
34728
34724
34727
34720
34728
34728
34732
34730
34745
34748
34746
34746
34756
34756
34764
34773
34762
34776
34768
34784
34785
34794
34796
34808
34796
34804
34816
34812
34812
34820
34834
34820
34824
34831
34830
34836
34840
34846
34840
34837
34852
34848
34850
34845
34848
34853
34849
34860
34852
34845
34848
34852
34852
34840
34840
34844
34848
34837
34832
34830
34828
34829
34822
34820
34814
34812
34812
34799
34798
34796
34789
34782
34784
34766
34760
34750
34750
34743
34736
34724
34720
34710
34700
34697
34680
34680
34668
34656
34656
34636
34634
34613
34616
34604
34599
34580
34572
34568
34548
34546
34535
34514
34518
34508
34496
34484
34468
34468
34456
34445
34433
34428
34424
34424
34412
34401
34401
34400
34389
34388
34378
34372
34372
34356
34356
34354
34360
34348
34336
34338
34334
34336
34324
34324
34314
34328
34304
34315
34312
34312
34309
34313
34312
34309
34318
34316
34308
34328
34311
34308
34312
34312
34317
34310
34312
34304
34308
34312
34311
34296
34296
34301
34312
34310
34298
34302
34297
34303
34296
34304
34306
34298
34300
34298
34298
34297
34294
34300
34295
34292
34293
34292
34296
34292
34292
34292
34294
34295
34294
34292
34296
34287
34288
34285
34286
34282
34284
34282
34274
34276
34268
34271
34269
34260
34273
34260
34252
34260
34250
34252
34245
34244
34248
34240
34236
34224
34228
34222
34220
34214
34204
34204
34204
34198
34180
34185
34180
34172
34172
34172
34156
34149
34140
34140
34134
34124
34121
34114
34104
34094
34088
34076
34077
34076
34068
34060
34046
34052
34050
34036
34038
34024
34021
34022
34020
34007
34005
33997
33996
34005
33984
33977
33960
33964
33952
33956
33946
33936
33930
33926
33914
33905
33895
33889
33881
33872
33850
33856
33842
33828
33829
33813
33812
33798
33796
33765
33760
33760
33744
33727
33724
33719
33708
33696
33684
33684
33666
33652
33644
33628
33616
33612
33600
33592
33572
33565
33556
33548
33532
33526
33505
33502
33489
33479
33466
33447
33430
33428
33416
33408
33396
33378
33370
33364
33340
33330
33322
33312
33293
33284
33272
33257
33254
33228
33229
33217
33204
33185
33169
33168
33152
33140
33132
33112
33105
33100
33086
33078
33064
33056
33044
33033
33028
33016
33012
32998
32980
32974
32976
32960
32949
32944
32935
32929
32912
32912
32911
32900
32894
32892
32876
32874
32860
32858
32846
32840
32833
32828
32812
32806
32800
32788
32777
32774
32764
32764
32748
32734
32730
32720
32704
32708
32696
32690
32680
32680
32664
32668
32652
32648
32625
32624
32620
32611
32610
32596
32588
32584
32578
32574
32568
32561
32562
32556
32548
32545
32532
32534
32533
32524
32520
32516
32514
32512
32505
32500
32488
32486
32480
32480
32480
32469
32462
32448
32450
32444
32440
32432
32428
32409
32414
32404
32406
32391
32390
32377
32380
32364
32358
32352
32348
32346
32332
32328
32320
32320
32308
32295
32292
32285
32276
32272
32252
32250
32236
32228
32224
32214
32208
32205
32188
32190
32178
32161
32164
32148
32143
32133
32124
32110
32112
32096
32088
32084
32064
32070
32052
32054
32041
32031
32014
32008
31996
31988
31972
31965
31960
31949
31938
31932
31913
31912
31892
31892
31872
31868
31860
31848
31844
31831
31816
31806
31796
31788
31782
31774
31768
31758
31744
31743
31716
31716
31701
31696
31686
31678
31672
31665
31660
31652
31644
31640
31628
31620
31612
31603
31592
31598
31594
31586
31578
31568
31559
31562
31556
31556
31549
31540
31541
31532
31524
31534
31529
31532
31524
31512
31514
31512
31504
31501
31504
31496
31490
31492
31484
31490
31476
31477
31479
31484
31476
31469
31476
31464
31471
31472
31462
31471
31460
31460
31463
31460
31460
31455
31456
31458
31456
31448
31458
31461
31458
31462
31464
31456
31468
31460
31460
31456
31454
31458
31460
31456
31456
31454
31454
31456
31454
31464
31464
31457
31456
31456
31462
31455
31452
31444
31444
31452
31452
31452
31449
31452
31446
31452
31452
31452
31454
31440
31440
31448
31448
31446
31448
31448
31447
31442
31444
31444
31448
31457
31449
31456
31452
31448
31457
31452
31465
31453
31468
31466
31476
31462
31474
31473
31477
31482
31480
31486
31488
31497
31502
31505
31508
31502
31508
31516
31514
31520
31520
31526
31525
31524
31528
31538
31536
31532
31548
31541
31540
31548
31548
31550
31553
31551
31545
31549
31544
31551
31552
31556
31556
31556
31556
31556
31552
31552
31554
31553
31544
31552
31541
31552
31548
31545
31536
31528
31530
31534
31536
31532
31519
31520
31525
31528
31518
31524
31518
31513
31516
31508
31496
31501
31492
31489
31484
31473
31473
31465
31460
31464
31454
31454
31445
31441
31436
31428
31424
31424
31412
31408
31396
31381
31384
31370
31364
31359
31354
31334
31340
31332
31321
31307
31310
31305
31292
31286
31278
31268
31260
31260
31240
31240
31232
31222
31212
31206
31204
31192
31185
31179
31173
31164
31156
31162
31140
31140
31136
31130
31120
31116
31104
31096
31088
31090
31076
31063
31065
31065
31051
31054
31044
31040
31032
31033
31025
31020
31020
31010
31010
30999
31004
30998
30984
30976
30968
30968
30966
30956
30948
30944
30948
30946
30935
30930
30932
30917
30914
30908
30898
30895
30886
30885
30871
30860
30856
30850
30854
30839
30832
30816
30818
30816
30794
30789
30775
30780
30768
30754
30741
30746
30736
30716
30716
30700
30692
30688
30672
30672
30660
30656
30650
30630
30628
30624
30620
30604
30594
30588
30586
30573
30568
30552
30557
30548
30544
30532
30530
30516
30512
30506
30504
30502
30500
30494
30488
30480
30482
30478
30468
30470
30460
30460
30456
30444
30449
30444
30436
30436
30432
30430
30427
30430
30426
30428
30428
30418
30424
30410
30411
30408
30401
30402
30397
30388
30392
30388
30383
30372
30375
30372
30372
30368
30364
30367
30362
30354
30356
30350
30345
30344
30343
30328
30332
30316
30316
30309
30310
30300
30292
30297
30292
30277
30284
30274
30270
30270
30261
30256
30257
30252
30246
30244
30244
30229
30231
30220
30222
30217
30210
30216
30216
30212
30214
30210
30220
30206
30204
30196
30206
30196
30196
30187
30185
30178
30184
30180
30172
30166
30168
30166
30160
30149
30150
30146
30134
30130
30132
30121
30122
30112
30103
30100
30094
30080
30072
30070
30056
30048
30044
30039
30016
30016
30016
30014
29998
29988
29986
29984
29968
29964
29962
29940
29942
29924
29922
29916
29908
29900
29894
29896
29884
29880
29872
29864
29863
29852
29852
29848
29834
29837
29832
29824
29822
29820
29812
29810
29808
29808
29804
29804
29796
29794
29792
29796
29789
29799
29788
29794
29796
29796
29796
29796
29796
29792
29796
29792
29792
29796
29794
29796
29796
29800
29796
29796
29804
29808
29810
29804
29802
29808
29808
29812
29808
29815
29812
29812
29812
29816
29816
29817
29813
29824
29828
29829
29820
29828
29834
29832
29828
29829
29825
29825
29826
29830
29819
29829
29828
29828
29825
29832
29836
29826
29820
29828
29830
29825
29824
29822
29823
29821
29820
29820
29823
29820
29807
29808
29813
29814
29812
29804
29813
29808
29809
29812
29807
29820
29806
29812
29806
29807
29809
29800
29804
29808
29804
29802
29796
29800
29802
29807
29804
29804
29805
29806
29800
29804
29801
29812
29804
29806
29800
29790
29796
29806
29796
29796
29796
29796
29792
29796
29793
29788
29790
29782
29786
29792
29788
29787
29784
29782
29780
29782
29780
29772
29774
29774
29772
29764
29768
29773
29774
29772
29776
29780
29777
29777
29781
29776
29776
29784
29788
29792
29791
29794
29792
29796
29812
29820
29818
29831
29829
29844
29850
29852
29863
29872
29872
29888
29893
29901
29905
29916
29924
29937
29944
29950
29964
29968
29973
29988
30000
30005
30018
30029
30042
30046
30056
30062
30076
30084
30088
30106
30108
30116
30124
30133
30137
30145
30158
30160
30173
30184
30193
30191
30204
30212
30228
30228
30240
30244
30244
30252
30265
30273
30272
30277
30284
30294
30311
30316
30309
30326
30336
30340
30341
30360
30368
30372
30372
30372
30390
30392
30397
30396
30400
30409
30416
30425
30428
30432
30434
30440
30447
30444
30446
30452
30460
30456
30460
30464
30462
30468
30468
30468
30458
30468
30465
30478
30468
30473
30484
30476
30481
30484
30476
30488
30480
30488
30493
30484
30490
30490
30502
30496
30496
30500
30504
30507
30504
30509
30505
30522
30530
30528
30532
30538
30541
30548
30548
30544
30552
30560
30564
30561
30568
30584
30581
30589
30584
30596
30596
30608
30612
30612
30628
30621
30632
30632
30636
30648
30646
30650
30656
30660
30666
30668
30682
30686
30692
30694
30701
30708
30722
30721
30725
30737
30732
30740
30743
30746
30753
30760
30762
30774
30768
30780
30776
30796
30786
30793
30800
30812
30815
30821
30824
30828
30823
30833
30828
30836
30835
30836
30841
30849
30846
30852
30856
30857
30860
30865
30868
30882
30870
30876
30878
30876
30874
30881
30888
30886
30888
30890
30881
30889
30893
30889
30896
30898
30894
30900
30897
30895
30902
30903
30906
30901
30906
30910
30915
30910
30910
30913
30916
30916
30921
30916
30916
30920
30920
30912
30916
30928
30924
30916
30924
30916
30912
30922
30912
30925
30924
30922
30918
30916
30909
30913
30920
30924
30924
30920
30928
30932
30928
30920
30920
30928
30934
30934
30936
30936
30943
30942
30936
30944
30945
30946
30945
30938
30948
30954
30953
30958
30972
30957
30968
30974
30976
30983
30988
30984
30980
30983
30987
30982
30992
30992
30998
30996
30992
31004
31005
31001
31000
31012
31012
31016
31016
31012
31024
31025
31020
31028
31021
31024
31024
31024
31023
31023
31028
31028
31026
31022
31028
31032
31034
31036
31040
31032
31030
31044
31044
31046
31052
31045
31046
31052
31056
31060
31064
31064
31062
31068
31076
31080
31080
31092
31085
31093
31100
31105
31108
31112
31116
31124
31126
31134
31136
31142
31146
31148
31157
31166
31172
31174
31180
31180
31188
31192
31198
31201
31204
31212
31215
31213
31228
31216
31228
31229
31233
31239
31240
31253
31253
31252
31257
31258
31262
31269
31264
31272
31273
31276
31275
31276
31280
31273
31280
31284
31284
31288
31292
31286
31294
31290
31292
31300
31293
31296
31294
31296
31296
31292
31292
31288
31296
31294
31290
31296
31296
31296
31300
31300
31302
31308
31308
31302
31300
31300
31306
31308
31303
31316
31310
31308
31308
31316
31316
31316
31321
31331
31332
31336
31341
31348
31344
31354
31366
31363
31364
31372
31393
31388
31396
31393
31397
31402
31405
31416
31416
31424
31426
31431
31440
31446
31448
31450
31458
31461
31450
31468
31462
31468
31468
31472
31474
31472
31472
31480
31476
31480
31488
31490
31486
31488
31492
31494
31500
31504
31504
31500
31504
31500
31504
31498
31501
31511
31506
31508
31514
31516
31518
31524
31524
31532
31532
31541
31536
31548
31552
31544
31556
31556
31564
31556
31576
31584
31585
31588
31596
31597
31608
31624
31624
31625
31636
31632
31648
31650
31660
31669
31668
31671
31680
31688
31692
31692
31704
31713
31711
31728
31722
31733
31726
31746
31756
31764
31764
31764
31772
31776
31780
31780
31790
31796
31796
31796
31806
31804
31806
31812
31817
31824
31836
31828
31837
31840
31844
31842
31849
31848
31852
31855
31861
31854
31866
31872
31869
31874
31872
31873
31877
31884
31878
31884
31894
31889
31896
31896
31888
31887
31886
31888
31880
31884
31886
31892
31884
31889
31886
31884
31892
31884
31892
31893
31887
31880
31886
31877
31882
31885
31888
31877
31884
31876
31872
31870
31869
31870
31864
31868
31853
31862
31857
31855
31849
31845
31844
31842
31838
31844
31829
31820
31816
31812
31809
31800
31806
31801
31796
31793
31792
31788
31776
31780
31768
31776
31768
31753
31748
31740
31748
31741
31716
31732
31720
31716
31716
31712
31709
31700
31696
31700
31692
31700
31693
31686
31688
31676
31680
31672
31674
31668
31657
31662
31657
31648
31653
31657
31652
31656
31648
31648
31648
31654
31658
31648
31656
31656
31645
31644
31648
31647
31643
31638
31642
31646
31644
31636
31646
31638
31640
31646
31636
31640
31644
31649
31644
31639
31645
31652
31652
31652
31652
31652
31652
31653
31652
31648
31660
31660
31660
31672
31672
31672
31673
31674
31680
31677
31685
31685
31682
31688
31677
31692
31688
31693
31702
31697
31709
31708
31704
31718
31722
31720
31716
31732
31726
31736
31728
31740
31733
31736
31738
31736
31744
31740
31748
31746
31744
31747
31748
31744
31734
31742
31741
31732
31740
31732
31724
31716
31709
31709
31698
31692
31686
31677
31662
31668
31656
31652
31644
31638
31620
31628
31610
31600
31601
31586
31576
31568
31552
31540
31534
31528
31522
31508
31493
31492
31489
31484
31474
31476
31464
31464
31452
31448
31440
31436
31426
31432
31416
31416
31405
31405
31400
31400
31393
31388
31391
31396
31392
31388
31383
31375
31384
31382
31384
31376
31381
31372
31374
31370
31380
31368
31370
31377
31376
31366
31376
31372
31384
31380
31380
31380
31390
31388
31386
31389
31385
31392
31396
31388
31385
31384
31394
31397
31396
31396
31396
31399
31404
31404
31400
31406
31410
31408
31411
31405
31403
31415
31408
31412
31408
31404
31408
31404
31414
31409
31414
31410
31408
31413
31420
31418
31412
31420
31412
31416
31416
31416
31416
31410
31418
31412
31412
31412
31412
31416
31413
31416
31405
31410
31412
31412
31424
31413
31413
31413
31415
31410
31412
31412
31400
31401
31413
31409
31401
31400
31394
31400
31397
31400
31404
31393
31396
31397
31398
31388
31384
31392
31382
31381
31388
31377
31372
31364
31364
31361
31366
31363
31356
31350
31351
31346
31348
31348
31345
31342
31333
31334
31324
31320
31328
31328
31313
31316
31328
31316
31316
31316
31320
31313
31302
31309
31312
31312
31308
31310
31300
31308
31301
31308
31302
31302
31308
31300
31301
31304
31300
31294
31302
31304
31300
31296
31294
31303
31298
31300
31300
31298
31302
31298
31296
31302
31301
31292
31296
31300
31306
31293
31300
31297
31304
31310
31302
31308
31312
31304
31316
31308
31312
31312
31324
31313
31316
31312
31321
31324
31326
31328
31335
31332
31332
31343
31336
31346
31348
31348
31354
31356
31356
31360
31353
31361
31365
31360
31372
31372
31376
31386
31376
31388
31392
31394
31396
31402
31400
31404
31406
31404
31412
31423
31424
31420
31430
31432
31436
31444
31440
31449
31452
31460
31464
31460
31468
31470
31481
31481
31486
31493
31490
31494
31496
31496
31508
31518
31516
31524
31536
31536
31548
31552
31561
31560
31576
31582
31588
31588
31599
31608
31616
31620
31628
31641
31646
31654
31670
31680
31688
31700
31708
31717
31724
31732
31743
31762
31769
31792
31788
31804
31813
31824
31832
31843
31860
31876
31877
31888
31902
31912
31920
31936
31950
31956
31958
31980
31988
32000
32004
32012
32022
32032
32038
32054
32048
32062
32074
32077
32080
32096
32100
32112
32120
32128
32128
32136
32143
32148
32153
32156
32159
32164
32160
32168
32175
32173
32184
32196
32198
32196
32200
32198
32208
32209
32220
32206
32212
32205
32212
32200
32196
32204
32198
32196
32196
32189
32192
32192
32188
32180
32176
32169
32180
32168
32164
32164
32162
32157
32144
32144
32136
32132
32134
32126
32126
32117
32104
32108
32110
32108
32108
32108
32104
32092
32101
32088
32092
32084
32086
32084
32086
32080
32072
32078
32068
32077
32076
32077
32082
32081
32086
32081
32095
32090
32092
32100
32096
32109
32104
32110
32102
32106
32120
32120
32118
32128
32130
32138
32136
32148
32140
32152
32156
32157
32157
32164
32161
32152
32162
32158
32157
32160
32164
32172
32161
32164
32164
32157
32156
32156
32153
32152
32140
32148
32140
32146
32133
32124
32124
32116
32116
32111
32100
32100
32095
32086
32084
32087
32056
32068
32052
32050
32045
32040
32029
32020
32012
32006
31994
31980
31974
31970
31952
31953
31940
31928
31914
31904
31904
31892
31884
31872
31860
31852
31840
31825
31812
31816
31804
31792
31780
31772
31762
31758
31748
31735
31724
31719
31713
31694
31696
31692
31684
31676
31668
31660
31654
31642
31644
31632
31632
31617
31607
31605
31594
31589
31580
31582
31572
31576
31567
31556
31561
31560
31552
31554
31550
31537
31529
31526
31524
31525
31519
31516
31508
31510
31503
31504
31486
31488
31486
31484
31484
31480
31472
31468
31460
31456
31456
31449
31448
31448
31446
31437
31437
31434
31432
31426
31428
31421
31416
31418
31416
31412
31412
31408
31401
31404
31401
31392
31396
31388
31385
31386
31386
31376
31388
31372
31376
31380
31380
31372
31379
31376
31372
31372
31369
31361
31360
31364
31364
31370
31364
31368
31356
31361
31358
31365
31366
31360
31372
31368
31374
31376
31372
31376
31374
31376
31385
31383
31375
31396
31396
31385
31404
31406
31404
31404
31412
31416
31416
31422
31423
31434
31436
31438
31448
31453
31460
31465
31464
31470
31476
31471
31479
31484
31495
31505
31502
31510
31518
31516
31524
31536
31532
31540
31540
31548
31548
31550
31549
31556
31557
31560
31559
31580
31568
31576
31576
31584
31576
31582
31584
31585
31588
31586
31600
31596
31590
31588
31596
31597
31593
31589
31607
31604
31600
31608
31615
31620
31626
31632
31630
31640
31644
31654
31660
31662
31664
31674
31674
31684
31688
31710
31710
31724
31728
31732
31749
31753
31774
31782
31796
31800
31809
31816
31830
31848
31844
31856
31871
31877
31880
31900
31909
31924
31928
31940
31948
31968
31972
31981
31996
32006
32016
32020
32033
32040
32054
32054
32066
32070
32080
32089
32096
32102
32112
32129
32132
32140
32144
32156
32162
32172
32180
32176
32188
32193
32204
32200
32212
32212
32216
32224
32232
32232
32242
32246
32252
32258
32264
32263
32271
32280
32276
32280
32284
32296
32296
32306
32294
32298
32308
32304
32312
32308
32317
32322
32326
32332
32338
32330
32340
32344
32348
32348
32348
32342
32356
32353
32356
32349
32358
32360
32356
32354
32364
32360
32366
32368
32354
32365
32361
32372
32366
32372
32368
32366
32360
32357
32356
32354
32354
32356
32348
32348
32356
32350
32352
32356
32354
32356
32345
32336
32348
32347
32348
32336
32340
32338
32334
32340
32334
32335
32321
32330
32327
32336
32328
32332
32328
32328
32334
32330
32332
32332
32337
32332
32335
32331
32324
32336
32334
32328
32328
32332
32334
32349
32338
32344
32347
32343
32349
32350
32356
32348
32354
32364
32352
32352
32366
32358
32366
32364
32362
32366
32357
32355
32358
32362
32360
32360
32356
32356
32360
32350
32356
32344
32344
32344
32335
32344
32332
32338
32332
32333
32324
32321
32316
32316
32311
32308
32310
32304
32292
32292
32293
32281
32272
32272
32270
32273
32271
32258
32244
32252
32248
32244
32240
32244
32224
32228
32224
32221
32209
32208
32202
32202
32192
32197
32182
32180
32174
32169
32172
32174
32160
32156
32164
32149
32152
32141
32146
32136
32130
32124
32126
32118
32120
32108
32114
32104
32102
32100
32090
32084
32072
32068
32058
32066
32052
32052
32046
32041
32032
32030
32020
32013
32002
32000
31996
31988
31980
31968
31962
31952
31960
31936
31937
31933
31928
31914
31908
31907
31894
31886
31882
31876
31872
31857
31854
31849
31841
31830
31844
31836
31828
31812
31806
31800
31793
31792
31784
31790
31776
31772
31760
31760
31750
31746
31743
31728
31728
31724
31724
31716
31712
31697
31688
31688
31680
31688
31673
31662
31662
31664
31652
31652
31640
31644
31624
31624
31622
31612
31606
31608
31593
31590
31588
31576
31568
31572
31560
31548
31552
31544
31532
31536
31526
31520
31511
31512
31508
31495
31488
31486
31482
31472
31476
31464
31454
31460
31460
31453
31442
31441
31436
31430
31430
31428
31422
31416
31422
31420
31416
31407
31406
31404
31404
31400
31390
31392
31390
31384
31380
31372
31372
31366
31364
31356
31352
31344
31340
31328
31326
31316
31308
31308
31300
31280
31280
31268
31270
31252
31248
31236
31228
31225
31216
31200
31202
31200
31176
31173
31166
31158
31153
31142
31134
31130
31109
31112
31102
31092
31092
31078
31070
31064
31060
31056
31048
31044
31036
31028
31029
31020
31006
31009
31004
31004
30999
30998
31000
30997
30984
30987
30980
30972
30988
30966
30972
30968
30968
30966
30961
30962
30962
30961
30957
30964
30952
30952
30952
30948
30942
30946
30950
30944
30939
30936
30934
30932
30928
30924
30925
30916
30917
30918
30912
30909
30901
30906
30898
30902
30893
30885
30876
30880
30872
30876
30870
30864
30853
30856
30852
30839
30840
30831
30828
30820
30820
30804
30808
30802
30793
30784
30788
30780
30779
30772
30758
30748
30742
30740
30736
30721
30718
30710
30704
30710
30701
30692
30684
30686
30680
30674
30670
30664
30666
30654
30648
30654
30645
30633
30632
30628
30628
30624
30622
30626
30615
30604
30609
30604
30604
30596
30592
30589
30584
30583
30574
30568
30569
30564
30552
30554
30548
30548
30540
30528
30529
30525
30520
30516
30508
30500
30508
30498
30482
30476
30480
30472
30460
30460
30456
30452
30432
30430
30429
30425
30409
30402
30400
30404
30392
30385
30384
30374
30366
30366
30361
30348
30345
30349
30346
30340
30328
30340
30324
30319
30320
30301
30310
30316
30300
30304
30309
30305
30302
30294
30300
30288
30286
30296
30288
30294
30288
30284
30288
30282
30281
30286
30278
30284
30279
30273
30284
30280
30284
30278
30280
30272
30276
30286
30276
30276
30276
30277
30277
30280
30276
30287
30282
30284
30284
30278
30280
30282
30276
30284
30286
30285
30284
30286
30298
30292
30292
30292
30300
30292
30300
30296
30294
30307
30308
30310
30310
30316
30320
30313
30320
30320
30316
30328
30316
30322
30330
30332
30336
30335
30328
30344
30340
30337
30336
30340
30336
30340
30332
30340
30326
30345
30335
30334
30340
30330
30332
30328
30328
30324
30330
30328
30324
30324
30325
30324
30318
30320
30325
30319
30313
30320
30316
30312
30308
30312
30319
30318
30316
30316
30314
30318
30318
30317
30324
30330
30320
30336
30330
30336
30340
30332
30340
30344
30340
30340
30343
30348
30340
30356
30349
30357
30352
30375
30364
30372
30370
30376
30374
30376
30390
30385
30384
30396
30404
30400
30402
30409
30418
30420
30422
30429
30436
30436
30438
30440
30444
30452
30450
30464
30464
30471
30474
30477
30481
30482
30480
30489
30496
30508
30500
30501
30512
30524
30526
30532
30532
30532
30542
30537
30542
30540
30556
30550
30556
30562
30561
30572
30574
30577
30580
30584
30590
30592
30601
30594
30606
30600
30610
30610
30620
30623
30632
30626
30632
30640
30645
30648
30650
30655
30660
30660
30668
30660
30662
30672
30675
30676
30676
30680
30692
30695
30698
30694
30703
30704
30716
30711
30722
30720
30720
30728
30737
30740
30750
30740
30744
30753
30758
30762
30765
30772
30767
30772
30776
30778
30780
30782
30780
30790
30792
30785
30796
30800
30802
30800
30805
30804
30810
30802
30810
30813
30817
30816
30813
30812
30816
30818
30817
30826
30816
30817
30815
30820
30809
30804
30809
30810
30813
30808
30801
30804
30801
30796
30796
30793
30792
30790
30789
30789
30784
30776
30776
30774
30780
30768
30772
30764
30764
30756
30756
30752
30754
30742
30744
30744
30735
30741
30725
30732
30732
30724
30722
30721
30728
30720
30718
30720
30710
30703
30708
30700
30705
30688
30700
30692
30692
30689
30688
30682
30686
30688
30684
30686
30680
30674
30669
30676
30676
30668
30672
30664
30666
30664
30666
30664
30664
30668
30660
30661
30662
30668
30660
30670
30668
30668
30666
30670
30668
30660
30662
30666
30666
30668
30678
30673
30676
30671
30677
30676
30685
30684
30684
30689
30692
30690
30692
30692
30698
30700
30704
30696
30702
30700
30708
30702
30708
30708
30716
30720
30708
30716
30718
30712
30721
30732
30726
30725
30727
30730
30729
30740
30738
30744
30746
30744
30749
30750
30744
30752
30756
30758
30752
30762
30760
30764
30764
30768
30766
30766
30772
30770
30766
30764
30774
30769
30776
30765
30768
30776
30780
30780
30781
30778
30778
30772
30776
30774
30767
30768
30780
30774
30768
30772
30765
30768
30768
30777
30772
30765
30768
30756
30766
30768
30769
30764
30764
30756
30758
30758
30764
30760
30752
30754
30762
30756
30756
30754
30756
30760
30756
30764
30767
30768
30759
30768
30764
30776
30764
30764
30766
30778
30770
30772
30769
30780
30780
30788
30784
30791
30784
30790
30793
30796
30800
30801
30804
30808
30813
30810
30816
30820
30824
30828
30832
30841
30856
30844
30849
30852
30860
30860
30869
30878
30872
30874
30882
30880
30885
30894
30896
30896
30892
30894
30904
30898
30897
30911
30901
30908
30904
30898
30900
30896
30892
30888
30888
30888
30884
30878
30879
30868
30868
30861
30854
30852
30844
30848
30844
30838
30836
30826
30826
30810
30807
30797
30800
30790
30788
30782
30785
30788
30777
30772
30766
30764
30760
30764
30756
30756
30756
30746
30756
30752
30752
30744
30752
30748
30746
30752
30752
30760
30753
30756
30760
30764
30764
30776
30780
30781
30788
30782
30796
30796
30800
30798
30808
30804
30812
30816
30824
30826
30830
30830
30834
30842
30840
30852
30852
30860
30868
30860
30865
30874
30876
30876
30881
30884
30884
30882
30892
30889
30892
30900
30902
30901
30912
30908
30912
30912
30912
30910
30916
30918
30922
30914
30916
30924
30920
30920
30926
30924
30920
30930
30925
30916
30920
30918
30912
30917
30916
30904
30908
30912
30908
30906
30908
30904
30897
30896
30892
30893
30884
30884
30879
30877
30874
30879
30884
30863
30868
30858
30862
30861
30859
30854
30848
30848
30852
30844
30846
30833
30836
30828
30836
30832
30830
30816
30828
30822
30824
30810
30820
30818
30820
30816
30822
30816
30820
30810
30812
30815
30808
30809
30812
30817
30820
30814
30808
30824
30812
30822
30806
30820
30813
30817
30806
30806
30816
30820
30820
30823
30820
30820
30824
30820
30828
30828
30824
30837
30836
30838
30844
30844
30844
30838
30844
30852
30852
30863
30865
30870
30864
30876
30878
30884
30890
30892
30898
30906
30910
30916
30924
30928
30940
30944
30948
30948
30960
30960
30970
30980
30994
30984
30993
31006
31012
31016
31024
31032
31040
31042
31056
31066
31068
31076
31076
31084
31096
31094
31114
31104
31124
31120
31124
31136
31133
31148
31145
31164
31170
31168
31176
31190
31189
31200
31204
31204
31212
31224
31224
31229
31240
31244
31248
31257
31257
31268
31276
31284
31284
31296
31296
31304
31316
31316
31324
31322
31332
31342
31345
31350
31352
31352
31362
31364
31373
31374
31381
31384
31388
31388
31396
31396
31399
31402
31400
31400
31404
31412
31408
31412
31414
31412
31420
31420
31413
31428
31421
31425
31424
31418
31420
31417
31416
31418
31408
31414
31413
31416
31418
31409
31415
31405
31412
31408
31412
31401
31408
31401
31410
31408
31409
31405
31403
31416
31410
31413
31408
31418
31420
31407
31413
31420
31412
31421
31414
31416
31423
31424
31426
31425
31437
31436
31444
31444
31448
31440
31452
31453
31458
31464
31463
31473
31476
31479
31488
31488
31500
31500
31511
31510
31512
31524
31524
31528
31540
31534
31543
31540
31546
31553
31550
31556
31572
31568
31578
31580
31584
31591
31588
31596
31596
31607
31606
31600
31612
31612
31612
31614
31616
31624
31622
31627
31617
31624
31632
31626
31636
31630
31632
31630
31632
31624
31628
31624
31636
31635
31628
31630
31624
31631
31625
31620
31620
31617
31614
31620
31616
31620
31609
31602
31604
31609
31604
31596
31596
31586
31590
31576
31573
31576
31572
31564
31560
31559
31564
31556
31549
31545
31540
31542
31526
31533
31526
31524
31524
31517
31516
31518
31512
31508
31496
31504
31500
31492
31484
31486
31480
31480
31476
31484
31476
31472
31477
31465
31476
31466
31460
31468
31458
31462
31452
31458
31458
31454
31454
31453
31456
31456
31452
31460
31456
31452
31458
31456
31460
31452
31454
31453
31456
31460
31453
31457
31458
31456
31460
31453
31460
31458
31463
31468
31468
31460
31468
31461
31461
31462
31460
31460
31456
31460
31464
31468
31463
31462
31468
31470
31464
31456
31465
31460
31460
31462
31456
31456
31453
31464
31460
31458
31454
31452
31456
31456
31456
31449
31452
31448
31446
31446
31440
31446
31444
31440
31434
31428
31432
31433
31432
31430
31421
31425
31420
31420
31420
31413
31412
31414
31414
31404
31404
31412
31406
31405
31403
31406
31405
31393
31398
31394
31396
31384
31396
31396
31392
31382
31396
31396
31392
31388
31392
31397
31390
31394
31392
31392
31394
31392
31396
31393
31389
31396
31388
31396
31396
31392
31402
31400
31405
31400
31396
31400
31408
31406
31406
31405
31404
31410
31406
31402
31398
31412
31405
31412
31401
31416
31412
31416
31412
31421
31413
31417
31412
31412
31416
31426
31415
31409
31418
31426
31412
31422
31420
31420
31424
31428
31420
31420
31430
31429
31434
31432
31426
31424
31426
31427
31432
31436
31428
31432
31430
31428
31424
31432
31437
31439
31432
31440
31440
31430
31428
31431
31431
31430
31428
31424
31428
31426
31434
31429
31421
31426
31428
31416
31424
31418
31422
31420
31416
31418
31415
31412
31412
31404
31397
31396
31396
31390
31394
31392
31389
31380
31384
31384
31380
31380
31374
31380
31372
31375
31368
31376
31371
31364
31366
31370
31359
31366
31365
31364
31362
31368
31356
31364
31360
31367
31364
31368
31361
31365
31364
31364
31356
31352
31350
31344
31352
31348
31348
31332
31333
31336
31326
31317
31317
31312
31312
31298
31296
31290
31287
31293
31276
31269
31264
31263
31252
31240
31239
31232
31220
31217
31214
31212
31206
31204
31190
31196
31182
31180
31176
31177
31166
31168
31156
31169
31156
31156
31156
31152
31152
31150
31149
31146
31152
31148
31160
31148
31148
31152
31161
31156
31168
31168
31170
31180
31178
31180
31184
31192
31191
31190
31201
31204
31212
31212
31208
31220
31222
31224
31232
31234
31239
31237
31252
31246
31250
31252
31253
31253
31256
31253
31256
31255
31260
31258
31258
31263
31264
31262
31264
31264
31276
31268
31276
31268
31272
31273
31268
31268
31264
31270
31268
31268
31269
31272
31272
31270
31261
31270
31272
31268
31276
31276
31273
31268
31259
31264
31264
31268
31268
31268
31266
31272
31268
31268
31260
31266
31261
31264
31260
31268
31268
31264
31274
31268
31266
31265
31270
31268
31269
31266
31278
31270
31268
31268
31268
31272
31277
31284
31280
31282
31289
31282
31290
31289
31292
31280
31292
31300
31295
31293
31292
31300
31300
31300
31292
31309
31306
31298
31301
31300
31301
31304
31300
31301
31300
31306
31303
31296
31296
31300
31300
31294
31295
31284
31284
31288
31284
31285
31284
31276
31276
31273
31269
31264
31268
31258
31260
31262
31252
31253
31250
31252
31249
31250
31240
31244
31244
31240
31244
31236
31240
31238
31234
31240
31240
31237
31238
31238
31240
31238
31239
31238
31240
31246
31245
31244
31253
31255
31252
31249
31262
31255
31257
31264
31260
31268
31268
31269
31268
31272
31270
31278
31276
31280
31284
31280
31296
31300
31296
31297
31302
31304
31308
31312
31314
31317
31328
31319
31324
31320
31333
31327
31342
31342
31344
31348
31358
31356
31366
31361
31372
31386
31384
31380
31380
31386
31386
31398
31404
31408
31408
31406
31412
31418
31422
31426
31425
31426
31432
31436
31436
31437
31455
31448
31446
31445
31457
31448
31452
31460
31458
31452
31454
31449
31450
31458
31454
31452
31448
31448
31452
31448
31436
31444
31433
31432
31432
31428
31428
31430
31422
31412
31416
31424
31412
31409
31408
31406
31406
31396
31392
31397
31406
31393
31398
31390
31392
31384
31388
31388
31392
31388
31393
31388
31394
31388
31382
31388
31397
31392
31390
31390
31398
31397
31405
31404
31404
31409
31412
31412
31416
31412
31421
31426
31428
31428
31434
31432
31441
31444
31448
31448
31455
31455
31464
31468
31467
31466
31476
31484
31482
31485
31489
31498
31501
31508
31511
31511
31520
31528
31526
31528
31532
31533
31540
31544
31552
31556
31556
31558
31560
31564
31560
31567
31572
31569
31572
31584
31584
31580
31592
31588
31592
31594
31592
31588
31592
31598
31594
31596
31600
31590
31600
31596
31599
31598
31597
31589
31590
31592
31599
31593
31594
31588
31584
31593
31594
31584
31588
31584
31590
31588
31588
31588
31584
31585
31584
31578
31576
31572
31580
31580
31577
31574
31575
31580
31573
31570
31572
31572
31566
31572
31565
31566
31568
31556
31562
31557
31552
31552
31548
31550
31548
31546
31541
31544
31538
31546
31540
31536
31532
31533
31526
31532
31532
31518
31530
31525
31520
31514
31508
31512
31512
31504
31496
31496
31501
31492
31486
31488
31489
31488
31477
31473
31476
31469
31472
31468
31464
31462
31460
31460
31460
31452
31456
31449
31437
31433
31438
31438
31440
31436
31430
31428
31425
31428
31428
31423
31414
31423
31419
31412
31416
31418
31416
31420
31414
31412
31412
31412
31416
31414
31412
31418
31408
31408
31408
31408
31412
31408
31412
31410
31410
31408
31406
31416
31402
31404
31404
31412
31410
31404
31401
31409
31406
31415
31410
31407
31408
31412
31408
31396
31396
31404
31398
31404
31407
31404
31398
31396
31394
31396
31400
31390
31392
31397
31390
31394
31391
31388
31388
31384
31381
31380
31385
31380
31374
31372
31380
31376
31369
31372
31370
31364
31364
31362
31372
31368
31368
31366
31366
31358
31364
31364
31368
31368
31364
31370
31364
31358
31364
31360
31372
31368
31362
31372
31367
31360
31361
31372
31364
31368
31360
31367
31364
31364
31372
31367
31374
31372
31366
31365
31369
31366
31367
31368
31370
31372
31360
31376
31375
31364
31364
31364
31364
31366
31364
31368
31364
31364
31359
31356
31364
31362
31364
31364
31356
31356
31359
31348
31348
31353
31348
31352
31348
31351
31346
31352
31348
31350
31340
31350
31350
31343
31340
31334
31340
31337
31337
31335
31332
31337
31342
31344
31332
31332
31326
31335
31324
31333
31335
31324
31326
31328
31332
31332
31334
31342
31330
31335
31336
31332
31349
31332
31334
31333
31348
31337
31349
31348
31352
31344
31348
31349
31352
31350
31351
31345
31344
31352
31349
31353
31349
31344
31343
31344
31340
31345
31345
31330
31337
31333
31332
31318
31324
31318
31316
31318
31308
31306
31298
31296
31290
31296
31290
31281
31282
31276
31270
31268
31263
31256
31256
31247
31252
31240
31246
31236
31232
31229
31230
31221
31222
31213
31213
31209
31204
31212
31204
31212
31208
31204
31204
31201
31205
31207
31196
31208
31208
31204
31208
31204
31198
31213
31216
31216
31213
31212
31209
31217
31220
31220
31224
31223
31226
31225
31232
31239
31239
31240
31240
31245
31232
31244
31246
31241
31246
31252
31252
31257
31248
31258
31256
31251
31252
31256
31260
31272
31266
31264
31268
31268
31269
31264
31270
31272
31281
31284
31277
31281
31292
31288
31290
31284
31300
31297
31302
31308
31308
31316
31322
31320
31322
31333
31337
31340
31340
31341
31348
31355
31364
31357
31353
31360
31368
31372
31368
31372
31382
31384
31374
31388
31388
31388
31388
31388
31385
31396
31396
31400
31392
31396
31392
31396
31400
31401
31399
31396
31396
31394
31396
31405
31396
31396
31390
31392
31396
31384
31390
31396
31388
31388
31384
31380
31380
31384
31390
31381
31380
31381
31372
31372
31368
31374
31358
31366
31366
31361
31376
31364
31368
31372
31376
31372
31367
31364
31372
31365
31367
31364
31374
31364
31380
31368
31380
31372
31375
31373
31370
31374
31374
31373
31380
31376
31374
31386
31382
31382
31385
31389
31394
31382
31386
31400
31397
31392
31400
31400
31404
31414
31408
31412
31422
31420
31428
31428
31425
31434
31436
31442
31441
31452
31454
31456
31457
31464
31470
31476
31468
31476
31476
31489
31502
31511
31516
31524
31520
31516
31530
31528
31532
31552
31552
31556
31564
31576
31574
31588
31584
31592
31604
31615
31610
31628
31620
31639
31640
31644
31652
31662
31664
31672
31684
31681
31704
31700
31704
31711
31724
31729
31737
31744
31742
31760
31761
31775
31775
31780
31792
31796
31808
31806
31809
31821
31824
31836
31847
31844
31853
31860
31860
31862
31876
31880
31888
31904
31904
31908
31912
31920
31928
31932
31936
31942
31948
31948
31966
31968
31976
31972
31988
31996
32000
32013
32010
32028
32028
32037
32046
32044
32052
32064
32070
32066
32069
32088
32098
32103
32108
32108
32117
32130
32130
32132
32148
32148
32158
32160
32160
32174
32181
32172
32188
32198
32196
32196
32198
32210
32196
32212
32212
32218
32226
32216
32224
32225
32230
32236
32228
32236
32229
32229
32231
32244
32248
32239
32248
32244
32253
32252
32244
32252
32252
32258
32252
32252
32254
32262
32260
32256
32268
32252
32260
32248
32260
32260
32258
32263
32260
32263
32264
32260
32256
32257
32262
32260
32256
32256
32257
32256
32260
32254
32258
32256
32256
32252
32248
32252
32248
32247
32241
32241
32246
32254
32244
32248
32244
32247
32240
32239
32240
32240
32238
32241
32240
32239
32232
32236
32228
32236
32232
32234
32232
32236
32228
32224
32228
32224
32225
32228
32215
32222
32222
32225
32216
32216
32216
32216
32212
32208
32212
32208
32204
32204
32201
32200
32197
32192
32202
32188
32191
32193
32180
32182
32180
32180
32176
32174
32181
32172
32174
32172
32169
32167
32166
32159
32164
32164
32154
32149
32148
32154
32149
32148
32152
32150
32140
32134
32135
32138
32135
32132
32128
32129
32124
32130
32128
32121
32110
32109
32112
32110
32116
32108
32105
32102
32096
32096
32096
32094
32092
32086
32084
32084
32084
32076
32074
32078
32074
32068
32069
32064
32062
32064
32063
32052
32054
32052
32044
32040
32036
32041
32033
32030
32032
32041
32028
32028
32027
32028
32013
32020
32013
32004
32008
31998
32012
32004
31998
31996
31990
31992
31992
31992
31990
31988
31979
31974
31965
31972
31968
31964
31960
31956
31946
31944
31956
31942
31944
31938
31942
31928
31929
31924
31924
31916
31908
31905
31906
31898
31888
31892
31894
31876
31873
31884
31878
31870
31866
31856
31854
31844
31852
31844
31838
31824
31823
31832
31828
31824
31816
31812
31804
31806
31804
31792
31790
31780
31777
31776
31775
31776
31770
31772
31768
31761
31754
31749
31741
31741
31744
31728
31729
31732
31732
31720
31719
31716
31713
31708
31706
31708
31700
31696
31700
31689
31688
31684
31681
31677
31677
31668
31668
31668
31668
31664
31668
31656
31656
31648
31644
31652
31646
31646
31644
31638
31636
31648
31640
31626
31626
31625
31624
31616
31620
31617
31612
31609
31608
31620
31602
31601
31598
31601
31598
31593
31601
31592
31592
31588
31588
31585
31588
31588
31588
31594
31592
31589
31592
31594
31593
31588
31584
31587
31596
31596
31596
31591
31592
31596
31588
31588
31591
31586
31592
31588
31590
31584
31582
31584
31582
31572
31572
31568
31558
31551
31554
31551
31552
31538
31540
31536
31532
31524
31516
31514
31514
31502
31492
31496
31486
31476
31472
31471
31465
31464
31460
31454
31452
31446
31436
31434
31433
31428
31430
31430
31426
31420
31412
31414
31412
31408
31404
31408
31404
31408
31408
31412
31409
31416
31412
31422
31424
31428
31428
31436
31444
31454
31452
31456
31463
31469
31472
31470
31481
31477
31487
31495
31496
31500
31509
31512
31520
31515
31513
31525
31525
31524
31528
31532
31539
31536
31540
31540
31536
31541
31540
31541
31548
31540
31545
31538
31542
31544
31540
31548
31548
31542
31550
31546
31540
31540
31552
31548
31549
31540
31540
31548
31540
31538
31535
31537
31533
31532
31536
31528
31528
31521
31532
31521
31526
31525
31525
31524
31516
31521
31524
31512
31517
31522
31513
31509
31504
31509
31504
31505
31500
31508
31500
31505
31502
31504
31496
31501
31496
31500
31501
31504
31500
31492
31504
31506
31514
31517
31508
31520
31516
31512
31516
31516
31521
31524
31520
31522
31526
31524
31536
31528
31532
31540
31540
31548
31544
31550
31548
31556
31556
31562
31562
31564
31568
31569
31577
31572
31588
31585
31588
31584
31596
31596
31596
31612
31604
31612
31620
31620
31620
31629
31624
31632
31636
31644
31644
31652
31645
31657
31654
31668
31660
31664
31678
31672
31688
31692
31698
31690
31701
31708
31717
31716
31727
31720
31732
31730
31744
31748
31744
31751
31760
31760
31764
31772
31788
31782
31780
31788
31788
31796
31801
31796
31808
31812
31815
31820
31808
31820
31836
31828
31840
31834
31849
31855
31853
31864
31864
31868
31872
31872
31880
31884
31889
31892
31898
31904
31900
31908
31917
31921
31928
31936
31942
31952
31948
31954
31972
31974
31980
31980
31994
31994
32001
32012
32006
32026
32039
32036
32045
32052
32070
32068
32073
32081
32089
32096
32104
32109
32110
32120
32132
32134
32134
32148
32149
32148
32157
32162
32158
32164
32172
32174
32181
32186
32188
32192
32184
32188
32184
32194
32190
32184
32188
32191
32196
32186
32196
32181
32186
32191
32188
32184
32188
32188
32197
32188
32188
32176
32192
32190
32188
32184
32180
32192
32188
32190
32192
32191
32192
32196
32192
32196
32201
32205
32201
32208
32200
32204
32200
32214
32214
32212
32220
32216
32220
32224
32229
32228
32230
32232
32236
32242
32244
32240
32236
32252
32252
32244
32254
32257
32260
32256
32262
32258
32270
32270
32276
32272
32290
32276
32286
32282
32282
32284
32292
32288
32288
32298
32295
32302
32300
32302
32302
32304
32304
32308
32304
32316
32311
32316
32309
32311
32312
32320
32312
32312
32317
32316
32309
32307
32308
32320
32308
32313
32303
32304
32300
32302
32300
32306
32302
32292
32300
32292
32288
32285
32286
32272
32276
32276
32268
32269
32260
32263
32260
32248
32240
32245
32230
32236
32230
32228
32224
32224
32216
32212
32206
32197
32200
32200
32188
32188
32177
32162
32164
32152
32160
32148
32145
32144
32135
32124
32120
32119
32110
32109
32098
32100
32078
32086
32070
32064
32052
32052
32046
32040
32030
32017
32024
32015
32004
32005
31990
31996
31976
31976
31968
31958
31957
31953
31944
31933
31932
31920
31908
31908
31912
31898
31896
31893
31884
31878
31876
31871
31868
31857
31846
31839
31834
31830
31830
31826
31816
31820
31820
31808
31807
31806
31791
31792
31781
31782
31772
31768
31766
31753
31745
31750
31740
31748
31733
31732
31712
31717
31720
31712
31708
31703
31692
31692
31684
31684
31682
31671
31669
31662
31654
31652
31648
31647
31644
31636
31626
31620
31620
31616
31613
31594
31600
31596
31590
31584
31578
31572
31564
31560
31564
31546
31550
31536
31537
31525
31524
31518
31518
31512
31512
31500
31499
31487
31493
31479
31464
31468
31465
31462
31460
31460
31448
31460
31440
31436
31428
31426
31425
31416
31407
31410
31408
31404
31392
31392
31394
31384
31373
31380
31376
31372
31366
31360
31364
31352
31360
31356
31348
31348
31345
31352
31334
31330
31336
31328
31327
31329
31332
31318
31324
31316
31314
31318
31308
31312
31300
31300
31301
31296
31300
31294
31289
31290
31284
31284
31272
31274
31276
31268
31260
31252
31260
31241
31247
31244
31241
31231
31228
31236
31222
31214
31212
31210
31200
31199
31196
31190
31190
31188
31176
31172
31172
31176
31173
31168
31168
31156
31162
31153
31156
31157
31148
31154
31156
31159
31158
31145
31153
31150
31152
31156
31153
31154
31157
31152
31149
31156
31156
31157
31166
31156
31159
31159
31154
31156
31156
31159
31152
31144
31148
31148
31140
31142
31140
31132
31128
31120
31122
31124
31116
31111
31095
31097
31088
31090
31078
31072
31076
31076
31052
31047
31048
31045
31032
31036
31028
31032
31028
31016
31012
31012
31005
31000
30992
30993
30988
30976
30973
30976
30961
30973
30968
30961
30956
30960
30960
30956
30956
30948
30954
30952
30944
30956
30952
30956
30948
30948
30952
30948
30950
30966
30945
30958
30958
30956
30962
30960
30964
30964
30969
30956
30964
30960
30972
30964
30968
30959
30956
30960
30964
30958
30958
30960
30961
30964
30957
30957
30962
30956
30952
30956
30953
30956
30948
30958
30952
30944
30948
30949
30941
30947
30948
30948
30942
30932
30936
30936
30938
30941
30937
30934
30936
30940
30934
30932
30930
30926
30932
30924
30924
30928
30932
30918
30924
30921
30920
30918
30916
30920
30917
30925
30924
30917
30920
30918
30916
30912
30918
30916
30912
30916
30918
30910
30916
30912
30916
30916
30912
30912
30915
30916
30922
30925
30916
30924
30921
30918
30932
30932
30928
30924
30926
30936
30937
30940
30928
30936
30940
30937
30940
30950
30951
30948
30952
30961
30960
30969
30960
30964
30968
30965
30960
30961
30964
30964
30960
30972
30964
30968
30960
30964
30972
30960
30964
30968
30972
30960
30958
30968
30964
30953
30956
30960
30958
30952
30952
30944
30940
30948
30950
30946
30941
30942
30948
30936
30935
30931
30937
30920
30930
30921
30916
30914
30922
30916
30926
30916
30912
30911
30909
30920
30913
30916
30911
30906
30901
30912
30912
30917
30908
30908
30916
30910
30924
30916
30916
30914
30922
30914
30926
30920
30922
30930
30930
30936
30936
30938
30942
30944
30956
30952
30952
30954
30960
30972
30964
30972
30976
30984
30996
30988
30988
30993
30993
31000
31012
31012
31016
31012
31024
31034
31042
31033
31044
31044
31048
31050
31061
31056
31064
31068
31068
31064
31068
31069
31076
31076
31077
31087
31081
31089
31077
31084
31094
31088
31081
31076
31084
31089
31082
31084
31079
31080
31077
31076
31073
31076
31076
31078
31070
31066
31060
31066
31068
31061
31054
31060
31062
31066
31062
31056
31056
31045
31056
31052
31061
31057
31061
31060
31060
31062
31056
31060
31066
31061
31068
31068
31065
31073
31071
31077
31063
31066
31067
31076
31064
31070
31072
31072
31076
31068
31075
31069
31072
31072
31072
31080
31078
31088
31073
31084
31081
31084
31081
31088
31082
31082
31089
31092
31087
31086
31100
31096
31092
31100
31098
31108
31102
31112
31112
31108
31108
31114
31116
31124
31117
31124
31119
31120
31128
31132
31136
31140
31137
31138
31144
31148
31142
31144
31153
31149
31156
31152
31151
31158
31150
31152
31160
31158
31158
31162
31156
31165
31164
31150
31160
31156
31162
31159
31159
31160
31156
31152
31152
31152
31143
31152
31148
31148
31150
31144
31152
31140
31148
31148
31148
31141
31142
31140
31148
31146
31136
31140
31151
31145
31140
31134
31142
31134
31139
31137
31128
31132
31124
31140
31129
31124
31126
31124
31125
31116
31109
31119
31118
31127
31119
31116
31118
31116
31118
31118
31116
31112
31117
31117
31120
31116
31118
31111
31113
31116
31119
31116
31120
31117
31113
31125
31119
31119
31119
31114
31116
31118
31120
31108
31116
31120
31110
31124
31120
31124
31120
31120
31124
31112
31112
31116
31124
31116
31118
31120
31121
31115
31116
31113
31104
31108
31116
31108
31104
31096
31092
31087
31102
31092
31084
31077
31084
31076
31084
31065
31068
31061
31052
31060
31054
31048
31042
31044
31032
31025
31020
31023
31023
31020
31010
31014
31004
31000
30990
30984
30981
30974
30981
30972
30973
30964
30960
30962
30948
30954
30952
30946
30940
30942
30938
30934
30928
30922
30922
30926
30924
30924
30924
30925
30928
30924
30925
30929
30930
30924
30929
30926
30932
30942
30942
30938
30945
30950
30948
30944
30948
30950
30960
30966
30964
30969
30972
30967
30976
30976
30974
30982
30986
30987
30996
30992
30988
30992
30990
30992
30988
30992
30985
30988
30994
30986
30990
30989
30980
30976
30973
30966
30964
30956
30956
30953
30956
30940
30937
30928
30924
30920
30917
30910
30896
30888
30888
30876
30876
30868
30856
30842
30841
30842
30828
30816
30807
30797
30785
30789
30776
30772
30764
30750
30741
30734
30730
30716
30716
30711
30706
30692
30685
30681
30673
30672
30666
30647
30662
30646
30641
30644
30640
30638
30632
30626
30624
30616
30620
30618
30620
30620
30614
30600
30600
30598
30590
30591
30582
30580
30568
30564
30560
30552
30548
30540
30538
30532
30525
30516
30508
30508
30492
30482
30484
30472
30453
30452
30442
30432
30430
30418
30404
30398
30394
30388
30380
30374
30368
30362
30344
30352
30328
30337
30325
30316
30311
30305
30302
30296
30284
30284
30276
30279
30268
30261
30260
30254
30248
30244
30238
30240
30236
30236
30230
30228
30226
30216
30220
30223
30220
30220
30214
30200
30202
30196
30193
30188
30186
30178
30180
30177
30170
30164
30162
30158
30146
30150
30140
30143
30137
30125
30128
30116
30117
30111
30109
30100
30100
30090
30085
30084
30080
30072
30070
30065
30063
30057
30060
30060
30050
30048
30036
30038
30036
30042
30034
30036
30028
30034
30024
30020
30016
30020
30017
30016
30021
30022
30016
30016
30027
30016
30020
30020
30016
30020
30016
30029
30015
30026
30024
30028
30036
30040
30042
30046
30052
30053
30064
30063
30074
30084
30088
30088
30098
30104
30110
30118
30127
30125
30142
30148
30151
30156
30167
30169
30182
30192
30198
30212
30220
30225
30244
30248
30256
30264
30268
30280
30287
30300
30305
30313
30326
30340
30340
30341
30358
30365
30377
30380
30393
30398
30410
30416
30428
30432
30440
30444
30460
30468
30478
30484
30490
30496
30508
30513
30516
30533
30528
30536
30546
30552
30556
30562
30572
30580
30586
30604
30597
30600
30613
30614
30617
30624
30624
30639
30654
30648
30654
30660
30664
30672
30674
30684
30676
30692
30692
30704
30704
30717
30718
30732
30727
30729
30740
30742
30760
30764
30760
30768
30784
30784
30788
30804
30804
30812
30816
30816
30831
30836
30845
30844
30850
30866
30862
30872
30873
30892
30884
30897
30905
30910
30913
30922
30920
30934
30941
30946
30950
30956
30967
30968
30974
30978
30982
30996
30996
31004
31006
31017
31012
31020
31024
31035
31040
31043
31052
31050
31052
31052
31060
31056
31066
31064
31064
31068
31071
31068
31068
31068
31076
31076
31074
31070
31074
31060
31064
31067
31062
31067
31058
31056
31052
31056
31056
31047
31048
31048
31044
31041
31032
31030
31036
31028
31029
31018
31021
31012
31017
31016
31021
31012
31008
31012
31004
31004
31004
31004
31000
31008
30999
31006
31004
31012
31008
31012
31014
31024
31025
31026
31036
31036
31040
31052
31056
31062
31073
31077
31076
31096
31103
31111
31126
31134
31144
31158
31166
31168
31184
31199
31205
31212
31228
31241
31253
31249
31266
31276
31292
31295
31302
31309
31317
31325
31332
31336
31356
31356
31359
31364
31378
31384
31388
31386
31400
31396
31400
31404
31400
31414
31409
31413
31413
31420
31423
31424
31423
31424
31425
31417
31421
31420
31426
31420
31418
31416
31414
31406
31404
31412
31407
31400
31405
31396
31400
31394
31396
31400
31382
31388
31380
31385
31377
31377
31381
31384
31384
31384
31380
31388
31386
31396
31391
31396
31404
31402
31401
31414
31412
31422
31430
31432
31432
31449
31452
31458
31464
31476
31486
31503
31508
31519
31530
31538
31548
31556
31562
31576
31581
31604
31608
31618
31624
31644
31657
31664
31678
31688
31702
31712
31724
31740
31748
31756
31764
31780
31798
31800
31809
31816
31828
31833
31847
31862
31870
31876
31900
31904
31910
31921
31936
31948
31960
31969
31984
31989
32004
32020
32036
32049
32060
32072
32093
32100
32116
32136
32150
32168
32184
32204
32218
32228
32250
32268
32292
32304
32324
32350
32360
32384
32405
32424
32448
32468
32484
32500
32524
32544
32570
32592
32604
32623
32636
32668
32693
32704
32725
32736
32766
32784
32807
32816
32830
32852
32868
32874
32886
32904
32908
32922
32934
32941
32942
32952
32956
32965
32960
32968
32966
32966
32964
32958
32953
32954
32944
32935
32929
32920
32920
32908
32896
32889
32884
32880
32864
32860
32848
32832
32832
32812
32816
32798
32800
32789
32780
32768
32769
32765
32764
32752
32745
32748
32748
32744
32740
32752
32748
32748
32762
32764
32775
32777
32794
32806
32816
32827
32849
32860
32881
32894
32912
32932
32953
32982
33000
33036
33052
33085
33116
33150
33174
33208
33236
33276
33308
33344
33380
33408
33445
33494
33520
33560
33596
33636
33666
33704
33752
33780
33824
33853
33885
33921
33948
33986
34022
34052
34085
34111
34144
34167
34188
34224
34240
34266
34296
34317
34340
34353
34375
34388
34404
34412
34429
34440
34452
34456
34472
34486
34486
34496
34508
34503
34501
34509
34511
34520
34520
34529
34517
34526
34528
34520
34520
34522
34530
34533
34532
34532
34536
34528
34540
34548
34549
34548
34568
34564
34588
34586
34592
34600
34620
34624
34641
34652
34660
34673
34687
34707
34719
34732
34750
34756
34784
34796
34812
34824
34839
34857
34872
34888
34910
34916
34930
34948
34964
34982
34992
35004
35020
35022
35029
35048
35060
35063
35072
35089
35103
35089
35096
35104
35111
35112
35116
35122
35122
35124
35124
35129
35124
35124
35121
35117
35118
35118
35112
35108
35104
35100
35092
35084
35080
35076
35068
35068
35068
35045
35052
35040
35036
35028
35028
35028
35020
35018
35012
35008
35010
35008
35021
35026
35018
35022
35022
35026
35036
35032
35040
35044
35048
35056
35060
35069
35076
35092
35092
35096
35100
35108
35112
35121
35125
35132
35147
35164
35164
35172
35180
35192
35196
35208
35208
35215
35220
35232
35248
35247
35248
35264
35270
35274
35274
35288
35296
35300
35308
35325
35324
35334
35344
35356
35360
35364
35374
35376
35381
35396
35404
35410
35424
35424
35434
35446
35449
35470
35463
35479
35484
35501
35503
35505
35521
35520
35538
35532
35552
35551
35548
35572
35567
35565
35572
35582
35578
35582
35580
35577
35582
35582
35575
35569
35576
35568
35558
35556
35556
35544
35549
35540
35532
35528
35524
35500
35500
35486
35476
35476
35462
35444
35440
35434
35420
35408
35396
35377
35364
35360
35344
35336
35328
35316
35296
35286
35268
35256
35244
35238
35221
35217
35204
35188
35173
35156
35148
35134
35116
35108
35101
35085
35064
35047
35044
35020
35012
34998
34980
34960
34944
34932
34916
34904
34884
34860
34852
34844
34824
34805
34800
34787
34768
34756
34742
34724
34713
34702
34692
34668
34661
34648
34644
34620
34621
34604
34589
34577
34570
34549
34544
34528
34508
34509
34496
34472
34468
34468
34440
34436
34420
34408
34394
34383
34374
34352
34348
34334
34324
34308
34300
34288
34277
34268
34260
34238
34228
34221
34204
34196
34185
34166
34161
34148
34137
34118
34108
34096
34080
34072
34056
34038
34033
34021
34009
33999
33984
33964
33958
33941
33928
33914
33902
33888
33870
33860
33848
33837
33817
33797
33783
33776
33751
33740
33716
33708
33692
33674
33668
33644
33616
33612
33600
33573
33561
33534
33510
33495
33472
33456
33428
33414
33388
33367
33348
33324
33301
33280
33252
33218
33206
33182
33152
33128
33105
33083
33060
33028
33002
32972
32948
32929
32898
32876
32849
32824
32790
32767
32748
32714
32688
32663
32634
32607
32592
32559
32544
32510
32488
32463
32438
32420
32388
32364
32345
32324
32304
32279
32246
32236
32212
32186
32167
32148
32132
32110
32086
32068
32060
32034
32020
31994
31990
31960
31952
31936
31924
31905
31892
31878
31862
31848
31836
31824
31808
31794
31784
31773
31760
31749
31734
31732
31716
31712
31697
31686
31680
31676
31663
31652
31644
31642
31628
31620
31614
31608
31593
31588
31585
31574
31568
31562
31556
31556
31546
31544
31536
31528
31525
31513
31504
31501
31500
31504
31492
31500
31482
31480
31473
31468
31468
31464
31468
31456
31447
31449
31440
31444
31438
31432
31424
31424
31425
31424
31414
31418
31412
31413
31415
31412
31404
31417
31412
31406
31412
31408
31420
31414
31418
31417
31421
31428
31416
31420
31430
31428
31430
31438
31428
31442
31446
31444
31446
31454
31452
31452
31454
31464
31463
31472
31476
31484
31492
31502
31500
31498
31512
31516
31518
31524
31537
31536
31544
31548
31556
31552
31562
31570
31580
31580
31584
31597
31596
31604
31612
31612
31617
31620
31636
31641
31636
31650
31652
31662
31664
31679
31676
31684
31688
31697
31696
31708
31705
31718
31718
31725
31741
31738
31750
31756
31761
31767
31776
31781
31780
31793
31800
31808
31813
31820
31836
31844
31844
31856
31860
31872
31876
31881
31892
31892
31898
31920
31924
31932
31936
31950
31956
31958
31970
31976
31973
31988
31996
32004
32006
32028
32030
32032
32048
32042
32057
32062
32068
32076
32086
32088
32096
32092
32116
32116
32120
32135
32132
32140
32148
32161
32167
32168
32178
32184
32192
32196
32200
32210
32224
32224
32228
32236
32232
32244
32246
32262
32257
32270
32276
32264
32288
32284
32277
32284
32292
32286
32294
32288
32297
32302
32300
32300
32304
32302
32302
32292
32296
32308
32301
32302
32305
32310
32305
32309
32296
32312
32304
32309
32316
32318
32317
32308
32320
32312
32316
32320
32311
32316
32324
32316
32318
32318
32324
32327
32328
32335
32326
32325
32320
32324
32318
32319
32321
32316
32320
32320
32316
32318
32316
32316
32314
32309
32304
32310
32304
32306
32290
32285
32286
32282
32277
32269
32268
32254
32246
32228
32228
32226
32209
32204
32192
32184
32172
32160
32156
32148
32132
32112
32105
32092
32086
32064
32063
32036
32028
32016
32000
31988
31974
31969
31944
31932
31916
31904
31892
31872
31864
31846
31844
31824
31802
31789
31776
31760
31746
31730
31720
31704
31690
31674
31660
31644
31627
31617
31604
31590
31572
31560
31554
31534
31525
31508
31478
31467
31461
31444
31436
31414
31412
31391
31381
31365
31357
31344
31324
31320
31298
31278
31273
31258
31246
31238
31212
31213
31202
31194
31170
31165
31156
31144
31129
31124
31105
31100
31084
31076
31058
31060
31054
31047
31028
31022
31024
31006
31002
30992
30984
30976
30967
30969
30960
30948
30952
30945
30950
30932
30932
30930
30921
30922
30916
30912
30911
30908
30911
30892
30900
30887
30884
30880
30872
30878
30868
30868
30865
30866
30865
30857
30857
30864
30845
30848
30832
30833
30828
30833
30820
30820
30817
30816
30808
30798
30794
30798
30791
30788
30780
30776
30773
30772
30754
30756
30752
30744
30751
30728
30736
30724
30724
30713
30708
30700
30700
30692
30687
30684
30676
30664
30664
30660
30654
30644
30640
30633
30620
30623
30616
30612
30598
30586
30588
30580
30577
30568
30561
30559
30548
30549
30534
30528
30528
30518
30512
30512
30504
30501
30486
30484
30476
30468
30468
30452
30449
30448
30440
30438
30420
30416
30404
30408
30402
30388
30376
30380
30368
30356
30348
30344
30328
30326
30308
30308
30292
30288
30284
30276
30260
30250
30236
30236
30225
30209
30204
30188
30192
30172
30172
30164
30148
30146
30136
30124
30104
30100
30086
30074
30074
30061
30050
30041
30028
30024
30014
30004
29992
29988
29985
29966
29960
29950
29940
29932
29916
29910
29905
29892
29886
29874
29862
29856
29842
29837
29831
29825
29812
29812
29798
29788
29792
29776
29767
29762
29758
29742
29745
29734
29731
29726
29714
29712
29708
29698
29695
29696
29692
29684
29678
29670
29670
29668
29666
29668
29655
29660
29652
29648
29648
29640
29640
29642
29642
29641
29636
29636
29632
29636
29632
29632
29640
29634
29636
29636
29636
29629
29631
29638
29633
29632
29631
29632
29628
29636
29633
29636
29641
29636
29639
29636
29646
29636
29640
29636
29636
29644
29646
29640
29640
29634
29652
29636
29644
29651
29647
29644
29637
29644
29640
29640
29644
29652
29644
29642
29658
29645
29644
29650
29652
29656
29648
29652
29652
29652
29646
29649
29644
29656
29652
29648
29648
29646
29652
29655
29652
29648
29648
29650
29648
29652
29652
29648
29641
29650
29648
29648
29644
29640
29632
29638
29632
29636
29637
29636
29633
29624
29632
29640
29630
29636
29631
29628
29622
29621
29624
29625
29624
29622
29620
29624
29620
29622
29612
29618
29620
29620
29610
29610
29609
29606
29600
29610
29612
29606
29604
29604
29604
29605
29604
29604
29596
29606
29602
29600
29601
29600
29597
29598
29596
29596
29598
29592
29589
29590
29597
29591
29594
29596
29584
29588
29588
29584
29585
29575
29580
29585
29575
29576
29574
29572
29572
29576
29562
29566
29566
29570
29556
29556
29556
29548
29540
29540
29540
29542
29540
29532
29528
29540
29518
29516
29520
29514
29509
29505
29504
29504
29494
29490
29490
29476
29485
29477
29470
29460
29464
29462
29456
29444
29444
29440
29432
29428
29420
29420
29420
29412
29410
29399
29400
29392
29388
29388
29388
29388
29384
29380
29368
29372
29356
29364
29356
29357
29348
29345
29348
29332
29344
29332
29332
29332
29324
29326
29318
29317
29309
29308
29304
29305
29297
29293
29286
29284
29288
29284
29276
29266
29262
29265
29252
29248
29246
29240
29236
29234
29224
29222
29206
29200
29204
29191
29192
29172
29172
29162
29157
29145
29143
29145
29132
29122
29120
29108
29110
29092
29097
29082
29076
29076
29064
29062
29054
29044
29044
29030
29027
29008
29004
29001
28998
28993
28980
28985
28975
28975
28964
28962
28948
28955
28942
28940
28938
28928
28924
28919
28913
28908
28902
28900
28890
28892
28886
28880
28870
28868
28860
28853
28844
28852
28844
28832
28826
28823
28816
28805
28798
28793
28788
28774
28769
28762
28756
28748
28744
28738
28727
28720
28716
28708
28692
28696
28684
28677
28676
28656
28654
28652
28644
28638
28630
28620
28612
28602
28592
28601
28596
28586
28584
28573
28575
28559
28558
28554
28545
28546
28548
28532
28536
28526
28520
28516
28512
28513
28513
28510
28508
28494
28508
28506
28500
28506
28496
28496
28500
28488
28506
28504
28503
28512
28505
28508
28500
28516
28510
28516
28520
28524
28529
28521
28532
28534
28540
28554
28549
28560
28559
28561
28568
28568
28575
28581
28584
28592
28596
28600
28600
28608
28608
28620
28628
28623
28632
28632
28636
28638
28647
28652
28652
28653
28657
28660
28665
28668
28676
28678
28680
28684
28692
28682
28694
28695
28692
28700
28696
28705
28700
28700
28708
28708
28716
28713
28720
28714
28720
28714
28720
28726
28718
28718
28716
28716
28721
28724
28724
28716
28720
28718
28716
28717
28716
28718
28716
28708
28713
28710
28712
28708
28714
28708
28697
28705
28708
28704
28698
28689
28692
28688
28684
28681
28677
28674
28679
28678
28669
28665
28661
28670
28660
28652
28655
28644
28644
28648
28640
28636
28636
28628
28630
28622
28628
28628
28626
28620
28616
28614
28620
28614
28612
28614
28614
28606
28605
28612
28599
28600
28595
28592
28596
28588
28589
28581
28580
28589
28579
28576
28576
28566
28564
28564
28564
28562
28559
28556
28554
28549
28551
28548
28544
28548
28548
28544
28540
28536
28541
28546
28536
28548
28545
28540
28544
28546
28548
28548
28548
28552
28552
28565
28575
28576
28589
28590
28594
28602
28613
28624
28636
28642
28656
28658
28668
28685
28700
28709
28728
28738
28746
28770
28784
28800
28818
28829
28842
28867
28882
28900
28916
28932
28952
28972
28988
29008
29030
29047
29062
29080
29102
29128
29148
29164
29190
29212
29242
29247
29280
29296
29316
29340
29360
29373
29408
29429
29446
29468
29500
29523
29542
29568
29588
29613
29624
29656
29684
29700
29721
29740
29764
29792
29806
29836
29862
29882
29900
29916
29945
29961
29986
30004
30024
30048
30062
30076
30098
30122
30152
30161
30184
30197
30216
30240
30260
30290
30300
30316
30348
30355
30384
30392
30409
30428
30444
30473
30490
30506
30528
30540
30558
30586
30604
30616
30640
30660
30672
30694
30712
30741
30758
30772
30801
30820
30839
30861
30878
30900
30920
30949
30972
30990
31010
31032
31058
31088
31108
31140
31159
31174
31205
31234
31260
31276
31302
31324
31354
31384
31408
31432
31460
31484
31508
31521
31548
31582
31608
31632
31652
31676
31700
31732
31758
31778
31796
31824
31848
31868
31888
31908
31936
31964
31980
32005
32033
32050
32074
32093
32116
32132
32154
32172
32190
32205
32228
32248
32260
32284
32300
32320
32346
32350
32365
32382
32406
32420
32429
32450
32460
32470
32487
32508
32516
32532
32550
32568
32576
32584
32607
32612
32622
32632
32644
32660
32676
32674
32692
32704
32716
32730
32744
32761
32762
32780
32789
32797
32804
32815
32834
32837
32848
32860
32864
32876
32884
32900
32900
32908
32920
32929
32940
32944
32958
32964
32972
32970
32982
32988
32992
33004
33012
33022
33022
33031
33032
33025
33032
33044
33037
33046
33054
33044
33056
33056
33057
33056
33062
33060
33052
33048
33044
33046
33048
33048
33037
33036
33028
33013
33022
33012
33004
32997
32991
32985
32978
32970
32961
32944
32940
32930
32920
32908
32900
32888
32874
32867
32849
32836
32824
32816
32798
32792
32781
32769
32760
32748
32737
32724
32708
32692
32679
32666
32653
32646
32626
32610
32606
32584
32575
32570
32548
32540
32520
32514
32502
32484
32470
32466
32452
32440
32428
32401
32404
32385
32380
32367
32352
32346
32332
32323
32304
32296
32280
32268
32260
32248
32240
32225
32215
32201
32176
32176
32169
32150
32140
32128
32110
32088
32079
32066
32048
32036
32028
32009
31992
31972
31960
31940
31924
31904
31896
31876
31852
31840
31824
31806
31797
31764
31750
31728
31712
31688
31676
31654
31636
31616
31594
31576
31558
31548
31522
31504
31492
31464
31444
31424
31400
31392
31360
31353
31320
31300
31284
31266
31254
31228
31205
31194
31164
31144
31130
31108
31092
31072
31056
31040
31012
30996
30977
30956
30936
30924
30913
30892
30877
30857
30840
30828
30806
30796
30784
30769
30748
30740
30727
30716
30700
30674
30666
30652
30644
30628
30616
30608
30593
30584
30575
30564
30551
30543
30532
30518
30516
30506
30488
30476
30472
30462
30452
30456
30437
30424
30420
30412
30404
30394
30392
30382
30371
30358
30352
30350
30340
30328
30320
30320
30309
30300
30295
30284
30284
30276
30262
30260
30248
30248
30242
30228
30228
30220
30212
30200
30194
30180
30188
30180
30168
30160
30148
30141
30138
30119
30128
30117
30112
30112
30104
30092
30084
30072
30064
30060
30052
30044
30036
30040
30030
30024
30021
30014
30018
30008
30000
29988
29992
29977
29976
29970
29972
29954
29962
29948
29942
29946
29935
29933
29928
29920
29924
29920
29912
29908
29900
29908
29893
29902
29892
29898
29892
29890
29889
29878
29884
29881
29879
29886
29872
29872
29870
29874
29859
29860
29860
29856
29848
29844
29848
29844
29840
29840
29840
29830
29831
29828
29820
29808
29806
29804
29793
29800
29790
29784
29781
29777
29772
29768
29765
29756
29758
29752
29748
29740
29732
29728
29725
29718
29700
29704
29703
29690
29684
29679
29676
29676
29664
29664
29656
29642
29646
29640
29634
29628
29633
29616
29608
29612
29604
29597
29596
29580
29584
29575
29565
29568
29560
29557
29550
29552
29540
29536
29534
29536
29524
29524
29520
29515
29510
29507
29505
29508
29500
29503
29496
29494
29488
29485
29491
29486
29492
29476
29480
29476
29474
29469
29474
29476
29460
29464
29468
29469
29464
29464
29466
29464
29468
29468
29462
29462
29461
29470
29467
29468
29464
29465
29461
29460
29460
29470
29466
29468
29468
29468
29472
29468
29464
29476
29469
29470
29468
29468
29466
29456
29463
29458
29461
29456
29460
29453
29456
29452
29454
29465
29454
29456
29452
29452
29448
29458
29448
29461
29457
29456
29456
29460
29452
29450
29448
29456
29452
29442
29452
29446
29450
29460
29452
29442
29444
29438
29441
29441
29432
29436
29437
29432
29428
29424
29428
29418
29422
29426
29408
29413
29409
29409
29408
29408
29406
29402
29391
29396
29384
29385
29380
29380
29373
29375
29374
29368
29368
29372
29357
29364
29352
29356
29350
29360
29361
29357
29359
29360
29352
29358
29364
29357
29364
29358
29352
29358
29356
29353
29359
29358
29360
29362
29358
29364
29360
29366
29362
29368
29364
29364
29376
29370
29376
29372
29374
29376
29377
29376
29380
29384
29372
29378
29373
29376
29378
29389
29382
29384
29384
29380
29380
29380
29388
29386
29384
29396
29388
29390
29392
29396
29384
29384
29381
29380
29392
29390
29384
29386
29382
29388
29382
29376
29388
29385
29380
29381
29376
29386
29384
29385
29380
29376
29384
29380
29378
29392
29386
29388
29385
29384
29388
29398
29390
29400
29392
29384
29388
29384
29396
29396
29394
29401
29392
29396
29408
29408
29402
29408
29405
29404
29413
29399
29397
29398
29398
29396
29404
29397
29401
29396
29394
29390
29391
29382
29378
29373
29380
29378
29368
29368
29370
29362
29364
29364
29356
29350
29356
29354
29345
29340
29342
29344
29337
29336
29334
29332
29330
29336
29333
29328
29340
29336
29343
29348
29348
29341
29352
29364
29364
29378
29384
29376
29387
29388
29399
29412
29416
29422
29428
29438
29457
29456
29468
29466
29478
29488
29494
29502
29518
29524
29532
29540
29543
29553
29568
29574
29578
29584
29598
29604
29614
29621
29628
29632
29645
29648
29656
29664
29667
29676
29668
29692
29694
29697
29702
29716
29720
29730
29720
29732
29732
29738
29740
29748
29748
29750
29752
29761
29768
29766
29765
29763
29768
29786
29775
29780
29784
29785
29784
29788
29790
29792
29782
29783
29792
29788
29789
29788
29786
29793
29791
29788
29792
29796
29790
29796
29789
29796
29788
29793
29790
29790
29792
29791
29798
29796
29798
29804
29805
29798
29804
29806
29815
29808
29816
29812
29812
29812
29824
29828
29828
29829
29829
29833
29832
29842
29844
29849
29854
29868
29866
29876
29880
29889
29888
29896
29904
29906
29914
29921
29922
29935
29940
29932
29956
29956
29964
29976
29980
29986
29988
30004
30000
30014
30012
30016
30028
30033
30041
30048
30046
30053
30064
30064
30080
30080
30084
30090
30105
30104
30118
30118
30130
30132
30148
30144
30156
30153
30164
30168
30175
30178
30189
30192
30204
30204
30208
30208
30214
30218
30220
30228
30236
30244
30242
30246
30248
30256
30260
30252
30252
30262
30260
30268
30272
30272
30268
30270
30272
30284
30276
30271
30272
30269
30276
30272
30276
30271
30268
30264
30272
30272
30272
30266
30269
30267
30268
30272
30272
30268
30268
30270
30276
30265
30270
30273
30272
30260
30268
30265
30260
30265
30260
30260
30252
30252
30252
30256
30260
30257
30252
30248
30248
30236
30236
30237
30240
30237
30236
30226
30236
30228
30224
30224
30224
30228
30224
30222
30220
30218
30222
30220
30214
30216
30222
30216
30213
30220
30216
30224
30213
30221
30220
30212
30232
30224
30222
30218
30228
30224
30232
30228
30228
30228
30232
30223
30240
30241
30238
30241
30241
30252
30252
30248
30250
30252
30256
30256
30260
30265
30271
30276
30276
30280
30280
30290
30288
30293
30308
30305
30308
30320
30317
30326
30330
30332
30340
30341
30358
30356
30365
30368
30375
30375
30384
30398
30408
30404
30420
30414
30428
30446
30445
30456
30465
30460
30472
30485
30488
30494
30510
30513
30516
30528
30536
30556
30556
30560
30572
30576
30589
30594
30599
30605
30620
30622
30632
30644
30644
30652
30657
30672
30678
30673
30701
30700
30706
30712
30722
30729
30730
30738
30744
30754
30764
30764
30776
30780
30788
30796
30801
30808
30812
30822
30817
30822
30829
30830
30840
30850
30856
30858
30864
30870
30868
30884
30889
30884
30888
30888
30892
30903
30904
30908
30908
30910
30916
30914
30918
30929
30914
30925
30920
30926
30924
30930
30934
30936
30932
30929
30928
30932
30945
30937
30944
30936
30930
30942
30940
30942
30942
30946
30949
30946
30942
30952
30962
30952
30960
30960
30964
30972
30973
30981
30982
30994
30994
30988
31004
31000
31017
31020
31018
31032
31028
31044
31044
31045
31071
31065
31076
31078
31088
31093
31100
31108
31113
31122
31136
31138
31146
31144
31164
31172
31182
31180
31189
31198
31204
31215
31220
31229
31240
31248
31256
31260
31266
31276
31284
31294
31304
31310
31317
31324
31319
31330
31349
31360
31356
31366
31376
31375
31384
31396
31390
31405
31410
31412
31425
31428
31440
31436
31440
31450
31456
31460
31456
31468
31476
31476
31488
31492
31482
31498
31500
31502
31501
31506
31513
31505
31514
31504
31516
31512
31516
31509
31512
31502
31502
31504
31488
31490
31484
31482
31474
31470
31458
31461
31452
31440
31430
31441
31421
31412
31410
31398
31389
31378
31368
31364
31344
31337
31329
31313
31303
31301
31287
31268
31270
31254
31244
31232
31224
31208
31194
31186
31176
31167
31158
31151
31142
31131
31132
31118
31110
31100
31100
31092
31080
31076
31076
31065
31070
31068
31061
31054
31060
31052
31052
31060
31054
31052
31058
31061
31057
31068
31070
31072
31074
31086
31080
31084
31100
31108
31108
31110
31117
31124
31124
31128
31145
31146
31148
31160
31168
31168
31172
31180
31188
31204
31206
31212
31220
31221
31230
31232
31233
31240
31252
31252
31264
31262
31265
31273
31273
31282
31290
31290
31299
31300
31302
31304
31308
31312
31322
31328
31331
31328
31325
31328
31327
31328
31328
31328
31332
31335
31336
31340
31340
31344
31335
31335
31348
31342
31357
31348
31358
31364
31369
31368
31366
31377
31384
31382
31392
31406
31404
31404
31420
31432
31436
31437
31457
31460
31472
31484
31492
31502
31512
31524
31534
31544
31556
31572
31584
31597
31604
31616
31639
31660
31661
31682
31688
31710
31716
31728
31745
31754
31772
31790
31804
31822
31837
31848
31864
31874
31885
31904
31914
31936
31936
31960
31973
31980
31993
32010
32028
32040
32060
32060
32085
32085
32104
32117
32132
32132
32148
32162
32177
32180
32192
32212
32220
32234
32244
32246
32256
32260
32270
32292
32292
32306
32312
32316
32332
32340
32343
32354
32362
32373
32377
32383
32394
32394
32417
32416
32412
32420
32432
32436
32440
32449
32452
32452
32468
32457
32468
32486
32484
32478
32488
32496
32498
32508
32508
32505
32514
32514
32524
32524
32534
32536
32532
32542
32548
32558
32549
32569
32564
32572
32572
32586
32584
32586
32594
32604
32608
32607
32614
32617
32636
32637
32642
32644
32652
32662
32666
32672
32684
32686
32682
32684
32688
32696
32705
32706
32712
32720
32720
32726
32721
32732
32736
32738
32734
32732
32741
32741
32748
32741
32744
32749
32748
32748
32748
32756
32746
32752
32765
32757
32754
32756
32756
32758
32760
32756
32753
32764
32750
32748
32744
32746
32744
32744
32740
32741
32740
32737
32740
32736
32732
32740
32724
32720
32723
32725
32724
32724
32714
32716
32710
32708
32711
32708
32708
32708
32705
32695
32701
32704
32692
32700
32702
32700
32704
32696
32693
32688
32686
32686
32688
32692
32688
32684
32688
32684
32689
32681
32688
32684
32684
32684
32688
32684
32680
32693
32676
32694
32680
32695
32682
32680
32684
32684
32684
32692
32681
32676
32680
32680
32689
32679
32676
32668
32672
32672
32676
32676
32674
32677
32668
32668
32676
32672
32672
32672
32664
32664
32668
32660
32660
32656
32656
32656
32656
32652
32660
32658
32652
32648
32637
32650
32644
32644
32646
32641
32637
32640
32637
32642
32633
32628
32628
32628
32621
32629
32622
32622
32616
32616
32620
32606
32612
32614
32612
32608
32599
32600
32600
32597
32590
32588
32592
32583
32581
32581
32578
32570
32580
32576
32568
32570
32566
32557
32568
32561
32551
32551
32548
32540
32544
32544
32544
32533
32532
32532
32524
32519
32528
32524
32522
32524
32518
32516
32508
32500
32510
32501
32501
32496
32490
32489
32484
32490
32479
32474
32473
32464
32470
32454
32461
32452
32450
32448
32438
32438
32430
32420
32426
32429
32412
32412
32412
32400
32398
32388
32388
32388
32376
32384
32366
32372
32360
32354
32356
32357
32340
32342
32337
32332
32336
32326
32313
32316
32316
32308
32304
32300
32300
32288
32292
32284
32292
32290
32268
32278
32272
32268
32270
32273
32264
32252
32262
32247
32242
32239
32236
32238
32238
32236
32232
32233
32224
32238
32236
32236
32230
32224
32227
32219
32228
32216
32222
32216
32228
32228
32226
32229
32232
32232
32224
32226
32239
32234
32240
32246
32236
32248
32247
