EGG
37287
37575
37556
37581
37568
37575
37573
37559
37581
37567
37588
37583
37578
37431
37578
37399
37569
37539
37612
37612
37623
37631
37628
37639
37637
37639
37631
37629
37649
37639
37637
37663
37657
37623
37658
37654
37665
37671
37683
37702
37446
37662
37623
37690
37684
37705
37679
37701
37593
37717
37717
37700
37677
37733
37724
37716
37719
37733
37703
37446
37766
37710
37764
37670
37783
37767
37485
37775
37740
37783
37790
37778
37813
37796
37767
37807
37793
37796
37815
37799
37780
37831
37767
37839
37833
37813
37820
37599
37843
37863
37838
37811
37871
37759
37876
37845
37869
37859
37875
37895
37876
37844
37895
37789
37916
37863
37911
37783
37932
37895
37913
37919
37895
37940
37703
37964
37895
37951
37938
37950
37971
37832
37983
37927
37987
37877
38007
37972
37719
37991
37962
38004
37862
38018
37987
38023
38034
37999
38061
38033
38047
37959
38063
38007
38059
37791
38054
38061
38071
38070
37975
38105
38047
38096
37944
38108
38063
38108
37829
37911
37980
38098
38135
38087
38151
38023
38164
38135
38161
38134
38169
38171
37860
38151
38135
38185
37946
38172
38175
38207
38167
38202
37909
38203
38228
38215
38213
38193
38222
38239
38118
38243
38247
38044
38260
38213
38268
38214
38279
38279
38289
38210
38287
38246
38303
38151
38307
38286
38311
38223
38321
38326
38239
38343
38343
38167
38349
38346
38350
38329
38375
38359
38375
38372
38359
38377
38373
38397
38382
38394
38391
38369
38407
38133
38386
38407
38407
38279
38438
38386
38447
38229
38462
38438
38165
38463
38455
38479
38191
38482
38445
38479
38495
38475
38500
38447
38503
38228
38503
38468
38535
38485
38535
38541
38495
38551
38545
38447
38564
38546
38523
38575
38573
38575
38550
38287
38598
38582
38597
38579
38603
38604
38329
38614
38637
38620
38623
38621
38647
38615
38642
38484
38655
38638
38652
38367
38663
38691
38687
38523
38702
38678
38695
38695
38663
38695
38727
38684
38719
38711
38705
38740
38566
38748
38730
38749
38749
38719
38781
38710
38781
38775
38500
38797
38735
38807
38602
38822
38775
38804
38758
38830
38782
38839
38549
38843
38791
38850
38807
38831
38869
38575
38789
38893
38885
38748
38901
38888
38799
38908
38900
38807
38927
38919
38860
38893
38934
38934
38943
38951
38956
38903
38968
38955
38679
38973
38919
38997
38787
38998
38956
38993
38839
38998
39031
38965
39036
38895
39047
38988
39045
39047
39007
39041
39004
39052
39071
38964
39089
39036
39091
38973
39106
39085
39111
39118
39114
39117
38879
39138
39083
39127
39097
39147
39126
39159
39082
39175
39173
39159
39157
39159
39201
39119
39213
39196
39007
39214
39208
39110
39239
39199
39239
39245
39201
39258
39126
39271
39229
39271
39255
39235
39300
39255
39303
39314
39070
39316
39275
39327
39348
39288
39335
39343
39309
39359
39277
39381
39363
39373
39373
39340
39399
39373
39404
39403
39287
39431
39422
39238
39431
39431
39453
39447
39431
39456
39445
39492
39480
39223
39495
39467
39504
39502
39503
39505
39395
39535
39540
39431
39555
39540
39506
39556
39565
39539
39524
39577
39572
39547
39601
39575
39559
39606
39623
39559
39614
39583
39645
39631
39455
39647
39611
39645
39457
39668
39662
39658
39654
39687
39674
39682
39506
39687
39679
39709
39680
39687
39719
39711
39687
39722
39711
39746
39748
39602
39776
39761
39655
39779
39762
39495
39791
39775
39503
39791
39765
39807
39788
39776
39822
39828
39805
39543
39831
39825
39612
39853
39850
39792
39875
39860
39865
39859
39884
39879
39887
39740
39915
39910
39898
39879
39922
39924
39903
39943
39655
39925
39975
39919
39967
39799
39983
39943
39991
39903
40007
39999
40007
40008
39972
40023
39943
40046
40036
39836
40060
40055
40057
40071
40036
40071
39845
40089
40084
40114
40055
40095
40121
40135
40103
40143
40024
40167
40167
40167
40171
40126
40185
40170
40208
40199
40208
40213
40172
40236
40219
40261
40238
39999
40269
40237
40263
40273
40244
40284
40260
40319
40308
40160
40343
40327
40255
40339
40345
40247
40380
40363
40140
40389
40365
40385
40391
40375
40409
40324
40427
40415
40453
40311
40455
40455
40471
40474
40452
40493
40335
40511
40509
40239
40535
40507
40543
40545
40548
40564
40335
40583
40542
40590
40578
40618
40613
40383
40639
40615
40644
40628
40615
40655
40662
40661
40676
40700
40652
40727
40703
40647
40730
40734
40703
40771
40783
40743
40775
40783
40759
40799
40796
40789
40831
40827
40852
40812
40863
40870
40693
40859
40900
40861
40913
40783
40936
40935
40812
40961
40922
40967
40958
40999
41004
40877
41029
40983
41029
40913
41071
41059
40829
41085
41045
41095
41108
41126
41132
41130
41143
41083
41191
41184
41195
41191
41173
41205
41143
41253
41238
41263
41223
41292
41286
41005
41310
41279
41335
41319
41337
41365
41083
41366
41408
41405
41213
41443
41412
41441
41431
41479
41475
41507
41518
41503
41530
41543
41563
41519
41568
41597
41567
41621
41447
41653
41638
41685
41655
41691
41703
41531
41730
41718
41769
41772
41535
41791
41757
41812
41785
41852
41858
41871
41815
41884
41902
41863
41935
41951
41932
41924
41991
41982
41975
42033
42036
42017
42079
41975
42100
42119
41829
42151
42111
42167
42174
42151
42231
42239
42239
42262
42021
42319
42303
42036
42339
42343
42180
42398
42391
42414
42428
42394
42465
42457
42438
42503
42533
42503
42555
42567
42503
42607
42583
42613
42652
42628
42690
42708
42668
42703
42745
42692
42791
42774
42816
42812
42863
42844
42877
42691
42934
42895
42956
42951
42948
43015
42948
43069
43029
43077
43072
43119
43111
43143
43044
43196
43143
43220
43079
43271
43255
43295
43292
43325
43357
43015
43396
43360
43421
43439
43411
43491
43462
43516
43527
43558
43588
43570
43607
43463
43660
43677
43420
43733
43727
43764
43761
43759
43799
43613
43859
43813
43895
43663
43951
43902
43964
43995
43713
44039
44060
44039
44095
44039
44140
44140
44153
44183
43823
44239
44199
44276
44295
44279
44351
44318
44364
44039
44438
44391
44471
44215
44487
44543
44479
44567
44585
44335
44591
44677
44695
44637
44719
44295
44708
44791
44754
44825
44645
44900
44886
44909
44950
44959
44935
44999
44615
45059
45063
45095
45119
45078
45175
45127
45206
45141
45262
45226
45287
45311
45362
45348
45391
45285
45447
45439
45479
45527
45446
45543
45423
45609
45621
45127
45684
45628
45700
45645
45781
45788
45396
45853
45844
45775
45924
45930
45839
45975
45994
45973
45951
46076
46087
46025
46141
46141
46193
46212
46045
46276
46283
46312
46343
46287
46386
46052
46455
46403
46487
46014
46556
46471
46599
46625
46636
46654
46599
46724
46630
46775
46791
46383
46871
46783
46882
46805
46974
46974
46972
47009
46660
47069
47111
47054
47143
47181
47215
47214
47239
47302
47260
47335
46772
47333
47428
47343
47456
47111
47555
47428
47565
47527
47623
47615
47655
47722
47623
47751
47283
47815
47857
47763
47879
47439
47966
47939
47971
48027
47469
48103
48055
48020
48135
47564
48207
48263
48259
47692
48332
48356
48340
48391
48111
48479
48487
48408
48532
48573
48020
48623
48666
48667
48687
48741
48775
48682
48821
48860
48423
48927
48940
48868
48979
48884
49069
49062
49103
49149
49111
49191
49127
49279
49222
49287
49103
49397
49371
49402
49124
49478
49452
49533
49519
49599
49513
49639
49503
49725
49629
49759
49639
49819
49835
49443
49951
49826
49964
49327
49773
50078
50100
50004
50132
50151
50122
50228
50247
50284
50244
50367
50260
50396
49794
50492
50503
50426
50551
50253
50638
50580
50671
50620
50764
50671
50772
50823
50439
50933
50917
50876
50951
50309
51054
51079
50987
51124
50788
51207
51207
51251
51271
51297
51334
51350
51401
51431
51473
51451
51508
51548
51591
51620
51591
51671
51430
51766
51765
51748
51830
51438
51910
51913
51889
51959
51943
52036
51942
52075
51591
52191
52067
52205
52062
52295
52199
52318
52349
52367
52460
52461
52463
52508
52558
52565
52583
51863
52661
52615
52711
52775
52743
52797
52829
52903
52855
52933
52438
53022
53027
53023
53055
53019
53168
53022
53183
52551
53300
53303
53205
53335
53371
52615
53407
53511
53500
53404
53543
53581
53605
53691
53678
53615
53727
53758
53836
53791
53858
53396
53967
53951
53948
54007
54090
53949
54087
54178
54095
54187
53735
54279
54301
54295
54340
54423
54367
54431
53895
54535
54439
54551
54655
54637
54527
54663
54660
54751
54788
54319
54865
54778
54884
54495
54972
54982
54952
55084
54999
55100
55199
55127
55203
55012
55285
55283
55271
55363
55375
55412
55085
55527
55511
55526
54999
55654
55485
55644
55583
55727
55726
55219
55860
55696
55879
55807
55935
55941
55935
56071
56039
55996
56088
56063
56197
56071
56231
55396
56351
56208
56327
55527
56436
56348
56183
56534
56374
56551
56437
56620
56630
56259
56765
56575
56759
56639
56835
56833
56054
56956
56909
56951
56967
57024
57063
57038
57083
57140
57175
57151
57199
57287
57276
57205
57303
57211
57423
57261
57404
57444
57517
57535
57402
57575
57593
57295
57719
57747
57589
57749
57762
57855
57863
57863
57731
57911
57920
57660
58063
58023
57991
58064
57639
58183
58183
58164
58151
58231
58057
58342
58175
58332
58215
58462
58310
58431
58471
58495
58598
58575
58462
58612
58271
58724
58631
58695
57895
58846
58791
58691
58840
57975
58975
58934
58932
58951
59071
59015
59056
58334
59164
59142
59125
59143
59271
59263
59207
59271
59143
59399
59287
59371
59388
59263
59495
59308
59492
59511
59607
59620
59462
59612
59399
59708
59646
59719
59829
59813
59644
59815
59823
59951
59885
59911
59135
60004
59948
60012
60132
60063
60080
60103
59964
60231
60101
60206
60100
60292
60244
60292
60421
60343
60375
60393
60479
60502
60343
60492
59783
60647
60551
60580
59700
60723
60609
60675
60695
60767
60788
60749
59759
60863
60725
60871
60487
60990
60775
60933
61055
61015
61007
61045
60114
61167
61109
61117
61135
61224
61207
61186
61230
61236
61300
61316
61153
61383
61345
60468
61494
61283
61447
61557
61486
61532
61590
61575
61599
61685
61470
61655
61767
61551
61703
61775
61748
61191
61827
61807
60903
61928
61733
61895
62010
61949
61959
61959
62099
62061
62053
61703
62119
62106
61191
62255
62068
62215
62215
62253
62268
61611
62375
62319
62364
61942
62444
62414
62427
62500
62351
62471
62243
62588
62549
62542
62599
62540
62684
62532
62678
62682
62759
62759
62591
62760
62486
62831
62679
62855
62444
62935
62911
62848
62935
62964
63015
62847
63015
62756
63099
63063
62325
63158
63111
63143
63167
63238
63220
63190
63239
63303
63263
63292
63316
63330
63367
63204
63377
62784
63468
63438
63439
63492
63495
63516
63463
63548
63170
63622
63555
63612
63647
63638
63709
63687
63715
63668
63775
63596
63790
63576
63837
63824
63823
63879
63903
63919
63775
63935
63951
63903
63999
63943
64006
64047
64007
64095
63934
64101
64093
64148
64143
64167
64109
64221
64070
64239
64262
64263
64295
64308
64327
64351
64343
64364
64374
64400
64375
64420
64455
64478
64476
64357
64519
64519
64556
64567
64492
64545
64629
65198
64662
64676
64684
64679
64735
64742
65176
64793
64807
64814
64679
64852
64860
65327
64924
64920
64951
64963
64967
64999
65020
65030
64980
65056
65343
65100
65110
65018
65135
65153
65216
65181
65123
65223
65231
65254
65268
65276
65276
65287
65319
65332
65341
65319
65361
65455
65373
65407
65399
65415
65415
65439
65447
65449
65463
65478
65476
65500
65503
65516
65519
65500
65518
65511
65508
65503
65511
65527
65511
65511
65519
65516
65518
65505
65517
65519
65525
65510
65517
65511
65511
65511
65501
65516
65508
65504
65519
65508
65516
65527
65496
65519
65495
65494
65519
65517
65511
65508
65509
65519
65511
65504
65508
65504
65519
65511
65511
65508
65502
65511
65510
65517
65525
65511
65510
65519
65509
65504
65508
65509
65525
65504
65509
65502
65519
65511
65509
65500
65511
65519
65511
65516
65511
65535
65519
65509
65519
65511
65527
65505
65511
65511
65519
65511
65518
65510
65502
65508
65492
65511
65509
65527
65511
65519
65511
65511
65525
65508
65508
65519
65527
65516
65511
65516
65519
65511
65518
65517
65503
65506
65511
65518
65519
65516
65511
65517
65511
65511
65511
65502
65513
65501
65516
65519
65519
65516
65527
65519
65519
65511
65515
65516
65516
65527
65525
65519
65519
65511
65509
65511
65511
65524
65510
65509
65511
65511
65502
65517
65519
65517
65519
65511
65516
65506
65510
65509
65511
65496
65500
65519
65508
65504
65511
65516
65504
65519
65511
65511
65504
65519
65517
65511
65510
65511
65519
65511
65525
65525
65527
65519
65519
65519
65504
65519
65504
65516
65508
65519
65511
65508
65511
65510
65500
65503
65511
65519
65500
65511
65517
65516
65504
65526
65511
65503
65511
65518
65519
65510
65511
65511
65509
65508
65512
65519
65511
65518
65518
65511
65511
65525
65505
65519
65519
65527
65511
65511
65519
65510
65508
65510
65527
65519
65511
65518
65517
65517
65508
65527
65496
65527
65510
65515
65519
65527
65511
65511
65511
65524
65527
65511
65510
65527
65516
65511
65516
65517
65519
65519
65516
65527
65527
65511
65519
65519
65504
65517
65511
65527
65516
65511
65517
65519
65509
65519
65511
65516
65503
65504
65519
65515
65510
65517
65511
65511
65511
65509
65511
65506
65511
65519
65519
65519
65511
65511
65527
65516
65508
65516
65527
65519
65508
65511
65535
65519
65508
65511
65519
65511
65511
65519
65511
65508
65524
65510
65527
65525
65508
65511
65527
65505
65515
65519
65511
65516
65508
65506
65516
65504
65511
65511
65533
65511
65517
65519
65516
65519
65511
65519
65511
65516
65519
65527
65511
65517
65511
65504
65508
65511
65516
65501
65519
65519
65517
65511
65516
65511
65527
65518
65511
65509
65524
65519
65514
65516
65513
65524
65511
65517
65502
65511
65516
65519
65519
65519
65511
65527
65510
65517
65519
65519
65527
65519
65519
65516
65517
65524
65511
65510
65518
65524
65513
65517
65527
65517
65519
65511
65507
65519
65511
65509
65519
65514
65519
65527
65524
65510
65511
65517
65509
65519
65516
65511
65511
65508
65502
65519
65527
65519
65508
65527
65511
65508
65507
65519
65512
65519
65510
65516
65519
65527
65517
65511
65511
65517
65519
65511
65527
65494
65511
65524
65510
65519
65511
65527
65511
65511
65509
65510
65509
65510
65519
65526
65508
65511
65511
65516
65519
65527
65503
65511
65519
65517
65517
65505
65511
65511
65504
65517
65515
65496
65519
65508
65519
65517
65511
65511
65516
65508
65516
65517
65503
65503
65519
65519
65519
65519
65504
65512
65511
65519
65511
65508
65511
65519
65517
65519
65517
65510
65519
65517
65508
65519
65511
65527
65511
65525
65502
65508
65519
65511
65508
65519
65508
65508
65517
65518
65511
65511
65505
65519
65524
65502
65511
65510
65511
65493
65508
65519
65516
65511
65509
65517
65511
65511
65518
65516
65508
65527
65511
65524
65517
65508
65511
65519
65519
65511
65518
65519
65517
65511
65511
65519
65517
65511
65500
65511
65511
65500
65511
65518
65511
65517
65511
65505
65519
65519
65527
65505
65527
65511
65524
65510
65519
65508
65511
65508
65519
65505
65511
65511
65511
65524
65505
65511
65519
65511
65516
65511
65509
65511
65527
65527
65517
65511
65506
65512
65516
65508
65511
65510
65511
65516
65525
65527
65511
65511
65509
65519
65519
65517
65526
65519
65508
65535
65511
65519
65504
65519
65511
65519
65519
65516
65508
65508
65516
65517
65525
65511
65519
65516
65504
65511
65519
65511
65516
65511
65524
65501
65511
65511
65502
65525
65527
65511
65511
65525
65511
65517
65518
65511
65511
65519
65511
65508
65511
65516
65527
65519
65516
65508
65504
65524
65510
65519
65519
65519
65511
65516
65519
65524
65511
65519
65500
65511
65527
65511
65519
65519
65516
65508
65506
65500
65511
65510
65514
65508
65511
65511
65511
65519
65516
65510
65511
65511
65510
65516
65510
65504
65509
65517
65511
65506
65511
65511
65517
65519
65511
65518
65511
65518
65511
65516
65518
65511
65508
65519
65527
65517
65508
65523
65519
65511
65519
65526
65517
65517
65503
65514
65525
65509
65516
65510
65503
65524
65519
65511
65503
65517
65525
65519
65517
65500
65517
65511
65508
65511
65511
65519
65511
65517
65511
65519
65501
65517
65519
65511
65508
65518
65519
65510
65525
65519
65511
65501
65527
65502
65511
65510
65503
65511
65506
65508
65515
65510
65510
65511
65510
65516
65511
65506
65508
65516
65525
65511
65519
65500
65516
65518
65511
65518
65501
65505
65516
65502
65511
65519
65508
65527
65510
65516
65527
65516
65524
65511
65500
65511
65525
65506
65517
65511
65509
65519
65500
65519
65525
65511
65511
65504
65517
65511
65519
65509
65513
65516
65535
65511
65519
65511
65525
65517
65510
65506
65519
65503
65519
65519
65517
65509
65519
65516
65518
65527
65527
65519
65519
65503
65511
65510
65511
65511
65516
65516
65519
65511
65511
65519
65517
65519
65524
65527
65519
65511
65519
65519
65511
65508
65506
65519
65515
65519
65518
65511
65519
65527
65519
65505
65518
65519
65511
65504
65527
65521
65510
65517
65524
65516
65519
65510
65512
65503
65519
65511
65525
65511
65519
65503
65511
65516
65527
65511
65511
65519
65511
65519
65518
65511
65519
65510
65519
65510
65509
65511
65511
65510
65507
65519
65511
65519
65492
65517
65511
65516
65508
65516
65511
65508
65513
65513
65518
65519
65511
65500
65511
65509
65533
65508
65508
65524
65510
65511
65508
65511
65516
65511
65508
65516
65519
65511
65508
65519
65509
65516
65510
65524
65517
65519
65508
65519
65519
65524
65504
65510
65510
65517
65517
65511
65510
65508
65514
65527
65518
65508
65508
65501
65508
65519
65525
65508
65511
65511
65519
65519
65508
65511
65508
65526
65508
65511
65511
65511
65514
65511
65519
65511
65511
65519
65525
65510
65517
65519
65511
65533
65511
65504
65517
65516
65517
65527
65517
65519
65527
65519
65525
65527
65511
65508
65511
65511
65509
65511
65519
65510
65521
65509
65503
65511
65517
65519
65511
65511
65516
65508
65511
65511
65519
65535
65509
65524
65511
65511
65511
65519
65511
65517
65511
65510
65511
65516
65510
65519
65511
65508
65517
65519
65506
65511
65511
65511
65517
65511
65507
65517
65508
65519
65509
65500
65519
65508
65508
65511
65508
65505
65511
65519
65517
65518
65511
65527
65511
65502
65527
65517
65510
65506
65513
65504
65519
65511
65517
65517
65517
65519
65519
65508
65511
65503
65519
65519
65526
65516
65511
65527
65510
65511
65519
65505
65511
65511
65508
65519
65502
65511
65509
65508
65519
65511
65518
65525
65504
65504
65519
65511
65519
65517
65511
65517
65527
65518
65519
65527
65519
65515
65498
65510
65508
65516
65519
65527
65511
65514
65508
65511
65504
65516
65508
65511
65516
65511
65503
65511
65516
65519
65524
65525
65517
65500
65511
65519
65511
65519
65519
65509
65511
65519
65508
65511
65506
65511
65511
65511
65527
65500
65503
65511
65524
65527
65519
65500
65511
65511
65517
65519
65519
65511
65519
65519
65508
65519
65519
65519
65517
65519
65509
65506
65527
65519
65511
65511
65525
65518
65509
65515
65519
65535
65519
65527
65506
65527
65511
65511
65519
65515
65519
65505
65500
65518
65517
65508
65516
65511
65511
65511
65500
65511
65511
65509
65511
65526
65510
65516
65522
65517
65527
65519
65527
65511
65511
65519
65511
65517
65511
65525
65519
65511
65511
65519
65511
65510
65502
65511
65532
65511
65511
65517
65516
65527
65511
65517
65525
65502
65511
65516
65510
65533
65526
65509
65516
65519
65517
65511
65517
65507
65513
65519
65519
65502
65519
65519
65511
65527
65511
65511
65519
65508
65509
65504
65519
65509
65503
65508
65511
65524
65508
65500
65519
65518
65511
65511
65511
65519
65511
65516
65510
65525
65513
65519
65519
65500
65508
65508
65511
65519
65516
65511
65502
65511
65517
65510
65511
65508
65502
65525
65511
65502
65527
65511
65514
65519
65517
65519
65519
65511
65508
65503
65511
65527
65506
65510
65519
65511
65511
65504
65516
65510
65511
65511
65497
65511
65511
65511
65518
65504
65516
65504
65519
65511
65505
65527
65510
65519
65519
65519
65511
65517
65511
65519
65501
65511
65511
65511
65519
65508
65519
65511
65511
65517
65513
65511
65508
65509
65511
65511
65524
65519
65511
65519
65511
65511
65519
65508
65526
65518
65511
65516
65513
65511
65517
65519
65527
65516
65502
65508
65516
65511
65516
65525
65511
65519
65508
65518
65516
65525
65511
65511
65511
65511
65516
65508
65519
65508
65519
65519
65519
65508
65511
65519
65504
65524
65508
65507
65505
65525
65510
65508
65519
65503
65511
65511
65500
65519
65519
65511
65510
65510
65516
65519
65511
65504
65503
65511
65506
65508
65511
65509
65508
65500
65527
65511
65508
65503
65511
65510
65519
65508
65502
65511
65519
65519
65518
65511
65508
65519
65510
65511
65517
65517
65518
65508
65511
65519
65519
65506
65511
65519
65511
65511
65519
65511
65511
65516
65510
65511
65511
65519
65508
65508
65518
65519
65525
65511
65511
65508
65517
65508
65511
65517
65517
65511
65508
65527
65511
65519
65511
65510
65516
65519
65511
65527
65527
65511
65509
65508
65519
65518
65500
65516
65513
65514
65511
65504
65527
65510
65508
65519
65511
65518
65527
65525
65503
65504
65511
65511
65510
65511
65511
65511
65505
65508
65510
65516
65517
65511
65509
65500
65510
65526
65508
65508
65511
65505
65516
65511
65511
65508
65511
65517
65511
65504
65511
65511
65504
65517
65514
65510
65518
65525
65519
65519
65511
65504
65517
65511
65502
65519
65511
65519
65511
65511
65511
65509
65518
65511
65508
65511
65519
65508
65500
65504
65511
65527
65504
65511
65519
65502
65508
65504
65509
65506
65511
65519
65508
65511
65503
65518
65500
65510
65508
65519
65511
65516
65504
65527
65511
65515
65508
65510
65518
65511
65511
65519
65511
65507
65504
65527
65527
65500
65510
65495
65511
65516
65510
65517
65511
65518
65500
65511
65511
65516
65511
65510
65511
65508
65502
65511
65511
65511
65524
65511
65525
65505
65511
65500
65519
65511
65508
65508
65508
65500
65516
65509
65511
65503
65519
65515
65511
65511
65510
65503
65511
65511
65516
65516
65516
65519
65511
65511
65511
65509
65508
65517
65511
65511
65519
65511
65503
65511
65508
65506
65511
65511
65503
65524
65500
65511
65523
65506
65510
65509
65511
65511
65508
65511
65504
65527
65498
65502
65516
65511
65517
65511
65510
65516
65511
65508
65519
65503
65511
65511
65500
65510
65508
65519
65511
65511
65519
65511
65511
65508
65516
65503
65511
65508
65511
65504
65496
65511
65511
65519
65511
65510
65519
65504
65516
65519
65511
65516
65516
65511
65511
65510
65506
65511
65504
65518
65527
65508
65511
65509
65527
65511
65511
65519
65511
65508
65519
65519
65515
65521
65502
65505
65524
65505
65511
65519
65511
65510
65519
65519
65504
65511
65511
65511
65509
65511
65511
65519
65514
65511
65504
65516
65518
65508
65507
65508
65510
65519
65509
65509
65500
65511
65515
65516
65519
65510
65511
65511
65508
65510
65527
65511
65525
65519
65505
65513
65508
65519
65519
65504
65527
65516
65511
65517
65517
65510
65511
65508
65510
65511
65519
65503
65511
65511
65508
65506
65510
65517
65511
65508
65511
65517
65511
65519
65516
65519
65511
65519
65511
65511
65502
65511
65510
65509
65519
65511
65507
65511
65508
65511
65503
65511
65508
65511
65511
65511
65516
65501
65509
65502
65519
65502
65515
65511
65506
65508
65509
65508
65511
65519
65527
65518
65519
65508
65515
65511
65511
65511
65511
65511
65519
65519
65518
65519
65510
65500
65511
65506
65497
65519
65519
65511
65511
65511
65516
65519
65496
65511
65511
65508
65506
65509
65511
65511
65511
65519
65510
65498
65511
65508
65511
65515
65510
65502
65504
65519
65519
65507
65511
65511
65511
65519
65519
65508
65511
65511
65507
65508
65505
65518
65510
65495
65511
65517
65507
65507
65511
65511
65500
65503
65487
65479
65486
65469
65460
65477
65466
65468
65461
65452
65463
65437
65439
65436
65445
65439
65439
65439
65431
65429
65415
65399
65413
65397
65396
65415
65409
65405
65396
65391
65381
65399
65383
65380
65382
65372
65367
65371
65367
65351
65359
65336
65351
65346
65335
65335
65319
65342
65327
65332
65319
65306
65319
65319
65260
65303
65287
65287
65285
65284
65276
65279
65463
65196
65259
65263
65252
65252
65252
65239
65224
65231
65223
65221
65401
65124
65239
65152
65223
65071
65254
65140
65190
65172
65188
65151
65177
65092
65159
65028
65199
65020
65399
65121
65122
65126
65119
65103
65100
65095
65102
65089
65031
65092
65031
65071
65031
65074
65015
65031
65031
65023
64875
65194
64862
65022
64998
64996
64988
64995
64967
64981
64963
64971
64956
64959
64940
64941
64940
64935
64935
64926
64919
64916
64900
64881
64865
64887
64876
64885
64862
64866
64855
64847
64839
64839
64832
64815
64812
64813
64821
64662
64820
64702
64796
64756
64773
64750
64759
64759
64743
64750
64737
64735
64721
64719
64743
64615
64711
64702
64703
64693
64687
64679
64676
64663
64670
64646
64647
64647
64639
64625
64603
64639
64511
64598
64609
64612
64589
64582
64583
64404
64948
64575
64575
64548
64447
65159
64536
64548
64679
64519
64519
64519
64359
64506
64495
64343
64495
64495
64455
64439
64462
64460
64448
64314
64951
64431
64373
64668
64416
64415
64416
64343
64348
64375
64388
64391
64367
64380
64367
64359
64284
64351
64165
64345
64320
64318
64281
64295
64303
64309
64301
64302
64095
64166
64239
64263
64263
64263
64263
64214
64253
64076
64639
64087
64215
64220
64199
64209
64202
64180
64191
64175
64175
64165
64164
64164
64166
64149
64116
64149
64111
63959
63985
63998
63917
64135
64077
64103
64074
63798
63996
63927
63955
63965
64037
64047
64038
64031
64020
63991
63879
63972
64007
63999
63988
64007
63983
64006
63956
63956
63951
63956
63937
63950
63932
63957
63911
63911
63719
63926
63879
63879
63591
63887
63720
63862
63847
63837
63796
63830
63862
63668
63815
63855
63836
63719
63788
63791
63727
63780
63604
63751
63767
63700
63772
63623
63740
63686
63750
63712
63548
63687
63694
63431
63703
63495
63645
63671
63279
63663
63607
63623
63663
63623
63578
63607
63647
63591
63583
63591
63623
63527
63575
63172
63591
63380
63543
63566
63414
62972
63548
63493
62943
63527
63495
63486
63326
63476
63495
63436
63447
63234
63460
63312
63407
63465
63407
63391
63228
63407
63223
63367
63412
63298
63343
63394
63270
63340
63367
63315
63311
63135
63327
63124
63295
63172
63311
63127
63262
63239
63294
63087
63220
63269
63196
63084
63207
63215
63109
63200
63172
62471
63207
63103
62460
63149
63132
63180
63060
63111
62367
63140
62983
63079
63148
62918
63077
63111
62955
62279
63052
63009
63023
63049
63011
62894
62983
62983
62271
63006
62950
62943
62980
62943
62918
62970
62823
62919
62599
62940
62887
62279
62918
62855
62895
62855
62879
62847
62894
62817
62850
62804
62838
62799
62796
62295
62615
62535
62682
62807
62661
62791
62725
62775
62695
62773
62676
62751
62683
62727
62648
62663
62644
62636
62609
62582
61985
62589
62597
62527
62255
62406
62631
62583
62599
62549
62613
62535
62503
61744
62415
62215
62367
62519
62447
62508
62444
62524
62414
62311
62266
62423
62341
62420
62335
62461
62378
62447
62362
62439
62359
62407
62324
62390
62335
62335
62283
62263
62143
62113
62133
62271
62326
62255
62278
62239
62271
62214
62228
62197
62215
61287
62071
62237
62143
62239
62151
62187
62127
62151
62111
62127
61172
62020
61402
61986
61382
61956
61156
61959
61383
61844
61996
61936
62060
61959
62055
61956
62031
61945
62028
61933
62007
61913
61908
60927
61879
61821
61738
61764
61794
61879
61820
61901
61812
61852
61782
61815
61764
61796
61747
61747
61318
61703
61788
61679
61735
61687
61723
61687
61703
61631
61677
61625
61639
61606
61621
61567
61567
61159
61419
61559
61389
61503
61542
61484
61503
61447
61487
61441
61386
61423
61287
61316
61371
61463
61391
61446
61373
61401
61351
61375
61319
61375
61313
61356
61271
61343
61271
61285
61227
61243
60452
61152
61287
61191
61191
61159
61155
60231
61092
61123
61135
61119
61156
61079
61114
61063
61122
61063
61086
61023
61047
60999
61020
60999
60990
60974
61005
60935
60935
60346
60935
60903
60915
60879
60935
60868
60423
60912
60839
60847
60668
60829
60820
60790
60885
60772
60836
60764
60816
60749
60799
60711
60711
60652
60639
60532
60608
60631
60719
60574
60671
60591
60668
60591
60663
60577
60598
60551
60583
60516
60572
60505
60583
60495
60527
60479
60507
60469
60508
60423
60507
60406
60455
60390
60446
60375
60319
60221
60007
60191
60205
60239
60367
60295
60295
59455
60135
59655
60103
59718
60164
59439
60190
60181
60238
60150
60206
60060
60131
60142
60119
60159
60092
60095
59938
59426
59911
59231
60036
60023
60061
59994
60004
59965
59975
59911
59911
59719
59908
59980
59910
59968
59894
59950
59852
59911
59842
59879
59839
59847
59798
59823
59775
59767
59271
59615
59716
59711
59783
59718
59735
59687
59743
59644
59695
59648
59688
59606
59558
58988
59461
59486
59436
59492
59431
58703
59495
59518
59527
59487
59556
59481
59527
59463
59495
59428
59429
59384
59271
59423
59382
59431
59357
59399
59337
59365
59311
59326
59295
59245
58887
59135
58951
59119
59265
59223
59261
59196
59255
59180
59221
59132
59124
59113
59161
59119
59167
59084
59143
59079
59143
59066
59110
59047
59055
59015
59054
58999
59046
58981
58998
58927
58988
58927
58983
58908
58943
58887
58887
58879
58887
58863
58837
58823
58846
58796
58759
58663
58700
58775
58743
58799
58615
58631
58695
58777
58702
58750
58663
58687
58631
58619
58500
58595
58622
58535
58516
58471
58215
58463
58567
58540
58587
58519
58532
58487
58399
58148
58359
58524
58441
58452
57830
58278
58086
58272
57831
58247
58308
58247
58348
58319
58375
58316
58343
58237
58141
58293
58247
58311
58247
58071
58207
57455
58231
58207
58247
58183
58230
58159
58204
58151
58188
58119
58159
58110
58149
58067
58119
58060
58116
58036
58087
58012
58073
57959
57633
57981
57957
57972
57948
57972
57935
57980
57903
57943
57854
57887
57772
57120
57852
57839
57847
57735
57151
57814
57789
57799
57764
57825
57652
57351
57687
57719
57775
57700
57471
57623
57660
57727
57620
57467
57629
57607
57671
57582
57284
57580
57559
57607
57551
57582
57526
57502
57380
56817
57490
57479
57503
57471
57506
57447
57479
57431
57469
57415
57463
57383
57415
57351
57413
57324
57351
57237
56836
57311
57279
57311
57255
57287
57253
57287
57221
57275
57215
57239
57183
57196
57168
57159
56677
57026
56388
57141
57082
57110
57085
57087
57065
57020
56813
57012
57071
57023
57023
56983
56932
56839
56956
57009
56950
56983
56919
56967
56903
56951
56861
56941
56879
56887
56839
56867
56839
56839
56795
56815
56791
56822
56759
56781
56743
56788
56710
56756
56708
56703
56667
56682
55943
56535
56692
56630
56671
56607
56660
56583
56613
56574
56599
56551
56500
55807
56535
56511
56501
56498
56471
56519
56455
56455
56431
56309
56388
56399
56439
56391
56429
56355
56375
56327
56220
56247
56267
56300
56283
56327
56150
56271
56287
56129
55498
56212
56212
56228
56199
56239
56180
56172
56041
55556
56060
55428
56091
56102
56023
55495
56071
56068
56071
56033
56071
56030
56044
55519
55879
55462
55929
55959
55992
55943
55979
55916
55959
55908
55951
55893
55925
55878
55908
55868
55899
55815
55879
55815
55846
55780
55815
55774
55789
55719
55740
55615
55477
55675
55217
55651
55559
55559
55533
55570
55612
55591
55653
55591
55611
55580
55610
55551
55588
55516
55581
55532
55557
55498
55532
55471
55479
55370
55376
55399
55403
55334
55404
55375
55380
55381
55416
55359
55391
55337
55360
55320
55348
55280
55292
54488
55159
54502
55234
54574
55132
54672
55155
55185
55191
54383
55165
54371
55143
55143
55126
55116
55126
55092
55139
55078
55087
55047
55105
55039
55055
54999
55039
54879
54498
54918
54943
54956
54932
54940
54903
54919
54887
54884
54867
54871
54855
54876
54823
54857
54791
54820
54735
54602
54740
54023
54743
54725
54775
54718
54735
54639
54517
54535
53959
54652
54630
54632
54620
54630
54591
54627
54580
54573
54552
54595
54407
53759
54519
54499
54526
54479
54463
54438
54439
54471
54406
54447
54407
54439
54391
54415
54367
54373
54311
54229
54189
53711
54245
54278
54270
54246
54279
54231
54245
54207
54261
54199
54179
54092
53951
54117
54132
54018
54004
53996
53684
53988
54071
54053
54023
53965
53234
54013
53990
53991
53948
53959
53953
53663
53831
53895
53870
53895
53871
53900
53851
53876
53799
53735
53687
53207
53636
53639
53663
53719
53719
52967
53663
53474
53604
53687
53651
53639
53611
53613
53583
53479
53479
53511
53543
53423
53036
53437
53191
53383
53015
53435
52862
53430
52671
53351
53368
53378
53359
53351
53351
53222
53217
53214
53255
53207
53285
53253
53292
53219
53236
53207
53193
52570
53039
53048
53116
53158
53114
53143
53079
53095
53055
53050
52375
52916
52567
52900
52999
52991
52961
52986
52940
52967
52924
52933
52900
52908
52854
52871
52828
52852
52812
52821
52789
52769
52359
52740
52733
52663
52691
52687
52732
52671
52671
52583
52599
52549
52319
52571
52583
52591
52565
52604
52548
52575
52509
52513
52359
51990
52389
52445
52455
52413
52286
52444
52277
52389
52190
52350
52325
52355
52308
52330
52269
51815
52271
52245
52277
52255
52087
52195
52175
52199
52135
51895
52055
52124
52135
52103
52117
52071
52093
52047
52079
52015
52026
51879
51284
51972
51948
51989
51935
51879
51823
51620
51884
51868
51877
51807
51415
51815
51801
51836
51772
51579
51779
51735
51771
51710
51739
51695
51675
51577
51253
51531
50996
51591
51596
51615
51581
51591
51546
51591
51530
51532
51487
51518
51447
51463
51413
51116
51308
50885
51348
51374
51380
51362
51379
51333
51300
51228
50639
51284
51271
51196
51239
51228
51159
51165
51196
51230
51167
50724
51159
51132
51151
51113
51127
51079
51087
51075
51067
51038
51065
50983
50919
50876
50439
50970
50391
50900
50343
50870
50636
50910
50855
50876
50853
50871
50812
50838
50799
50814
50771
50783
50735
50775
50716
50726
50673
50661
50615
50671
50643
50658
50598
50631
50599
50613
50551
50471
50110
50527
50516
50527
50481
49788
50476
50439
50464
50431
50311
50292
49813
50322
50087
50261
50252
50213
50055
50214
50183
50208
50231
50242
50266
50222
50239
50198
50205
50069
49923
50055
49927
50023
49462
50119
50095
50086
50071
50071
50047
50055
50005
50034
49999
50023
49966
49767
49924
49924
49955
49799
49539
49887
49876
49901
49847
49823
49748
49274
49794
49780
49785
49752
49785
49726
49679
49614
49063
49671
49670
49689
49644
49607
49572
49535
49511
49587
49599
49571
49572
49535
49426
49415
49511
49509
49479
49503
49387
48825
49447
49406
49415
49392
49390
49370
49383
49356
49373
49324
49348
49287
49316
49263
49157
49151
49061
49135
48805
49219
49180
49202
49159
49197
49149
49141
49087
49043
49052
49015
49012
48967
48964
49031
49036
48997
48997
48884
48642
48967
48951
48988
48895
48511
48868
48875
48887
48871
48860
48831
48644
48812
48807
48807
48791
48775
48751
48751
48679
48612
48598
48409
48583
48615
48617
48673
48623
48628
48599
48631
48581
48607
48551
48568
48535
48535
48509
48511
48470
48441
48375
48173
48407
47935
48343
48397
48406
48367
48383
48351
48373
48323
48335
48315
48315
48283
48282
48244
48263
48223
48151
48100
47980
48079
47711
48095
47604
48095
48111
48119
48092
48109
48053
48071
48027
47988
47916
47593
48006
47976
47957
47938
47961
47929
47938
47908
47919
47794
47871
47877
47846
47855
47812
47836
47775
47775
47811
47751
47718
47727
47749
47623
47702
47687
47675
47671
47655
47652
47623
47623
47591
47623
47575
47589
47553
47559
47525
47540
47479
47454
47439
47239
47403
47435
47445
47420
47422
47367
47339
47259
46981
47303
47323
47326
47310
47319
47271
47300
47259
47252
47221
47231
47203
47196
47149
47069
47055
46551
47138
47111
47111
47071
46846
46967
46679
47054
47031
47036
47003
47007
46967
46983
46959
46968
46926
46919
46905
46900
46885
46885
46787
46837
46847
46820
46823
46782
46799
46775
46770
46736
46631
46651
46663
46615
46599
46379
46615
46187
46547
46568
46559
46315
46471
46567
46543
46543
46527
46316
46503
46455
46472
46492
46396
46419
46421
46358
46404
46415
46365
45775
46376
46254
46335
46311
46287
46283
46279
46148
46260
46236
46140
46215
45991
46195
46151
45634
46166
46079
46112
45940
46107
46054
46071
46079
45973
46019
45767
46035
45940
45985
45983
45887
45933
45727
45935
45895
45405
45911
45785
45852
45767
45847
45782
45791
45807
45732
45751
45767
45660
45722
45703
45703
45687
45671
45686
45540
45620
45527
45613
45591
45019
45596
45495
45547
45539
45415
45510
45510
45481
45476
45079
45447
45437
45239
45423
45391
44956
45390
45335
44825
45347
45225
45311
44866
45305
45177
45255
45127
45237
45175
45212
45155
45175
45165
45116
45150
45063
45108
45072
45063
45055
44669
45049
45039
44755
45025
44878
44975
44849
44980
44884
44924
44855
44919
44871
44871
44884
44747
44844
44282
44825
44802
44773
44515
44764
44727
44607
44737
44582
44680
44526
44668
44590
44636
44643
44487
44580
44255
44575
44453
44527
44364
44517
44373
44465
43942
44455
44388
44404
44373
44395
44282
44351
44263
44339
44199
44287
44207
44285
44223
44220
44255
44134
44183
44183
44039
44135
44039
44127
44094
44092
44071
44039
44039
43886
44031
43893
43978
43406
43972
43861
43916
43644
43911
43751
43868
43839
43839
43815
43260
43795
43778
43751
43749
43580
43743
43588
43687
43655
43675
43652
43203
43631
43517
43575
43567
43527
43540
43524
43511
43502
43495
43460
43077
43454
43317
43412
42972
43394
43244
43341
43335
43258
43308
43271
43271
43271
43205
43220
43143
43208
43093
43181
42746
43158
43130
43100
43091
43079
43078
43055
42599
43045
42918
42987
42923
42983
42958
42611
42939
42903
42727
42876
42866
42702
42847
42812
42772
42745
42759
42631
42759
42725
42503
42703
42684
42214
42677
42535
42119
42615
42084
42597
42060
42543
42543
42503
42196
42396
42428
42435
42412
42407
42340
42321
42321
42364
42331
42332
42314
42303
42267
42191
42183
42235
42220
42206
42172
42143
42167
42158
42119
42066
42065
41988
42092
42059
41991
41588
42044
41533
41893
41772
41858
41829
41885
41407
41809
41759
41770
41735
41770
41767
41735
41635
41687
41690
41715
41673
41619
41629
41639
41577
41558
41551
41543
41151
41551
41590
41599
41571
41567
41541
41538
41501
41435
41377
41380
41335
41285
41311
41278
41303
41361
41357
41351
41333
41279
41293
41292
41260
41223
41038
41223
41223
41183
41191
40837
41079
41119
41133
41119
40687
40950
41039
41050
41052
40628
40937
40999
40954
40964
40937
40871
40871
40897
40889
40559
40740
40720
40735
40436
40803
40780
40774
40740
40735
40709
40711
40693
40687
40663
40661
40581
40532
40327
40479
40399
40476
40346
40519
40511
40503
40455
40428
40335
40013
40431
40391
40394
40372
40341
40252
40199
40215
39847
40292
40279
40263
40247
40230
40198
40119
40086
40003
40109
39720
40115
40111
40109
40083
40079
40055
40052
40026
39999
39983
39943
39892
39845
39876
39929
39914
39877
39881
39847
39723
39773
39821
39805
39788
39781
39747
39551
39733
39717
39703
39591
39390
39656
39636
39623
39599
39559
39490
39564
39551
39535
39525
39508
39476
39469
39431
39379
39316
39326
39295
39341
39332
39343
39287
39247
38945
39332
39303
39284
39263
39255
39231
39238
39197
39207
39175
39148
39147
39126
39127
39107
39090
39079
39053
39058
39044
39015
38999
38991
38976
38961
38950
38919
38911
38885
38884
38826
38821
38525
38810
38810
38818
38791
38771
38758
38751
38738
38719
38700
38636
38612
38343
38616
38635
38631
38590
38593
38567
38575
38543
38543
38501
38519
38493
38474
38459
38429
38367
38187
38420
38379
38374
38349
38279
38311
38257
38235
38228
38228
38054
38170
37905
38188
37869
38204
38134
38165
38148
38073
37767
38111
38084
38039
37985
37836
38009
37763
37927
37916
37959
37838
37870
37943
37943
37895
37895
37882
37862
37846
37845
37511
37749
37521
37749
37469
37684
37636
37668
37564
37623
37435
37599
37407
37604
37613
37593
37607
37341
37503
37383
37484
37431
37498
37455
37471
37405
37429
37396
37391
37319
37364
37286
37327
37260
37278
37063
37271
37286
37290
37255
37267
37229
37195
37031
37141
37060
37153
37135
37141
37117
37103
37094
36886
37059
37031
37036
37025
37023
36993
36977
36964
36956
36943
36939
36871
36907
36871
36864
36860
36853
36791
36783
36543
36806
36778
36751
36751
36678
36679
36483
36704
36679
36677
36662
36591
36613
36604
36499
36601
36567
36399
36558
36527
36251
36519
36486
36421
36453
36435
36429
36439
36398
36407
36377
36159
36322
36238
36286
36170
36274
36127
36231
36071
36220
36096
36175
36127
36162
36093
36139
36092
36129
36076
36087
36055
36071
36075
36051
36006
35965
36014
35993
35987
35966
35961
35959
35927
35935
35903
35901
35878
35803
35839
35676
35799
35575
35797
35638
35743
35631
35711
35676
35705
35643
35678
35591
35654
35588
35630
35591
35607
35555
35575
35561
35559
35518
35531
35429
35463
35335
35492
35457
35463
35431
35421
35396
35364
35367
35247
35335
35207
35308
35180
35287
35159
35252
35095
35223
35066
35205
35023
35202
35183
35181
35159
35167
35133
35116
35100
35111
35076
35079
34855
35011
34868
35026
34823
35011
34967
34972
34747
34932
34735
34918
34903
34882
34879
34863
34823
34815
34823
34723
34803
34767
34779
34737
34732
34719
34709
34707
34693
34679
34620
34629
34636
34435
34550
34612
34583
34423
34552
34543
34548
34514
34490
34479
34500
34494
34450
34421
34423
34417
34407
34385
34213
34351
34233
34334
34139
34311
34309
34293
34281
34238
34249
34135
34239
34217
34192
34188
34143
34158
34109
34131
34012
34100
34095
34105
34071
34036
34042
33990
34015
33941
33970
33825
33964
33940
33941
33919
33770
33917
33873
33853
33847
33733
33839
33795
33783
33773
33746
33756
33671
33718
33625
33694
33551
33681
33654
33647
33615
33604
33591
33584
33569
33543
33543
33533
33518
33496
33485
33479
33459
33455
33430
33435
33260
33373
33311
33355
33274
33314
33237
33298
33218
33263
33245
33268
33231
33221
33207
33077
33195
33164
33098
33119
32982
33125
33101
33058
33063
32957
33071
33031
32959
32999
32839
32989
32965
32935
32927
32765
32911
32900
32788
32884
32855
32831
32824
32652
32805
32795
32690
32759
32743
32724
32738
32623
32719
32698
32631
32647
32655
32636
32629
32491
32604
32595
32543
32567
32441
32561
32516
32490
32495
32295
32471
32457
32367
32444
32421
32359
32382
32351
32375
32364
32279
32321
32314
32310
32292
32246
32263
32084
32253
32236
32131
32210
32101
32179
31975
32164
32143
32119
32115
32055
32084
31895
32071
32052
32020
32030
31911
31990
31991
31978
31967
31909
31942
31812
31908
31717
31911
31887
31848
31853
31737
31836
31823
31767
31772
31783
31777
31751
31727
31742
31694
31718
31580
31703
31666
31638
31642
31442
31622
31620
31551
31572
31406
31583
31548
31531
31535
31425
31479
31478
31468
31471
31309
31442
31430
31239
31402
31397
31271
31388
31357
31225
31333
31313
31319
31303
31260
31271
31180
31238
31239
31076
31217
31193
31167
31172
31077
31167
31127
31092
31111
30991
31089
31086
31001
31029
30839
31038
31004
30934
30995
30979
30888
30951
30951
30903
30909
30911
30831
30901
30878
30831
30844
30767
30805
30594
30806
30791
30652
30748
30573
30756
30741
30679
30698
30503
30700
30667
30663
30645
30471
30647
30615
30420
30583
30583
30375
30524
30527
30541
30478
30511
30495
30384
30457
30465
30407
30429
30271
30424
30412
30347
30378
30231
30365
30346
30244
30319
30308
30271
30279
30073
30279
30252
30192
30214
30116
30183
30194
30178
30175
30044
30135
29940
30137
30119
30120
30087
30095
30066
30055
30052
30036
30035
29965
29992
29859
29954
29972
29955
29944
29847
29899
29908
29903
29893
29843
29871
29687
29813
29847
29822
29812
29646
29807
29783
29743
29759
29751
29692
29703
29724
29703
29687
29690
29682
29640
29657
29524
29604
29611
29607
29592
29495
29567
29423
29566
29547
29498
29515
29396
29479
29479
29455
29463
29310
29470
29434
29312
29420
29397
29356
29373
29251
29346
29343
29339
29331
29285
29300
29138
29291
29271
29124
29263
29245
29180
29220
29203
29037
29175
29178
29021
29166
29151
29064
29114
29106
29031
29087
29076
29044
29039
29044
28999
29025
29007
28925
28999
28981
28884
28958
28953
28898
28903
28913
28874
28891
28795
28879
28853
28807
28829
28830
28815
28803
28621
28804
28773
28709
28746
28591
28739
28730
28687
28695
28610
28671
28679
28645
28655
28516
28644
28609
28585
28591
28485
28577
28559
28547
28540
28506
28519
28362
28516
28486
28467
28477
28381
28434
28317
28434
28420
28391
28380
28306
28375
28239
28359
28335
28313
28327
28223
28287
28284
28277
28263
28148
28255
28233
28213
28204
28101
28207
28183
28032
28164
28148
28110
28125
28027
28092
28007
28089
28079
28053
28050
28011
28029
27931
28015
27999
28001
27983
27967
27957
27902
27927
27855
27911
27783
27919
27893
27847
27858
27855
27837
27837
27780
27812
27804
27781
27783
27677
27777
27751
27671
27741
27713
27647
27707
27691
27615
27674
27667
27573
27639
27619
27609
27605
27594
27518
27578
27564
27506
27553
27535
27503
27515
27499
27475
27465
27463
27458
27450
27396
27426
27416
27395
27382
27393
27371
27351
27214
27357
27335
27305
27308
27299
27290
27285
27229
27263
27258
27236
27236
27161
27222
27203
27177
27177
27102
27155
27142
27126
27125
27115
27023
27103
27082
27066
27061
26973
27045
27028
27010
27013
26949
27004
26985
26959
26952
26852
26943
26921
26879
26919
26900
26879
26871
26791
26860
26841
26801
26820
26817
26791
26789
26754
26780
26757
26718
26741
26720
26612
26722
26690
26680
26675
26661
26631
26648
26629
26618
26615
26524
26599
26582
26572
26562
26541
26535
26530
26527
26503
26495
26476
26451
26470
26442
26439
26430
26321
26407
26394
26391
26375
26349
26362
26339
26337
26321
26300
26295
26266
26301
26267
26271
26244
26247
26217
26231
26207
26205
26188
26182
26180
26156
26139
26093
26132
26116
26114
26091
26087
26069
26054
26054
26049
26026
26025
26004
26001
25991
25975
25975
25951
25967
25938
25921
25919
25901
25903
25883
25875
25855
25849
25848
25828
25825
25812
25796
25727
25774
25755
25759
25748
25727
25732
25707
25689
25700
25671
25684
25652
25663
25642
25620
25631
25606
25588
25587
25579
25567
25550
25542
25532
25515
25517
25493
25493
25471
25466
25462
25430
25436
25419
25402
25415
25379
25373
25348
25335
25327
25305
25308
25292
25295
25271
25284
25238
25228
25223
25204
25206
25182
25191
25161
25045
25140
25119
25138
25095
25071
25086
25057
25037
25047
25023
25035
25001
24973
24980
24958
24980
24940
24915
24927
24906
24895
24867
24874
24848
24865
24828
24847
24807
24782
24788
24766
24777
24741
24775
24715
24703
24707
24691
24703
24668
24679
24647
24613
24615
24592
24594
24580
24572
24556
24565
24532
24517
24510
24495
24519
24472
24489
24447
24455
24419
24436
24405
24421
24375
24373
24349
24348
24314
24333
24295
24308
24283
24295
24267
24245
24255
24214
24204
24196
24175
24180
24149
24159
24127
24142
24107
24113
24084
24087
24058
24084
24051
24099
24018
24011
24004
23978
23995
23964
23977
23941
23932
23911
23893
23897
23857
23871
23866
23887
23828
23806
23809
23796
23808
23783
23789
23748
23756
23724
23746
23711
23743
23684
23734
23662
23638
23641
23626
23614
23604
23645
23583
23663
23558
23536
23540
23511
23547
23507
23523
23483
23558
23453
23431
23431
23428
23465
23393
23372
23391
23372
23345
23336
23306
23340
23309
23399
23284
23255
23263
23239
23239
23220
23237
23220
23300
23175
23149
23156
23136
23169
23115
23095
23107
23086
23067
23046
23116
23047
23016
23015
23001
22999
22975
22975
22954
22982
22948
22919
22948
22905
22956
22892
22982
22864
22839
22839
22825
22831
22805
22799
22780
22799
22754
22735
22731
22709
22718
22687
22729
22676
22765
22644
22626
22624
22601
22641
22602
22573
22567
22554
22574
22535
22559
22508
22549
22495
22562
22478
22532
22452
22558
22439
22406
22405
22375
22372
22364
22411
22336
22338
22314
22345
22299
22275
22282
22254
22256
22233
22332
22221
22201
22194
22183
22247
22165
22143
22142
22130
22261
22099
22087
22085
22083
22055
22115
22042
22023
22033
22023
22141
21983
21966
21964
21959
22048
21924
21914
21921
21902
21873
21866
21855
21858
21831
21854
21830
21874
21813
21775
21778
21765
21889
21739
21720
21772
21712
21697
21820
21677
21655
21661
21644
21669
21639
21786
21590
21577
21607
21587
21558
21553
21534
21551
21535
21681
21495
21477
21494
21469
21523
21457
21548
21441
21562
21411
21578
21383
21551
21365
21523
21347
21307
21317
21295
21308
21283
21303
21274
21423
21254
21373
21230
21199
21207
21181
21181
21159
21159
21143
21150
21143
21236
21111
21085
21095
21082
21109
21078
21225
21054
21235
21041
21206
20999
20971
20979
20955
20964
20935
20958
20935
20901
20902
20884
20878
20874
20906
20867
20916
20844
20817
20817
20789
20823
20796
20991
20772
20966
20741
20722
20717
20693
20700
20697
20772
20687
20647
20655
20629
20665
20635
20835
20601
20582
20580
20573
20664
20557
20530
20529
20524
20540
20523
20475
20481
20458
20494
20468
20423
20431
20431
20639
20399
20388
20431
20383
20347
20361
20353
20431
20340
20305
20308
20277
20293
20293
20248
20253
20255
20465
20228
20204
20226
20203
20397
20172
20154
20160
20139
20223
20134
20109
20180
20116
20085
20083
20066
20073
20043
20054
20038
20036
20013
20029
20001
20180
19983
19982
19954
19925
19935
19913
19959
19927
20088
19881
19870
19866
19851
19855
19839
19956
19818
19806
19796
19801
19855
19783
19754
19745
19742
19756
19727
19791
19726
19916
19681
19665
19663
19659
19695
19654
19753
19643
19596
19599
19581
19590
19566
19581
19575
19666
19558
19513
19520
19526
19494
19495
19493
19463
19463
19463
19521
19449
19676
19424
19407
19404
19388
19491
19386
19631
19367
19331
19342
19327
19327
19301
19315
19532
19300
19262
19271
19239
19254
19246
19379
19239
19463
19228
19437
19186
19161
19166
19141
19157
19153
19263
19118
19118
19327
19090
19076
19079
19063
19057
19047
19047
19028
19030
19014
19041
19015
19229
18982
18951
18971
18956
19188
18931
18917
19014
18912
18892
18901
18899
18858
18863
18869
19113
18836
18839
19019
18810
18785
18836
18797
18766
18765
18756
18856
18753
18719
18724
18694
18708
18697
18946
18694
18673
18655
18694
18655
18754
18621
18599
18630
18625
18855
18574
18558
18572
18557
18577
18551
18708
18519
18507
18502
18480
18495
18482
18463
18466
18491
18468
18594
18455
18566
18423
18395
18397
18376
18374
18365
18361
18345
18335
18326
18321
18309
18310
18294
18287
18273
18282
18265
18260
18231
18236
18222
18223
18204
18213
18185
18189
18177
18179
18172
18244
18162
18159
18140
18130
18113
18105
18090
18085
18081
18067
18056
18060
18039
18075
18044
18211
18047
17997
17997
17983
17985
17972
17983
17975
18150
17962
17919
17934
17914
17903
17889
17885
17871
17901
17886
17898
17843
17824
17826
17800
17805
17815
17909
17797
18035
17775
18026
17756
17811
17736
17801
17709
17714
17680
17710
17679
17727
17663
17924
17623
17867
17613
17630
17587
17555
17580
17817
17546
17525
17537
17746
17525
17492
17494
17464
17464
17466
17749
17451
17423
17415
17390
17404
17394
17517
17397
17362
17348
17342
17382
17353
17618
17319
17287
17290
17278
17276
17265
17252
17264
17263
17244
17216
17210
17190
17193
17173
17175
17149
17161
17140
17138
17153
17402
17119
17088
17091
17095
17175
17086
17344
17059
17023
17030
17023
17029
17025
17186
16996
16974
16967
16946
16947
16948
16929
16927
16952
16925
16935
16897
16985
16898
16857
16851
16839
16845
16823
16812
16812
16807
16791
16781
16772
16775
16767
16778
16757
16959
16732
16714
16711
16693
16694
16676
16679
16655
16661
16659
16769
16630
16605
16615
16596
16595
16599
16641
16588
16547
16560
16549
16564
16554
16753
16542
16780
16506
16477
16476
16460
16478
16699
16461
16552
16446
16501
16440
16674
16417
16379
16388
16351
16353
16356
16381
16359
16631
16324
16310
16420
16295
16287
16515
16273
16248
16257
16261
16221
16222
16221
16297
16197
16180
16189
16188
16317
16187
16143
16139
16125
16122
16102
16148
16117
16194
16105
16059
16063
16049
16083
16068
16307
16037
16003
15996
15991
15994
15990
16045
15985
16246
15949
15927
15932
15915
15911
15911
15935
15911
16030
15891
15850
15841
15843
15877
15843
15911
15839
16115
15798
15786
15775
15754
15759
15756
15762
15751
16015
15721
15708
15703
15688
15723
15689
15745
15687
15954
15654
15621
15626
15611
15619
15608
15622
15599
15671
15583
15753
15559
15542
15543
15515
15526
15473
15515
15494
15486
15476
15540
15480
15447
15456
15434
15524
15445
15404
15410
15381
15413
15399
15659
15367
15349
15355
15354
15562
15334
15302
15311
15318
15373
15319
15279
15269
15249
15305
15269
15455
15250
15217
15221
15203
15207
15193
15183
15176
15191
15169
15175
15164
15239
15155
15305
15142
15103
15097
15089
15078
15087
15099
15069
15237
15071
15129
15058
15125
15037
15008
15010
14990
14988
14965
15047
14983
14949
14947
14942
15056
14932
14909
14905
14912
15048
14903
14854
14879
14858
14857
14841
14849
14841
15046
14845
14801
14807
14825
14789
14783
14810
14765
14755
14786
14739
14745
14759
14727
14733
14729
14699
14704
14716
14983
14673
14661
14732
14675
14634
14641
14638
14745
14626
14611
14594
14610
14707
14600
14572
14560
14575
14721
14555
14536
14580
14556
14506
14510
14517
14791
14503
14508
14711
14477
14462
14542
14459
14439
14431
14434
14553
14422
14396
14446
14421
14389
14369
14367
14425
14383
14350
14355
14326
14333
14335
14441
14310
14296
14346
14316
14278
14317
14311
14257
14252
14253
14311
14274
14221
14231
14210
14200
14218
14273
14216
14170
14176
14181
14319
14151
14144
14187
14165
14122
14123
14131
14228
14131
14095
14095
14079
14079
14059
14069
14079
14045
14038
14044
14271
14027
14030
14114
14016
13988
13990
14010
13975
13970
13966
14080
13952
13944
14119
13941
13923
13989
13928
13901
13902
13887
13951
13893
13869
13853
13853
13882
13873
13830
13818
13821
13805
13811
13922
13809
13796
13783
13779
13789
13773
13775
13767
13819
13776
14034
13735
13715
13708
13686
13698
13694
13733
13691
13670
13667
13659
13685
13669
13644
13638
13623
13913
13751
13668
13591
13613
13589
13606
13601
13639
13595
13556
13556
13552
13609
13568
13522
13515
13549
13508
13505
13503
13587
13497
13462
13476
13453
13509
13484
13445
13437
13429
13488
13455
13759
13415
13399
13396
13390
13436
13389
13369
13355
13359
13431
13370
13339
13337
13350
13316
13309
13332
13303
13298
13286
13332
13295
13268
13256
13287
13256
13252
13247
13448
13234
13221
13212
13233
13609
13195
13188
13189
13215
13173
13174
13145
13145
13166
13425
13150
13119
13111
13127
13116
13106
13121
13089
13119
13082
13068
13093
13061
13063
13081
13055
13047
13028
13051
13040
13087
13031
13260
13022
13021
13007
12997
12986
13005
12972
13012
12968
13231
12964
12930
12997
12937
12911
12911
12895
12904
12892
12889
12875
12876
12892
12939
12899
13215
12851
12836
12902
12860
13155
12828
12907
12821
12794
12801
12788
12779
12770
12764
12778
12927
12748
12739
12804
12743
12730
12715
12730
13024
12711
12695
12695
12681
12677
12682
12817
12695
12655
12658
12632
12642
12641
12684
12650
12615
12606
12596
12644
12614
12575
12576
12563
12774
12587
12844
12556
12540
12539
12520
12513
12509
12517
12522
12484
12492
12467
12463
12455
12477
12469
12740
12434
12421
12404
12398
12439
12419
12788
12381
12356
12354
12352
12341
12335
12326
12316
12303
12301
12308
12305
12279
12277
12357
12263
12254
12247
12228
12235
12244
12429
12249
12532
12219
12182
12183
12158
12186
12583
12156
12136
12147
12114
12112
12111
12168
12133
12079
12067
12095
12423
12066
12058
12040
12056
12116
12061
12263
12043
12425
12003
11990
11992
11971
11968
11973
11953
11964
12010
11962
12341
11927
11904
11910
11901
11970
11917
11941
11892
12021
11877
11847
11845
11833
11825
11826
11981
11827
11794
11803
11781
11769
11774
11756
11755
11744
11739
11729
11731
11714
11716
11735
11734
12063
11695
11668
11680
11666
11653
11666
11654
11674
11802
11655
11968
11633
11605
11602
11594
11578
11583
11568
11570
11554
11573
11658
11571
11819
11539
11515
11514
11504
11511
11489
11498
11470
11481
11469
11453
11459
11442
11449
11432
11426
11436
11445
11699
11427
11391
11382
11380
11405
11386
11439
11381
11786
11367
11737
11346
11321
11323
11302
11297
11284
11283
11272
11273
11255
11251
11248
11237
11234
11233
11228
11239
11245
11389
11221
11197
11197
11175
11167
11167
11150
11167
11212
11155
11160
11136
11171
11136
11199
11136
11095
11085
11083
11078
11067
11066
11049
11092
11073
11192
11057
11020
11020
11005
11008
11015
11140
11008
10962
10970
10962
10959
10942
10944
10937
10940
10939
11219
10938
10895
10901
10887
10879
10889
10895
10889
11149
10871
10839
10842
10826
10828
10816
10801
10801
10821
10820
11225
10786
10766
10776
11207
10789
11073
10767
10987
10765
11155
10724
10972
10725
10837
10711
10813
10703
10770
10691
10649
10660
10638
10641
10621
10630
10618
10631
11000
10637
10602
10593
10577
10561
10559
10555
10557
10547
10539
10565
10559
10659
10560
10512
10496
10512
10720
10508
10476
10471
10484
10598
10487
10608
10469
10513
10439
10439
10425
10415
10400
10399
10391
10389
10381
10388
10796
10404
10462
10381
10480
10379
10759
10343
10784
10327
10325
10322
10310
10305
10288
10279
10289
10295
10303
10263
10252
10292
10263
10245
10281
10270
10217
10220
10203
10218
10203
10219
10181
10188
10176
10191
10170
10161
10156
10166
10140
10131
10146
10239
10160
10434
10116
10095
10082
10111
10148
10094
10068
10083
10058
10057
10043
10044
10045
10032
10031
10025
10020
10012
10013
10010
10019
10013
10004
9981
9999
10062
10003
10210
9994
10231
9964
9940
9947
9925
9913
9932
10003
9936
9898
9893
9913
10246
9891
9880
9863
9889
10100
9865
9850
9852
9859
10017
9844
9825
9820
9815
9815
9825
9843
9839
9789
9801
9782
9779
9773
9769
9784
9858
9790
9959
9775
10012
9774
10046
9756
10003
9748
9802
9728
9797
9711
9758
9704
9849
9713
10044
9673
9660
9652
9674
9937
9646
9638
9767
9655
10009
9631
9611
9615
9594
9589
9606
9625
9607
9586
9597
9634
9593
9942
9566
9554
9551
9538
9534
9544
9518
9527
9515
9524
9501
9511
9504
9521
9791
9509
9476
9500
9477
9473
9461
9476
9478
9545
9492
9440
9448
9428
9420
9418
9422
9414
9394
9407
9399
9421
9484
9431
9806
9396
9385
9372
9359
9363
9375
9364
9369
9406
9379
9680
9377
9568
9372
9418
9337
9332
9317
9302
9308
9294
9298
9283
9286
9285
9290
9487
9318
9261
9272
9272
9319
9262
9238
9255
9243
9234
9261
9457
9258
9637
9225
9327
9241
9381
9230
9356
9229
9580
9182
9187
9206
9210
9418
9206
9432
9190
9159
9154
9148
9153
9146
9132
9129
9137
9130
9135
9115
9117
9113
9119
9152
9393
9124
9099
9105
9092
9097
9083
9085
9085
9078
9076
9095
9072
9176
9092
9054
9067
9136
9062
9049
9044
9082
9055
9064
9061
9019
9033
9028
9010
9001
9014
8994
9010
8993
9007
8982
8982
8975
8982
8986
8981
8983
8986
8971
8983
8982
9069
8971
8943
8960
8942
8940
8937
8932
8919
8929
8922
8945
9054
8937
8905
8907
8896
8906
8899
8894
8896
8910
8989
8923
8879
8884
8880
8869
8869
8876
8867
8858
8870
8864
8861
8891
8894
8851
8860
8844
8839
8833
8836
8830
8819
8839
8876
8859
8829
8827
8809
8831
8853
8810
8813
8807
8798
8823
8934
8810
8795
8794
8801
8833
8825
9204
8793
8776
8765
8781
8868
8806
8766
8780
8757
8762
8765
9116
8769
8741
8767
8779
9100
8753
8738
8739
8745
8887
8759
8727
8715
8719
8704
8735
8703
8707
8714
8797
8732
8695
8683
8683
8688
8687
9126
8687
8668
8683
8707
8648
8641
8676
8655
8644
8647
8773
8636
8635
8769
8641
8614
8642
8639
8979
8612
8594
8596
8615
8604
8591
8592
8580
8649
8600
8581
8586
8563
8560
8561
8585
8587
8933
8573
8551
8672
8556
8542
8536
8539
8591
8574
8546
8528
8546
8675
8527
8505
8517
8520
8516
8518
8629
8527
8500
8496
8512
8563
8531
8493
8490
8486
8485
8479
8482
8476
8476
8479
8460
8474
8493
8502
8931
8474
8459
8463
8450
8467
8458
8459
8445
8451
8444
8448
8445
8444
8445
8438
8436
8449
8441
8440
8451
8480
8463
8581
8450
8423
8422
8418
8418
8447
8410
8421
8409
8404
8439
8409
8415
8393
8403
8428
8719
8406
8394
8394
8408
8892
8394
8383
8423
8426
8381
8400
8382
8401
8416
8381
8375
8375
8377
8397
8566
8396
8371
8367
8385
8507
8413
8839
8380
8372
8374
8366
8386
8370
8442
8403
8360
8367
8375
8407
8389
8770
8374
8358
8357
8379
8421
8366
8415
8383
8419
8395
8753
8375
8367
8373
8347
8351
8349
8368
8359
8356
8357
8357
8348
8355
8350
8343
8365
8415
8375
8661
8386
8348
8359
8349
8350
8355
8349
8346
8381
8380
8475
8389
8830
8397
8831
8358
8352
8360
8385
8565
8373
8354
8360
8363
8355
8368
8668
8375
8355
8358
8383
8689
8380
8360
8365
8359
8375
8362
8357
8372
8615
8385
8369
8362
8375
8396
8398
8370
8381
8367
8365
8389
8402
8411
8605
8409
8593
8398
8387
8383
8383
8387
8408
8481
8412
8566
8428
8389
8405
8403
8414
8440
8399
8406
8419
8502
8445
8406
8421
8421
8424
8414
8420
8418
8425
8440
8477
8472
8433
8450
8424
8442
8435
8430
8452
8462
8474
8569
8485
8593
8492
8844
8498
8738
8504
8772
8494
8469
8488
8479
8494
8481
8497
8485
8488
8501
8613
8543
8587
8515
8512
8511
8519
8522
8527
8539
8524
8541
8531
8538
8544
8529
8568
8633
8581
8561
8579
8564
8573
8574
8586
8579
8585
8580
8581
8605
8630
8636
8837
8623
8609
8608
8615
8641
8647
8628
8646
8638
8639
8639
8816
8650
8690
8993
8703
8822
8689
8678
8698
8688
8703
8695
8708
8703
8707
8714
8768
8763
9063
8774
8749
8740
8742
8761
8763
8778
8797
8900
8802
8784
8784
8811
8832
8840
8810
8909
8835
8813
8824
8836
8837
8857
8943
8887
8874
8863
8868
8896
8912
9304
8910
8902
8908
8925
8958
8958
9145
8956
8939
8942
8960
8987
8994
8969
8985
8981
8991
9026
9526
9015
9013
9196
9025
9045
9085
9064
9104
9085
9095
9079
9078
9092
9103
9365
9292
9114
9126
9138
9174
9160
9190
9169
9169
9178
9285
9227
9197
9209
9220
9447
9228
9233
9430
9262
9255
9270
9283
9414
9304
9293
9292
9331
9619
9332
9325
9334
9335
9345
9365
9368
9396
9513
9414
9404
9410
9451
9933
9446
9446
9441
9477
9607
9519
9483
9500
9511
9582
9572
10031
9575
9543
9563
9594
9580
9591
9633
9601
9625
9662
9654
9642
9979
9676
9652
9682
9701
9729
9713
9749
9736
9763
9767
9751
9774
9831
9799
9820
9844
9844
9831
10122
9851
9913
9874
9886
9892
9918
9938
9931
10397
9951
9971
10005
10005
9994
10002
10010
10031
10048
10059
10069
10079
10092
10103
10135
10135
10134
10154
10170
10178
10215
10194
10455
10223
10269
10258
10255
10398
10283
10327
10319
10629
10347
10386
10366
10372
10421
10417
10439
10426
10553
10457
10513
10494
10499
10632
10523
10576
10553
10658
10594
10607
10602
10835
10640
10687
10676
10684
10699
10727
10726
11127
10750
10807
10782
10890
10830
10835
10842
10893
10887
10924
10911
10932
10995
10962
11001
10983
11036
11029
11046
11048
11109
11095
11119
11127
11142
11182
11163
11599
11194
11245
11244
11251
11272
11301
11333
11326
11335
11352
11372
11439
11413
11442
11455
11471
11484
11507
11518
11954
11627
11553
11599
11620
11618
11821
11645
11699
11722
11719
12071
11748
11804
11791
11812
11865
11857
11886
11886
11935
11934
11971
11951
12133
12007
12051
12059
12063
12119
12111
12145
12142
12569
12184
12212
12254
12244
12626
12285
12326
12344
12749
12381
12426
12409
12772
12453
12516
12501
12652
12548
12587
12931
12609
12634
12655
12983
12701
12738
12740
12826
12795
12804
12824
12964
12868
12916
12924
12933
12973
12993
13011
13031
13079
13090
13132
13122
13498
13216
13188
13221
13278
13272
13287
13721
13347
13368
13401
13410
13610
13459
13486
13502
13521
13941
13630
13593
13640
13628
13740
13680
13735
13733
13748
13790
13805
13840
13842
13941
13895
13911
13931
13993
13970
14015
14036
14050
14212
14098
14129
14150
14153
14273
14220
14264
14277
14280
14455
14338
14370
14391
14405
14514
14466
14513
14514
14534
14559
14608
14617
14654
14647
14673
14736
14737
14790
14771
15121
14831
14879
14881
14903
14996
14967
15000
15014
15017
15088
15080
15109
15153
15165
15233
15219
15254
15254
15572
15311
15341
15367
15383
15449
15441
15487
15486
15635
15548
15591
15595
15612
15690
15673
15713
15721
15865
15772
15820
15817
16079
15884
15923
15934
15947
16058
16007
16059
16051
16079
16181
16137
16174
16196
16209
16273
16273
16297
16311
16391
16364
16423
16447
16461
16484
16513
16553
16583
16612
16629
16655
16657
16683
16735
16734
16932
16799
16828
16874
16870
17147
16935
16967
16974
17029
17045
17060
17245
17113
17155
17153
17198
17216
17235
17254
17300
17319
17355
17357
17390
17537
17448
17501
17502
17761
17558
17605
17595
17890
17690
17695
17735
17743
17757
17969
17834
17849
17895
17881
17986
17959
17989
17994
18065
18055
18089
18201
18138
18150
18191
18206
18247
18279
18423
18338
18336
18376
18406
18516
18458
18454
18516
18545
18698
18588
18597
18633
18655
18685
18709
18773
18780
19034
18820
18837
18868
18879
18926
18959
19170
19005
19022
19046
19063
19111
19127
19199
19185
19275
19239
19259
19284
19304
19323
19363
19377
19417
19613
19481
19518
19511
19540
19549
19594
19781
19656
19709
19697
19726
19738
19787
19909
19827
19847
19869
19921
19959
19945
19983
19992
20047
20170
20095
20130
20135
20154
20182
20214
20423
20284
20304
20310
20342
20352
20400
20512
20441
20471
20485
20537
20570
20558
20599
20669
20652
20675
20691
20725
20732
20769
20790
20821
20853
20975
20908
20916
20953
20972
20999
21031
21063
21081
21151
21146
21148
21187
21206
21277
21271
21455
21313
21325
21367
21391
21527
21453
21631
21493
21509
21572
21581
21585
21631
21655
21836
21698
21719
21863
21771
21797
21848
21871
21866
21907
21933
22079
21983
22001
22068
22071
22236
22114
22279
22161
22173
22208
22227
22260
22279
22317
22319
22388
22395
22452
22429
22471
22486
22522
22545
22572
22589
22642
22637
22698
22700
22783
22748
22757
22797
22831
22861
22879
22935
22925
22998
22975
22983
23029
23037
23078
23098
23162
23148
23163
23236
23229
23395
23277
23293
23377
23356
23503
23407
23421
23456
23469
23510
23523
23551
23575
23655
23623
23637
23679
23706
23781
23751
23895
23798
23815
23846
23869
23919
23929
24069
23975
23994
24051
24054
24059
24116
24127
24187
24180
24260
24235
24238
24270
24284
24370
24356
24357
24391
24412
24457
24467
24545
24516
24524
24572
24593
24695
24647
24653
24695
24718
24827
24758
24779
24858
24839
24964
24881
24914
24967
24963
24936
25003
25020
25149
25084
25137
25116
25141
25182
25199
25220
25230
25254
25286
25319
25328
25365
25383
25399
25414
25455
25505
25516
25629
25549
25577
25599
25618
25671
25682
25654
25735
25751
25786
25791
25837
25839
25905
25899
25951
25926
26012
25983
26068
26031
26044
26090
26114
26119
26151
26170
26221
26223
26301
26275
26294
26311
26333
26383
26393
26464
26439
26461
26541
26500
26516
26556
26574
26655
26620
26630
26675
26671
26716
26727
26771
26783
26839
26826
26879
26876
26947
26917
26966
26967
26979
27015
27020
27067
27074
27124
27132
27135
27173
27178
27219
27237
27294
27279
27327
27335
27385
27367
27383
27431
27435
27485
27486
27549
27525
27543
27581
27591
27625
27643
27697
27685
27707
27737
27751
27807
27798
27815
27842
27865
27907
27908
27916
27951
27975
28022
28020
28039
28062
28093
28127
28132
28139
28187
28205
28215
28257
28259
28279
28320
28332
28365
28381
28390
28426
28439
28423
28471
28498
28535
28552
28565
28590
28616
28635
28663
28671
28702
28721
28753
28761
28769
28810
28820
28854
28866
28897
28899
28955
28961
28980
28997
28977
29042
29054
29089
29107
29119
29141
29169
29186
29190
29239
29250
29279
29293
29319
29325
29367
29372
29412
29410
29447
29457
29490
29503
29527
29540
29557
29591
29603
29629
29638
29687
29694
29714
29731
29748
29775
29789
29812
29832
29861
29877
29892
29908
29940
29947
29978
29994
30017
30039
30037
30086
30070
30114
30119
30165
30181
30197
30222
30234
30269
30281
30314
30323
30351
30357
30387
30368
30413
30387
30470
30471
30508
30511
30543
30567
30589
30606
30623
30646
30666
30677
30693
30719
30702
30765
30740
30795
30801
30855
30855
30877
30902
30915
30935
30957
30977
30991
31017
31007
31047
31043
31098
31093
31124
31159
31149
31191
31146
31219
31239
31281
31275
31311
31319
31332
31367
31325
31396
31418
31437
31449
31469
31492
31511
31531
31534
31564
31572
31607
31606
31647
31618
31680
31580
31727
31618
31751
31775
31799
31806
31834
31846
31871
31869
31909
31795
31927
31853
31958
31980
31978
32003
32030
32041
32047
32071
32091
32111
32097
32135
32119
32175
32119
32217
32217
32174
32257
32263
32291
32302
32263
32335
32286
32375
32375
32404
32415
32423
32452
32411
32474
32501
32516
32527
32511
32564
32447
32596
32599
32599
32631
32607
32662
32599
32716
32604
32742
32625
32757
32732
32799
32771
32825
32802
32844
32759
32890
32908
32930
32940
32948
32980
32935
32996
32879
33035
33052
33051
33074
33061
33097
33031
33123
33066
33147
33080
33195
33218
33222
33245
33204
33271
33279
33317
33313
33319
33316
33366
33381
33383
33401
33346
33423
33350
33479
33485
33479
33511
33478
33534
33519
33573
33560
33604
33499
33639
33639
33660
33669
33671
33697
33645
33711
33582
33764
33766
33780
33799
33761
33819
33837
33861
33863
33858
33881
33914
33935
33935
33935
33976
33933
33983
33923
34015
33909
34055
34071
34074
34101
34090
34124
34102
34135
34118
34169
34151
34179
34102
34215
34055
34246
34263
34295
34287
34300
34308
34334
34343
34327
34367
34279
34412
34404
34391
34421
34293
34479
34477
34438
34485
34508
34510
34535
34450
34551
34583
34582
34607
34595
34639
34555
34633
34535
34651
34567
34695
34588
34719
34567
34774
34759
34790
34787
34806
34807
34823
34823
34844
34867
34861
34889
34860
34909
34908
34940
34933
34957
34934
34973
34959
34999
35012
35037
35015
35047
34950
35050
34929
35103
35095
35114
34927
35156
35156
35153
35170
35202
35199
35222
35221
35215
35250
35229
35255
35231
35283
35270
35307
35274
35327
35286
35353
35335
35367
35301
35391
35417
35428
35415
35434
35449
35397
35454
35351
35482
35379
35519
35527
35524
35540
35463
35559
35575
35591
35596
35605
35621
35553
35615
35486
35639
35563
35649
35493
35718
35709
35743
35733
35757
35751
35719
35786
35780
35782
35813
35804
35806
35825
35804
35834
35767
35862
35750
35903
35898
35918
35924
35927
35941
35926
35959
35897
35955
35833
36014
36015
36023
36037
36035
36051
36036
36047
35964
36071
35991
36094
36073
36115
36077
36103
36020
36142
36089
36164
36103
36163
35983
36231
36207
36229
36039
36229
36246
36293
36281
36293
36298
36303
36313
36292
36303
36118
36333
36158
36383
36156
36381
36394
36414
36403
36422
36429
36428
36439
36383
36437
36260
36488
36487
36489
36514
36519
36514
36541
36535
36539
36551
36551
36574
36551
36582
36591
36611
36597
36607
36605
36631
36615
36642
36644
36665
36643
36677
36642
36678
36547
36726
36723
36724
36734
36734
36743
36635
36759
36559
36762
36707
36783
36749
36805
36775
36829
36804
36830
36695
36828
36695
36871
36670
36855
36764
36863
36813
36871
36819
36907
36863
36935
36911
36956
36839
36942
36748
36951
36907
36967
36831
37030
37025
37030
37039
37060
37038
37058
37077
37087
37075
37076
37092
37119
37093
37123
37107
37127
37127
37147
37127
37157
37164
37158
37173
37167
37175
37157
37190
37147
37189
37121
37183
36998
37240
37244
37246
37254
37239
37266
37236
37268
37271
37287
37295
37293
37301
37316
37293
37324
37327
37337
37351
37350
37371
37355
37337
37332
37183
37399
37383
37399
37396
37367
37383
37294
37383
37231
37441
37447
37465
37450
37479
37455
37480
37231
37465
37253
37495
37495
37513
37499
37481
37508
37345
37503
37534
37543
37542
37543
37543
37521
37543
37553
37573
37527
37567
37478
37575
37567
37607
37586
37607
37551
37583
37359
37635
37639
37628
37639
37631
37639
37566
37671
37637
37666
37613
37643
37546
37663
37695
37717
37703
37731
37719
37717
37732
37732
37732
37747
37741
37757
37743
37740
37741
37535
37782
37775
37735
37762
37717
37783
37788
37804
37804
37795
37799
37785
37809
37657
37843
37836
37780
37789
37852
37839
37842
37567
37870
37871
37817
37836
37868
37807
37887
37886
37759
37914
37895
37894
37895
37782
37895
37911
37926
37909
37639
37946
37929
37934
37949
37894
37939
37946
37954
37948
37861
37942
37690
37991
37975
37925
37999
37940
37999
37869
37974
37798
37985
37796
38015
38021
38032
38012
38039
38030
38023
38028
37934
37995
37887
38017
37964
38058
38028
38068
37963
38005
37882
38020
37807
38092
38087
38063
38061
37919
38042
37807
38112
38109
38108
38117
38102
38108
38007
38071
38114
38133
38127
38059
38102
38142
38143
38137
37995
38138
38151
38166
38148
38151
38149
38145
38151
38038
38135
38171
38162
38171
38012
38188
38189
38149
38174
38185
38173
38183
37991
38209
38199
38214
38215
38175
38165
38119
38175
38220
38201
38191
38215
38229
38231
38209
38199
38227
38234
38243
38207
38204
38229
38245
38239
38082
38263
38252
38223
38245
38124
38255
38249
38256
38269
38049
38279
38260
38238
38231
38271
38286
38267
38213
38287
38268
38275
38263
38273
38292
38281
38181
38311
38287
38276
38287
38199
38318
38305
38311
38300
38311
38303
38187
38316
38310
38279
38284
38309
38316
38316
38164
38327
38321
38295
38311
38076
38343
38319
38318
38324
38335
38323
38277
38266
38049
38341
38311
38327
38323
38319
38308
38231
38268
38324
38332
38316
38319
38327
38309
38309
38300
38311
38311
38306
38263
38263
38308
38302
38271
38059
38302
38315
38115
38318
38300
38273
38252
38303
38286
38284
38255
38259
38015
38302
38279
38291
38291
38279
38255
38055
38286
38293
38299
38266
38278
38271
38279
38268
38284
38279
38279
38277
38204
38252
38234
38239
38218
38245
38103
38215
38095
38215
38115
38207
38092
38221
38045
38228
38015
38193
37990
38253
38074
38188
38012
38229
38229
38253
38228
38244
38215
38223
38219
38195
38179
38093
38201
38217
38228
38223
38180
38164
38208
38220
38202
38197
38196
38171
38151
37975
38215
38207
38193
38167
37997
38171
37938
38135
38085
38150
38103
38118
38028
38131
38001
38119
37891
38178
38173
38173
38164
38169
38161
38144
38149
38070
38109
38151
38148
38143
38148
38132
38148
38143
38132
38135
38141
38129
38135
38127
38135
38108
38117
38113
38107
38114
38095
38103
38087
38095
38087
38087
38086
38095
38063
38083
38071
38043
37791
38092
38083
38061
38063
37988
38005
37958
38015
37780
38077
38055
38055
38049
38037
38045
38053
38047
38031
38043
38031
38023
38029
38020
38030
38019
38004
37996
37857
37956
37884
38015
38003
38005
37991
38004
37980
38002
37974
37972
37972
37964
37949
37806
37967
37956
37959
37952
37915
37909
37952
37951
37953
37943
37932
37939
37925
37895
37865
37623
37919
37914
37895
37911
37860
37895
37894
37895
37885
37855
37831
37863
37892
37882
37844
37831
37614
37873
37855
37837
37824
37620
37820
37838
37834
37823
37735
37821
37772
37823
37687
37807
37767
37554
37751
37583
37743
37613
37748
37716
37740
37670
37716
37697
37722
37525
37759
37487
37757
37741
37749
37741
37700
37725
37697
37711
37628
37682
37717
37707
37702
37549
37711
37687
37666
37639
37429
37693
37673
37663
37671
37631
37613
37369
37663
37639
37631
37636
37508
37581
37425
37639
37607
37627
37610
37599
37607
37507
37552
37588
37591
37593
37548
37561
37519
37562
37551
37571
37495
37551
37511
37525
37443
37510
37445
37487
37430
37479
37243
37535
37519
37511
37500
37455
37438
37293
37495
37236
37463
37455
37475
37474
37447
37460
37447
37441
37423
37443
37371
37383
37271
37399
37415
37426
37412
37413
37403
37365
37360
37189
37396
37375
37383
37369
37341
37335
37359
37360
37346
37316
37342
37279
37319
37301
37293
37206
37268
37127
37271
37070
37316
37306
37295
37287
37295
37271
37287
37271
37279
37255
37255
37252
37233
37237
37171
37191
37142
37197
37039
37195
37223
37219
37191
37199
37193
37192
37183
37153
37180
37148
37165
37141
37143
37047
37140
37143
37147
37127
37137
37110
37127
37108
37078
37102
37069
37094
36980
37090
37083
37085
37075
37039
37044
36998
36999
36783
37059
37031
37035
37031
37032
37012
37023
36999
37003
36993
36975
36963
36790
36999
36967
36988
36964
36951
36687
36893
36871
36935
36935
36925
36913
36887
36917
36863
36887
36837
36854
36823
36860
36719
36828
36743
36837
36660
36863
36847
36855
36807
36835
36763
36791
36743
36787
36743
36765
36682
36772
36537
36799
36775
36733
36756
36669
36703
36494
36756
36743
36701
36725
36695
36715
36691
36710
36684
36682
36615
36659
36567
36687
36679
36647
36628
36660
36655
36647
36631
36625
36487
36612
36633
36615
36603
36571
36583
36405
36567
36591
36591
36564
36556
36570
36543
36559
36559
36551
36497
36533
36500
36527
36503
36503
36413
36471
36407
36455
36345
36478
36463
36475
36335
36479
36222
36466
36441
36433
36430
36420
36403
36191
36429
36402
36397
36399
36392
36385
36388
36359
36382
36357
36375
36359
36359
36332
36314
36319
36211
36282
36231
36295
36221
36268
36167
36261
36191
36242
36135
36259
36040
36270
36239
36263
36222
36242
36231
36242
36215
36220
36217
36191
36192
36175
36183
36136
36148
36075
36138
35927
36175
36147
36148
36139
36137
36127
36115
36119
36087
36103
36063
36070
36015
36067
35948
36031
36069
36077
36060
36043
36039
35863
36034
35809
36015
36014
36032
36007
36006
35998
36003
35975
35975
35975
35927
35948
35729
35938
35793
35911
35755
35949
35940
35943
35903
35905
35915
35879
35887
35882
35879
35898
35876
35891
35859
35878
35860
35862
35841
35845
35819
35821
35815
35765
35790
35666
35802
35791
35790
35781
35719
35740
35766
35748
35727
35751
35734
35741
35621
35739
35717
35726
35703
35654
35697
35622
35668
35463
35692
35668
35679
35670
35663
35658
35651
35637
35591
35611
35538
35591
35492
35591
35386
35575
35428
35603
35581
35591
35570
35583
35559
35563
35543
35527
35537
35503
35511
35415
35507
35502
35510
35490
35495
35481
35451
35458
35303
35478
35454
35463
35445
35445
35434
35421
35423
35396
35406
35319
35399
35393
35405
35366
35375
35372
35325
35349
35195
35367
35351
35343
35335
35313
35324
35301
35306
35260
35303
35152
35303
35279
35239
35250
35270
35278
35262
35278
35251
35241
35239
35180
35227
35162
35197
35045
35226
35192
35180
35165
35181
35174
35172
35100
35156
34983
35165
35155
35158
35129
35092
35119
35015
35092
34910
35111
35095
35091
35087
35079
35068
35071
35060
35050
35063
35043
35039
34997
35031
34992
34997
34815
35023
35004
35005
34983
34971
34983
34915
34942
34743
34951
34934
34801
34935
34924
34862
34874
34900
34884
34884
34788
34861
34855
34863
34841
34850
34821
34775
34799
34635
34819
34787
34782
34771
34636
34769
34762
34623
34756
34735
34695
34715
34595
34726
34705
34690
34695
34636
34653
34663
34653
34644
34556
34613
34475
34639
34615
34599
34599
34526
34567
34401
34583
34567
34489
34549
34535
34522
34535
34479
34511
34364
34508
34499
34411
34467
34481
34478
34467
34431
34447
34388
34428
34278
34438
34411
34388
34401
34311
34407
34373
34331
34372
34231
34335
34356
34346
34335
34276
34303
34138
34311
34302
34279
34271
34161
34263
34261
34263
34260
34231
34239
34227
34222
34183
34203
34084
34179
34075
34177
34007
34181
34167
34171
34155
34161
34134
34135
34130
34097
34115
34001
34097
34097
34094
34085
34081
34065
34067
34045
34030
34047
33959
34007
34026
34015
33983
33991
33995
33909
33994
33966
33909
33959
33890
33927
33815
33953
33928
33919
33927
33884
33903
33871
33895
33880
33878
33895
33851
33876
33692
33845
33839
33857
33831
33834
33817
33823
33799
33793
33791
33666
33790
33770
33781
33758
33754
33748
33692
33727
33649
33700
33585
33711
33557
33685
33590
33663
33601
33659
33599
33646
33543
33639
33467
33639
33621
33599
33607
33522
33581
33462
33575
33463
33566
33571
33561
33558
33541
33542
33519
33527
33511
33521
33479
33511
33447
33492
33413
33479
33299
33479
33356
33466
33423
33436
33451
33276
33413
33388
33409
33405
33246
33385
33372
33382
33358
33327
33359
33355
33341
33325
33223
33329
33255
33313
33310
33305
33281
33245
33283
33287
33175
33263
33260
33239
33245
33213
33235
33245
33069
33210
33212
33194
33183
33087
33195
33165
33190
33156
33174
33159
33167
33141
33125
33135
33031
33134
33111
33105
33096
33071
33091
33054
33071
32972
33047
32980
33047
33052
33061
33039
33051
33028
33031
33021
33006
33004
32954
32993
32942
32982
32895
32954
32956
32967
32949
32935
32941
32908
32926
32885
32917
32855
32897
32895
32861
32879
32757
32865
32863
32861
32803
32829
32831
32850
32821
32831
32703
32831
32815
32773
32821
32801
32775
32775
32675
32789
32765
32734
32759
32745
32753
32748
32685
32724
32708
32716
32711
32583
32704
32701
32607
32702
32684
32599
32679
32663
32577
32674
32657
32628
32634
32527
32637
32631
32623
32607
32602
32591
32516
32606
32581
32575
32575
32567
32543
32563
32555
32561
32550
32451
32542
32538
32494
32507
32518
32517
32508
32439
32516
32492
32481
32479
32449
32479
32435
32459
32415
32445
32357
32437
32431
32444
32431
32383
32415
32340
32403
32287
32415
32391
32395
32389
32359
32367
32337
32367
32327
32348
32287
32335
32188
32340
32323
32326
32311
32311
32311
32287
32295
32239
32282
32183
32263
32172
32262
32191
32250
32140
32247
32098
32228
32171
32221
32215
32231
32223
32183
32199
32183
32194
32135
32183
32150
32175
32167
32182
32157
32172
32141
32156
32135
32117
32131
32049
32131
32113
32108
32110
32049
32090
32102
32091
32075
32039
32071
31967
32071
32068
31996
32052
32041
32045
32036
31979
32025
31940
32005
31918
32015
31999
31991
31998
31991
31975
31967
31842
31984
31972
31959
31956
31934
31953
31935
31941
31905
31930
31911
31917
31902
31924
31909
31902
31903
31895
31894
31898
31879
31870
31879
31863
31868
31866
31852
31844
31852
31836
31844
31833
31810
31819
31809
31807
31807
31813
31811
31793
31799
31790
31795
31771
31779
31766
31764
31759
31703
31751
31743
31735
31742
31701
31735
31629
31719
31623
31716
31716
31709
31708
31694
31695
31623
31683
31584
31675
31671
31659
31668
31606
31643
31650
31647
31651
31623
31642
31555
31628
31527
31631
31623
31605
31611
31533
31615
31595
31591
31587
31552
31575
31503
31564
31495
31559
31459
31567
31551
31548
31543
31538
31540
31481
31530
31479
31515
31423
31517
31495
31517
31491
31485
31483
31483
31477
31477
31477
31476
31455
31451
31460
31463
31452
31461
31444
31446
31431
31432
31422
31422
31415
31402
31401
31391
31399
31367
31397
31325
31391
31388
31391
31378
31389
31367
31377
31357
31367
31343
31341
31335
31343
31334
31325
31331
31314
31319
31318
31317
31295
31309
31239
31297
31207
31287
31215
31311
31279
31279
31267
31281
31275
31255
31261
31253
31253
31207
31255
31213
31237
31223
31239
31215
31215
31206
31214
31231
31070
31207
31184
31196
31188
31178
31188
31158
31172
31167
31182
31161
31167
31167
31151
31151
31119
31141
31036
31151
31015
31142
31132
31117
31119
31079
31103
31043
31109
31010
31103
31087
31099
31093
31069
31085
31046
31068
31031
31071
31015
31055
31006
31055
30994
31040
31045
31053
31036
31022
31030
30970
31022
31011
31015
31015
30945
31006
30911
30998
30983
31001
30995
30996
30980
30991
30978
30982
30845
30965
30877
30959
30868
30947
30906
30944
30890
30942
30884
30938
30855
30923
30863
30931
30852
30919
30847
30911
30903
30908
30898
30896
30892
30886
30887
30849
30887
30820
30878
30876
30823
30879
30868
30847
30863
30777
30855
30855
30841
30855
30790
30846
30837
30831
30837
30828
30841
30759
30827
30815
30819
30802
30812
30804
30775
30799
30727
30813
30783
30802
30773
30793
30772
30790
30780
30740
30767
30764
30764
30758
30747
30759
30650
30739
30751
30738
30668
30719
30742
30719
30725
30703
30725
30711
30712
30698
30703
30701
30687
30661
30693
30679
30671
30628
30683
30663
30651
30615
30647
30639
30644
30634
30628
30622
30620
30614
30615
30599
30607
30572
30599
30583
30527
30589
30578
30508
30565
30564
30567
30503
30565
30549
30450
30530
30533
30391
30519
30519
30455
30524
30498
30445
30496
30501
30479
30463
30485
30471
30421
30471
30457
30394
30462
30453
30407
30444
30438
30417
30433
30426
30383
30436
30409
30345
30413
30397
30327
30399
30382
30386
30367
30373
30372
30377
30363
30297
30369
30349
30351
30343
30343
30284
30343
30331
30236
30323
30325
30319
30254
30312
30305
30239
30303
30291
30199
30287
30279
30279
30238
30286
30263
30183
30255
30271
30252
30151
30243
30231
30231
30215
30236
30215
30215
30202
30215
30204
30204
30202
30196
30191
30189
30183
30154
30183
30180
30141
30173
30157
30164
30147
30163
30148
30103
30149
30149
30060
30140
30135
30127
30119
30118
30113
30102
30117
30115
30023
30105
30092
30077
30069
30087
30081
30071
30077
30069
30052
30065
30058
30060
30051
30047
30044
29997
30039
30036
29986
30024
30026
29999
30019
29982
30021
29973
29996
29968
29994
29983
29979
29974
29983
29975
29969
29950
29959
29951
29959
29933
29957
29924
29940
29932
29949
29926
29933
29925
29911
29913
29897
29917
29885
29901
29863
29892
29830
29890
29894
29887
29879
29892
29874
29878
29874
29868
29823
29845
29847
29843
29844
29845
29855
29828
29818
29821
29839
29818
29836
29766
29813
29759
29801
29771
29794
29767
29793
29768
29783
29748
29777
29751
29760
29762
29758
29759
29751
29743
29749
29743
29734
29743
29729
29721
29727
29718
29710
29677
29716
29703
29719
29703
29703
29684
29690
29685
29692
29682
29684
29671
29679
29659
29675
29661
29658
29657
29635
29644
29618
29631
29602
29639
29610
29623
29570
29629
29608
29625
29607
29599
29609
29564
29609
29591
29598
29603
29591
29588
29583
29580
29580
29574
29575
29532
29572
29526
29558
29565
29545
29559
29493
29543
29476
29540
29519
29533
29517
29533
29522
29516
29522
29516
29526
29503
29503
29515
29494
29509
29487
29498
29480
29482
29476
29479
29482
29477
29461
29483
29473
29473
29461
29462
29439
29471
29453
29463
29460
29460
29447
29447
29444
29447
29442
29435
29442
29433
29431
29429
29431
29423
29412
29407
29415
29411
29411
29405
29407
29407
29411
29403
29398
29382
29399
29383
29393
29396
29389
29398
29383
29385
29367
29388
29367
29380
29370
29381
29379
29378
29359
29367
29367
29367
29351
29359
29339
29346
29353
29341
29340
29341
29335
29343
29343
29342
29334
29333
29327
29333
29333
29325
29325
29321
29323
29308
29327
29308
29329
29309
29309
29309
29291
29298
29281
29319
29297
29310
29303
29297
29292
29287
29295
29279
29293
29284
29289
29279
29295
29287
29274
29268
29284
29267
29281
29231
29278
29238
29273
29265
29270
29258
29265
29259
29253
29255
29246
29254
29191
29252
29251
29258
29243
29255
29251
29251
29237
29251
29247
29255
29238
29244
29229
29235
29231
29239
29229
29239
29222
29231
29221
29227
29183
29223
29212
29230
29210
29227
29143
29211
29130
29220
29199
29204
29167
29205
29204
29199
29199
29175
29212
29207
29199
29190
29185
29191
29157
29206
29191
29187
29191
29103
29185
29137
29189
29173
29188
29175
29182
29167
29177
29173
29191
29178
29179
29175
29135
29175
29171
29181
29167
29188
29167
29167
29161
29165
29162
29151
29159
29157
29175
29154
29156
29149
29140
29153
29127
29162
29153
29158
29151
29146
29155
29137
29138
29151
29153
29131
29135
29143
29143
29149
29141
29117
29143
29133
29117
29138
29124
29143
29135
29123
29135
29127
29124
29131
29103
29127
29129
29127
29122
29121
29123
29114
29111
29102
29111
29110
29127
29110
29117
29113
29107
29132
29105
29119
29114
29106
29107
29087
29102
29103
29103
29103
29055
29111
29095
29103
29111
29095
29101
29091
29030
29097
29095
29108
29095
29095
29089
29084
29084
29090
29093
29081
29093
29084
29093
29087
29079
29095
29081
29059
29091
29079
29071
29085
29075
29075
29021
29087
29073
29076
29082
29063
29076
29061
29073
29063
29063
29071
29021
29077
29061
29065
29068
29059
29071
29061
29079
29063
29062
29063
29057
29063
29060
29070
29063
29054
29049
29046
29055
29055
29055
29055
29053
29044
29047
29043
29052
29039
29053
29031
29051
29031
29047
28999
29037
29049
29039
29044
29046
29046
29042
29042
29055
29034
29043
29037
29031
29037
29021
29030
29039
29029
29037
29031
29047
29031
29022
29029
29031
29021
29025
29029
29026
29019
29018
29026
29020
29023
29010
29030
29015
29021
29023
29015
29019
28980
29031
29013
29031
29012
29007
29027
29013
29025
29008
29012
29004
29003
29007
28983
29011
28995
29014
29004
29008
28999
29023
29007
29005
29004
28997
29002
29004
28999
29002
29005
28972
29003
28879
29003
28997
29003
28991
28991
28998
28989
28997
28983
28991
28981
28997
28975
28991
28983
28983
28981
28988
28986
28995
28979
28975
28988
28986
28997
28979
29002
28979
28983
28986
28963
28983
28971
28999
28977
28979
28983
28965
28980
28975
28983
28972
28985
28975
28977
28969
28978
28970
28954
28979
28940
28967
28971
28972
28973
28959
28962
28964
28965
28967
28964
28981
28964
28975
28969
28967
28959
28842
28964
28964
28964
28958
28957
28959
28945
28956
28948
28943
28942
28947
28935
28921
28924
28925
28931
28914
28921
28919
28917
28914
28900
28916
28899
28907
28903
28886
28899
28887
28903
28894
28836
28900
28884
28890
28876
28860
28871
28807
28879
28859
28866
28852
28845
28860
28854
28859
28847
28847
28831
28839
28837
28839
28826
28831
28826
28815
28827
28807
28823
28794
28812
28794
28819
28803
28807
28791
28807
28791
28787
28742
28797
28785
28791
28787
28767
28781
28773
28783
28769
28753
28775
28763
28763
28759
28741
28764
28747
28751
28745
28741
28742
28743
28737
28732
28723
28726
28734
28716
28728
28671
28733
28719
28714
28708
28703
28701
28701
28697
28710
28693
28700
28695
28667
28679
28679
28692
28678
28670
28679
28669
28679
28677
28660
28670
28650
28661
28667
28647
28655
28647
28642
28628
28645
28645
28645
28636
28643
28631
28635
28625
28629
28611
28606
28618
28613
28619
28607
28580
28612
28604
28615
28589
28596
28599
28582
28591
28535
28587
28578
28596
28585
28578
28575
28576
28572
28551
28574
28557
28567
28559
28559
28563
28551
28557
28551
28546
28538
28551
28541
28526
28536
28521
28532
28525
28536
28527
28522
28535
28519
28502
28520
28511
28519
28513
28516
28487
28502
28493
28493
28503
28479
28493
28477
28491
28479
28482
28475
28468
28487
28475
28484
28473
28463
28469
28445
28461
28447
28455
28444
28455
28430
28455
28437
28438
28438
28441
28438
28441
28441
28422
28423
28419
28423
28407
28415
28403
28410
28383
28397
28398
28399
28391
28393
28355
28393
28383
28391
28295
28383
28367
28374
28359
28377
28357
28372
28359
28370
28353
28365
28348
28359
28340
28354
28337
28351
28333
28349
28331
28341
28321
28341
28335
28316
28322
28319
28327
28311
28314
28310
28311
28319
28303
28295
28303
28301
28295
28295
28294
28287
28288
28295
28279
28264
28282
28284
28279
28261
28285
28275
28270
28263
28253
28261
28271
28257
28255
28263
28251
28262
28251
28239
28247
28243
28247
28234
28233
28248
28226
28227
28167
28236
28227
28213
28231
28221
28195
28221
28217
28206
28205
28220
28201
28199
28191
28203
28205
28190
28191
28196
28191
28183
28151
28197
28198
28183
28167
28177
28185
28175
28167
28175
28176
28174
28167
28167
28181
28167
28148
28175
28156
28152
28156
28167
28164
28162
28156
28148
28154
28157
28151
28147
28154
28139
28142
28148
28140
28130
28140
28132
28139
28138
28132
28119
28136
28133
28123
28131
28135
28121
28108
28126
28121
28118
28107
28118
28119
28107
28117
28070
28118
28119
28104
28105
28091
28103
28092
28103
28113
28095
28093
28093
28090
28098
28095
28100
28084
28089
28103
28089
28094
28099
28095
28086
28073
28104
28085
28084
28071
28082
28081
28080
28083
28095
28075
28079
28076
28073
28068
28069
28067
28068
28071
28079
28073
28059
28065
28071
28061
28063
28069
28057
28059
28068
28058
28056
28053
28047
28063
28065
28043
28052
28047
28045
28051
28061
28060
28049
28051
28043
28056
28052
28045
28060
28047
28039
28045
28050
28036
28036
28054
28036
28026
28052
28052
28039
28040
28039
28039
28033
28052
28042
28043
28037
28031
28036
28039
28034
28026
28048
28030
28022
28039
28031
28037
28040
28035
28034
28039
28036
28030
28028
28031
28036
28027
28031
28033
28028
28021
28038
28031
28029
28031
28039
28036
28034
27978
28028
28022
28027
28031
28039
28035
28002
28037
28026
28039
28004
28039
28031
28031
28032
28037
28030
28031
28045
28031
28030
27985
28042
28026
28025
28017
28051
28036
28026
28036
28037
28032
28039
28045
28036
28035
28036
28050
28031
28033
28036
28042
28039
28010
28051
28036
28040
28035
28039
28044
28039
28039
28041
28039
27919
28044
28061
28047
28045
28047
28046
28047
28047
28047
28053
28048
28055
28047
28055
28053
28050
28035
28061
28055
28063
28051
28020
28058
28065
28058
28060
28062
28075
28065
28063
28070
28068
28079
28069
28070
28063
28071
28071
28071
28068
28079
28089
28076
28076
28079
28077
28075
28071
28077
28076
28093
28083
28084
28059
28090
28087
28084
28085
28088
28079
28087
28086
28097
28111
28083
28107
28106
28111
28102
28101
28101
28104
28109
28103
28103
28104
28112
28104
28107
28100
28113
28110
28119
28108
28109
28132
28122
28103
28126
28127
28130
28121
28123
28122
28111
28135
28132
28121
28129
28123
28133
28141
28124
28122
28132
28141
28140
28137
28143
28155
28151
28138
28131
28151
28137
28133
28137
28152
28141
28143
28143
28157
28163
28155
28147
28147
28158
28151
28154
28159
28159
28148
28167
28167
28156
28143
28167
28164
28167
28165
28167
28154
28161
28167
28180
28167
28182
28185
28178
28166
28124
28186
28167
28165
28167
28185
28175
28183
28188
28189
28189
28167
28191
28180
28175
28179
28199
28191
28190
28195
28196
28189
28199
28195
28142
28199
28199
28199
28191
28188
28201
28207
28199
28199
28198
28227
28199
28199
28209
28205
28195
28199
28199
28211
28207
28194
28205
28219
28211
28213
28215
28201
28221
28213
28201
28202
28223
28212
28201
28214
28219
28218
28204
28223
28215
28221
28159
28212
28221
28212
28209
28222
28201
28216
28220
28210
28204
28211
28226
28215
28214
28215
28215
28224
28202
28215
28215
28207
28209
28214
28207
28199
28188
28207
28195
28191
28196
28199
28195
28195
28182
28188
28178
28183
28182
28179
28180
28185
28167
28167
28110
28167
28156
28158
28151
28159
28153
28079
28150
28140
28137
28158
28141
28012
28134
28122
28123
28124
28132
28107
28121
28132
28107
28039
28111
28107
28094
28087
28099
28092
28087
28078
28100
28083
28084
28079
28081
28068
28054
28085
28065
28071
28052
28062
28057
28047
28049
28053
28039
28028
28047
28039
28039
28028
28011
28023
28011
28015
28004
28010
27999
28005
27996
27998
27998
27989
27981
27985
27967
27986
27963
27978
27954
27967
27956
27959
27898
27967
27941
27959
27943
27932
27948
27921
27937
27935
27922
27911
27911
27911
27900
27917
27886
27911
27887
27905
27879
27900
27879
27887
27870
27877
27862
27865
27857
27868
27845
27844
27847
27836
27841
27825
27835
27823
27822
27810
27823
27799
27800
27788
27796
27793
27798
27788
27791
27778
27767
27767
27767
27751
27743
27755
27735
27751
27734
27738
27727
27729
27723
27715
27717
27667
27711
27690
27699
27687
27698
27677
27692
27667
27666
27680
27646
27676
27655
27634
27648
27631
27637
27622
27631
27614
27622
27599
27559
27605
27593
27583
27589
27590
27571
27559
27561
27559
27542
27559
27542
27535
27551
27535
27527
27510
27508
27527
27503
27495
27503
27486
27474
27468
27476
27463
27465
27441
27453
27439
27429
27419
27437
27419
27399
27422
27399
27395
27399
27387
27381
27394
27371
27364
27354
27361
27345
27335
27351
27325
27321
27324
27315
27308
27295
27303
27303
27279
27268
27279
27271
27255
27238
27247
27244
27223
27231
27228
27239
27211
27204
27191
27197
27184
27189
27183
27170
27174
27169
27140
27154
27143
27119
27154
27121
27110
27095
27105
27087
27075
27087
27071
27090
27063
27050
27067
27046
27030
27042
27015
27015
27014
26999
26994
26998
26989
26966
26959
26969
26956
26949
26954
26938
26931
26917
26917
26918
26895
26886
26887
26887
26877
26855
26874
26850
26837
26855
26839
26827
26798
26822
26792
26783
26805
26787
26775
26774
26759
26751
26740
26727
26735
26710
26703
26731
26702
26695
26677
26694
26679
26670
26647
26660
26646
26622
26644
26615
26606
26604
26608
26599
26582
26574
26598
26565
26541
26535
26556
26529
26518
26500
26515
26501
26477
26511
26471
26470
26457
26477
26455
26438
26431
26413
26428
26414
26403
26385
26372
26397
26361
26362
26347
26329
26362
26335
26314
26299
26311
26303
26287
26279
26257
26287
26253
26244
26223
26252
26219
26212
26185
26210
26185
26167
26163
26171
26148
26143
26133
26147
26118
26116
26087
26107
26078
26066
26083
26052
26051
26023
26053
26023
26009
26031
25995
25988
26014
25972
25955
25951
25960
25943
25915
25948
25915
25909
25903
25891
25878
25856
25892
25851
25836
25820
25833
25817
25789
25807
25780
25766
25787
25750
25732
25763
25726
25708
25739
25702
25693
25676
25663
25658
25688
25667
25629
25627
25619
25602
25588
25621
25589
25566
25559
25539
25542
25534
25521
25492
25529
25481
25484
25460
25463
25446
25434
25438
25432
25397
25425
25390
25378
25411
25359
25343
25333
25360
25325
25303
25295
25312
25279
25257
25284
25251
25233
25271
25217
25211
25181
25206
25175
25165
25222
25172
25138
25126
25106
25163
25108
25087
25075
25045
25064
25053
25033
25079
25011
24994
25060
24986
24973
24956
25001
24945
24935
24911
24969
24903
24889
24876
24884
24861
24832
24839
24829
24798
24822
24791
24779
24837
24764
24742
24726
24777
24719
24708
24678
24699
24669
24655
24640
24679
24626
24625
24601
24669
24579
24581
24551
24575
24540
24519
24583
24510
24497
24423
24484
24460
24433
24471
24425
24414
24476
24391
24366
24398
24366
24357
24343
24382
24313
24297
24319
24273
24281
24249
24295
24234
24230
24202
24232
24183
24167
24204
24153
24135
24167
24136
24115
24111
24084
24060
24085
24053
24044
23932
24023
23995
23993
23973
24007
23956
23933
23912
23964
23903
23902
23966
23872
23865
23829
23854
23820
23802
23787
23815
23780
23776
23740
23750
23727
23701
23702
23698
23668
23700
23655
23642
23695
23622
23595
23580
23643
23572
23551
23613
23529
23517
23481
23518
23477
23452
23516
23446
23438
23412
23456
23387
23388
23361
23364
23336
23315
23359
23296
23287
23326
23267
23259
23227
23237
23223
23194
23175
23175
23166
23136
23156
23123
23100
23103
23082
23063
23069
23038
23015
23068
22997
22983
23087
22963
22951
22926
22951
22913
22900
22871
22913
22855
22844
22821
22890
22794
22803
22762
22759
22768
22729
22721
22693
22801
22683
22679
22654
22753
22647
22615
22601
22578
22604
22559
22556
22527
22518
22509
22486
22474
22448
22473
22430
22404
22389
22415
22379
22375
22346
22387
22326
22310
22298
22263
22302
22260
22239
22235
22205
22278
22191
22173
22147
22219
22135
22127
22085
22083
22087
22051
22089
22023
22012
21997
21951
21987
21959
21953
21919
21949
21895
21890
21867
21868
21843
21829
21805
21795
21815
21775
21750
21735
21861
21718
21702
21805
21663
21658
21741
21623
21601
21676
21576
21545
21561
21537
21494
21596
21479
21466
21589
21441
21420
21524
21383
21373
21467
21319
21316
21407
21285
21255
21348
21235
21215
21182
21186
21164
21137
21130
21111
21173
21081
21063
21109
21029
20994
21028
20971
20948
21028
20924
20911
20887
20967
20849
20839
20815
20919
20788
20781
20743
20863
20719
20706
20668
20759
20649
20640
20598
20609
20579
20559
20646
20527
20523
20487
20645
20454
20445
20416
20393
20422
20369
20355
20485
20327
20305
20273
20282
20263
20217
20255
20199
20170
20290
20143
20134
20101
20252
20074
20059
20031
20047
20020
19967
20014
19948
19932
20036
19899
19892
19859
19855
19837
19810
19852
19777
19753
19815
19721
19713
19860
19677
19646
19655
19625
19589
19618
19565
19543
19631
19513
19482
19550
19452
19428
19516
19405
19388
19572
19346
19332
19303
19335
19285
19249
19240
19220
19409
19191
19172
19330
19141
19132
19092
19220
19068
19055
19015
19007
19009
18967
19028
18943
18916
18902
18890
18899
18853
18993
18815
18783
18778
18748
18747
18726
18853
18685
18661
18644
18626
18652
18601
18764
18560
18523
18518
18492
18485
18460
18465
18426
18405
18397
18406
18363
18449
18338
18525
18297
18249
18253
18244
18271
18209
18355
18156
18119
18119
18088
18087
18287
18060
18153
18029
18191
17972
17941
17916
17903
17901
17892
18096
17847
17824
17793
17777
17796
17762
17965
17726
17689
17676
17644
17647
17854
17605
17563
17559
17534
17740
17509
17500
17448
17524
17437
17415
17388
17404
17358
17350
17563
17294
17298
17252
17253
17230
17204
17393
17172
17151
17127
17115
17103
17073
17156
17044
17015
17059
16988
16964
17201
16923
16887
17035
16851
16844
17039
16813
16813
16775
16755
16744
16764
16708
16714
16672
16685
16639
16671
16604
16685
16559
16549
16522
16603
16493
16599
16453
16630
16420
16569
16372
16564
16331
16301
16296
16249
16247
16219
16193
16197
16223
16165
16202
16124
16184
16092
16346
16045
16012
16002
15985
16019
15961
16048
15939
15993
15891
15871
15837
15816
15800
15779
15748
15743
15716
15710
15685
15668
15640
15648
15685
15599
15560
15536
15540
15505
15514
15464
15463
15443
15425
15390
15409
15511
15350
15321
15316
15285
15269
15249
15220
15223
15462
15197
15372
15172
15340
15128
15087
15055
15047
15031
15015
15171
14990
15078
14951
15140
14919
15160
14881
15170
14831
15012
14813
14927
14771
14723
14719
14885
14687
14660
14642
14623
14592
14566
14551
14548
14512
14529
14739
14491
14767
14440
14403
14390
14374
14476
14361
14657
14309
14263
14267
14234
14215
14198
14183
14161
14172
14147
14305
14117
14366
14065
14040
14044
14330
13990
13956
13943
13916
13908
13884
13862
13865
13908
13830
13787
13798
14065
13741
13720
13709
13671
13665
13635
13628
13598
13593
13571
13555
13514
13512
13492
13485
13470
13537
13441
13760
13388
13351
13343
13306
13304
13276
13261
13228
13238
13351
13214
13184
13156
13134
13119
13100
13066
13061
13042
13028
12995
12982
12982
13046
12942
13007
12913
12933
12874
12907
12826
12920
12813
13114
12772
12818
12734
12925
12675
12637
12623
12606
12592
12914
12559
12914
12527
12479
12473
12447
12423
12422
12395
12374
12354
12343
12322
12305
12278
12268
12256
12221
12232
12316
12175
12143
12129
12112
12087
12072
12046
12037
12014
12010
12086
11976
12201
11946
11973
11898
11879
11855
11855
11818
11798
11775
11772
12141
11741
11750
11700
11685
11659
11641
11618
11598
11578
11543
11523
11499
11485
11473
11451
11429
11407
11395
11380
11367
11363
11533
11322
11368
11273
11261
11250
11389
11220
11593
11181
11341
11145
11177
11098
11227
11057
11091
11012
11009
10981
10970
10924
10897
10885
10855
10843
10829
10795
10796
10773
10763
11165
10750
10716
10687
10700
10635
10622
10599
10570
10547
10539
10524
10502
10489
10464
10446
10422
10406
10424
10458
10375
10369
10325
10295
10262
10263
10235
10227
10611
10199
10152
10176
10287
10137
10235
10075
10045
10032
10004
9983
9972
9950
9943
9903
9911
9867
9870
9839
9834
9806
9790
9768
9756
10177
9755
9851
9683
9667
9644
9639
9614
9645
9559
9532
9528
9491
9463
9460
9439
9462
9701
9415
9786
9366
9497
9313
9305
9758
9264
9234
9231
9192
9169
9154
9150
9126
9116
9358
9097
9175
9060
9040
9002
8969
8964
8956
8912
8897
8865
8851
8832
8810
8791
8782
8767
8775
8789
8706
8668
8663
8643
8636
8601
8584
8583
8549
8575
8609
8522
8509
8459
8428
8420
8402
8383
8393
8481
8332
8292
8289
8270
8245
8252
8416
8213
8173
8160
8107
8102
8085
8069
8044
8030
8023
7995
7989
7967
7974
8046
7948
7928
7870
7838
7830
7821
8119
7782
7747
7727
7715
7701
7709
7676
7675
8134
7631
7563
7557
7549
7523
7514
7476
7484
7447
7448
7654
7417
7425
7374
7435
7323
7295
7269
7242
7236
7231
7202
7187
7155
7178
7169
7098
7098
7064
7066
7228
7047
6981
6965
6943
6924
6916
6884
6881
6859
6850
6813
6829
7214
6802
6853
6731
6689
6674
6658
6640
6659
6788
6611
6561
6534
6521
6502
6474
6454
6842
6422
6405
6375
6358
6386
6337
6345
6319
6559
6277
6388
6234
6236
6160
6179
6151
6451
6098
6256
6074
5995
6011
6485
5973
5924
5919
6452
5909
5998
5855
5833
5786
5748
5737
5701
5693
5647
5646
5629
5607
5595
5559
5534
5518
5495
5483
5445
5443
5448
5691
5414
5371
5332
5291
5285
5254
5256
5236
5215
5214
5634
5189
5285
5134
5158
5083
5046
5042
5027
4985
4953
4955
4924
4895
4889
5401
4834
4843
4793
4788
4768
4759
4720
4678
4708
4647
4623
4645
4596
4583
4563
4521
4581
4494
4481
4445
4418
4454
4384
4403
4356
4323
4751
4268
4284
4246
4660
4190
4197
4167
4127
4167
4098
4325
4059
4061
4008
4007
3994
3945
3931
3956
3895
3861
3855
4196
3811
3821
3771
4311
3715
3755
3690
3660
3692
3635
3595
3639
3549
3538
3560
3501
3483
3494
3453
3444
3404
3422
3378
3339
3315
3317
3369
3308
3809
3235
3204
3340
3174
3141
3728
3096
3089
3322
3048
3012
2992
3004
2955
2940
2961
2897
2888
2883
2841
2821
2827
2772
2749
2763
2718
2695
2684
2690
2663
2612
2603
2571
2574
2571
2515
2483
2474
2541
2448
2409
2385
2380
2884
2355
2306
2284
2305
2689
2235
2229
2195
2163
2197
2128
2108
2128
2069
2049
2065
2008
1981
2008
1944
1936
1924
1877
1887
1865
1824
1927
1801
1763
1880
1732
1712
1878
1682
1646
1859
1623
1599
1872
1559
1537
1752
1490
1460
1484
1444
1405
1575
1375
1368
1317
1313
1316
1267
1255
1253
1206
1208
1178
1135
1139
1119
1081
1085
1052
1013
1017
988
963
946
923
900
884
871
869
821
810
798
764
747
753
702
684
694
643
619
625
583
567
557
529
502
492
474
406
430
409
227
372
360
217
327
313
294
276
259
231
225
207
190
180
155
135
125
105
83
65
50
50
48
48
48
47
47
48
48
48
49
48
48
49
48
47
48
47
48
46
49
49
48
49
47
48
48
47
47
47
48
48
48
48
48
47
48
49
48
48
48
48
47
47
48
48
48
46
47
49
47
49
47
48
47
48
47
49
48
48
48
48
47
48
47
47
47
47
48
49
47
48
47
48
48
47
48
47
47
49
47
48
47
49
48
47
48
48
47
48
48
48
47
48
48
47
48
48
48
47
48
46
48
47
48
48
48
46
48
47
47
49
48
47
48
47
49
48
49
48
47
48
47
48
48
48
48
48
47
48
48
48
47
47
47
48
48
47
48
48
47
49
48
47
48
48
47
47
48
49
49
49
48
48
48
48
47
47
47
49
47
47
47
47
48
47
49
47
47
48
48
48
47
47
48
48
48
47
49
48
48
48
48
48
48
49
47
48
49
48
48
47
47
49
47
48
48
48
48
48
47
48
48
48
47
48
48
47
47
48
48
49
47
48
48
48
48
47
47
47
47
47
48
48
47
46
47
48
47
48
48
47
48
47
48
47
48
47
48
49
47
47
47
48
47
48
48
48
49
47
49
49
48
48
49
46
47
47
49
47
49
48
47
47
48
46
49
47
48
48
48
47
48
48
49
48
48
47
47
48
49
48
47
49
48
48
48
48
48
48
46
46
48
47
48
48
48
47
48
48
48
48
47
49
48
49
47
47
47
47
47
48
47
48
48
48
47
48
47
49
47
48
47
48
47
48
48
48
47
48
46
49
47
48
48
50
48
47
49
48
48
48
48
47
48
48
48
47
47
48
48
47
47
47
48
48
49
48
49
49
48
48
48
48
48
47
47
47
47
48
48
47
47
48
48
48
48
47
47
49
47
47
46
48
48
47
47
48
47
49
48
48
47
48
46
48
48
47
48
47
47
48
47
48
48
49
48
47
48
47
48
48
47
47
48
47
48
47
47
47
50
49
48
47
47
48
47
47
47
47
46
48
48
48
47
47
48
47
47
49
48
49
48
47
47
48
49
48
48
49
48
47
48
48
48
49
47
48
47
47
48
49
48
46
48
47
48
48
48
47
47
47
48
47
47
49
48
48
49
48
46
49
47
47
47
47
47
47
47
46
47
47
48
48
49
47
47
47
48
48
47
48
47
49
48
47
49
47
49
48
47
48
48
47
47
46
47
47
48
47
48
47
48
48
47
47
49
48
48
47
46
50
49
49
48
48
48
48
47
48
49
48
49
49
48
47
48
47
48
47
48
48
48
48
48
48
47
47
47
49
47
48
48
49
48
47
46
48
47
47
48
48
48
48
49
47
48
47
47
47
48
48
47
47
48
47
48
47
47
47
47
47
48
47
48
48
48
47
47
47
48
47
48
47
48
48
47
47
48
47
48
48
49
48
48
47
47
47
46
47
47
48
48
47
47
48
48
47
48
48
47
48
47
48
47
49
48
47
48
47
48
48
47
47
48
47
48
46
48
48
48
47
47
47
48
48
47
48
48
47
48
46
49
48
47
47
47
48
47
48
48
47
47
48
48
47
47
47
47
47
49
48
47
48
47
49
48
48
48
47
47
48
48
47
47
47
47
48
48
48
49
47
47
48
47
48
47
48
47
48
49
48
48
46
49
48
48
47
47
48
48
49
49
48
48
46
47
47
47
48
48
48
48
47
49
46
47
47
47
48
48
48
47
48
47
47
47
48
48
48
47
47
47
47
47
48
48
47
48
47
48
48
47
48
47
48
48
48
47
47
47
47
47
47
48
48
47
49
48
48
48
47
48
47
47
48
48
47
48
47
47
48
48
47
47
47
48
48
47
48
48
47
47
48
47
48
48
47
47
47
48
47
48
48
48
49
49
48
47
49
48
47
48
47
47
48
47
49
47
47
48
48
48
47
48
47
47
48
48
47
48
48
47
47
47
48
48
48
48
46
47
48
47
47
49
47
49
49
47
48
48
48
48
47
48
49
48
46
48
48
48
47
48
48
47
47
47
48
47
47
48
48
49
47
48
48
47
47
47
47
49
46
48
47
48
48
48
48
48
48
48
48
48
49
48
48
48
47
48
47
48
48
47
47
48
48
48
47
49
48
49
47
47
48
47
49
48
48
48
47
47
47
48
47
48
47
48
47
48
49
49
47
49
46
47
47
48
47
47
47
48
47
47
48
47
48
47
47
47
48
48
48
49
48
48
48
48
48
47
47
47
48
47
47
47
47
47
47
47
48
47
48
47
48
47
47
48
47
47
47
48
48
47
48
47
48
49
47
47
48
47
48
48
48
47
48
48
47
47
48
48
47
48
46
47
48
47
49
47
47
47
47
48
47
47
48
48
48
47
48
48
47
48
47
48
47
48
49
48
48
47
48
47
47
47
47
49
48
47
47
47
47
48
48
47
48
48
48
47
47
47
46
47
48
48
48
47
48
48
48
47
48
48
49
48
47
47
47
48
47
49
47
47
48
48
49
46
47
47
47
49
48
48
49
49
48
46
48
47
48
47
46
46
47
47
47
47
48
47
47
49
48
47
47
48
48
47
48
47
47
47
49
48
48
48
48
48
48
49
47
48
47
46
48
48
49
47
47
48
47
47
47
47
48
48
48
47
46
48
49
47
46
47
48
47
47
48
48
49
47
47
47
48
47
47
48
47
47
47
49
48
47
49
49
48
48
48
48
48
49
47
48
48
47
47
49
46
48
48
47
48
48
48
48
48
48
48
47
48
47
48
47
49
47
48
47
47
48
49
48
47
49
48
47
47
47
48
48
47
47
47
48
47
48
48
46
48
47
47
48
47
48
48
47
49
47
47
46
47
46
47
47
48
47
47
47
47
49
49
48
47
48
46
47
48
47
48
48
48
47
47
48
49
48
47
47
48
48
48
48
48
47
48
48
48
47
47
47
48
48
47
48
48
48
48
49
47
48
48
47
49
48
48
49
48
47
47
49
46
48
48
47
49
47
48
48
47
48
49
48
48
47
46
47
47
47
49
48
47
48
48
47
47
47
48
47
48
46
48
47
48
47
47
47
47
47
48
47
47
47
47
48
49
47
47
47
48
48
48
48
47
48
47
47
47
48
48
47
47
47
49
47
47
48
47
48
48
47
47
47
48
47
46
49
47
46
48
48
48
47
47
48
48
47
47
48
47
46
47
48
48
47
48
47
48
47
47
49
48
48
48
49
47
46
48
47
48
48
48
48
48
49
48
49
48
46
47
47
47
48
48
47
48
47
47
48
48
48
47
48
49
47
48
46
49
46
48
49
48
47
47
47
47
49
47
48
48
47
47
48
47
48
48
48
48
48
47
48
47
48
48
47
47
48
49
47
47
47
48
48
48
48
47
48
47
47
47
47
48
47
47
47
47
47
49
47
47
48
48
48
47
49
47
48
48
48
48
46
49
48
47
47
47
47
48
47
48
47
48
48
48
47
48
47
48
47
47
48
48
48
48
47
47
47
47
47
47
48
47
47
48
47
48
47
48
46
47
48
49
47
47
47
48
47
48
47
46
49
48
47
49
48
47
48
48
48
47
48
48
48
48
47
48
47
47
48
47
47
48
48
47
46
48
47
47
48
48
47
48
47
47
47
48
48
48
48
47
48
48
47
47
47
47
48
48
47
47
49
47
48
48
47
49
48
47
47
47
48
48
46
48
46
47
47
48
48
46
47
47
48
48
47
47
48
47
49
48
48
47
47
48
47
48
48
48
48
47
48
47
47
48
49
47
47
48
47
49
48
48
48
46
47
49
48
47
48
48
48
48
47
48
47
47
48
47
47
47
48
47
48
48
49
48
48
48
49
47
48
47
47
47
49
47
47
47
48
48
47
48
47
47
48
48
48
47
47
47
47
47
47
48
48
47
47
47
47
48
48
48
47
49
47
47
49
48
47
48
47
47
48
48
48
47
47
48
47
48
47
47
48
47
48
47
48
47
48
48
49
48
48
47
46
47
47
47
47
47
48
47
47
48
48
48
48
48
47
47
48
48
48
48
46
48
48
48
48
47
47
48
47
48
48
47
48
48
48
47
48
47
49
48
47
48
49
48
47
47
48
47
47
47
47
47
46
47
48
49
48
49
48
47
48
48
47
48
48
47
48
49
49
49
48
46
48
48
47
47
49
47
47
48
47
47
48
49
47
47
48
48
48
48
48
48
47
47
48
47
48
48
48
48
48
48
48
47
47
47
46
47
47
47
46
48
47
47
47
48
48
48
49
47
48
48
48
46
47
47
47
48
47
46
47
48
48
48
49
47
48
49
47
48
47
47
48
47
47
47
49
48
48
48
47
48
47
47
48
48
47
47
47
48
48
48
48
47
48
47
46
47
47
48
48
47
47
48
47
48
47
47
48
48
48
48
47
48
47
48
49
48
47
49
48
47
49
48
48
49
47
47
48
47
48
48
48
48
47
48
46
47
47
48
48
48
48
47
47
47
47
47
47
48
48
48
47
47
48
48
49
48
49
47
47
48
48
48
47
48
47
48
47
48
48
48
47
48
48
47
47
47
48
48
47
47
47
48
48
48
48
48
47
49
47
48
47
48
48
48
48
47
47
47
48
47
47
49
48
47
48
46
47
47
47
47
47
48
48
47
47
47
48
49
48
48
47
49
48
47
48
48
48
47
48
47
47
47
47
47
47
47
46
48
48
48
47
47
48
47
47
47
48
47
48
48
48
47
48
48
47
48
48
47
47
47
47
47
48
48
48
47
48
47
47
48
47
47
46
47
48
48
46
48
47
48
48
48
49
47
47
48
47
48
48
49
47
48
48
47
48
48
48
47
48
46
49
47
47
48
48
48
48
47
47
48
48
48
47
48
48
46
48
47
47
48
47
47
48
47
47
47
48
47
48
48
48
47
48
47
48
48
47
48
47
47
47
48
47
48
48
47
48
46
47
49
48
47
48
47
48
49
47
47
47
47
48
48
48
47
46
48
47
48
47
48
47
48
48
48
48
48
47
47
48
47
47
47
47
47
47
47
47
47
47
46
48
47
48
48
48
47
48
47
47
48
48
47
48
48
47
48
47
49
48
47
47
48
47
47
48
47
49
48
47
48
49
48
48
49
48
48
48
47
48
47
48
47
48
48
48
47
48
48
48
47
48
47
48
48
47
48
47
48
47
47
48
49
47
49
47
48
48
48
47
49
48
47
47
48
48
48
47
48
47
49
48
47
47
47
48
48
48
48
47
49
47
47
48
46
49
47
48
48
47
47
47
48
47
48
47
47
48
48
46
48
48
47
48
47
48
47
47
47
48
47
48
47
47
47
48
47
48
47
48
47
47
48
47
48
46
47
48
49
48
48
47
47
48
47
47
47
48
47
48
47
48
47
48
47
48
48
46
47
47
46
46
47
47
48
47
47
48
48
48
48
47
48
47
47
47
48
46
48
47
49
48
48
48
48
48
47
46
49
48
47
49
47
47
48
48
48
49
48
48
47
48
48
47
47
47
47
47
48
48
47
47
47
48
47
49
48
48
46
47
47
47
47
47
47
47
48
48
48
48
48
48
49
48
47
46
48
48
49
47
47
47
48
47
48
48
47
47
48
47
48
48
48
47
48
48
48
47
48
47
48
47
46
48
48
50
48
47
47
47
47
47
49
48
48
48
48
47
48
47
48
49
47
48
48
47
47
48
48
48
48
49
47
47
48
47
48
47
48
49
47
47
47
48
48
49
48
48
48
48
49
49
48
48
47
49
47
46
48
48
49
49
48
48
47
48
47
48
47
47
46
48
47
48
48
47
48
48
48
47
48
48
47
48
47
49
48
48
48
47
47
47
48
47
48
48
47
50
46
48
48
47
49
48
47
47
47
47
47
47
47
48
47
48
47
47
47
46
47
47
48
48
48
48
47
49
48
48
48
48
48
48
47
49
48
49
50
48
47
47
48
48
47
48
47
48
46
48
48
48
47
48
48
47
49
47
48
48
48
47
48
47
48
47
48
48
47
48
48
48
47
48
47
47
49
48
48
48
47
48
48
49
47
48
48
47
47
48
48
48
47
47
48
48
48
48
49
47
47
47
47
49
48
46
47
47
47
48
48
48
48
47
48
47
47
48
49
49
47
48
47
48
49
47
47
47
47
49
48
48
46
48
48
48
48
47
47
48
47
49
48
47
46
48
47
47
47
47
48
47
47
47
48
48
48
46
48
47
47
47
48
48
47
47
47
47
48
48
47
47
48
47
47
47
47
48
47
48
47
48
48
47
47
49
47
48
48
48
48
48
48
48
47
47
47
48
48
49
48
49
47
48
48
50
47
47
49
49
47
47
48
49
48
49
49
47
47
48
47
48
48
48
47
48
47
48
47
48
47
47
48
48
48
47
47
48
49
48
49
49
47
47
49
48
48
48
48
48
48
47
48
48
48
47
48
47
49
48
48
48
48
47
47
47
48
47
48
48
47
47
48
48
49
47
48
47
47
48
49
48
47
49
48
47
48
48
47
48
47
47
48
47
48
48
47
48
48
48
48
48
47
48
49
48
47
48
48
49
48
48
48
49
48
48
48
48
47
47
48
49
49
48
48
48
48
47
48
48
48
47
47
48
48
47
47
48
47
48
47
49
48
48
48
49
48
48
47
47
48
47
47
47
47
46
47
48
47
47
47
48
48
47
47
47
47
48
48
48
47
48
48
49
48
48
47
47
47
48
47
47
48
47
47
48
47
48
49
47
48
48
49
47
47
47
48
47
48
48
47
47
46
47
48
47
48
47
48
48
46
48
49
49
47
47
47
47
49
47
47
48
47
48
47
48
47
48
46
48
47
47
47
47
48
47
48
47
48
47
47
48
48
47
48
48
47
48
47
49
48
48
47
47
49
47
47
48
48
46
47
48
48
47
46
47
49
48
48
48
47
48
48
48
47
47
47
47
49
47
48
48
47
47
48
47
48
47
47
47
48
47
46
49
49
47
47
48
48
47
47
47
47
48
48
48
47
48
48
48
47
48
48
48
48
48
48
47
47
49
48
46
47
49
48
49
48
48
48
47
47
48
47
48
48
48
47
47
48
48
49
47
49
48
47
47
48
49
48
48
47
47
48
47
47
49
47
47
47
47
47
48
48
49
48
48
48
48
47
48
47
48
47
48
48
49
48
48
47
48
48
47
47
48
48
47
47
47
47
47
47
49
47
48
47
48
47
48
49
48
48
48
48
48
47
48
48
46
48
48
47
47
48
48
47
48
47
48
48
47
48
47
47
48
48
47
47
47
48
48
49
49
48
49
47
47
48
48
48
49
47
47
48
47
47
49
48
47
47
49
47
47
47
48
47
48
47
48
48
47
48
48
48
47
47
46
48
48
48
46
48
48
47
49
48
49
49
47
48
48
47
49
48
47
49
47
48
49
49
48
48
47
48
47
47
48
47
47
50
47
48
49
48
47
47
47
47
48
48
47
47
48
48
49
47
48
48
48
48
48
48
48
49
49
48
48
48
47
47
48
48
47
47
48
48
48
47
47
49
48
48
48
48
47
47
49
48
48
47
48
48
47
47
48
48
47
48
47
48
48
48
48
48
48
48
49
48
48
48
49
49
49
48
47
48
48
48
48
47
48
48
48
48
47
47
47
47
48
48
47
49
47
48
48
48
47
47
47
48
47
48
47
47
49
49
47
48
47
47
47
47
48
47
48
48
49
48
50
49
47
47
47
48
49
48
47
49
48
48
46
48
46
48
48
47
47
47
48
48
48
48
47
47
47
47
47
48
47
47
48
48
46
48
47
48
48
48
49
48
47
48
48
47
48
49
48
48
47
48
49
47
48
48
47
48
48
48
47
49
47
48
48
47
48
48
48
47
49
48
47
47
48
48
47
47
47
47
47
46
47
48
48
48
49
50
48
48
47
49
47
48
48
48
47
48
48
48
49
49
49
48
47
48
49
47
47
48
46
48
49
49
49
49
47
47
49
49
69
86
92
94
101
107
115
120
128
132
140
150
156
159
167
172
166
183
192
196
203
208
215
220
228
223
246
247
249
259
260
274
234
282
293
293
303
298
325
325
325
340
337
346
351
366
365
303
394
375
402
389
405
410
420
423
440
442
451
458
465
466
477
471
504
495
510
507
535
475
568
327
582
561
559
581
584
593
593
606
613
627
631
634
638
651
658
668
678
691
695
694
703
719
720
753
740
756
753
762
591
780
786
797
798
814
816
833
825
850
858
864
880
720
885
889
906
901
923
948
930
947
941
963
966
968
988
984
1005
996
1017
1008
1032
1050
1070
1071
1090
1103
1047
1091
1093
1119
1106
1131
1125
1156
1141
1156
1155
1175
1184
1214
1232
1283
1211
1221
1229
1225
1254
1251
1264
1263
1288
1279
1296
1329
1392
1348
1322
1348
1344
1355
1353
1375
1367
1388
1389
1400
1394
1418
1418
1522
1454
1427
1453
1451
1467
1462
1485
1473
1493
1479
1509
1495
1513
1508
1533
1525
1542
1531
1544
1561
1570
1572
1594
1584
1598
1620
1609
1604
1623
1614
1640
1638
1652
1645
1665
1662
1681
1669
1688
1721
1991
1722
1709
1723
1709
1738
1729
1754
1747
1765
1781
1843
1809
1967
1836
1800
1816
1809
1820
1865
2239
1855
1845
1858
1875
1946
1905
1880
1887
1901
2041
1921
1913
1933
1928
1937
1946
1949
1990
2400
1989
1971
2026
1996
2020
2002
2016
2035
2055
2080
2149
2095
2158
2099
2219
2129
2539
2108
2103
2124
2117
2129
2139
2154
2142
2150
2180
2692
2191
2172
2210
2239
2204
2221
2215
2231
2234
2238
2250
2259
2261
2266
2296
2312
2317
2319
2338
2373
2346
2463
2392
2890
2372
2361
2358
2375
2452
2435
2402
2411
2414
2433
2450
2579
2501
2631
2478
2477
2494
2475
2492
2515
2732
2535
2522
2540
2550
2567
2562
2573
2569
2570
2585
2600
2646
2614
2620
2623
2629
2660
3045
2694
2669
2690
2683
2706
2697
2723
2722
2767
2849
2745
2765
2778
2912
2808
3328
2803
2798
2816
2810
2812
2826
2832
2879
3323
2871
2861
2866
2887
2913
2922
2925
2946
3008
2976
3256
2965
2959
2953
2988
3095
3001
3007
3008
3008
3013
3039
3388
3056
3055
3069
3075
3081
3127
3406
3142
3120
3127
3129
3128
3159
3252
3203
3179
3195
3182
3176
3244
3345
3235
3228
3240
3285
3266
3269
3273
3295
3345
3315
3318
3321
3331
3364
3603
3370
3363
3373
3371
3391
3391
3405
3404
3417
3429
3434
3448
3464
3470
3467
3489
3500
3524
3715
3565
3524
3537
3552
3543
3556
3566
3597
3749
3651
3597
3609
3654
3974
3678
3663
3677
3673
3693
3695
3704
3711
3702
3735
3801
3773
3759
3758
3776
3769
3805
3787
3811
3825
3825
3847
3849
3869
3869
3897
3886
3892
3906
3917
3954
4272
3958
3964
3995
4291
4025
4085
4028
4019
4041
4406
4063
4049
4051
4086
4202
4139
4106
4097
4136
4205
4188
4535
4175
4182
4189
4184
4206
4202
4215
4219
4251
4253
4261
4255
4277
4288
4283
4349
4551
4366
4337
4366
4356
4360
4389
4404
4401
4424
4418
4413
4444
4432
4466
4479
4506
4504
4520
4501
4525
4549
4581
4863
4606
4585
4605
4588
4617
4608
4614
4634
4642
4695
4934
4713
5279
4715
4711
4709
4719
4724
4748
4742
4770
4794
4801
4791
4838
5287
4883
4842
4869
4866
4872
4880
4887
4906
4901
4934
4933
4973
5578
4988
4971
5000
5001
5009
5013
5008
5047
5060
5077
5101
5102
5082
5097
5094
5127
5135
5135
5159
5175
5158
5194
5202
5225
5552
5237
5238
5242
5263
5301
5326
5691
5317
5306
5308
5334
5341
5380
5698
5388
5375
5414
5413
5415
5435
5421
5451
5439
5484
5471
5508
5554
5554
5928
5571
6031
5585
5907
5605
5614
5618
5619
5650
5733
5671
5675
5693
6031
5727
5693
5725
5720
5735
5735
5759
5758
5762
5770
5780
5802
5807
5811
5838
5847
5882
5868
5897
6424
5944
5923
5925
5930
5944
5960
5967
5979
5979
5994
6016
6021
6023
6044
6052
6053
6086
6246
6126
6110
6121
6128
6130
6164
6271
6218
6191
6203
6203
6226
6233
6252
6255
6276
6268
6276
6300
6302
6326
6324
6340
6334
6365
6364
6401
6396
6397
6418
6432
6434
6451
6470
6471
6495
7069
6545
6525
6548
6538
6554
6565
6580
6589
6612
6606
6633
6628
6651
6652
6678
6668
6698
6691
6700
6751
6727
6735
6769
6907
6823
7191
6830
6811
6823
6824
6852
6859
6864
6912
7145
6950
7279
6956
7250
6984
7435
6981
6977
6983
7013
7068
7071
7472
7084
7322
7100
7559
7099
7107
7108
7148
7697
7162
7179
7320
7206
7197
7215
7211
7219
7276
7737
7282
7787
7335
7425
7334
7335
7341
7374
7367
7382
7406
7435
7423
7478
7473
7438
7466
7451
7476
7469
7482
7496
7494
7525
7564
7587
7870
7601
8109
7611
7942
7666
7961
7679
7720
7670
7687
7698
7715
7745
7817
7771
8179
7777
7770
7789
7785
7817
7813
7821
7843
7840
7849
7869
7880
7899
7893
7926
8466
7955
7941
7979
7972
7978
7992
8019
8031
8043
8045
8055
8065
8077
8101
8158
8155
8495
8183
8468
8202
8469
8206
8200
8218
8202
8225
8231
8252
8260
8270
8288
8319
8380
8353
8471
8378
8723
8375
8386
8413
8549
8462
8677
8475
8625
8495
8871
8500
8500
8517
8521
8522
8558
8624
8609
8830
8620
9132
8652
8636
8655
8659
8653
8708
9156
8713
8702
8719
8757
8855
8788
8769
8798
8788
8796
8828
9018
8853
8839
8887
8910
9327
8912
8903
8940
8937
8943
8961
9074
9014
9492
9014
9003
9012
9052
9166
9099
9211
9110
9088
9117
9106
9117
9134
9176
9190
9165
9171
9170
9183
9189
9205
9212
9231
9276
9749
9258
9275
9285
9281
9301
9341
9767
9351
9333
9344
9359
9372
9392
9510
9436
9567
9435
9418
9447
9447
9459
9477
9559
9521
9596
9549
9524
9538
9549
9549
9559
9565
9585
9590
9592
9611
9625
9631
9665
9748
9703
9678
9682
9680
9698
9729
9731
9738
9755
9775
9798
9803
9862
9839
10085
9839
9831
9855
9857
9861
9892
9989
9916
9914
9909
9967
9935
9957
9991
9966
9990
9988
10003
10023
10066
10064
10151
10083
10349
10086
10081
10101
10130
10199
10166
10143
10165
10164
10173
10191
10335
10237
10226
10220
10271
10578
10300
10280
10292
10299
10310
10315
10447
10353
10352
10373
10371
10384
10387
10409
10424
10417
10445
10461
10493
10630
10521
10490
10501
10516
10533
10565
10755
10598
10567
10591
10593
10608
10655
10626
10651
10638
10696
10703
10691
10697
10712
10752
10767
11019
10764
10758
10777
10823
11265
10820
10807
10825
10874
10855
10868
10868
10905
10926
11362
10927
10932
10936
10956
11039
11011
10989
10997
11033
11356
11052
11049
11060
11056
11085
11101
11130
11133
11336
11142
11153
11166
11197
11182
11207
11204
11211
11229
11282
11284
11540
11299
11702
11313
11310
11326
11333
11359
11389
11367
11381
11390
11393
11429
11434
11454
11480
11487
11647
11504
11494
11504
11516
11536
11557
11641
11613
12009
11595
11599
11621
11620
11634
11655
11683
11679
11711
11709
11752
11742
11911
11768
11905
11782
12214
11815
12048
11842
11892
11860
12007
11881
12014
11918
12140
11919
11988
11951
12025
11990
12175
12000
12377
12020
12341
12055
12098
12071
12117
12086
12081
12097
12117
12133
12155
12143
12147
12174
12263
12225
12189
12225
12219
12243
12242
12270
12272
12288
12301
12362
12348
12335
12338
12370
12455
12410
12402
12412
12413
12431
12454
12457
12504
12824
12506
12510
12525
12516
12547
12558
12571
12569
12617
12641
12853
12653
12854
12679
12958
12709
12798
12721
12769
12769
13082
12774
12777
12774
12789
12806
12819
12833
12838
12870
13122
12904
12901
12921
12916
12948
12938
12975
12971
12991
12993
13012
13028
13037
13051
13066
13102
13081
13218
13127
13119
13143
13148
13166
13186
13287
13227
13457
13243
13239
13255
13262
13278
13305
13415
13347
13332
13347
13347
13374
13386
13421
13436
13511
13460
13444
13473
13471
13480
13531
13519
13525
13541
13543
13571
13600
13597
13645
13641
14034
13658
13647
13670
13678
13703
13815
13730
13733
13759
13756
13791
14131
13820
14133
13835
13834
13860
13876
13894
13903
13923
13919
13935
13956
13957
13983
14035
14022
14009
14103
14043
14065
14065
14091
14395
14113
14118
14139
14132
14155
14171
14225
14222
14518
14237
14230
14262
14261
14294
14303
14438
14334
14320
14342
14363
14390
14401
14557
14439
14425
14446
14454
14489
14509
14484
14504
14510
14526
14538
14623
14599
14570
14594
14598
14663
14668
14895
14708
15034
14695
14701
14713
14745
15089
14759
14765
14785
14789
14849
14831
14838
14851
14857
14895
14903
15020
14941
15249
14949
14955
14975
15007
15217
15020
15025
15037
15057
15153
15095
15095
15101
15111
15271
15150
15146
15181
15217
15308
15207
15221
15279
15271
15491
15291
15277
15306
15311
15334
15356
15554
15381
15389
15471
15442
15417
15439
15444
15465
15484
15591
15515
15507
15545
15574
15749
15575
15579
15595
15622
15757
15650
15645
15665
15670
15682
15713
15747
15757
15827
15780
15940
15791
15791
15808
15834
16028
15864
15868
15889
15893
15917
15919
15942
15953
15996
15994
16044
16020
16175
16043
16037
16052
16061
16091
16113
16179
16159
16423
16149
16159
16173
16180
16210
16228
16261
16250
16366
16279
16282
16306
16308
16325
16335
16356
16370
16389
16415
16538
16447
16630
16468
16691
16506
16761
16517
16508
16540
16531
16558
16562
16568
16590
16604
16634
16773
16673
16655
16959
16737
16706
16727
17031
16759
16782
16765
16795
16797
16819
16814
16847
16854
16874
16867
