EGG
920
924
927
926
963
943
943
955
949
954
971
969
966
1013
985
989
1003
909
988
1001
994
1006
1043
1022
1030
1033
1041
1029
1027
1052
1070
1057
1091
1072
1075
1076
1067
1071
1076
1087
1088
1086
1092
1093
1101
1152
1127
1131
1160
1176
1156
1149
1152
1150
1154
1163
1172
1200
1191
1162
1161
1178
1174
1183
1193
1262
1252
1245
1238
1231
1225
1228
1234
1241
1244
1244
1252
1263
1290
1259
1255
1253
1271
1275
1275
1394
1302
1305
1316
1332
1308
1302
1316
1315
1319
1469
1422
1355
1347
1359
1364
1397
1373
1369
1368
1372
1518
1406
1409
1404
1409
1414
1420
1427
1464
1426
1420
1437
1444
1646
1580
1564
1489
1474
1483
1479
1508
1523
1510
1499
1496
1498
1511
1515
1519
1523
1534
1537
1543
1548
1557
1565
1767
1831
1780
1677
1735
1701
1741
1709
1729
1859
1760
1618
1645
1665
1648
1655
1814
1657
1658
1706
1677
1810
1686
1714
1699
1698
1754
1717
1732
1721
1725
1762
1760
1752
1751
1753
1782
1772
1871
1788
1784
1821
1811
1797
1814
1819
1836
1903
1831
1860
1860
1862
1862
1852
1892
1885
1986
1881
1904
1915
1988
1911
1964
1939
1988
1932
1975
1956
2312
1956
1985
1971
1979
1986
2027
2008
2005
2021
2023
2183
2031
2062
2058
2086
2036
2078
2071
2064
2469
2076
2085
2228
2082
2091
2133
2113
2160
2114
2120
2166
2136
2234
2138
2182
2150
2219
2158
2182
2181
2269
2178
2190
2200
2188
2206
2214
2228
2213
2565
2213
2276
2234
2701
2241
2283
2270
2264
2385
2260
2271
2323
2305
2300
2305
2329
2325
2313
2781
2326
2396
2335
2349
2355
2383
2364
2612
2371
2392
2413
2398
2437
2409
2419
2438
2420
2573
2429
2435
2447
2491
2473
2467
2492
2911
2478
2490
2499
2545
2528
2513
2529
2909
2520
2533
2550
2585
2613
2576
2561
2597
3133
2591
2616
2641
2626
2625
2624
2688
2630
2631
2663
2666
2671
2664
2688
2879
2682
2701
2743
2719
2707
3172
2725
2740
2784
2743
2766
2757
2762
2779
2819
2789
2800
2949
2801
2801
2825
2852
2846
2849
2849
2848
3244
2867
2871
2910
2889
2882
2913
3324
2916
2923
2955
2933
3019
2950
2953
2989
2977
2967
3049
3442
2990
2982
3044
3026
3020
3018
3131
3053
3049
3066
3104
3096
3079
3174
3304
3087
3148
3123
3140
3541
3137
3175
3158
3164
3248
3177
3173
3206
3235
3202
3206
3218
3226
3269
3256
3240
3249
3255
3294
3292
3269
3775
3295
3338
3330
3325
3325
3347
3367
3344
3959
3356
3404
3384
3393
3922
3389
3451
3444
3421
3454
3444
3485
3479
3460
3480
3502
3505
3492
4081
3513
3557
3528
3629
3543
3570
3578
3579
4164
3581
3630
3597
4164
3622
3663
3635
4037
3656
3682
3679
3670
3754
3685
3717
3733
3720
3784
3740
3741
3781
3778
3809
3780
3784
3817
3812
3801
4177
3834
3834
3869
3872
3852
4147
3868
3904
3910
3889
3922
3923
3920
3951
3959
3973
3957
3973
4181
4583
4001
4011
4064
4036
4024
4500
4049
4075
4107
4088
4068
4124
4541
4101
4119
4171
4153
4151
4145
4302
4154
4177
4196
4200
4204
4226
4833
4830
4303
4254
4255
4285
4291
4334
4340
4309
4300
4325
4323
4566
4350
4357
4368
4387
4405
4401
4416
4449
4452
4455
4455
4441
4458
4465
4472
4675
4765
4520
4511
4535
4547
4581
4578
4574
4557
4570
4578
4589
4607
4618
4842
4651
4636
4643
4658
4676
4702
4698
4708
4747
4754
4756
4754
4743
4756
5239
4955
4797
4792
4787
4797
4810
4839
4841
4841
4857
4900
4900
4908
4897
4897
4919
5446
5049
4996
4992
5199
5238
5230
5107
5239
5010
5005
5042
5085
5075
5076
5082
5074
5079
5422
5104
5118
5149
5173
5157
5155
5162
5179
5182
5186
5434
5212
5232
5250
5269
5304
5275
5276
5276
5299
5309
5307
5317
5327
5342
5344
5356
5369
5375
5397
5396
5413
5427
5732
5847
5804
5702
5479
5484
5516
5520
5550
5564
5575
5587
5579
5593
5588
5581
5599
5604
5652
5625
5653
5677
5700
5692
5702
5692
5704
5718
5722
5735
6181
5950
5784
5773
5783
5796
5820
5860
5849
5845
5841
5857
6152
6034
5923
5903
5924
5937
5988
5983
5982
5968
5974
5982
6005
6018
6025
6035
6049
6439
6297
6157
6083
6106
6119
6117
6142
6169
6154
6153
6183
6198
6211
6218
6247
6255
6279
6291
6306
6310
6324
6332
6341
6348
6350
6355
6356
6363
6364
6389
6395
6411
6762
6848
6964
6660
6566
6559
6584
6499
6505
6520
6540
6559
6565
6583
6598
6633
6638
6630
6630
6639
6661
6681
6708
6724
6730
6728
6720
6722
6729
6737
6764
6796
6820
6830
6842
6826
6829
6837
6856
6858
6873
6917
6917
6895
6895
6903
6924
6923
6940
6949
7253
7170
7069
7012
6998
7007
7028
7038
7044
7051
7062
7078
7090
7107
7129
7143
7131
7125
7136
7534
7188
7157
7172
7183
7184
7189
7216
7224
7238
7251
7262
7275
7279
7288
7306
7324
7326
7322
7334
7345
7375
7489
7598
7692
7830
7900
7689
7595
7543
7594
7845
7951
7490
7982
7965
7959
7526
7537
7549
7560
7564
7579
7595
7617
7626
7652
7671
7665
7685
7697
7694
7706
7730
7732
7741
7738
7743
7754
7764
7774
7783
7797
8035
7845
7821
7842
7859
7900
7885
7886
7886
7894
7899
7919
7932
7939
7954
7961
7970
7986
8039
8022
8026
8170
8039
8050
8079
8105
8082
8105
8245
8111
8150
8151
8164
8151
8172
8213
8197
8202
8437
8228
8225
8244
8273
8313
8285
8305
8483
8308
8313
8340
8363
8371
8374
8385
8757
8391
8399
8420
8456
8485
8482
8470
8470
8490
8641
8509
8519
8527
8559
8581
8575
8572
8627
8604
8614
8647
8639
8645
8803
8672
8697
8723
8713
8718
8732
8844
9160
8750
8756
8805
8818
8800
8923
8827
8838
8891
8879
8873
8911
9225
8909
8905
8944
8949
8940
8975
9350
8993
9010
9023
9020
9103
9033
9055
9102
9098
9089
9121
9285
9129
9137
9185
9172
9165
9642
9185
9201
9252
9242
9241
9417
9268
9297
9300
9308
9476
9316
9340
9366
9400
9381
9380
9415
9547
9630
9427
9459
9490
9484
9487
9515
9895
9518
9529
9556
9593
9583
9581
9604
9701
10080
9638
9639
9684
9693
9684
9696
9954
9727
9731
9760
9797
9773
9778
9853
9807
9817
9826
9840
9863
9887
9919
9904
9902
9929
9950
10051
10037
9970
9978
9988
10007
10038
10075
10059
10058
10100
10299
10086
10106
10129
10176
10155
10173
10649
10184
10213
10258
10232
10239
10245
10276
10311
10313
10315
10346
10327
10343
10363
10407
10377
10445
10828
10410
10437
10453
10474
10515
10507
10503
10579
10874
10538
10558
10581
10636
10615
10615
10765
10637
10656
10660
10679
10693
10731
10750
10740
10746
10811
11218
10790
10794
10847
10860
10865
10856
10875
11150
10890
10927
10967
10951
10984
11237
10980
10988
10999
11033
11063
11094
11076
11085
11090
11131
11254
11450
11280
11162
11177
11215
11232
11240
11259
11289
11295
11287
11313
11324
11333
11338
11351
11367
11480
11400
11409
11414
11434
11461
11490
11510
11539
11519
11528
11571
11782
11563
11580
11596
11614
11628
11668
11675
11672
11720
12069
11703
11722
11775
11773
11772
11813
11961
11823
11832
11845
11864
11877
11895
11918
11958
11950
11969
11974
11985
12023
12066
12361
12052
12053
12073
12105
12150
12132
12156
12159
12164
12195
12242
12441
12228
12252
12299
12292
12302
12670
12326
12372
12366
12476
12394
12402
12437
12458
12453
12582
12487
12495
12550
12540
12871
12566
12599
12619
12618
12635
12678
12820
12673
12692
12710
12731
12769
12799
12819
12803
12810
12834
12843
12873
12943
12974
13082
13308
12950
12957
12961
12993
13012
13053
13055
13055
13142
13188
13254
13315
13133
13149
13174
13214
13247
13229
13237
13274
13316
13465
13684
13327
13335
13396
13382
13395
13426
13530
13650
13444
13467
13495
13525
13564
13561
13570
13580
13609
13661
13791
13647
13669
13676
13690
13702
13748
13787
13798
13799
13812
13823
13835
13858
13900
14059
13901
13905
13927
13971
14006
14002
13999
14051
14156
14286
14425
14063
14112
14125
14140
14156
14190
14215
14218
14223
14255
14495
14263
14298
14340
14321
14374
14583
14363
14380
14405
14435
14458
14452
14455
14532
14796
14531
14526
14538
14557
14596
14615
14608
14629
14693
14650
14663
14694
14687
14918
14731
14778
14771
14790
15119
14792
14831
14877
14855
14970
14881
14900
14949
14948
14961
15214
14967
15005
15038
15047
15047
15281
15083
15099
15117
15147
15153
15175
15196
15479
15204
15232
15277
15276
15276
15294
15380
15322
15335
15378
15398
15396
15487
15420
15449
15458
15476
15723
15501
15535
15544
15572
15861
15577
15603
15632
15668
15663
15667
15722
15887
15716
15740
15783
15772
15818
16091
15814
15863
15853
15862
15972
15889
15902
15938
15978
15975
15983
16012
16115
16302
16045
16054
16088
16127
16114
16134
16145
16183
16303
16189
16221
16249
16263
16263
16283
16351
16543
16320
16324
16345
16389
16422
16420
16422
16511
16740
16461
16490
16511
16548
16558
16565
16772
16582
16614
16639
16646
16782
16666
16708
16734
16727
16738
16833
16801
16781
16818
16833
16844
17079
16867
16903
16912
16922
17125
16959
16983
17007
17004
17163
17022
17059
17098
17094
17108
17168
17141
17143
17159
17209
17209
17217
17239
17261
17355
17270
17295
17316
17344
17381
17371
17379
17478
17655
17415
17441
17489
17485
17500
17519
17612
17744
17546
17564
17599
17636
17639
17651
17649
17751
17684
17703
17733
17745
17768
17959
17783
17809
17846
17842
18007
17857
17873
17910
17946
17943
17955
17978
18032
18067
18180
18033
18047
18066
18101
18119
18118
18140
18197
18367
18176
18195
18215
18249
18255
18268
18284
18316
18453
18309
18342
18364
18386
18398
18428
18580
18429
18454
18503
18495
18510
18623
18532
18554
18579
18586
18638
18795
18631
18662
18676
18684
18751
18957
18727
18750
18780
18780
18797
18908
18823
18834
18876
18877
18911
19116
18918
18941
18975
18985
18985
19029
19092
19039
19039
19083
19085
19097
19122
19180
19314
19146
19168
19207
19210
19218
19251
19412
19263
19294
19298
19317
19335
19421
19551
19364
19391
19409
19437
19453
19460
19484
19483
19515
19527
19558
19697
19543
19563
19584
19612
19636
19637
19641
19703
19807
19686
19697
19740
19761
19759
19772
19783
19892
19799
19820
19846
19879
19895
19890
19903
19932
19983
20162
19951
19967
19994
20013
20032
20044
20070
20101
20119
20287
20084
20106
20148
20160
20192
20188
20204
20220
20286
20438
20257
20256
20291
20314
20319
20339
20366
20530
20358
20399
20415
20419
20445
20500
20606
20465
20487
20519
20516
20533
20620
20556
20554
20596
20611
20617
20619
20640
20697
20788
20674
20687
20708
20730
20798
20902
20763
20773
20791
20826
20847
20826
20853
20901
20963
21033
20891
20914
20941
20961
20978
20972
20987
21015
21062
21115
21187
21053
21050
21077
21110
21125
21143
21141
21144
21167
21194
21268
21196
21214
21237
21252
21262
21292
21405
21287
21303
21311
21337
21370
21367
21384
21433
21583
21410
21429
21467
21463
21471
21525
21483
21507
21532
21549
21556
21555
21612
21673
21782
21595
21631
21647
21655
21671
21678
21686
21714
21736
21777
21858
21734
21756
21771
21803
21815
21829
21828
21842
21863
21899
21960
21878
21891
21905
21925
21941
21951
21980
21972
21983
22001
22038
22078
22023
22036
22059
22086
22080
22092
22107
22137
22190
22273
22148
22166
22191
22204
22204
22230
22255
22359
22239
22251
22263
22292
22301
22311
22330
22389
22490
22343
22363
22369
22404
22410
22425
22422
22426
22459
22491
22530
22568
22475
22495
22513
22535
22543
22546
22602
22557
22583
22588
22598
22640
22604
22618
22652
22647
22661
22664
22684
22735
22853
22698
22706
22722
22733
22748
22759
22763
22772
22816
22868
22786
22801
22814
22844
22835
22850
22870
22929
22965
22873
22892
22899
22910
22913
22924
22941
22964
23031
22943
22961
22980
22991
22991
23005
23021
23054
23139
23030
23058
23065
23069
23113
23148
23078
23109
23111
23147
23126
23135
23147
23163
23210
23159
23190
23191
23290
23196
23219
23221
23253
23191
23238
23255
23265
23382
23261
23281
23287
23307
23389
23303
23326
23329
23349
23425
23340
23367
23367
23374
23415
23500
23382
23412
23418
23415
23524
23431
23434
23460
23455
23474
23540
23474
23482
23491
23508
23514
23516
23558
23615
23532
23543
23558
23567
23591
23575
23583
23593
23595
23623
23690
23601
23620
23636
23639
23643
23652
23658
23661
23664
23684
23692
23686
23687
23690
23695
23713
23718
23804
23823
23794
23762
23759
23755
23766
23779
23788
23794
23794
23782
23795
23876
23833
23831
23830
23831
23842
23847
23845
23855
23852
23860
23940
23900
23901
23887
23889
23910
23910
23917
23927
23932
23927
23924
23931
23934
23940
23949
24035
24014
23991
23978
23986
23997
24006
24000
23999
24103
24049
24031
24021
24034
24049
24039
24031
24036
24062
24123
24095
24078
24063
24076
24090
24087
24090
24083
24098
24167
24135
24122
24123
24123
24129
24130
24132
24143
24147
24145
24149
24137
24143
24141
24236
24260
24231
24236
24197
24199
24196
24193
24191
24198
24204
24209
24205
24199
24215
24218
24205
24212
24302
24275
24262
24247
24243
24252
24260
24252
24244
24262
24337
24283
24279
24276
24272
24276
24286
24278
24277
24278
24367
24356
24348
24328
24297
24301
24297
24308
24319
24313
24308
24303
24323
24310
24319
24319
24372
24341
24402
24373
24354
24340
24358
24351
24348
24355
24366
24379
24431
24438
24373
24439
24454
24436
24442
24430
24415
24391
24387
24387
24390
24388
24395
24403
24402
24398
24398
24402
24396
24410
24416
24444
24423
24447
24479
24385
24380
24376
24383
24393
24390
24390
24389
24392
24399
24388
24390
24401
24396
24402
24402
24394
24397
24404
24402
24404
24402
24407
24399
24401
24423
24412
24412
24413
24402
24422
24412
24414
24413
24397
24408
24399
24405
24408
24406
24396
24409
24397
24388
24391
24391
24399
24389
24399
24394
24393
24399
24384
24386
24390
24396
24384
24378
24386
24374
24372
24372
24428
24453
24405
24407
24406
24404
24391
24396
24391
24374
24369
24366
24356
24367
24359
24353
24351
24341
24342
24384
24352
24351
24351
24346
24333
24352
24338
24335
24331
24327
24327
24314
24311
24314
24302
24301
24407
24405
24372
24373
24375
24353
24359
24339
24347
24358
24269
24279
24279
24270
24267
24269
24260
24262
24252
24250
24322
24349
24327
24327
24324
24319
24334
24327
24314
24290
24268
24261
24252
24244
24238
24217
24222
24228
24215
24206
24222
24221
24207
24207
24199
24201
24178
24188
24178
24173
24163
24169
24159
24147
24143
24150
24140
24145
24142
24137
24119
24231
24197
24157
24130
24119
24115
24112
24167
24071
24084
24096
24091
24077
24071
24071
24071
24057
24048
24039
24039
24029
24024
24022
24011
24020
24007
24005
24002
23985
23966
24087
24039
24029
24044
24046
24015
23995
23975
23964
23958
23952
23943
23943
23940
23930
23911
23908
23908
23900
24013
23953
23906
23890
23881
23882
23879
23867
23842
23937
23911
23900
23880
23852
23835
23815
23828
23821
23815
23798
23797
23785
23773
23766
23877
23879
23844
23821
23798
23802
23774
23757
23750
23732
23712
23706
23699
23700
23700
23680
23673
23676
23668
23662
23663
23642
23629
23631
23628
23612
23610
23617
23604
23602
23601
23596
23583
23590
23582
23555
23550
23527
23527
23526
23511
23521
23525
23551
23554
23542
23376
23409
23334
23510
23511
23515
23491
23439
23397
23395
23383
23375
23367
23357
23363
23333
23317
23306
23299
23290
23289
23273
23260
23261
23248
23231
23225
23228
23219
23214
23196
23193
23175
23157
23156
23148
23132
23125
23114
23101
23218
23191
23163
23135
23100
23095
23086
23060
23034
23015
23018
23013
23001
23007
22997
22983
22975
22954
22945
22943
22916
22919
22898
22893
22874
22875
22858
22974
22938
22924
22885
22887
22903
22916
22914
22905
22850
22834
22818
22791
22760
22740
22735
22727
22708
22701
22700
22684
22679
22661
22652
22647
22636
22624
22620
22610
22599
22583
22577
22570
22564
22555
22542
22519
22503
22492
22607
22567
22530
22523
22471
22452
22443
22442
22426
22410
22394
22377
22365
22364
22351
22486
22448
22367
22341
22310
22300
22295
22279
22278
22247
22336
22263
22221
22215
22211
22189
22305
22199
22165
22159
22141
22123
22179
22116
22113
22092
22079
22057
22183
22055
22044
22036
22017
22001
22134
22018
21980
21958
21964
21939
21925
22023
21940
21895
21894
21879
21858
21990
21886
21831
21826
21799
21784
21853
21788
21775
21767
21740
21718
21780
21703
21708
21709
21673
21663
21652
21676
21636
21634
21604
21590
21576
21665
21557
21567
21530
21519
21642
21519
21503
21490
21479
21458
21442
21457
21419
21428
21418
21397
21379
21373
21364
21349
21344
21337
21325
21318
21289
21272
21244
21238
21231
21221
21209
21199
21176
21303
21214
21150
21155
21135
21122
21119
21111
21113
21163
21052
21028
21023
21015
21007
21012
20998
20991
20978
20967
20949
20937
20929
20922
20903
20876
20871
20866
20844
20837
20815
20813
20791
20792
20858
20727
20732
20717
20710
20695
20703
20679
20679
20743
20633
20646
20633
20620
20606
20591
20569
20567
20551
20541
20540
20562
20545
20557
20620
20636
20618
20578
20583
20517
20550
20552
20551
20540
20462
20311
20317
20287
20442
20458
20439
20421
20356
20324
20286
20262
20229
20210
20199
20183
20159
20133
20114
20094
20084
20071
20055
20066
20045
20039
20013
19993
19983
19969
19940
19925
19915
19907
19881
19873
19853
19838
19824
19821
19812
19791
19778
19773
19764
19752
19751
19719
19702
19686
19677
19657
19637
19630
19603
19761
19666
19585
19555
19556
19538
19522
19510
19498
19487
19468
19469
19463
19513
19541
19511
19441
19395
19364
19330
19327
19316
19299
19302
19277
19254
19227
19207
19207
19180
19169
19160
19349
19322
19231
19218
19213
19262
19235
19159
19130
19071
19039
19031
19006
19019
18983
18981
18962
18951
18910
18894
18879
18873
18878
18881
18853
18922
19013
18984
18960
18974
18911
18794
18791
18789
18876
18740
18675
18637
18621
18604
18592
18580
18564
18538
18531
18516
18503
18485
18491
18469
18455
18444
18415
18391
18379
18359
18350
18328
18307
18300
18277
18273
18258
18253
18233
18209
18197
18212
18301
18216
18175
18133
18117
18110
18093
18082
18076
18056
18035
18020
17997
17973
17958
17941
17936
17918
17911
17884
17873
17854
17857
17835
17823
17806
17807
17813
17782
17772
17756
17746
17735
17701
17699
17667
17650
17631
17618
17590
17581
17566
17569
17558
17551
17529
17502
17476
17475
17561
17601
17689
17611
17660
17369
17628
17607
17320
17309
17301
17284
17284
17279
17253
17231
17216
17192
17180
17174
17166
17175
17197
17207
17309
17255
17254
17022
17002
16993
16973
16950
16946
16933
16929
16933
16906
16892
16877
16839
16815
16805
16790
16775
16766
16745
16738
16732
16716
16698
16676
16653
16636
16610
16586
16564
16564
16532
16512
16503
16493
16762
16454
16440
16416
16415
16383
16373
16357
16355
16584
16413
16350
16311
16278
16248
16242
16227
16209
16196
16193
16217
16188
16165
16112
16092
16078
16073
16049
16055
16047
16030
15991
15974
15947
15941
15924
15897
15893
15855
15844
15841
15812
15798
15788
15777
15759
15751
15745
15738
15721
15709
15685
15665
15652
15631
15615
15609
15589
15579
15544
15531
15509
15490
15473
15460
15443
15421
15415
15392
15636
15428
15364
15345
15323
15319
15317
15302
15270
15243
15218
15211
15186
15179
15162
15141
15354
15189
15132
15099
15077
15063
15039
15035
15032
15007
14984
14967
14955
14941
14938
14927
14908
14884
14862
14840
14830
14810
14818
14807
14794
14780
14738
14720
14696
14685
14675
14663
14631
14624
14606
14594
14566
14891
14745
14591
14619
14586
14538
14510
14488
14530
14516
14717
14745
14597
14428
14372
14343
14332
14343
14404
14452
14531
14576
14229
14212
14191
14178
14539
14255
14229
14125
14114
14098
14086
14069
14051
14037
14024
14011
14289
13966
13967
13978
13934
13919
13884
13879
13872
13880
13854
13835
13923
13796
13773
13778
13782
13749
13727
13719
13901
13671
13700
13667
13646
13811
13601
13588
13579
13585
13555
13541
13514
13627
13496
13467
13497
13447
13464
13413
13398
13412
13382
13354
13484
13327
13328
13313
13292
13502
13262
13239
13250
13235
13206
13193
13546
13156
13180
13132
13269
13093
13121
13087
13090
13037
13016
13036
13005
12989
13023
13263
12958
12945
12946
12914
12905
13256
12850
12858
12869
12822
12805
12815
12895
12762
12740
12747
12749
12740
12711
12681
12683
12795
12630
12627
12629
12642
12582
12566
12593
12564
12536
12791
12498
12509
12490
12457
12492
12721
12423
12410
12393
12372
12395
12389
12350
12328
12339
12398
12604
12261
12263
12279
12244
12225
12437
12191
12180
12182
12170
12138
12318
12122
12097
12082
12070
12094
12060
12028
12044
12420
12000
11982
11960
11988
11948
11933
11958
11897
11880
11894
11879
11850
11842
12146
11795
11793
11791
11796
11756
11772
12132
11701
11701
11702
11690
11663
11686
11990
11629
11611
11625
11596
11575
11557
11548
11529
11528
11522
11519
11515
11623
11870
11444
11429
11439
11446
11402
11381
11393
11715
11337
11328
11340
11340
11306
11274
11294
11611
11231
11216
11246
11229
11202
11179
11317
11142
11136
11142
11156
11116
11096
11169
11334
11054
11039
11037
11060
11010
10996
11406
10977
10974
10948
10927
11210
10897
10900
10898
10908
10863
10860
11255
10818
10824
10820
10791
10779
10938
10754
10733
10755
10758
10711
10705
11007
10660
10651
10662
10665
10626
10613
10688
10581
10566
10602
10563
10537
10689
10516
10503
10512
10514
10471
10457
10755
10426
10447
10423
10414
10383
10384
10401
10357
10351
10787
10320
10312
10323
10287
10437
10261
10262
10282
10234
10221
10303
10193
10180
10199
10180
10166
10142
10533
10117
10134
10114
10084
10132
10062
10069
10077
10030
10013
10076
10101
9994
10001
9991
9966
9951
9994
10172
9908
9891
9916
9900
9874
9942
9860
9839
9858
9847
9816
9814
9914
9774
9765
9780
9793
9754
9732
9753
9860
9698
9684
9703
9686
9679
9657
9626
9624
9622
9672
9948
9574
9561
9552
9575
9542
9516
9520
9631
9493
9471
9462
9449
9441
9433
9445
9430
9411
9390
9377
9359
9473
9328
9318
9339
9312
9286
9325
9752
9250
9254
9245
9244
9247
9235
9201
9179
9185
9327
9274
9125
9120
9134
9148
9120
9094
9079
9108
9062
9063
9050
9031
9029
9188
8978
9003
8997
8962
8954
9170
8928
8912
8919
8933
8906
8914
8872
8860
8868
8884
8839
8814
9082
8799
8804
8823
8788
8762
8767
8916
8744
8717
8719
8721
8711
8686
8680
8903
8664
8644
8644
8644
8639
8610
8613
9019
8582
8572
8572
8559
8577
8578
8547
8529
8514
8519
8764
8485
8472
8470
8491
8491
8466
8449
8430
8430
8881
8401
8390
8433
8386
8375
8351
8416
8691
8338
8332
8310
8330
8336
8303
8293
8271
8362
8253
8247
8247
8282
8240
8210
8248
8486
8189
8180
8180
8187
8187
8194
8166
8157
8133
8132
8131
8332
8115
8095
8102
8123
8127
8087
8071
8062
8308
8047
8039
8062
8061
8035
8014
7996
8109
8504
7975
7975
7981
8011
7961
7959
8097
7935
7932
7949
7949
7922
7890
7921
8035
7879
7874
7910
7864
7879
8221
7840
7839
7858
7836
7826
7810
7887
8164
7792
7786
7789
7817
7791
7778
7765
7783
8108
7733
7749
7762
7736
7730
7723
7715
7707
7707
7729
7720
7700
7681
7684
7669
7666
7668
7653
7657
8145
7841
7689
7647
7620
7627
7623
7605
7615
7622
7609
7632
7629
7606
7577
7574
7567
7565
8087
7606
7578
7545
7556
7550
7556
7574
7551
7546
7525
7512
7502
7499
7508
7908
7876
7791
7711
7776
7684
7716
7951
7463
7477
7944
7462
7467
7462
7457
7458
7987
7661
7644
7551
7454
7465
7436
7421
7417
7417
7428
7420
7430
7424
7413
7412
7406
7407
7404
7411
7402
7416
7422
7429
7410
7415
7423
7403
7381
7377
7379
7381
7377
7372
7402
7398
7377
7368
7368
7352
7340
7333
7348
7351
7340
7661
7472
7413
7380
7365
7329
7337
7326
7329
7332
7347
7342
7349
7335
7333
7341
7360
7365
7350
7340
7335
7325
7330
7331
7322
7341
7335
7323
7304
7302
7307
7415
7485
7351
7309
7305
7325
7346
7316
7304
7303
7301
7300
7309
7313
7317
7401
7780
7484
7414
7347
7311
7310
7330
7333
7333
7337
7335
7327
7329
7333
7341
7346
7350
7349
7353
7349
7372
7363
7348
7344
7356
7341
7351
7831
7752
7425
7368
7355
7357
7356
7361
7352
7380
7376
7380
7391
7408
7429
7432
7432
7434
7440
7428
7447
7422
7417
7421
7420
7429
7438
7431
7423
7444
7435
7453
7454
7462
7454
7460
7468
7470
7477
7492
7487
7499
7490
7507
7496
7503
7503
7501
7512
7836
7522
7525
7530
7538
7530
7540
7561
7568
7597
7574
7585
7577
7587
7586
7601
7628
7685
7843
7824
8024
8134
8132
8138
8136
8046
7839
7742
7684
7666
7670
7706
7719
7740
7727
7715
7721
7970
7768
7734
7748
7759
7805
7769
7770
7781
8317
7913
7806
7822
7862
7842
7847
7841
7850
7858
8060
7874
7876
7911
7935
7911
7909
7919
7970
7945
7973
7999
7965
7973
8084
7998
8009
8011
8009
8019
8094
8039
8069
8103
8073
8079
8354
8111
8102
8123
8165
8142
8136
8153
8342
8172
8179
8205
8210
8238
8237
8232
8229
8398
8242
8273
8304
8273
8278
8808
8348
8311
8320
8358
8348
8340
8360
8629
8393
8381
8411
8417
8402
8423
8450
8471
8486
8470
8478
8479
8478
8494
8512
8539
8532
8524
8541
8862
8701
8592
8567
8597
8631
8631
8620
8633
9091
8679
8652
8686
8713
8692
8695
8956
8721
8744
8757
8774
8802
8776
8789
8803
9050
8909
8824
8849
8866
8875
8916
8900
8921
8950
8924
8943
8942
8955
8977
8992
9031
9231
9460
9025
9042
9049
9059
9114
9090
9090
9147
9231
9227
9492
9156
9161
9177
9204
9230
9255
9267
9269
9271
9273
9312
9781
9290
9326
9365
9351
9359
9423
9381
9382
9443
9436
9428
9732
9460
9483
9534
9497
9537
10003
9544
9579
9560
9764
9601
9647
9620
9637
9689
9661
9988
9699
9727
9744
9750
9745
9775
9800
9797
9823
9820
9833
9886
9871
9881
9918
10354
9925
9972
9949
10098
9980
10010
10026
10030
10066
10423
10065
10126
10094
10134
10500
10146
10167
10209
10199
10246
10214
10229
10269
10284
10287
10327
10671
10336
10374
10377
10553
10390
10404
10430
10478
10508
10490
10488
10559
10789
10555
10561
10594
10628
10615
10628
10792
11082
10670
10698
10746
10725
10755
11081
10782
10804
10837
10834
10844
11047
10874
10876
10911
10968
10957
10962
11044
10996
11033
11036
11093
11061
11081
11095
11149
11153
11162
11176
11241
11473
11231
11239
11261
11299
11331
11334
11337
11634
11375
11388
11414
11686
11457
11460
11611
11498
11533
11551
11560
11581
11967
11612
11659
11662
11676
11671
11698
11743
11752
11756
11934
11801
11847
11845
11874
12230
11887
11946
11943
11970
12274
11997
12019
12069
12063
12080
12473
12122
12145
12370
12186
12193
12561
12226
12257
12309
12294
12348
12423
12342
12394
12407
12413
12701
12452
12486
12511
12505
12625
12546
12575
12621
12625
12647
12870
12671
12701
12756
12751
12760
13052
12798
12835
12859
12854
12908
12901
13042
12939
12988
12996
13070
13027
13047
13103
13099
13140
13135
13156
13196
13216
13227
13319
13260
13313
13319
13359
13348
13390
13406
13473
13442
13487
13469
13636
13518
13574
13564
13700
13599
13649
13670
13676
13727
14054
13738
13784
13795
13805
13996
13837
13894
13912
13917
14025
13959
13983
14035
14047
14060
14399
14095
14148
14156
14164
14463
14193
14238
14285
14281
14311
14406
14340
14362
14403
14424
14433
14570
14474
14503
14545
14549
14815
14602
14639
14645
14677
14958
14701
14737
14836
14769
14808
15012
14859
14868
14897
14931
15028
14945
14980
14999
15018
15066
15083
15100
15124
15157
15295
15196
15216
15250
15285
15292
15312
15339
15500
15588
15388
15422
15445
15482
15515
15515
15545
15562
15642
15757
15627
15646
15694
15711
15732
15782
16036
15798
15822
15863
15884
15891
15941
16072
15959
15979
16012
16050
16079
16079
16119
16256
16144
16173
16218
16250
16260
16303
16517
16317
16343
16388
16404
16421
16462
16579
16481
16526
16558
16564
16585
16702
16621
16651
16694
16733
16759
16751
16799
16821
16836
16891
17095
16899
16941
16963
16991
17228
17017
17054
17084
17098
17187
17140
17179
17222
17233
17262
17363
17297
17343
17356
17418
17397
17433
17470
17476
17535
17519
17532
17596
17602
17679
17636
17666
17717
17733
17781
17911
17794
17831
17854
17879
17940
18065
17939
17978
18023
18031
18053
18122
18263
18115
18158
18177
18217
18232
18252
18297
18458
18323
18364
18384
18402
18436
18562
18472
18502
18546
18549
18582
18677
18617
18637
18679
18717
18730
18755
18791
18850
18959
18832
18855
18892
18916
19092
19064
19038
19021
19047
19066
19095
19106
19139
19270
19214
19217
19239
19266
19303
19316
19333
19355
19383
19399
19419
19595
19567
19521
19532
19565
19586
19605
19618
19701
19687
19707
19735
19759
19787
19813
19837
19863
19889
19910
19946
19964
19990
20015
20034
20057
20084
20110
20132
20161
20171
20199
20245
20258
20275
20302
20337
20358
20517
20537
20520
20501
20517
20537
20555
20576
20597
20616
20653
20674
20711
20735
20762
20789
20816
20837
20849
20871
20903
20999
20978
20987
21009
21033
21076
21093
21119
21148
21164
21191
21215
21244
21373
21373
21337
21351
21383
21407
21434
21444
21475
21497
21533
21645
21647
21656
21665
21677
21700
21721
21755
21767
21798
21828
21859
21879
21908
21935
21959
21972
22013
22047
22070
22092
22111
22127
22176
22186
22213
22241
22355
22329
22354
22372
22386
22421
22439
22464
22482
22517
22535
22574
22598
22631
22661
22682
22705
22725
22753
22854
22843
22858
22909
22914
22921
22946
22980
23002
23037
23063
23084
23103
23124
23151
23241
23279
23308
23311
23323
23335
23364
23387
23421
23438
23455
23487
23515
23535
23559
23598
23623
23649
23683
23711
23727
23757
23781
23819
23839
23860
23891
23911
23937
23972
23995
24017
24092
24100
24127
24143
24177
24196
24224
24255
24285
24299
24325
24390
24383
24412
24436
24468
24503
24532
24537
24570
24601
24638
24660
24683
24716
24745
24779
24789
24828
24847
24875
24901
24934
24953
24989
25019
25039
25065
25089
25111
25156
25169
25201
25252
25278
25292
25335
25358
25376
25410
25431
25448
25476
25516
25543
25546
25581
25608
25639
25664
25713
25726
25771
25799
25824
25847
25879
25907
25916
25949
25984
26022
26031
26044
26078
26110
26142
26172
26187
26231
26261
26274
26302
26338
26350
26381
26421
26442
26471
26503
26535
26558
26585
26601
26631
26661
26684
26710
26740
26764
26799
26821
26853
26882
26905
26932
26959
26999
27031
27053
27076
27094
27126
27143
27164
27199
27236
27255
27281
27308
27338
27369
27391
27431
27447
27480
27506
27527
27573
27593
27619
27648
27679
27702
27735
27757
27783
27815
27844
27863
27901
27932
27950
27980
28009
28031
28046
28080
28105
28139
28157
28182
28218
28239
28263
28254
28319
28350
28377
28401
28431
28463
28498
28511
28538
28571
28599
28625
28658
28679
28705
28744
28767
28796
28813
28839
28852
28885
28913
28943
28956
28994
29033
29039
29059
29076
29111
29100
29185
29212
29244
29267
29300
29328
29351
29383
29407
29435
29459
29487
29515
29551
29572
29594
29617
29657
29684
29703
29732
29766
29791
29730
29788
29831
29870
29894
29933
29969
29991
30009
30054
30087
30113
30151
30175
30188
30226
30247
30271
30300
30327
30357
30380
30335
30346
30356
30425
30453
30487
30513
30537
30554
30575
30623
30660
30676
30699
30739
30765
30815
30853
30868
30899
30919
30944
30983
31013
31035
31068
31107
31131
31143
31135
31207
31239
31275
31295
31287
31297
31295
31327
31365
31393
31415
31455
31495
31532
31575
31598
31623
31669
31695
31739
31766
31788
31819
31839
31854
31878
31919
31932
31954
31997
32007
32047
32083
32087
32059
32149
32180
32188
32230
32239
32277
32319
32330
32367
32375
32415
32434
32458
32398
32420
32467
32483
32500
32630
32655
32681
32703
32735
32772
32805
32831
32859
32871
32897
32915
32942
32980
32997
33021
33026
33027
33052
33079
33063
33164
33194
33173
33252
33287
33308
33327
33295
33381
33417
33312
33456
33481
33368
33523
33530
33567
33615
33586
33655
33679
33662
33729
33749
33753
33799
33838
33773
33894
33923
33844
33958
34007
33947
34030
34039
34084
34121
34159
34165
34175
34209
34231
34244
34213
34212
34196
34215
34214
34257
34333
34344
34394
34404
34463
34492
34547
34599
34631
34637
34635
34615
34618
34597
34601
34805
34823
34679
34693
34756
34823
34922
34958
34983
35014
35001
35023
35022
34998
35151
35174
35210
35218
35248
35269
35303
35330
35361
35367
35403
35423
35447
35468
35495
35519
35551
35569
35591
35623
35647
35668
35671
35723
35757
35773
35692
35820
35828
35855
35870
35921
35927
35861
35783
36011
36031
36050
36078
36084
36103
36177
36183
36188
36157
36252
36263
36294
36334
36359
36383
36399
36389
36295
36458
36487
36511
36531
36532
36606
36625
36626
36628
36620
36575
36538
36574
36634
36636
36823
36839
36866
36893
36687
36724
36955
36991
37009
37023
37031
37054
37078
37091
37116
37156
37215
37238
37271
37276
37316
37321
37340
37319
37255
37413
37437
37452
37476
37494
37502
37502
37596
37603
37634
37638
37660
37666
37658
37639
37603
37775
37788
37813
37839
37865
37885
37916
37895
37943
37988
38023
38044
38051
38044
38007
37915
38132
38167
38181
38220
38238
38255
38284
38297
38287
38293
38378
38398
38407
38422
38421
38380
38421
38421
38354
38307
38585
38609
38631
38647
38647
38653
38677
38716
38791
38791
38799
38790
38727
38875
38897
38919
38677
38767
38793
38735
38783
38901
38917
38884
39103
39138
39159
39171
39196
39218
39247
39242
39276
39301
39335
39335
39365
39343
39420
39213
39461
39425
39517
39540
39559
39574
39580
39551
39356
39649
39668
39695
39687
39683
39735
39795
39807
39828
39837
39792
39605
39902
39940
39932
39937
39979
39970
39983
40000
40044
40052
40063
40100
40164
40194
40199
40166
39982
40262
40282
40308
40332
40340
40370
40383
40380
40390
40407
40399
40447
40480
40493
40559
40578
40594
40618
40625
40642
40641
40630
40575
40497
40742
40759
40780
40813
40826
40853
40862
40876
40908
40926
40940
40962
40967
41002
41015
41047
40780
40839
40767
41133
41142
41157
40846
40959
40988
40906
41015
41023
41193
41181
41213
41251
41173
41039
41079
41446
41447
41493
41494
41479
41479
41495
41510
41601
41607
41639
41658
41668
41698
41718
41732
41744
41781
41783
41773
41767
41729
41759
41815
41836
41858
41847
41789
41878
41874
41831
41701
41682
41703
42073
42102
42117
42128
42151
42167
42159
42174
42223
42206
42195
42268
42285
42319
42263
42285
42325
42318
42357
42383
42371
42383
42410
42425
42428
42461
42549
42591
42591
42615
42631
42644
42652
42672
42702
42716
42733
42742
42740
42780
42796
42764
42733
42446
42855
42879
42868
42932
42526
42946
42983
43007
43004
43036
43044
43063
43079
43101
43106
43120
43143
43167
43159
43167
43186
43213
43231
43246
43268
43241
43172
43159
43036
42951
43373
43382
43407
43412
43441
43455
43479
43483
43501
43462
43476
43564
43579
43590
43590
43518
43636
43632
43661
43677
43691
43689
43719
43711
43695
43687
43694
43717
43773
43812
43846
43861
43866
43887
43911
43911
43926
43892
43943
43995
44010
44017
43988
43887
43911
43916
43862
43833
43911
43848
44150
44167
44175
44188
44204
44215
44228
44252
44260
44278
44295
44271
44284
44295
44321
44358
44372
44351
44321
44327
44354
44374
44423
44462
44485
44485
44494
44505
44535
44551
44566
44567
44569
44599
44604
44612
44629
44640
44645
44671
44692
44693
44702
44716
44727
44743
44750
44743
44596
44770
44782
44796
44807
44806
44817
44855
44853
44868
44872
44879
44900
44917
44926
44946
44966
44959
44972
44997
44779
45028
45044
44983
44975
45054
45055
45060
45030
45045
45020
45110
45130
45151
45167
45187
45180
45191
45182
45104
45127
45236
45244
45240
45259
45287
45295
45302
45297
45303
45251
45247
45319
45346
45363
45383
45388
45372
45305
45319
45345
45330
45347
45367
45360
45370
45375
45447
45479
45518
45524
45487
45479
45471
45468
45491
45567
45575
45603
45607
45610
45623
45631
45646
45663
45669
45663
45687
45700
45702
45716
45724
45723
45636
45699
45738
45703
45687
45772
45799
45808
45829
45844
45831
45861
45831
45788
45667
45351
45860
45879
45886
45895
45900
45895
45827
45831
45870
45938
45959
45958
45967
45921
45983
45881
45900
45935
45899
45932
45959
46061
45526
46051
45975
46087
46070
46054
46054
46063
46076
46108
46053
45885
45599
46126
46143
46151
46144
46159
46173
46172
46163
46071
46187
46214
46215
46215
46227
46229
46239
46246
46263
46249
46151
45969
46071
46196
46231
46286
46299
46255
45983
45735
46309
46311
46319
46311
46260
46237
46271
46285
46334
46367
46364
46375
46375
46394
46396
46388
46401
46415
46407
46411
46343
46309
46420
46420
46417
46427
46431
46438
45995
46367
46423
46462
46487
46478
46493
46487
46495
46499
46503
46511
46503
46509
46517
46533
46532
46537
46527
46531
46538
46452
46364
46183
46535
46540
46534
46533
46524
46549
46542
46530
46463
46511
46527
46485
46471
46508
46492
46500
46484
46487
46486
46516
46567
46580
46592
46597
46612
46599
46599
46599
46599
46574
46519
46532
46532
46591
46616
46623
46623
46621
46629
46637
46635
46644
46616
46532
46661
46679
46658
46599
46558
46545
46597
46659
46652
46647
46666
46660
46668
46644
46660
46485
46599
46660
46695
46685
46675
46684
46679
46660
46636
46596
46564
46570
46623
46660
46655
46669
46663
46667
46663
46659
46655
46679
46665
46667
46671
46676
46670
46669
46672
46655
46661
46674
46659
46661
46654
46663
46663
46660
46646
46660
46663
46657
46654
46661
46652
46663
46647
46655
46647
46303
46151
46189
46255
46502
46215
46205
46303
46244
46531
46575
46575
46647
46647
46638
46646
46646
46631
46620
46616
46623
46599
46615
46599
46599
46599
46599
46596
46614
46590
46588
46516
46567
46568
46583
46441
46375
46274
46074
46140
46541
46535
46543
46539
46518
46508
46527
46511
46516
46510
46497
46488
46509
46500
46492
45950
45943
46484
45999
46148
46268
46385
46404
46438
46427
46363
46385
46412
46399
46399
46269
46343
46245
45914
46407
46393
46135
46220
46211
46068
45900
45823
46368
46356
46343
46260
46294
46343
46337
46342
46343
46324
46172
45924
45788
46303
46290
46279
46175
46279
46271
46271
46243
46086
45835
45885
45930
46206
46213
46201
46190
46166
46143
46172
46156
46142
46151
46146
46081
46087
46029
46087
46085
46127
46101
46110
46113
46104
46087
46079
46063
46060
46048
46039
46038
46031
46038
46020
46023
46004
45996
45999
46007
45942
45807
45893
45727
45668
45568
45435
45916
45902
45894
45894
45878
45879
45863
45860
45831
45831
45819
45820
45801
45801
45791
45746
45748
45732
45716
45700
45636
45639
45607
45606
45589
45575
45567
45556
45564
45537
45540
45600
45551
45595
45590
45575
45572
45573
45567
45556
45524
45507
45414
45378
45364
45319
45369
45352
45309
45303
45167
45002
45119
45268
45311
45340
45328
45332
45319
45316
45303
45279
45239
45252
45248
45248
45205
45167
45152
45127
44961
45166
45151
45133
45122
45109
45103
45085
45063
45061
44964
45036
45050
45039
45023
45009
44999
44991
44919
44919
44768
44783
44798
44743
44430
44876
44863
44852
44831
44831
44820
44799
44769
44770
44764
44751
44740
44724
44705
44695
44677
44662
44655
44637
44635
44600
44607
44591
44573
44551
44535
44063
44221
44365
44457
44479
44495
44231
44451
44436
44333
44414
44167
44373
44343
44351
44343
44314
44262
44294
44281
44287
44256
44242
44235
44207
44164
43919
43954
44149
44133
44133
44105
44101
44086
44068
44048
44031
44021
44004
43995
43971
43960
43930
43911
43919
43895
43887
43876
43853
43834
43808
43781
43718
43783
43791
43768
43755
43750
43738
43716
43691
43687
43655
43663
43557
43423
43431
43294
43282
43554
43133
43375
43444
43447
43436
43439
43446
43431
43418
43391
43351
43303
43336
43334
43323
43311
43011
43167
43167
42983
42822
43207
43191
43177
43159
43143
43118
43111
43087
43086
43067
43045
43026
43015
42996
42974
42970
42955
42887
42887
42823
42826
42839
42823
42791
42750
42732
42727
42709
42719
42719
42698
42652
42639
42631
42577
42583
42595
42620
42599
42593
42575
42564
42546
42503
42500
42476
42471
42470
42439
42425
42388
42388
42375
42319
42342
41951
42292
42213
42287
42180
42119
42116
42092
41946
41991
42005
41847
41816
41847
42087
42075
42055
42039
42026
42007
41991
41961
41954
41926
41918
41907
41876
41871
41856
41836
41826
41794
41791
41775
41759
41716
41645
41652
41694
41684
41655
41639
41583
41516
41534
41433
41195
41532
41503
41508
41478
41460
41452
41431
41396
41359
41335
41348
41332
41324
41303
41287
41268
41223
41223
41205
41191
41170
41140
41084
41077
41132
41123
41093
41069
41053
41023
40945
40814
40687
40895
40955
40938
40915
40899
40884
40861
40839
40831
40815
40799
40779
40759
40750
40724
40709
40689
40682
40658
40639
40614
40559
40534
40542
40526
40556
40530
40517
40488
40481
40445
40396
40303
40078
40375
40358
40336
40261
40327
40301
40279
40227
40071
39912
40207
40188
40167
40146
40135
40116
40095
40026
40004
40065
40044
40019
39988
39943
39781
39676
39684
39911
39876
39878
39846
39831
39821
39804
39780
39766
39700
39670
39667
39681
39625
39619
39646
39623
39611
39599
39578
39575
39500
39502
39518
39453
39405
39412
39406
39412
39387
39371
39332
39308
39341
39314
39279
39260
39198
39095
38981
39203
39189
39170
39159
39111
39084
39116
39092
39054
39041
39032
38980
39017
38995
38964
38908
38816
38631
38898
38862
38823
38823
38839
38815
38775
38735
38660
38524
38441
38662
38671
38647
38651
38621
38375
38482
38375
38551
38503
38533
38507
38500
38500
38465
38442
38426
38385
38339
38324
38307
38295
38295
38295
38266
38125
38167
38118
38106
38063
37949
37915
37950
37991
37958
37847
37820
38045
38037
38011
37991
37975
37727
37941
37927
37895
37888
37871
37861
37836
37825
37815
37791
37775
37756
37741
37720
37711
37687
37661
37645
37600
37588
37612
37600
37581
37559
37544
37502
37483
37453
37439
37431
37414
37383
37361
37343
37324
37300
37252
37245
37239
37195
37154
37150
37152
37163
37135
37133
37115
37089
37087
37066
37052
37031
37015
36996
36985
36972
36924
36884
36871
36899
36855
36851
36831
36807
36797
36781
36759
36759
36742
36703
36640
36653
36635
36615
36604
36579
36559
36353
36345
36359
36423
36399
36425
36436
36453
36423
36359
36334
36337
36299
36291
36290
36302
36284
36259
36241
36220
36198
36187
36167
36162
36094
36074
36054
36033
36039
36021
36006
35993
35967
35947
35823
35844
35859
35864
35877
35871
35801
35809
35793
35779
35765
35743
35716
35692
35591
35630
35591
35565
35463
35599
35582
35571
35541
35525
35506
35482
35469
35454
35437
35405
35383
35408
35391
35369
35355
35335
35311
35288
35239
35250
35221
35197
35198
35164
35167
35179
35151
35132
35088
35071
35044
35016
34975
34991
34965
34942
34922
34909
34859
34798
34740
34731
34743
34764
34757
34748
34737
34740
34702
34660
34695
34708
34682
34660
34638
34625
34601
34567
34530
34485
34439
34380
34356
34496
34481
34471
34457
34439
34433
34412
34389
34383
34356
34348
34331
34311
34285
34279
34106
34148
34169
34211
34213
34189
34156
34151
34141
34122
34115
34087
34069
34051
34033
34015
34007
33837
33863
33863
33860
33857
33863
33886
33887
33885
33860
33850
33836
33824
33799
33773
33750
33741
33719
33709
33685
33662
33606
33628
33610
33603
33569
33568
33575
33575
33554
33528
33495
33494
33470
33458
33445
33437
33411
33386
33387
33237
33263
33251
33223
33215
33228
33240
33213
33199
33172
33140
33077
33103
33092
33087
33063
33077
33079
33060
33047
33005
33015
33020
33031
33030
33018
33013
32992
32987
32967
32949
32926
32909
32903
32878
32868
32852
32837
32689
32682
32786
32790
32765
32758
32606
32636
32613
32604
32606
32612
32612
32609
32606
32611
32566
32519
32506
32502
32476
32489
32476
32458
32439
32374
32463
32455
32445
32437
32343
32359
32358
32326
32319
32303
32303
32259
32239
32227
32231
32212
32151
32263
32232
32242
32217
32205
32193
32189
32060
32074
32038
32142
32125
32111
32090
31967
31983
31943
31963
31959
31943
32007
32012
31983
31988
31966
31964
31946
31930
31924
31911
31896
31903
31902
31879
31844
31818
31831
31828
31815
31784
31783
31772
31763
31751
31725
31687
31654
31623
31693
31684
31687
31662
31662
31645
31495
31551
31551
31586
31598
31601
31569
31569
31556
31541
31428
31492
31521
31495
31486
31478
31473
31393
31431
31435
31440
31420
31403
31391
31303
31335
31346
31348
31358
31335
31317
31319
31295
31195
31239
31279
31284
31253
31257
31185
31233
31197
31201
31207
31196
31183
31051
31157
31095
31147
31074
31127
31050
31102
31100
31089
30983
31055
31055
31062
31059
31032
31020
31018
30868
30949
30983
30991
30968
30955
30948
30940
30928
30922
30911
30811
30903
30895
30792
30781
30783
30853
30760
30775
30774
30778
30773
30772
30770
30762
30727
30721
30716
30743
30746
30743
30725
30725
30709
30719
30697
30689
30696
30684
30673
30645
30629
30628
30627
30596
30574
30623
30615
30613
30599
30590
30595
30580
30569
30565
30564
30558
30546
30548
30543
30526
30519
30500
30508
30492
30495
30490
30471
30471
30468
30455
30455
30439
30437
30334
30419
30337
30359
30370
30359
30367
30382
30388
30402
30383
30372
30377
30336
30361
30345
30334
30318
30318
30317
30318
30302
30285
30284
30274
30254
30247
30269
30261
30253
30251
30225
30215
30214
30204
30208
30196
30194
30181
30169
30161
30159
30138
30147
30144
30131
30149
30127
30123
30116
30105
30097
30114
30090
30079
30060
30054
30037
30010
30043
30027
30028
30031
30021
30018
30005
29995
30006
29997
29986
29988
29979
29959
29959
29952
29950
29951
29951
29911
29877
29919
29915
29922
29916
29906
29892
29887
29888
29883
29875
29871
29862
29853
29860
29852
29846
29838
29831
29831
29827
29820
29808
29811
29815
29802
29798
29794
29798
29783
29783
29779
29775
29769
29773
29767
29761
29766
29762
29761
29755
29738
29743
29743
29735
29724
29721
29716
29719
29717
29655
29703
29697
29714
29667
29681
29686
29684
29668
29659
29666
29668
29628
29655
29657
29671
29618
29614
29611
29610
29614
29599
29580
29558
29612
29606
29607
29607
29608
29603
29605
29602
29599
29607
29589
29551
29582
29585
29585
29577
29581
29573
29568
29576
29519
29566
29575
29543
29507
29557
29551
29550
29551
29548
29541
29551
29540
29554
29556
29543
29526
29479
29526
29525
29527
29518
29532
29538
29524
29535
29529
29531
29528
29508
29497
29469
29394
29505
29501
29506
29511
29511
29507
29502
29511
29511
29503
29495
29470
29425
29493
29493
29495
29495
29482
29494
29492
29488
29503
29493
29500
29490
29485
29455
29446
29476
29479
29479
29487
29485
29474
29479
29487
29447
29474
29493
29489
29445
29480
29478
29488
29478
29428
29479
29477
29479
29476
29433
29481
29479
29470
29487
29463
29477
29487
29484
29458
29476
29479
29492
29464
29479
29483
29491
29481
29432
29492
29495
29474
29477
29495
29510
29478
29391
29496
29494
29494
29501
29463
29487
29494
29515
29500
29431
29508
29501
29510
29484
29502
29498
29523
29495
29511
29520
29522
29526
29510
29493
29522
29508
29526
29533
29540
29523
29535
29455
29537
29540
29532
29540
29503
29538
29540
29548
29557
29556
29550
29526
29503
29540
29550
29566
29568
29575
29555
29574
29567
29580
29574
29538
29578
29590
29583
29587
29547
29586
29588
29620
29578
29551
29603
29601
29605
29599
29596
29614
29572
29612
29626
29589
29620
29623
29636
29597
29633
29644
29644
29638
29601
29644
29652
29638
29651
29656
29666
29651
29651
29667
29660
29684
29631
29678
29676
29698
29690
29642
29686
29687
29703
29702
29671
29703
29711
29719
29687
29703
29727
29738
29720
29682
29735
29733
29751
29727
29749
29748
29759
29703
29757
29765
29780
29743
29769
29766
29773
29783
29767
29789
29796
29792
29807
29775
29803
29804
29807
29826
29816
29821
29831
29831
29782
29828
29852
29853
29839
29811
29852
29849
29855
29874
29842
29871
29871
29880
29855
29894
29883
29903
29899
29903
29898
29904
29917
29895
29908
29924
29943
29921
29917
29927
29951
29941
29906
29948
29949
29959
29967
29939
29959
29974
29983
29969
29925
29988
29992
29999
29997
29947
30011
30015
30031
29998
29983
30023
30036
30041
30004
30040
30047
30052
30016
30049
30063
30068
30021
30078
30079
30088
30087
30091
30106
30106
30063
30097
30100
30116
30087
30116
30133
30142
30133
30086
30134
30144
30164
30113
30159
30161
30170
30146
30179
30199
30175
30151
30199
30203
30214
30204
30213
30215
30229
30233
30237
30243
30240
30255
30235
30188
30255
30258
30273
30247
30263
30287
30297
30289
30270
30196
30302
30301
30317
30298
30315
30318
30334
30312
30246
30338
30326
30366
30330
30356
30356
30355
30375
30333
30281
30365
30381
30392
30379
30329
30383
30382
30396
30393
30400
30360
30411
30405
30412
30413
30380
30420
30426
30426
30431
30380
30426
30439
30430
30448
30395
30439
30463
30470
30457
30395
30463
30454
30459
30479
30470
30425
30483
30485
30488
30498
30489
30439
30493
30509
30511
30519
30519
30480
30511
30527
30524
30527
30557
30543
30529
30441
30542
30543
30559
30515
30563
30563
30587
30547
30503
30575
30580
30590
30556
30572
30586
30586
30605
30567
30599
30607
30605
30615
30573
30607
30622
30627
30638
30606
30522
30630
30646
30652
30631
30564
30649
30660
30666
30647
30652
30663
30663
30687
30663
30586
30684
30689
30700
30655
30696
30714
30709
30662
30714
30719
30719
30727
30727
30727
30694
30727
30751
30767
30747
30742
30754
30757
30759
30748
30679
30766
30776
30789
30789
30750
30783
30799
30804
30792
30769
30806
30803
30812
30823
30815
30772
30821
30829
30855
30820
30829
30831
30850
30855
30780
30861
30871
30847
30867
30871
30895
30861
30887
30890
30900
30879
30891
30896
30908
30908
30876
30902
30916
30936
30918
30922
30933
30949
30935
30886
30949
30949
30966
30936
30860
30971
30967
30983
30951
30966
30981
30978
30991
30935
31002
31009
30935
31004
30983
31011
31004
31018
31030
30991
31039
31043
31025
30954
31044
31046
31060
31055
31066
31018
31077
31057
31081
31055
31078
31086
31083
31095
31017
31103
31111
31100
31039
31109
31117
31130
31082
31119
31119
31125
31134
31108
31142
31153
31159
31141
31092
31163
31167
31177
31150
31102
31181
31182
31185
31216
31181
31133
31200
31207
31207
31220
31239
31221
31167
31231
31233
31237
31262
31239
31214
31167
31252
31263
31274
31236
31271
31271
31277
31278
31207
31291
31287
31316
31291
31229
31310
31314
31333
31295
31191
31327
31332
31351
31325
31257
31343
31343
31347
31359
31303
31364
31364
31380
31365
31388
31378
31390
31415
31391
31335
31398
31420
31414
31426
31390
31431
31431
31444
31426
31428
31379
31443
31455
31468
31469
31453
31398
31471
31479
31484
31476
31510
31491
31471
31442
31423
31503
31505
31519
31527
31520
31540
31540
31541
31531
31516
31495
31448
31559
31558
31562
31572
31584
31569
31516
31585
31583
31588
31586
31615
31599
31581
31531
31615
31623
31623
31626
31654
31639
31623
31599
31644
31644
31658
31654
31667
31684
31683
31653
31641
31623
31580
31685
31695
31697
31706
31718
31724
31714
31663
31722
31723
31732
31751
31716
31620
31750
31751
31775
31772
31751
31719
31692
31751
31783
31788
31789
31805
31805
31820
31807
31780
31700
31817
31817
31830
31839
31846
31818
31769
31847
31847
31855
31869
31863
31835
31807
31785
31879
31887
31889
31907
31907
31881
31769
31907
31911
31922
31903
31813
31927
31935
31948
31911
31948
31951
31967
31943
31965
31962
31969
31997
31983
31924
31983
31998
32003
31999
31985
31951
32013
32007
32019
32034
32001
32022
32031
32039
32053
32052
31991
32051
32060
32059
32081
32043
32066
32086
32093
32087
32028
32091
32097
32102
32097
32046
32111
32118
32127
32116
32017
32143
32142
32135
32164
32135
32052
32167
32164
32177
32119
32172
32191
32185
32197
32154
32199
32198
32217
32220
32223
32198
32173
32222
32230
32247
32166
32241
32261
32179
32261
32263
32245
32143
32263
32263
32284
32236
32278
32284
32295
32263
32294
32300
32325
32312
32222
32323
32312
32316
32334
32334
32354
32341
32270
32346
32352
32346
32342
32345
32356
32370
32388
32391
32390
32390
32389
32396
32383
32382
32379
32338
32327
32348
32332
32327
32287
32402
32406
32415
32415
32423
32422
32419
32430
32420
32429
32431
32431
32439
32436
32439
32451
32470
32462
32452
32463
32463
32455
32454
32452
32431
32375
32462
32476
32474
32487
32481
32510
32493
32502
32491
32489
32503
32484
32500
32509
32498
32501
32505
32510
32511
32515
32501
32486
32447
32527
32538
32564
32527
32415
32438
32433
32422
32554
32551
32561
32573
32567
32571
32571
32589
32590
32591
32599
32585
32591
32536
32583
32591
32591
32589
32599
32597
32605
32614
32631
32598
32583
32552
32543
32531
32503
32503
32628
32639
32630
32647
32647
32652
32640
32647
32676
32677
32661
32659
32655
32647
32615
32583
32535
32554
32674
32674
32671
32687
32684
32676
32695
32700
32695
32680
32711
32727
32725
32716
32733
32742
32743
32740
32732
32746
32748
32743
32753
32759
32759
32756
32761
32767
32747
32750
32742
32748
32761
32772
32775
32775
32764
32769
32764
32771
32771
32775
32775
32767
32788
32772
32783
32700
32741
32759
32775
32809
32820
32818
32825
32823
32831
32804
32807
32807
32827
32814
32828
32818
32823
32823
32834
32698
32711
32711
32703
32724
32767
32795
32817
32814
32830
32842
32839
32839
32848
32839
32812
32823
32834
32814
32811
32821
32833
32831
32857
32865
32879
32886
32887
32889
32893
32894
32899
32909
32908
32894
32897
32903
32903
32903
32883
32887
32893
32854
32863
32863
32839
32843
32851
32871
32882
32868
32831
32935
32930
32932
32926
32930
32942
32943
32949
32938
32949
32940
32951
32951
32949
32951
32940
32951
32956
32962
32967
32963
32965
32966
32975
32969
32965
32998
32980
32976
32995
32983
32983
32988
32996
32991
32998
33007
32981
32994
32990
32993
32983
33003
33009
33007
32986
32991
33007
32986
32986
32999
32998
32995
33020
33015
33015
33015
33007
33013
33015
33015
33017
33025
33029
33013
33050
33029
33049
33047
33054
33051
33050
33039
33044
33054
33062
33054
33062
33028
33042
33051
33055
33046
33044
33050
33031
33026
33023
33021
33023
33039
33031
33031
32928
33048
33055
33072
33059
32987
33050
33063
33055
33071
33052
32959
33060
33071
33044
33073
33047
32999
32922
33071
33075
33059
32951
33071
33063
33085
33013
33063
33071
33067
33091
33039
32968
33077
33089
33079
33075
33021
33083
33085
33109
33044
33077
33079
33090
33025
33079
33084
33074
33087
33092
33101
33078
33015
33094
33091
33105
33063
33089
33097
33108
33071
33087
33102
33115
33079
32966
33102
33097
33092
33061
32975
33102
33087
33117
33047
33092
33106
33124
33091
32977
33099
33117
33095
33023
33103
33093
33123
33082
33031
33106
33108
33055
33102
33090
33109
33092
33101
33095
33119
33074
32978
33103
33103
33121
33110
33060
33114
33100
33100
33108
33055
33110
33111
33127
33092
33115
33104
33105
33118
33039
33114
33102
33122
33063
33113
33108
33123
33083
33114
33108
33105
33127
33066
32980
33115
33110
33133
33090
32983
33105
33107
33107
33004
33119
33127
33059
33124
33118
33116
33111
33109
33126
33127
33127
33139
33133
33123
33111
33084
33042
32979
33119
33109
33126
33108
33123
33124
33082
33028
33119
33111
33124
33103
33118
33095
33046
32975
33107
33124
33116
33140
33131
33103
33097
33069
33025
33124
33116
33132
33127
33127
33127
33140
33126
33110
33109
33111
33121
33114
33079
33069
32997
33112
33109
33118
33115
33118
33109
33115
33107
33116
33107
33101
33110
33108
33103
33095
33108
33096
33103
33104
33101
33101
33092
33094
33084
33107
33101
33103
33087
33081
33062
33052
32991
32941
33083
33071
33078
33087
33071
33077
33072
33066
33063
33063
33070
33058
33071
33062
33066
33067
33066
33044
33062
33081
33079
33070
33076
33063
33061
33043
33030
33015
32971
32911
33046
33050
33041
33052
33044
33031
33038
33047
33068
33041
33007
33024
33002
32943
33036
33052
33044
33039
33031
33028
33020
33027
33031
33043
33046
33022
33011
32973
32954
33013
33030
33023
33015
33014
33047
33017
32996
32999
32958
32913
33019
33007
33015
33002
33031
33022
33005
32993
32962
32911
33007
33004
33007
33017
33020
32991
32967
32929
32862
32998
33007
33007
32991
33024
33021
33009
32999
32986
32927
32849
33004
32990
33002
33005
33004
32999
32982
32995
33016
33013
33015
33007
33006
33015
33022
33007
33008
33010
33007
33015
33004
33015
32999
32988
32983
32977
32988
32977
32974
32967
32919
32986
32990
32988
32990
32987
32995
32991
33002
32991
32998
32987
32988
32991
32983
33007
32984
32942
32974
32999
32985
33006
32993
32959
32911
32994
32998
32988
32987
32997
33013
32998
32988
32977
32940
32863
32983
32989
32985
32987
32991
32986
32986
32995
33013
33011
33003
33006
32996
32999
32999
32996
33009
32997
33013
32983
32981
32934
32940
32881
32991
33005
32997
32995
32999
32998
33007
32999
33003
33000
33002
33005
33006
33004
33015
33012
32999
33014
33007
33015
33015
33000
32999
33012
33007
33005
33012
33007
33015
33030
33031
33026
33019
33021
33027
32994
32959
32949
32912
32883
32895
32891
32885
33030
33031
33031
33031
33031
33031
33031
33035
33039
33031
33044
33061
33063
33071
33075
33066
33068
33066
33037
32991
32975
33057
33059
33065
33067
33063
33052
33057
33069
33061
33058
33055
33091
33103
33087
33070
33045
33028
32988
32951
33091
33069
33087
33096
33096
33099
33095
33095
33114
33131
33124
33119
33122
33100
33100
33095
33083
33060
33015
33012
32983
33116
33133
33132
33127
33145
33087
33073
33043
33133
33140
33148
33151
33159
33154
33108
33079
33044
33167
33164
33166
33164
33162
33188
33189
33155
33143
33142
33139
33123
33103
33055
33046
33065
33199
33194
33205
33220
33208
33207
33222
33214
33225
33229
33219
33223
33255
33252
33259
33260
33261
33255
33255
33257
33241
33246
33239
33260
33269
33278
33266
33285
33274
33284
33284
33274
33287
33165
33167
33167
33159
33301
33313
33314
33309
33319
33323
33327
33328
33327
33319
33327
33335
33346
33364
33276
33342
33353
33367
33239
33359
33356
33359
33396
33395
33372
33359
33375
33388
33367
33354
33373
33395
33411
33417
33439
33437
33447
33443
33437
33448
33431
33442
33429
33451
33445
33463
33471
33468
33473
33478
33484
33482
33487
33492
33496
33498
33507
33489
33525
33522
33531
33521
33503
33468
33432
33415
33397
33530
33535
33557
33557
33552
33559
33575
33575
33572
33574
33583
33589
33599
33603
33606
33607
33610
33605
33615
33623
33640
33629
33642
33644
33651
33642
33658
33666
33663
33665
33671
33674
33703
33701
33678
33615
33699
33707
33711
33714
33707
33719
33750
33751
33735
33730
33671
33662
33745
33764
33775
33772
33777
33815
33816
33809
33795
33791
33755
33660
33825
33839
33823
33858
33861
33839
33835
33806
33793
33761
33757
33767
33757
33892
33900
33900
33904
33908
33908
33914
33943
33927
33917
33892
33877
33855
33953
33955
33955
33946
33983
33964
33943
33892
33854
33815
33991
33999
34005
33997
33992
34022
34036
34030
34044
34033
34054
34047
34055
34034
34029
34004
33994
33949
34085
34071
34092
34087
34102
34097
34103
34111
34106
34103
34118
34110
34149
34159
34151
34135
34135
34134
34151
34131
34132
34123
34045
34190
34180
34218
34177
34214
34213
34206
34223
34119
34244
34266
34223
34246
34255
34273
34136
34278
34307
34261
34148
34300
34294
34287
34311
34311
34354
34331
34311
34244
34353
34366
34355
34378
34296
34368
34385
34403
34343
34407
34422
34390
34415
34431
34450
34391
34447
34439
34444
34468
34472
34503
34488
34510
34495
34471
34439
34445
34477
34484
34527
34529
34542
34543
34559
34551
34563
34535
34471
34607
34602
34610
34618
34617
34636
34625
34639
34631
34655
34659
34655
34702
34698
34708
34702
34695
34703
34695
34724
34714
34707
34638
34638
34613
34623
34702
34660
34703
34679
34711
34695
34759
34786
34823
34845
34841
34848
34859
34844
34849
34839
34807
34813
34784
34762
34782
34934
34950
34959
34972
34975
34972
34983
34991
35013
35014
35015
35032
35030
35031
35059
35057
35063
35056
35075
35103
35111
35124
35125
35142
35151
35154
35158
35137
35148
35164
35168
35175
35209
35205
35236
35252
35244
35247
35255
35255
35236
35188
35091
35293
35300
35317
35317
35306
35355
35363
35351
35335
35303
35270
35212
35383
35398
35412
35403
35447
35447
35454
35455
35463
35420
35391
35484
35508
35519
35522
35527
35524
35524
35537
35577
35575
35601
35607
35625
35630
35637
35655
35666
35669
35668
35674
35693
35708
35717
35729
35735
35740
35766
35724
35734
35799
35809
35783
35777
35791
35804
35812
35805
35815
35839
35847
35884
35887
35892
35893
35916
35935
35957
35959
35971
35975
35994
35999
36004
36009
36022
36039
36039
36039
36060
36049
36063
36095
36100
36116
36124
36134
36149
36167
36174
36191
36149
36188
36206
36231
36221
36125
36254
36263
36255
36271
36263
36291
36319
36326
36338
36347
36359
36386
36383
36391
36411
36422
36423
36418
36438
36431
36442
36481
36500
36519
36539
36548
36554
36564
36575
36595
36604
36605
36604
36635
36647
36651
36672
36682
36676
36665
36589
36488
36719
36731
36743
36750
36773
36772
36573
36644
36735
36796
36783
36798
36814
36838
36838
36870
36894
36911
36916
36940
36903
36884
36823
36983
36995
37015
37022
36999
37061
37025
36894
37077
37091
37103
37121
37122
37122
37110
37191
37187
37183
37167
37087
37215
37236
37255
37231
37290
37287
37083
37311
37345
37332
37211
37358
37340
37383
37231
37411
37396
37439
37274
37452
37469
37459
37511
37479
37307
37524
37524
37562
37411
37575
37565
37614
37564
37628
37600
37675
37638
37676
37689
37717
37709
37735
37734
37749
37782
37777
37719
37566
37815
37814
37869
37815
37869
37878
37871
37921
37924
37799
37943
37956
37993
37940
37999
37996
38031
37799
38048
38082
38054
38083
38095
38103
38138
37907
38170
38148
38175
38191
38207
38222
38255
38183
38260
38270
38308
38292
38125
38327
38320
38335
38367
38375
38406
38401
38431
38437
38407
38458
38231
38492
38452
38519
38388
38535
38556
38526
38594
38575
38354
38613
38660
38647
38444
38677
38644
38711
38604
38727
38703
38767
38591
38787
38758
38831
38820
38791
38852
38868
38844
38897
38884
38718
38932
38951
38901
38988
38980
38758
39004
39026
38989
39067
38975
39076
39088
39108
39111
39002
39124
39126
39175
39039
39186
39183
39224
39175
39225
39242
39238
39282
39148
39302
39271
39332
39303
39343
39365
39391
39354
39404
39405
39380
39446
39431
39452
39468
39486
39483
39303
39527
39484
39514
39550
39591
39590
39534
39540
39607
39639
39661
39671
39668
39697
39508
39724
39653
39748
39626
39764
39727
39788
39507
39806
39823
39828
39834
39838
39892
39810
39903
39911
39909
39933
39906
39980
39697
39990
40020
39998
40036
39994
40069
39934
40087
40110
40061
40126
39985
40148
40116
40175
40010
40197
40150
40254
40159
40258
40215
40287
40128
40311
40285
40338
40199
40359
40346
40396
40397
40071
40423
40455
40377
40455
40411
40500
40178
40517
40539
40492
40548
40517
40596
40523
40607
40578
40649
40482
40663
40607
40711
40567
40703
40692
40766
40724
40775
40775
40809
40823
40667
40846
40799
40873
40532
40879
40911
40868
40935
40904
40975
40763
40983
40999
40923
41023
41060
40975
41063
41080
41115
41108
40818
41143
41071
41172
41071
41184
41135
41219
41031
41239
41180
41284
41058
41302
41241
41333
41028
41351
41303
41374
41398
41327
41421
41219
41452
41475
41464
41476
41463
41527
41212
41538
41563
41218
41583
41575
41583
41622
41557
41657
41669
41649
41703
41605
41719
41743
41655
41765
41772
41713
41809
41826
41743
41835
41871
41479
41877
41916
41775
41923
41894
41973
41895
41985
41951
42014
42021
42018
42060
42066
41690
42092
42122
41871
42150
42151
42175
41822
42183
42222
41951
42230
42226
42286
42140
42296
42243
42321
41927
42343
42287
42371
42391
42391
42439
42220
42447
42471
42479
42492
42491
42543
42399
42540
42490
42589
42595
42557
42625
42619
42593
42673
42310
42664
42714
42391
42725
42751
42487
42769
42798
42790
42812
42804
42867
42716
42876
42887
42908
42903
42848
42942
42964
42935
42990
42933
43002
42924
43055
42935
43066
42994
43101
42855
43124
43075
43172
43007
43183
43119
43230
42837
43228
43179
43271
43282
43207
43319
43328
43279
43361
43367
43303
43407
42979
43408
43425
43438
43484
43326
43494
43502
43431
43559
43397
43559
43547
43615
43633
43559
43639
43580
43687
43620
43684
43619
43735
43652
43758
43746
43791
43750
43809
43719
43852
43484
43871
43879
43897
43911
43829
43935
43956
43873
43991
43815
43996
44004
44018
44039
43982
44095
43942
44100
44020
44152
44140
44167
44085
44209
44193
44212
44247
44020
44237
44271
44287
44327
44327
43949
44371
44311
44399
44407
44276
44424
44421
44423
44479
44122
44503
44423
44543
44039
44549
44550
44604
44385
44621
44567
44647
44583
44669
44631
44710
44719
44716
44742
44735
44782
44616
44799
44751
44853
44420
44847
44887
44892
44890
44903
44951
44718
44958
44881
44999
45026
44642
45020
45031
45087
45076
45117
44726
45099
45167
45142
45051
44799
45191
45215
45201
45135
45258
45292
45289
45119
45316
45319
45351
45271
45392
45383
45396
45412
45333
45474
45455
45375
45503
45035
45513
45495
45564
45041
45564
45536
45617
45310
45654
45603
45689
45698
45159
45703
45748
45692
45764
45724
45802
45372
45806
45810
45871
45506
45881
45866
45863
45932
45970
45798
45967
45974
45909
46022
45951
46055
46046
46036
46119
45972
46124
46087
46151
46183
45748
46197
46084
46236
46215
46252
46266
46247
46325
46116
46332
46246
46383
46212
46385
46373
46431
46165
46446
46356
46503
45927
46503
46471
46571
46150
46568
46592
46562
46610
46533
46658
46358
46671
46565
46712
46417
46719
46710
46767
46791
46278
46799
46683
46838
46818
46282
46853
46762
46902
46684
46908
46931
46950
46956
46903
46999
46968
47007
46988
47062
46930
47051
46988
47096
46996
47111
47109
47167
47174
46912
47176
47111
47223
47255
47004
47250
47155
47212
47303
47309
47338
47358
47298
46900
47365
47383
47339
47332
47436
47470
47183
47460
47479
47494
47388
47429
47532
47574
47575
47504
47367
47083
47599
47623
47644
47601
47540
47679
47716
47739
47748
47748
47719
47300
47773
47795
47711
47829
47844
47695
47359
47870
47879
47876
47799
47932
47958
47681
47959
47980
47902
48023
47958
48033
48039
47948
48039
48102
48132
47991
48132
48135
48133
48172
48197
48207
48247
48231
47716
48247
48253
48191
48239
48307
48332
48174
48330
48359
48375
48311
48418
48370
48407
48439
48375
48463
48495
48460
48022
48511
48545
48441
48552
48599
48605
48623
48612
48570
48077
48647
48647
48676
48572
48710
48748
48720
48708
48514
48541
48159
48170
48812
48820
48839
48841
48854
48749
48775
48767
48786
48806
48827
48879
48896
48871
48879
48902
48951
48997
49033
49031
48997
48973
49031
49102
49086
49023
49031
49129
49159
49063
49125
49229
49261
49276
49287
49286
49230
49042
49303
49325
49327
49303
49296
49359
49399
49431
49415
49319
49099
48975
49468
49479
49412
49412
49532
49567
49573
49287
49571
49579
49591
49491
49567
49634
49669
49703
49671
49578
49019
49710
49735
49749
49749
49658
49780
49836
49799
49715
49415
49842
49862
49748
49785
49895
49927
49951
49898
49889
49783
49925
49927
49802
50022
50033
50015
50003
50115
50074
49460
50103
50103
50103
50071
50175
50202
50183
49719
50215
50212
50148
50266
50263
49623
50287
50183
50308
50374
50079
50345
50388
50222
50394
50406
50357
50335
50423
50478
50502
50511
50464
50027
50527
50536
50509
50468
50530
50612
50628
50566
50620
50631
50516
50660
50695
50730
50695
50517
50723
50740
50743
50644
50782
50822
50823
50847
50807
50161
50843
50863
50789
50898
50935
50885
50926
50920
50845
50995
50978
50982
50997
50886
51020
51076
50963
51058
51095
51079
51108
51169
50893
51143
51159
51156
51061
51092
51188
51238
51276
51124
51263
51270
51292
51206
51229
51327
51367
51380
51394
51404
51329
51389
51407
51325
51447
51479
51463
50854
51487
51447
51495
51539
51559
51559
51506
51255
51590
51591
51612
51617
51644
51514
51655
51695
51693
51742
51714
51654
51612
51365
51106
51777
51791
51804
51815
51807
51742
51756
51876
51900
51919
51815
51180
51908
51926
51943
51847
51907
51975
52007
52020
52031
52055
52075
52079
52087
51989
51567
52103
52103
52125
52071
52015
52155
52191
52218
52255
52153
52055
51847
52223
52246
52277
52263
52270
52183
52191
52318
52345
52377
52348
52375
52383
52423
52391
52399
52447
52365
52455
52455
52505
52508
52423
51969
52519
52518
52463
52471
52583
52615
52622
52510
51892
52623
52625
52571
52526
52663
52687
52701
52743
52742
52532
52242
52739
52743
52775
52660
52693
52807
52852
52821
52836
52847
52742
52871
52925
52813
52165
52903
52916
52797
52953
52982
52999
53015
52927
52543
52997
53025
52951
52946
53044
53086
53119
53071
52471
53095
53116
53100
52999
53150
53191
53207
53179
52773
53188
53204
53233
53216
53127
53126
53148
53165
53183
53273
53302
53341
53352
53367
53294
53255
53348
53375
53315
53287
53415
53423
53465
53469
53339
53447
53455
53471
53407
53380
53511
53548
53543
53433
52772
53540
53544
53566
53548
53471
53588
53631
53647
53621
53545
53607
53628
53638
53508
53532
53663
53703
53724
53675
53103
53716
53724
53711
53607
53735
53767
53542
53760
53760
53636
53807
53847
53764
53040
53817
53803
53871
53855
53855
53733
53871
53890
53878
53866
53895
53863
53902
53962
53949
53927
53932
53830
53940
53999
53990
53979
53991
53988
53876
54037
54071
53703
54023
54023
53950
53911
53967
54066
54102
54122
54138
54057
53557
54101
54135
54111
54061
54150
54174
54191
54212
54191
53999
53399
54180
54186
54205
54159
54074
54077
54151
54244
54270
54303
54069
54245
54268
54276
54181
54158
54326
54344
54305
54222
53758
54327
54343
54367
54359
54344
54351
54230
54358
54402
54433
54460
54391
53733
54405
54423
54407
54317
54389
54495
54415
54147
54463
54471
54317
54463
54530
54460
53707
54482
54511
54511
54472
54388
54551
54554
54395
54535
54558
54554
54545
54487
54519
54596
54617
54663
54648
54620
54117
53927
54600
54627
54572
54606
54663
54702
54615
53837
54659
54660
54681
54559
54703
54734
54694
53919
54687
54695
54561
54719
54743
54702
54717
54727
54692
54711
54788
54791
54339
54740
54759
54750
54732
54615
54791
54826
54831
53991
54807
54766
54791
54863
54791
54687
54881
54820
54831
54791
54825
54855
54111
54849
54852
54919
54863
54303
54863
53996
54063
54865
54869
54884
54878
54895
54791
54756
54871
54917
54917
54951
54959
54916
54535
54895
54919
54929
54932
54937
54897
54831
54943
54976
55013
54991
54560
54949
54962
54966
54817
54964
54975
55010
55028
55023
54892
54964
54979
54984
54932
54900
55006
55015
55047
55068
55071
55047
54862
54176
55006
55012
55024
54887
54910
55031
55046
55074
55092
55111
54879
54431
55038
55047
55036
55054
54895
55103
54645
54271
55047
55047
55047
55063
55075
55061
54991
54989
55092
55118
55148
54969
54279
55085
55068
55047
55113
55156
55137
54663
55085
55087
55079
55089
55102
55103
55098
55110
55095
55092
55103
55111
55101
55103
55114
55111
55115
55092
55106
55012
54975
55047
55135
55149
55174
55111
54580
54300
55129
55126
55150
55116
55111
55103
55012
54998
55140
55156
55143
54823
54590
54406
55132
55116
55127
55145
55119
55046
55011
55142
55102
55148
55175
55175
55188
55156
55143
54998
54716
55124
55124
55138
55143
55141
55119
55004
55046
55079
55151
55159
55175
55199
55175
55188
55200
55141
55063
55011
55042
54308
54367
55132
55134
55137
55095
54997
55126
55158
55143
54623
55124
55133
55127
55143
54991
55087
55135
55158
55173
55175
55175
55156
55028
54852
54639
54374
54326
55122
55125
55114
55102
54978
55127
55146
55156
54308
55114
55118
55163
55100
55072
55135
55135
55143
55079
54588
55095
55108
55061
54972
54993
55069
55103
55111
55124
55150
55111
54887
55078
55095
55101
55092
55086
55080
55087
55072
55075
55090
55038
54975
54966
55012
55020
54958
55029
55006
54956
54999
55078
55107
55106
55111
55132
55015
54276
55047
55055
55078
55074
55068
55060
55047
54967
54950
54919
54933
55035
55071
55095
55092
55047
54980
54359
55018
55039
55061
55028
54925
54975
55047
55068
55088
55071
54919
54873
54791
54615
54343
54254
54468
54535
55020
55022
55028
55015
55022
55015
55006
54639
54639
54460
54500
54761
54325
54990
55003
55006
55007
54983
55004
54960
54870
54863
54906
54983
54976
55015
55039
55036
55047
55028
55020
54996
54975
54554
54199
54975
54966
54970
54964
54959
54958
54983
54961
54966
54965
54956
54957
54957
54948
54948
54947
54945
54949
54802
54977
54607
54941
54830
54980
54484
54796
54789
54298
54199
54919
54919
54917
54903
54903
54903
54903
54895
54895
54863
54821
54764
54791
54913
54919
54919
54919
54919
54908
54865
54879
54725
54332
54396
54484
54700
54454
54631
54807
54847
54889
54903
54890
54886
54879
54876
54855
54615
54391
54015
54791
54835
54820
54821
54815
54741
54691
54671
54753
54734
54735
54695
54663
54693
54657
54687
54738
54764
54690
54787
54789
54783
54671
54681
54692
54658
54630
54647
54614
54639
54680
54692
54671
54640
54710
54742
54772
54759
54772
54767
54779
54783
54776
54782
54764
54778
54771
54748
54731
54655
54735
54751
54711
54711
54735
54773
54711
54714
54572
54780
54694
54705
54586
54750
54151
54693
54638
54694
54695
54718
53967
54684
54717
54679
54677
54679
54707
54733
54682
54660
54703
54702
54676
54655
54700
54663
54710
54663
54708
54679
54702
54677
54691
54423
54662
54559
54690
54279
54644
54660
54535
54644
54649
54693
54204
54631
54610
54638
54686
54658
54642
54620
54550
54663
54311
54623
54487
54636
54599
54622
54591
54627
54655
54178
54613
54500
54631
54551
54627
54615
54610
54663
54069
54606
54535
54535
54628
54654
54135
54592
54600
54559
54527
54620
54607
53811
54590
54516
54631
54175
54572
54567
54517
54628
54503
54575
54569
54615
54575
54580
54420
54575
54511
54599
54626
53974
54574
54447
54591
54556
54556
54573
54454
54597
54460
54556
54535
54564
54607
54559
54554
54430
54572
54559
54191
54534
54559
54532
54399
54550
54599
54483
54535
54514
54519
54578
54599
54564
53919
54535
54535
54404
54558
54564
54278
54522
54506
54446
54544
54575
53972
54534
54447
54535
54583
54521
53732
54523
54525
54572
54535
54559
54545
54527
54431
54401
54503
54519
54519
54516
54516
53789
54373
54534
54560
54535
54516
54524
54535
54558
54575
54557
54548
54535
54558
54540
54516
54535
54468
54516
54554
54567
54548
54535
54550
54516
54383
54385
54517
54512
54503
54507
54506
54500
54488
54501
54509
53943
54463
54535
54531
54503
54506
54439
54359
54479
54486
54519
54495
54509
54503
54495
54495
54498
53733
54263
54502
54542
54535
54535
54519
54519
54503
54509
54508
54508
54423
54388
54375
54428
54502
54503
54503
54503
54511
54519
54510
54497
54497
54504
53716
53852
54279
54439
54487
54501
54548
54551
54535
54535
54529
54532
54517
54527
54526
54506
54495
54495
54455
54402
54407
54474
54479
54397
54395
54423
54466
54426
54491
54500
54503
54503
54511
54503
54517
54516
54518
54511
54503
54510
54519
54503
54507
54478
54391
54415
54508
54551
54542
54573
54446
53823
54528
54535
54527
54463
53956
54524
54512
54513
54498
54519
54530
54519
54511
54486
54423
54532
54553
54588
54567
54580
54595
54580
54561
54535
54464
54487
54559
54588
54575
54575
54535
54311
53821
54556
54535
54544
54559
54535
54552
54566
54556
54564
54564
54560
54551
54551
54500
54431
54444
54471
54534
54533
54555
54556
54580
54581
54553
54566
54508
54468
54438
54446
54463
54559
54597
54612
54612
54629
54599
54376
53892
54591
54583
54591
54588
54612
54507
54468
54471
54485
54490
54471
54509
54476
54524
54535
54592
54599
54601
54612
54623
54580
54526
54479
54583
54633
54631
54663
54669
54676
54663
54610
53940
54622
54631
54645
54612
54506
54500
54510
54517
54548
54519
54550
54623
54677
54685
54690
54713
54660
54583
54183
54639
54657
54652
54662
54652
54588
54524
54604
54671
54676
54703
54684
54463
54162
54655
54663
54658
54661
54663
54631
54698
54607
54662
54559
54696
54578
54668
54527
54729
53973
54671
54695
54697
54678
54648
54687
54724
54663
54660
54687
54636
54687
54653
54693
54603
54693
54618
54710
54693
54628
54724
54684
54661
54728
54578
54676
54740
54014
54703
54720
54687
54707
54580
54757
54715
54718
54695
54767
53957
54719
54750
54119
54726
54703
54708
54725
54617
54767
54551
54735
54654
54747
54783
54740
54756
54607
54780
54279
54732
54736
54791
53964
54737
54660
54791
54756
54767
54791
54750
54647
54791
54404
54764
54684
54773
54791
54764
54652
54836
54781
54781
54742
54791
54679
54853
54788
54779
54791
54791
54681
54846
54023
54757
54843
54103
54811
54823
54791
54820
54811
54789
54823
54679
54881
54815
54700
54859
54620
54846
54727
54903
54577
54844
54847
54759
54879
54852
54852
54836
54916
54854
54823
54895
54855
54868
54871
54889
54875
54875
54855
54909
54839
54892
54871
54919
54901
54882
54835
54919
54871
54919
54788
54946
54956
54911
54926
54816
54983
54919
54919
54967
54835
54941
54812
54967
54367
54943
54943
55011
54942
54932
54967
54990
54951
54964
54881
54996
54974
54956
54978
54972
55012
54981
54919
55046
54932
55004
54895
55008
55025
55007
55012
55014
55022
55015
54979
55047
55047
55036
54908
55079
54269
55023
55061
55030
55030
55030
55066
55100
55047
55047
55046
55127
54606
55083
54963
55129
55069
55087
55109
55139
55089
55106
55046
55143
55028
55124
55116
55133
55183
54399
55134
55103
55189
54729
55143
55021
55165
55188
55149
55118
55156
55199
55158
55156
55175
55231
55174
55183
55141
55239
54535
55189
55054
55223
55239
54516
55211
55151
55246
55047
55220
55124
55278
55225
55114
55255
55264
55228
55095
55220
55185
55251
55271
55281
55278
55294
55292
55287
55303
55303
55335
55337
55337
55294
54654
55300
55303
55303
55303
55175
55348
55395
55288
54894
55330
55332
55344
55215
55386
55007
55372
55319
55377
55425
55296
55374
55391
55390
55279
55412
55471
55303
54556
55407
55422
55430
55391
55279
55389
55447
55468
55249
55426
55420
55447
55342
55365
55471
55500
55486
55100
54758
55455
55471
55490
55477
55479
55491
55380
55423
55486
55521
55551
55545
55575
55559
55083
55534
55529
55538
55535
55535
55551
55559
55550
55559
55559
55559
55557
55583
55575
55559
55588
55591
55599
55591
55599
55614
55604
55616
55615
55477
55536
55613
55597
55591
55503
55599
55706
55157
55656
55577
55661
55679
55703
55732
55740
55740
55727
55742
55759
55723
55660
55271
55003
55710
55709
55718
55718
55724
55600
55702
55735
55772
55814
55807
55484
54919
55771
55780
55767
55756
55708
55791
55815
55855
55847
55807
55652
55157
55815
55814
55829
55815
55687
55748
55853
55887
55857
55467
55870
55868
55815
55876
55918
55919
55354
55887
55895
55759
55938
55906
55780
55988
55908
55847
55967
55981
55844
55119
55951
55964
55924
55855
55967
55980
56023
56028
56012
55783
55941
55983
55775
56004
56007
56007
56037
55879
55994
56040
56094
56114
55261
56047
56071
55939
56071
56133
56143
56041
56094
56095
56094
56134
56156
56071
55463
56111
56132
56124
56122
55991
56058
56071
56149
56180
56192
56175
55812
55420
56174
56175
56172
56071
56181
56240
56192
56191
56199
56142
56248
56279
56240
55924
56196
56220
56244
56089
56250
56287
56284
56262
56071
56259
56260
56124
56279
56327
56293
56255
56283
56137
56327
56295
56279
56301
56162
56327
56380
56135
55501
56318
56319
56196
56345
56376
56407
56262
56327
56348
56239
56247
56359
56415
56404
55972
56375
56382
56384
56358
56263
56403
56405
56453
56423
56388
56415
56423
56279
56423
56455
56495
56243
56439
56439
56354
56447
56477
56508
56519
56423
55902
56495
56472
56496
56492
56383
56400
56511
56514
56536
56557
56583
56583
56538
56175
56543
56551
56548
56455
56508
56577
56623
56535
56130
55718
56583
56583
56594
56572
56519
56476
56455
56607
56613
56644
56670
56639
56031
55783
56638
56645
56640
56615
56554
56668
56679
56719
56743
56703
55813
56676
56701
56695
56580
56709
56719
56779
56735
56639
56252
56724
56735
56724
56740
56595
56764
56775
56807
56815
56836
56839
56823
56836
56823
56839
56855
56836
56583
55970
56817
56828
56823
56831
56834
56831
56829
56695
56862
56881
56903
56926
56935
56903
56745
56878
56874
56903
56908
56868
56887
56795
56879
56956
56956
56997
56959
56522
56938
56950
56967
56956
56967
56932
56836
56918
56981
56982
56983
57022
57014
57031
57036
57040
57046
57055
57063
57036
57039
57046
57036
57049
57044
57044
57071
57079
57087
57117
57135
57135
57148
57163
57052
56311
56614
57109
57100
57127
57111
57127
57127
57094
56991
57013
57140
57182
57203
57220
57236
57223
57207
57194
56839
57167
56287
57191
57207
57216
57235
57235
57068
57223
57262
57270
57302
57311
56884
57247
57263
57247
57128
57118
57231
57311
57321
57346
57237
56455
57310
57234
57200
57327
57348
57351
57380
57374
57399
57375
57287
57095
56518
56868
57351
57383
57236
57383
57415
57446
57467
57301
56766
56604
56538
56727
57412
57431
57447
57444
57381
57351
57323
57332
57332
57334
57351
57476
57514
57518
57513
57526
57559
57571
57559
57284
56695
57510
57525
57537
57532
57532
57455
57479
57575
57607
57628
57594
57319
57567
57580
57605
57599
57599
57470
57582
57647
57636
57671
57679
57676
57653
57044
57630
57640
57639
57646
57622
57511
57689
57727
57759
57599
57687
57683
57702
57703
57556
57679
57732
57775
57506
57711
57727
57724
57724
57621
57591
57599
57761
57791
57823
57828
57718
57119
57775
56879
57774
57775
57785
57803
57813
57794
57663
57721
57831
57863
57910
57861
57636
57806
57852
57855
57852
57807
57716
57767
57844
57863
57900
57940
57903
57965
57969
57975
57974
57911
57929
57991
57991
58012
57945
57327
57948
57959
57957
57839
57991
57960
57940
57958
57965
57823
57957
58021
58067
57432
57983
58011
57972
57894
58029
58063
58086
58095
57990
57247
58031
58036
58045
57956
57903
58041
58063
58089
58119
58143
57909
57223
58093
58096
58103
58012
58119
58175
57863
58119
58136
58112
58084
58164
58223
58055
58141
58149
58151
58160
58175
58188
58191
58039
58172
58219
58268
58276
58215
57863
57727
58215
58238
58243
58237
58230
58129
58247
58279
58324
58314
58143
57531
58278
58279
58263
58134
58295
58324
58374
58372
58263
57863
58303
58310
58331
58325
58326
58247
58247
58334
58372
58436
58279
57461
58375
58375
58375
58247
58287
58413
58436
58471
58500
58447
58116
58415
58439
58437
58444
58404
58295
58290
58428
58464
58484
58519
58536
58564
58548
58524
58176
58468
58494
58500
58519
58451
58364
58414
58407
58471
58527
58556
58572
58596
58605
58626
58446
57697
58542
58526
58416
58567
58607
58599
58564
58579
58463
58580
58628
58663
57709
58591
58587
58495
58624
58684
58623
57735
58621
58486
58607
58695
58596
57972
58615
58631
58484
58670
58692
58207
58631
58666
58511
58665
58732
58503
58651
58679
58676
58534
58682
58726
58785
58607
58695
58710
58700
58580
58702
58751
58785
57965
58723
58591
58797
58759
58408
58188
58757
58759
58757
58754
58743
58684
58814
58782
57863
58759
58783
58724
58791
58858
58759
58770
58789
58791
58687
58828
58871
58750
58798
58815
58815
58813
58676
58854
58887
58887
58861
58487
58225
58847
58855
58837
58692
58876
58919
58934
58932
58748
57951
58868
58861
58724
58878
58932
58983
58583
58919
58759
58996
58956
58477
58044
58911
58933
58940
58918
58806
58821
58951
59014
59031
58839
58026
58966
58975
58909
58975
58985
59027
59058
59043
59034
59052
58967
58375
58445
58975
58999
59015
58996
58887
59036
59044
59068
59100
59095
59103
59068
58631
58146
59049
59044
59060
59035
58936
59060
59093
59118
59135
58759
58287
59079
59076
59089
59076
58975
59111
59143
59164
59191
59053
58687
58620
59116
59132
58983
59108
59175
59220
59191
58948
58247
59134
59163
59143
59143
59004
59214
59236
58543
59178
59178
59083
59119
59217
59247
59268
58858
59188
59191
59207
59207
59199
59119
59060
59196
59271
59271
58495
59214
59228
59239
59238
59254
59257
59263
59263
59238
59196
59124
59252
59293
59324
59325
59351
59295
58730
59271
59287
59319
59311
59291
59167
59194
59332
59340
59362
59399
59350
59287
58612
59327
59351
59356
59348
59343
59334
59199
59268
59369
59399
59431
59455
59459
59294
58820
59380
59399
59394
59375
59239
59399
59439
59447
59482
59493
59468
59472
59439
59341
59208
58679
59425
59447
59440
59439
59444
59365
59332
59447
59500
59537
59511
58915
59471
59471
59484
59367
59466
59519
59535
59499
59502
59468
59399
59515
59559
59591
59263
59500
59511
59526
59519
59434
59383
59551
59599
59612
58695
59548
59559
59554
59437
59564
59639
58836
59559
59564
59564
59636
59319
59590
59612
59215
59584
59593
59585
59487
59586
59612
59623
59686
59269
59620
59615
59527
59508
59629
59701
59695
58868
59645
59631
59511
59655
59743
59111
59655
59677
59655
59519
59583
59676
59734
59751
59742
59718
58950
59687
59694
59697
59540
59700
59731
59762
59764
59759
59228
59715
59710
59687
59597
59655
59702
59751
59806
59823
59815
59621
59396
59732
59751
59751
59756
59612
59758
59814
59830
59847
59774
59503
59118
59775
59774
59779
59799
59804
59803
59798
59724
59670
59747
59847
59877
59884
59607
59799
59812
59828
59687
59831
59879
59783
59023
59839
59844
59748
59830
59879
59911
59857
59351
59847
59870
59823
59740
59892
59951
59363
59876
59861
59799
59911
59975
59271
59870
59892
59759
59903
59954
59983
59951
59655
59906
59904
59911
59911
59835
59958
59991
59943
59935
59948
59935
59866
59969
60022
59855
59942
59959
59943
59911
60007
60063
59303
59964
59974
59823
60007
60049
59783
59990
59983
59988
59871
59999
60052
59829
59991
60006
59951
59878
60023
60070
60087
60010
59967
59622
59124
60023
60039
60039
59924
59911
60069
60106
60055
59323
60052
60058
60052
59980
59911
59972
60064
60060
60060
60100
60116
60118
60148
60144
60148
60111
59143
60084
60103
60007
60110
60167
60104
59207
60091
60085
60076
60095
60094
60079
60087
60103
60095
60092
60100
60087
60090
60050
59975
59964
59967
60038
60069
60115
60124
60134
60158
60167
60102
59815
59367
60087
60107
60103
60112
60135
60108
60095
59988
59988
60071
60103
60110
60135
60148
60183
60176
60190
60167
60167
60133
60053
59911
59430
60095
60119
60106
60103
59970
59980
60102
60114
60124
60125
60116
60100
60118
60127
60165
60158
60185
60167
59879
60105
60105
60095
60119
60119
60132
60108
60092
59983
60103
60124
60142
60151
60140
60143
60164
60167
60183
60194
60159
60140
60007
59928
59527
59911
59751
59576
59748
59861
59375
60111
60095
60109
59996
59951
59975
59973
59975
59951
59983
59983
59960
60029
60124
60148
60123
60165
60167
60120
59990
59911
59983
59461
60084
60098
60103
60111
60081
59963
59977
60000
59935
60079
60127
60090
60144
60150
60159
60131
60069
59682
60071
60077
60085
60103
60069
59935
59953
60071
60100
60143
60140
60124
59654
60078
60063
60047
60116
60127
59434
60059
59981
60059
60102
60119
59292
60070
59951
60039
60102
60087
60039
60039
60013
59970
60069
60124
60055
59494
60031
60036
60039
59991
59959
60039
60054
60100
59989
59227
60025
60031
60016
59991
59879
60015
60021
60031
60050
60071
60073
59778
59996
59994
60001
59989
59864
59991
60004
60001
60010
59527
59982
60026
59580
59943
60031
59972
59828
60039
59975
59839
60023
59964
59959
59932
59960
59996
59527
59951
59991
59937
59780
60026
59948
59783
60006
59935
59854
59988
59949
59807
59940
59935
59911
59815
59976
59897
59887
59911
59908
59781
59982
59909
59751
59966
59884
59765
59942
59882
59940
59878
59728
59927
59895
59783
59938
59847
59847
59911
58979
59855
59743
59889
59603
59847
59698
59879
59719
59839
59668
59876
59855
59359
59813
59696
59875
59639
59806
59806
59815
59860
59781
59783
59655
59809
59519
59798
59655
59796
59791
59764
59767
59652
59783
59751
59748
59623
59808
59175
59743
59596
59751
59770
59731
59727
59569
59751
59460
59710
59583
59716
59743
59684
59695
59556
59710
59734
59678
59668
59597
59719
59703
58951
59655
59648
59506
59644
59697
59492
59612
59631
59620
59692
59591
59607
59471
59645
59362
59597
59482
59622
59646
58831
59588
59476
59639
58735
59581
59399
59588
59492
59479
59605
59541
59500
59580
59527
59537
59374
59591
59503
59500
59526
59442
59511
59343
59564
58666
59478
59503
59415
59466
59479
59459
59452
59395
59511
59428
59341
59502
59431
59381
59485
59007
59399
59319
59476
58786
59398
59335
59446
59383
59372
59373
59437
59380
59255
59374
59399
59355
59343
59351
59423
59319
59325
59311
59375
58692
59324
59218
59367
58402
59202
59343
58586
59271
59175
59324
58375
59245
59269
59292
59220
59238
59271
59031
59223
59229
59207
59208
59220
59069
59188
59210
59138
59175
59023
59244
59143
59062
59199
58468
59175
59151
59190
59132
59135
59127
59175
59124
59006
59164
58879
59087
59086
59110
59121
59066
59078
59047
59127
58484
59052
58927
59100
58556
59031
58901
59079
58887
59003
58868
59063
58971
58911
59002
58885
58999
58971
59032
58948
58961
58959
59015
58934
58932
58930
58991
58439
58871
58948
58044
58879
58971
58879
58743
58935
58572
58871
58742
58906
58060
58867
58702
58908
58815
58711
58886
58183
58714
58850
58788
58795
58804
58631
58786
58783
58759
58615
58756
58829
58473
58719
58716
58710
58663
58652
58707
58736
58756
58671
58695
57770
58658
58655
58588
58495
58630
58670
58660
57764
58607
58596
58462
58559
58598
58604
58623
58600
58455
58526
58532
58447
58548
58567
58247
58479
58494
58357
58480
58511
58535
58484
58447
58455
58454
58428
58311
58423
58431
58460
58467
57972
58397
58375
58301
58303
58375
58407
58410
58375
58311
57535
58319
58333
58327
58309
58306
58182
58205
58268
58299
58335
58268
57567
58239
58234
58135
58174
58231
58247
58247
58204
58007
57604
57643
57318
58151
58159
58159
58141
58118
58110
58151
58165
58178
58119
57583
58073
58076
58087
58078
58036
57916
58044
58079
58098
58079
57468
58012
57997
58012
57894
57975
57972
57994
58027
57863
57948
57943
57935
57932
57844
57799
57927
57927
57965
57973
57388
57882
57887
57860
57863
57735
57863
57890
57893
57637
57823
57831
57799
57703
57807
57839
57863
57719
57775
57766
57772
57775
57760
57725
57596
57607
57719
57728
57735
57728
57735
57727
57758
57732
57700
57703
57631
56839
57644
57630
57639
57638
57607
57607
57599
57607
57596
57596
57543
57473
57437
57559
57566
57585
57601
57569
57341
56991
57514
57519
57502
57405
57508
57534
57437
57159
56966
56889
57455
57443
57391
57308
57427
57447
57455
57460
57382
56672
57399
57391
57391
57381
57364
57342
57287
57223
57191
57212
57317
57318
57308
57338
57350
57044
56501
57268
57268
57279
57223
57140
57247
57277
57272
57260
56740
57198
57212
57127
57095
57196
57223
57244
57183
56991
57156
57151
57143
57055
56996
57140
57167
57086
56375
57084
57095
57095
57059
56975
57055
57095
57095
56326
57044
57039
56997
57023
57074
57023
56863
57031
57031
57031
57037
57036
57023
56959
56136
56956
56948
56939
56799
56924
56940
56959
56967
56967
56934
56836
56354
56551
56647
56798
56607
56839
56839
56871
56793
56763
56831
56860
56878
56743
56799
56708
56703
56815
56823
56828
56785
56311
56758
56749
56615
56757
56795
56679
56698
56705
56719
56559
56703
56724
56724
56632
56660
56656
56663
56660
56628
56517
56647
56663
56687
56661
56359
56594
56607
56605
56583
56519
56501
56479
56437
56487
56487
56579
56599
56532
56548
56399
56487
56503
56508
56503
56534
56566
56294
56487
56477
56471
56471
56466
56452
56445
56429
56407
56301
56301
56423
56436
56470
56101
56390
56404
56274
56396
56415
56373
55543
56375
56327
56220
56327
56355
56366
56367
56367
56188
56319
56183
56316
56318
56327
56327
56128
55484
56271
56255
56263
56247
56246
56225
56100
56191
56250
56285
56244
56005
55745
55460
56197
56167
56173
56188
56117
56047
56182
56199
56142
56071
56204
55586
56124
56153
56124
56127
56110
56010
56130
55734
56094
56047
55962
56106
56119
56127
55943
56062
56045
56036
55943
55982
56060
56071
55999
55495
56018
56023
55948
55879
55988
56004
56039
56028
55881
55975
55978
55943
55847
55908
55942
55967
55991
55964
55844
55206
55925
55927
55791
55791
55922
55959
55956
55919
55791
55207
55868
55864
55879
55855
55748
55726
55838
55871
55879
55898
55878
55807
55060
55815
55815
55815
55759
55671
55767
55804
55815
55815
55807
55673
55390
55202
55753
55751
55753
55752
55687
55694
55744
55797
55775
55762
55451
55047
55719
55721
55708
55663
55639
55644
55687
55717
55735
55668
55268
55662
55654
55661
55652
55572
55548
55655
55684
55594
55201
54839
55605
55612
55614
55607
55591
55516
55630
54791
55583
55576
55566
55451
55556
55559
55578
55587
55591
55540
55202
55525
55524
55507
55440
55542
55540
55520
55239
55470
55484
55388
55401
55487
55494
55108
54759
55441
55442
55444
55394
55399
55479
55466
55415
55025
55407
55397
55383
55255
55404
55415
55423
55388
55356
55147
55359
55367
55343
55270
55234
55346
55380
55372
55230
55302
55325
55280
55303
55351
55357
54863
55284
55303
55279
55151
55290
55303
55303
55262
55267
55149
55303
55249
55239
55253
55238
55252
55111
55204
55247
55263
55268
55252
55264
55214
54988
54631
55182
55175
55188
55181
55076
55100
55174
55214
55191
54983
54743
55150
55156
55135
55044
55031
55151
55159
55170
55156
54959
54679
55102
55093
55109
55108
55097
55087
55023
54948
55057
55069
55107
55130
55106
54894
55076
55068
55031
54967
55100
54447
55047
55020
55015
55079
55062
55007
54453
55015
55012
55014
55047
54710
54989
54884
55015
55033
54884
54991
54983
54884
54999
55022
54965
54983
54823
54980
55002
54167
54951
54823
54959
54971
54742
54933
54918
54900
54940
54544
54895
54943
54892
54852
54919
54939
54725
54895
54836
54871
54927
54855
54868
54886
54874
54855
54810
54725
54853
54882
54884
54887
54349
54845
54836
54822
54735
54847
54860
54789
54823
54808
54686
54847
54535
54823
54687
54844
54852
54758
54790
54783
54659
54791
54839
54695
54783
54785
54695
54814
54820
54391
54756
54758
54745
54631
54775
54791
54791
54757
54279
54751
54740
54631
54687
54758
54767
54767
54295
54716
54727
54727
54700
54750
54580
54727
54708
54711
54727
54759
54503
54684
54694
54695
54668
54556
54679
54695
54717
54725
54703
54487
54663
54678
54535
54671
54695
54277
54656
54615
54653
54684
54700
54211
54654
54639
54516
54695
54503
54639
54631
54548
54678
54639
54279
54631
54623
54604
54559
54660
54604
54607
54620
54567
54631
54647
54532
54005
54607
54591
54480
54622
54639
54340
54594
54594
54573
54495
54583
54622
54622
54588
54279
53820
54567
54580
54574
54554
54567
54564
54548
54442
54567
54572
54599
54550
54119
54563
54543
54436
54423
54550
54592
54583
54299
54535
54545
54535
54436
54407
54428
54470
54530
54545
54555
54567
54495
53956
54516
54518
54519
54391
54516
54535
54561
54471
53908
54503
54503
54390
54506
54527
54527
54558
54471
54063
54479
54470
54460
54375
54481
54502
54523
54506
53717
54479
54487
54474
54495
54511
54487
54101
54454
54463
54447
54342
54479
54502
54471
54351
54440
54452
54447
54436
54391
54471
54498
54431
53695
54436
54432
54430
54343
54359
54455
54481
54396
53860
54431
54423
54334
54444
54465
54446
54183
54421
54407
54391
54374
54431
54460
54454
54140
54412
54414
54303
54434
54455
54455
54196
54392
54414
54394
54273
54404
54447
54415
54023
54403
54388
54390
54404
54272
54391
54407
54428
54399
54141
53847
54375
54372
54391
54383
54300
54263
54407
54415
54271
54367
54380
54388
54247
54368
54391
54407
54095
53614
54359
54358
54367
54375
54353
54268
54231
54366
54380
54407
54303
53647
54360
54357
54346
54348
54279
54359
54391
54415
54358
54067
54346
54348
54351
54279
54343
54383
54401
54348
54196
54342
54358
54356
54229
54375
54396
54364
54151
53603
54339
54327
54326
54330
54211
54238
54244
54343
54356
54380
54300
53721
54313
54327
54267
54268
54324
54359
54260
53805
54308
54300
54269
54167
54300
54339
54339
54343
54273
54223
53655
54276
54279
54271
54164
54270
54279
54316
54223
53871
54269
54228
54247
54313
54110
54238
54253
54247
54274
54302
53593
54261
54252
54250
54211
54277
54255
53460
54255
54242
54183
54191
54239
54263
54254
54292
54239
53653
54239
54239
54185
54228
54247
54276
54223
54218
54190
54252
54271
54257
54166
53932
53487
54222
54215
54215
54124
54151
54206
54255
54244
53882
54206
54220
54201
54134
54148
54236
54275
54222
54196
54020
53679
54199
54191
54191
54189
54062
54167
54215
54255
54199
53557
54196
54189
54071
54175
54247
54215
53963
54180
54188
54212
53767
54202
54194
54237
54194
53623
54179
54183
54151
54061
54182
54215
54236
54189
53462
54188
54160
54140
54210
54206
53827
54172
54164
54087
54039
54173
54212
54023
54169
54172
54135
54172
54212
54189
53527
54172
54146
54133
54207
54191
54151
53924
54147
54151
54151
54151
54124
54053
54165
54167
54183
53422
54147
54124
54144
54199
54182
53863
54160
54151
54076
54191
54151
54167
54140
54087
54183
54170
54143
54151
54102
54182
54143
54151
54138
54034
54172
54212
53511
54151
54151
54023
54148
54186
54191
53735
54142
54151
54007
54181
54197
54140
53418
54164
54127
54151
54190
53740
54150
54147
54069
54195
54038
54147
54147
54071
54151
54202
54145
53607
54149
54148
54143
54023
54082
54092
54164
54182
54187
54175
54095
54119
54142
54142
54055
54151
54180
54159
53502
54149
54122
54095
54183
54103
53366
54158
54165
54150
54012
54149
54168
54135
54150
54005
54151
54215
54069
54151
54166
54151
54023
54151
54180
54188
54127
54148
54164
54066
54148
54196
54164
53575
54164
54100
54087
54174
54199
53908
54150
54156
54043
54191
54230
53639
54166
54022
54204
54159
53375
54170
54159
54125
54116
54196
54180
54180
54184
54056
54183
54215
54215
53474
54159
54087
54164
54223
54229
53695
54183
54148
54135
54192
54228
54167
54175
54182
54129
54116
54204
54237
54116
54182
54180
54191
54117
54063
54214
54245
54175
53414
54202
54187
54071
54222
54213
54183
54196
54199
54111
54222
54254
53759
54215
54199
54076
54238
54239
54209
54210
54223
54095
54231
54268
54085
54204
54212
54142
54268
53869
54225
54167
54269
53603
54228
54088
54262
53959
54215
54159
54247
54183
54224
54135
54279
54127
54240
54159
54262
54249
54223
54229
54092
54279
53879
54260
54102
54279
54060
54224
54104
54279
54231
54233
54246
54241
54311
54247
54261
54121
54279
53605
54252
54222
54260
54311
53908
54247
54208
54310
54204
54278
54215
54271
54319
54252
54215
54279
54279
54279
54204
54306
54279
54279
54165
54311
54318
54060
54279
54188
54279
54326
54215
54279
54255
54297
54348
53911
54311
54231
54324
54087
54279
54343
54308
54267
54324
54309
54297
54005
54279
54374
54311
54327
54167
54332
54359
54311
54335
53839
54215
54331
54324
54375
54322
54255
54279
54335
54391
54348
54213
54391
54342
54373
53564
54204
54351
54348
54381
53694
54255
54407
54372
54276
54320
54356
54391
54065
54223
54389
54361
54407
54367
54381
53661
54300
54407
54378
54389
54199
54364
54447
54399
54385
53895
54396
54447
54391
54319
54433
54412
54268
54452
54408
54372
54412
54396
54340
54417
54405
54405
54417
54407
54407
54279
54396
54402
54324
54406
54436
54337
54312
54452
54407
54395
54447
53887
54398
54431
53805
54399
54418
53653
54315
54436
54006
54399
54452
54399
54391
54279
54421
54439
54398
54300
54454
54415
54279
54429
54407
54429
54407
54298
54439
54407
54444
53670
54341
54492
54423
54354
54461
54439
54313
54478
54428
54300
54463
54436
54442
54343
54423
54356
54488
54428
54303
54476
54423
54407
54463
53996
54452
54456
54129
54441
54447
54087
54426
54484
54439
54321
54471
54446
54463
54438
54332
54471
54455
54479
54438
54306
54502
54453
54465
54401
54458
54469
54220
54457
54444
54062
54343
54499
54452
54335
54484
54460
54475
54140
54421
54516
54477
54405
54496
54479
54478
54159
54485
54507
53806
54469
54511
54464
54439
54511
54476
54362
54524
54484
54396
54525
54487
54372
54516
54478
54504
54310
54471
54535
53676
54481
54526
53700
54381
54548
54495
54396
54558
54487
54508
54527
54228
54502
54510
54447
54507
54391
54567
54511
54390
54566
54011
54535
54535
54566
54500
54452
54576
54532
54407
54535
54530
54535
54359
54535
54557
54388
54524
54519
54580
54535
54420
54596
54535
54497
54574
54439
54548
54436
54567
54183
54542
54436
54588
54246
54567
54447
54582
54317
54565
54415
54594
53804
54535
54606
54023
54563
54423
54613
54495
54562
54434
54615
53959
54564
54458
54628
53804
54566
54431
54612
54397
54582
54558
54631
54596
54437
54632
53758
54590
54591
54647
53820
54599
54580
54620
54583
54450
54630
54546
54621
54485
54655
54599
54526
54652
54304
54628
54620
54604
54617
54487
54647
53751
54619
54637
53990
54591
54653
54164
54629
54644
54671
54629
54629
54639
54654
54637
54607
54663
54610
54636
54583
54684
53878
54621
54703
53916
54644
54663
54599
54652
54657
54714
54647
54535
54724
53964
54663
54663
54714
54663
54534
54711
53846
54687
54607
54724
54677
54519
54724
54343
54700
54663
54748
54687
54663
54695
54710
54691
54591
54757
54700
54535
54735
54239
54689
54707
54719
54689
54708
54699
54721
54700
54183
54679
54727
54671
54724
54736
53870
54705
54759
54717
54653
54741
53844
54687
54788
54732
54596
54791
54719
54705
54765
54727
54733
54745
54775
54751
54753
54676
54754
54760
54726
54748
54743
54791
53869
54745
54767
54684
54764
54766
54740
54766
54621
54820
54743
54759
54772
54707
54774
54625
54791
54781
54767
54772
54781
54765
54357
54780
54783
54676
54781
54700
54831
54767
54775
54719
54837
54775
54647
54839
54791
54791
54604
54783
54839
54783
54660
54851
54788
54647
54836
54791
54661
54804
54791
54839
54370
54791
54791
54826
54791
54671
54871
54822
54784
54862
54151
54815
54791
54823
54814
54787
54855
54821
54668
54876
54831
54700
54881
54822
54692
54884
54823
54809
54845
54764
54830
54695
54876
54844
54703
54900
54829
54725
54888
54833
54813
54852
54583
54823
54750
54892
54839
54767
54879
54823
54791
54732
54687
54909
54839
54745
54876
54068
54847
54871
54830
54852
54700
54904
54854
54783
54906
54182
54854
54886
54343
54863
54872
54647
54854
54766
54911
54055
54852
54892
54663
54860
54704
54927
53999
54804
54423
54724
54631
54871
54853
54903
54871
54723
54929
54462
54887
54940
54864
54892
54916
54872
54726
54919
54577
54846
54884
54849
54874
54717
54911
54470
54848
54742
54908
54553
54863
54763
54918
54855
54836
54846
54855
54863
54855
54839
54831
54823
54853
54858
54827
54701
54892
54829
54671
54882
54835
54791
54711
54791
54838
54257
54804
54815
54639
54791
54855
54332
54811
54820
54278
54784
54839
54095
54791
54791
54644
54791
54791
54652
54775
54783
54558
54772
54791
54788
54779
54749
54740
54765
54786
54495
54759
54789
54734
54612
54823
54759
54758
54712
54751
54783
54724
54620
54780
54726
54679
54749
53983
54639
54775
54707
54575
54762
54709
54647
54769
54717
54549
54759
54082
54708
54710
54633
54679
54695
54645
54687
54689
54533
54677
54689
54727
54672
54546
54700
54660
54596
54684
54653
54682
54535
54646
54632
54663
54662
54559
54671
54622
54471
54695
54631
54631
54444
54628
54494
54663
54619
54599
54631
54584
54557
54652
54597
54596
54578
54631
54572
54547
54606
53986
54581
54602
54081
54560
54605
54548
54423
54612
54535
54535
54535
54535
54524
54535
54523
54468
54491
54520
54517
54532
54503
54372
54572
54500
54344
54535
54227
54479
54502
54479
54483
54365
54525
54455
54313
54517
54453
54389
54492
54453
54351
54466
54460
54439
54004
54417
54471
54407
54381
54455
54404
54423
53959
54342
54445
54397
54263
54436
54360
54367
54399
54136
54360
54258
54407
54340
54196
54399
54338
54351
54324
54341
54324
54359
54167
54308
54363
54316
54279
53890
54279
54317
53626
54295
54340
54260
54151
54207
54271
54279
54252
54288
54197
53700
54260
54223
54093
54269
54215
54216
53453
54136
54252
54204
54101
54246
54196
54183
53719
54148
54204
54156
54016
54212
54142
54086
53975
54133
54151
53575
54097
54159
53762
54091
54133
53511
54087
54125
54073
53933
54126
54060
54047
54077
54119
54039
54049
54031
54087
54023
53895
54023
54023
53926
54053
53999
53927
54023
53740
53973
53903
54007
53958
53837
54010
53955
53927
53952
53947
53940
53823
53959
53876
53927
53789
53941
53553
53895
53748
53911
53878
53863
53857
53767
53887
53831
53831
53730
53840
53854
53815
53675
53839
53695
53792
53751
53809
53767
53687
53812
53765
53735
53789
53748
53703
53767
52957
53728
53708
53687
53716
53706
53671
53671
53687
53265
53670
53703
53653
53497
53674
53621
53503
53660
53607
53471
53649
53585
53532
53383
53554
53604
52767
53503
53607
53535
53487
53549
53540
53397
53559
52719
53498
53388
53527
53175
53495
53462
53278
53447
53471
52743
53327
53461
53415
53452
53413
53266
53439
53375
53383
53414
53360
53225
53412
53351
53285
53365
52647
53325
53335
53111
53295
53194
53334
53279
53191
53255
53255
53239
53188
53239
53255
52580
53216
53143
53229
53207
53093
53212
52574
53168
53148
53183
53127
53127
53143
52762
53118
52999
53142
52453
53094
53045
53052
53076
52930
53094
53031
53031
53063
52279
52996
53024
52654
52996
52940
52983
52972
52839
52982
52935
52938
52949
52772
52915
52765
52950
52887
52846
52900
52861
52847
52852
52612
52830
52684
52855
52388
52791
52799
52819
52761
52623
52800
52437
52735
52743
52615
52735
52700
52692
52676
52709
52674
52552
52699
52176
52639
52647
52615
52612
52615
52454
52580
52628
52556
52431
52607
52541
52542
52550
51943
52471
52527
52500
52359
52516
52462
52337
52485
52002
52430
52431
52260
52406
52422
51938
52348
52399
52340
52231
52346
52310
52219
52270
52284
52284
51900
52254
52244
52174
52231
52228
51560
52142
52198
52167
52134
52135
52119
52116
51791
52071
52124
52071
51948
52086
52039
51884
52052
52007
51884
52030
51959
51847
51975
51929
51799
51951
51895
51775
51919
51707
51847
51865
51463
51831
51817
51617
51783
51793
51486
51741
51767
51014
51614
51750
51687
51558
51700
51647
51630
51645
51079
51591
51623
51572
51445
51536
51535
51575
51525
51519
51335
51492
51479
51430
51457
51349
51463
51423
51270
51416
51389
51335
51391
51041
51327
51333
51239
51287
51182
51311
50623
51243
51247
51091
51207
51212
50503
51036
51185
51143
51140
50796
51108
51103
51095
51079
50980
51079
51050
50915
51023
50988
50977
50639
50951
50887
50938
50906
50914
50551
50870
50879
50695
50836
50837
50293
50769
50823
50769
50656
50679
50737
50734
50404
50695
50695
50564
50664
50647
50607
50628
50630
50180
50581
50562
50563
50538
50535
50468
50510
50504
50472
50466
50439
50375
50421
50421
49804
50321
50407
50364
50287
50356
50044
50307
50287
49963
50279
50252
50112
50215
50215
50182
50183
50124
50183
50135
50108
50021
50084
50119
49434
50055
50055
49989
50018
50020
49927
49987
49983
49765
49927
49941
49911
49876
49894
49807
49863
49790
49797
49809
49759
49611
49767
49799
49742
49754
49708
49575
49642
49671
49695
49651
49510
49615
49612
49607
49467
49567
49566
48975
49525
49543
48813
49351
49495
49441
49457
49012
49389
49442
49391
49372
48678
49223
49339
49308
49305
48645
49254
49300
49232
49159
49196
49206
49221
49159
49159
48683
49092
49151
49095
49069
48614
48948
49071
49031
49047
48501
48868
48991
48967
48962
48941
48924
48311
48807
48862
48839
48871
48824
48830
48804
48676
48796
48743
48719
48719
48730
48732
48305
48647
48679
48645
48647
48623
48487
48596
48580
48574
48391
48519
48404
48529
48487
48356
48495
48445
48405
48437
47959
48369
48389
48340
48223
48350
48340
48197
48308
48252
48270
47623
48111
48119
48198
48197
48181
48107
47983
48095
48135
48098
48094
47446
47927
48047
48028
48031
47982
47988
47661
47951
47951
47482
47815
47903
47871
47767
47855
47835
47822
47775
47791
47772
47780
47751
47623
47732
47705
47677
47686
47668
47643
47523
47623
47174
47573
47599
47050
47527
47534
47422
47477
47479
47199
47415
47456
46855
47367
47425
47367
47355
47111
47326
47345
47303
47287
47271
47196
47022
47226
47143
47223
46891
47183
47130
47140
47143
46590
47080
46999
47095
47067
47009
46939
46997
47012
46843
46964
46945
46955
46415
46916
46893
46855
46790
46748
46809
46824
46820
46813
46718
46758
46663
46748
46293
46703
46695
46670
46631
46542
46643
46630
46522
46589
46574
46535
46447
46511
46524
46204
46482
46446
46341
46447
46442
46400
46099
46380
46367
46248
46339
46340
46333
46167
46276
46271
46239
46228
46199
46167
46207
46161
45749
46143
46126
46084
46060
46109
46085
45806
46034
46020
45999
45975
45875
45975
45966
45920
45820
45526
45900
45860
45831
45863
45855
45655
45796
45783
45684
45769
45766
45551
45697
45701
45637
45661
45679
45660
45460
45607
45575
45556
45575
45511
45121
45517
45494
45396
45480
45474
45420
45155
45415
45399
45377
45283
45367
45356
45348
45335
45315
45221
44799
45260
45255
45166
45140
45196
45204
45173
44868
45134
45116
45081
45000
45030
45089
45047
45038
44935
44821
44617
44964
44940
44935
44823
44914
44900
44847
44423
44828
44807
44768
44803
44772
44538
44738
44730
44666
44599
44679
44663
44295
44616
44580
44542
44596
44335
44530
44532
44463
44436
44500
44478
44449
44191
44407
44390
44383
44359
44341
44304
44230
44286
44292
44244
44239
44231
44199
44111
44139
44170
44157
44071
43684
44095
44076
44064
44038
43937
44021
44028
43956
43607
43967
43941
43868
43908
43901
43879
43647
43850
43820
43799
43756
43685
43764
43774
43626
43326
43703
43677
43655
43559
43637
43633
43377
43575
43502
43553
43207
43527
43457
43495
43490
43399
43005
43420
43328
43405
43103
43358
43327
43260
43322
43180
43271
43239
43242
43239
43070
43188
43183
43074
43159
43121
42911
43103
43063
42981
43058
43036
42836
42996
42983
42882
42963
42932
42919
42884
42893
42852
42853
42807
42814
42815
42790
42671
42396
42720
42695
42719
42696
42615
42497
42647
42631
42614
42503
42581
42573
42503
42136
42503
42500
42484
42452
42467
42382
42100
42399
42388
42327
42278
42334
42325
42311
42260
41898
42247
42245
41841
42126
42187
42165
42143
42083
42111
42103
42086
42063
41982
42039
42004
41943
41985
41975
41963
41943
41871
41923
41743
41863
41887
41663
41806
41822
41791
41703
41779
41751
41663
41716
41692
41630
41658
41646
41607
41588
41583
41515
41535
41553
41479
41524
41510
41413
41474
41156
41422
41420
41106
41383
41359
41350
41333
41306
41322
41228
41263
41253
41242
41091
41196
41191
41111
41159
41077
41116
40889
41092
41085
41010
41031
40959
41007
40653
40958
40966
40607
40917
40931
40655
40871
40836
40815
40827
40751
40748
40782
40761
40687
40723
40717
40518
40663
40685
40551
40638
40556
40613
40372
40579
40524
40515
40519
40503
40479
40465
40448
40378
40418
40399
40354
40381
40211
40348
40334
40199
40295
40248
40255
40228
40188
40213
39943
40174
40151
40139
40130
40088
40103
39935
40066
40005
40030
40007
39999
39943
39979
39855
39943
39876
39908
39813
39861
39860
39839
39613
39786
39737
39765
39489
39732
39732
39652
39671
39649
39660
39479
39615
39574
39580
39327
39540
39551
39423
39498
39510
39447
39466
39454
39347
39409
39349
39366
39351
39338
39325
39060
39292
39303
39111
39247
39246
39175
39201
39191
39116
39137
39126
39114
38887
39095
39030
39047
38783
39015
39023
38902
38975
38914
38940
38684
38900
38903
38823
38863
38791
38815
38804
38767
38759
38758
38739
38735
38703
38663
38692
38458
38635
38631
38359
38577
38588
38435
38558
38522
38495
38496
38444
38468
38270
38443
38431
38335
38373
38397
38238
38343
38341
38222
38281
38287
38182
38252
38245
38103
38207
38199
38159
38116
38119
38118
38109
37958
38066
38056
37868
38009
38017
37878
37970
37961
37844
37918
37895
37892
37885
37859
37831
37839
37812
37767
37753
37754
37756
37703
37716
37668
37672
37668
37628
37630
37618
37621
37500
37566
37563
37545
37511
37471
37492
37492
37454
37426
37430
37415
37383
37380
37364
37370
37338
37342
37307
37303
37279
37263
37253
37241
37212
37211
37117
37166
37175
36975
37099
37082
37095
37094
36988
37044
37047
36895
36994
36999
36781
36935
36933
36915
36879
36863
36879
36855
36842
36823
36793
36801
36774
36759
36765
36661
36725
36721
36615
36676
36665
36627
36638
36587
36601
36476
36571
36565
36404
36521
36517
36455
36463
36458
36431
36439
36423
36394
36404
36343
36197
36335
36326
36287
36284
36296
36273
36239
36151
36065
36202
36194
36155
36169
36140
36093
36014
36084
36067
36057
36068
36038
35975
35841
35966
35953
35943
35919
35901
35913
35884
35768
35838
35836
35798
35811
35734
35762
35759
35719
35724
35701
35572
35659
35656
35623
35642
35619
35579
35487
35555
35547
35539
35510
35500
35427
35455
35463
35431
35436
35392
35375
35327
35207
35356
35335
35315
35295
35311
35271
35227
35117
35217
35204
35195
35180
35155
35079
35001
35099
35099
35079
35047
35072
35045
34977
34885
34981
34975
34973
34943
34932
34911
34915
34903
34863
34838
34759
34705
34817
34801
34782
34764
34750
34714
34713
34727
34703
34692
34663
34628
34594
34534
34599
34595
34575
34551
34556
34549
34498
34386
34486
34486
34439
34455
34431
34383
34243
34380
34372
34351
34359
34333
34270
34166
34279
34263
34252
34248
34223
34190
34115
34181
34163
34153
34159
34117
34047
34088
34073
34055
34075
34015
33902
33997
33993
33983
33959
33959
33927
33879
33842
33758
33871
33875
33854
33823
33846
33799
33780
33666
33767
33749
33745
33724
33596
33706
33692
33671
33671
33623
33555
33625
33600
33592
33580
33575
33511
33530
33527
33493
33514
33476
33397
33450
33434
33415
33420
33287
33381
33395
33335
33334
33320
33338
33287
33217
33277
33255
33249
33194
33216
33213
33199
33181
33090
33155
33148
33135
33115
33062
33015
33079
33047
33045
33037
33031
33004
32959
32876
32956
32956
32943
32926
32931
32918
32895
32868
32821
32767
32724
32827
32817
32801
32775
32775
32775
32756
32724
32678
32629
32696
32691
32671
32668
32658
32593
32559
32604
32588
32587
32566
32558
32547
32452
32519
32519
32439
32481
32484
32453
32407
32341
32419
32415
32399
32391
32364
32353
32342
32339
32337
32330
32310
32295
32263
32223
32172
32232
32225
32215
32206
32203
32188
32159
32118
32071
32131
32127
32101
32113
32080
32052
31974
32039
32028
32023
32036
31994
31945
31903
31964
31957
31936
31927
31918
31930
31900
31879
31844
31825
31750
31834
31825
31821
31793
31790
31778
31772
31764
31734
31684
31630
31707
31701
31687
31689
31666
31655
31636
31569
31618
31617
31607
31596
31571
31556
31521
31508
31471
31522
31509
31486
31484
31472
31455
31450
31447
31436
31378
31398
31399
31390
31380
31361
31351
31335
31331
31335
31313
31307
31295
31267
31234
31191
31239
31228
31215
31199
31202
31189
31189
31182
31143
31111
31135
31129
31100
31088
31078
31083
31067
31054
31054
31051
31038
31018
30981
30951
30983
30972
30958
30958
30932
30925
30935
30933
30897
30891
30871
30862
30859
30843
30837
30829
30815
30789
30753
30779
30766
30766
30759
30759
30727
30703
30679
30702
30685
30676
30679
30669
30633
30623
30588
30604
30607
30602
30598
30591
30564
30518
30561
30541
30532
30518
30513
30491
30416
30478
30470
30456
30438
30415
30423
30419
30405
30412
30391
30356
30372
30354
30354
30338
30343
30319
30287
30295
30300
30282
30269
30268
30254
30244
30246
30228
30185
30203
30196
30188
30188
30157
30165
30148
30119
30124
30118
30108
30105
30103
30083
30089
30069
30052
30032
30036
30013
30023
30015
29999
29959
29977
29973
29959
29958
29932
29927
29927
29911
29916
29876
29879
29879
29882
29844
29839
29845
29815
29821
29815
29799
29764
29789
29780
29772
29754
29750
29750
29730
29703
29682
29702
29681
29677
29679
29670
29663
29657
29639
29630
29625
29601
29606
29599
29575
29590
29578
29574
29557
29532
29471
29521
29519
29502
29498
29483
29484
29476
29447
29391
29432
29425
29414
29408
29412
29404
29391
29359
29362
29346
29338
29351
29326
29293
29257
29295
29292
29267
29254
29261
29247
29197
29223
29214
29191
29191
29189
29155
29134
29142
29141
29136
29126
29095
29099
29095
29092
29082
29063
29037
29044
29031
29033
29006
28999
28990
28983
28981
28981
28933
28935
28935
28943
28924
28904
28891
28895
28871
28871
28860
28852
28832
28831
28833
28826
28813
28791
28799
28781
28756
28766
28748
28750
28724
28728
28719
28710
28698
28703
28653
28658
28655
28651
28655
28647
28625
28583
28611
28582
28589
28588
28572
28551
28548
28538
28540
28526
28502
28508
28495
28484
28485
28468
28461
28447
28447
28437
28422
28414
28423
28406
28379
28386
28359
28357
28353
28343
28327
28309
28310
28303
28308
28289
28283
28262
28247
28251
28240
28243
28233
28218
28215
28204
28178
28179
28180
28169
28141
28144
28140
28132
28127
28127
28085
28084
28084
28060
28074
28063
28037
28039
28027
28015
28023
28005
27995
27978
27962
27966
27961
27950
27947
27939
27929
27924
27902
27892
27886
27878
27872
27879
27862
27839
27827
27828
27823
27804
27801
27803
27779
27773
27751
27758
27747
27747
27730
27733
27718
27702
27690
27684
27678
27660
27655
27655
27631
27623
27622
27603
27604
27607
27580
27572
27559
27559
27559
27540
27517
27517
27510
27509
27509
27495
27486
27472
27454
27451
27442
27437
27436
27422
27399
27381
27378
27380
27372
27367
27349
27332
27329
27323
27315
27309
27301
27263
27278
27278
27263
27246
27247
27231
27220
27194
27202
27207
27202
27170
27154
27159
27157
27143
27142
27135
27111
27093
27098
27088
27085
27086
27059
27045
27052
27040
27028
27027
27012
26991
26985
26983
26983
26975
26962
26943
26940
26929
26929
26925
26894
26887
26887
26875
26871
26852
26836
26828
26827
26827
26821
26791
26795
26789
26785
26759
26764
26735
26726
26730
26718
26721
26719
26682
26684
26681
26693
26665
26649
26647
26646
26631
26607
26610
26599
26592
26585
26566
26567
26546
26553
26529
26511
26517
26506
26503
26519
26465
26459
26466
26448
26447
26457
26420
26405
26409
26414
26383
26365
26365
26354
26357
26372
26326
26322
26311
26303
26296
26303
26298
26247
26250
26247
26238
26228
26227
26230
26180
26179
26183
26186
26178
26183
26119
26135
26127
26117
26130
26093
26076
26079
26070
26060
26074
26033
26020
26020
26002
26007
26015
26021
25967
25958
25953
25957
25972
25911
25914
25907
25898
25898
25900
25861
25852
25846
25825
25833
25824
25839
25796
25794
25782
25795
25745
25740
25742
25724
25731
25761
25686
25692
25687
25685
25690
25645
25643
25633
25619
25628
25629
25586
25575
25565
25560
25560
25571
25527
25530
25500
25495
25503
25479
25493
25495
25508
25479
25423
25411
25415
25412
25396
25386
25378
25383
25375
25401
25332
25319
25325
25301
25296
25295
25308
25319
25255
25252
25236
25231
25239
25198
25191
25189
25175
25164
25177
25188
25125
25124
25116
25102
25094
25076
25073
25057
25056
25058
25059
24948
25002
25013
24998
25007
24995
25007
24945
24939
24937
24924
24916
24934
24941
24879
24867
24866
24861
24844
24836
24826
24823
24822
24858
24776
24777
24766
24755
24767
24729
24735
24711
24694
24691
24684
24668
24656
24658
24666
24663
24687
24607
24597
24606
24576
24575
24556
24564
24578
24578
24591
24491
24486
24481
24481
24470
24453
24450
24471
24491
24399
24392
24398
24383
24370
24364
24365
24368
24322
24319
24300
24295
24278
24290
24284
24299
24218
24204
24202
24188
24178
24168
24158
24169
24163
24175
24103
24089
24089
24077
24069
24108
24024
24020
24025
24007
24000
23995
23980
23963
23954
23964
23988
23902
23888
23892
23884
23867
23855
23854
23909
23812
23790
23784
23787
23772
23758
23764
23834
23709
23691
23703
23701
23677
23671
23687
23717
23682
23606
23603
23597
23584
23583
23596
23538
23525
23533
23508
23505
23559
23463
23471
23450
23448
23433
23477
23392
23394
23380
23378
23365
23348
23351
23350
23404
23292
23293
23275
23272
23262
23259
23257
23320
23198
23204
23286
23169
23151
23156
23143
23132
23120
23119
23124
23181
23054
23047
23060
23028
23039
23109
22997
22978
22983
22979
22951
22940
22981
22897
22900
22887
22894
22867
22858
22853
22886
22944
22798
22791
22797
22779
22765
22763
22798
22840
22703
22704
22693
22700
22693
22670
22655
22649
22686
22736
22588
22593
22592
22583
22558
22552
22548
22567
22635
22490
22493
22484
22471
22529
22427
22431
22425
22404
22417
22419
22363
22355
22350
22340
22327
22364
22444
22286
22268
22276
22259
22253
22238
22248
22335
22186
22176
22177
22172
22151
22145
22151
22183
22096
22096
22086
22070
22060
22115
22011
22013
22028
22003
21999
21965
21965
21955
21945
21972
21843
21891
21907
21881
21889
21964
21841
21826
21826
21826
21810
21791
21788
21795
21868
21732
21730
21725
21714
21708
21739
21798
21661
21657
21643
21633
21615
21617
21607
21612
21647
21663
21542
21529
21521
21518
21501
21533
21469
21468
21460
21439
21429
21453
21511
21387
21386
21393
21369
21348
21358
21437
21303
21303
21298
21279
21286
21369
21228
21221
21227
21213
21199
21239
21159
21148
21159
21145
21129
21175
21093
21093
21095
21081
21062
21085
21170
21023
21012
21018
20997
21007
20961
20954
20954
20943
20926
20953
20898
20889
20884
20875
20914
20837
20832
20823
20815
20893
20791
20775
20778
20767
20775
20718
20713
20724
20705
20750
20671
20679
20655
20761
20636
20622
20643
20714
20583
20581
20568
20557
20572
20607
20645
20503
20498
20483
20481
20473
20469
20444
20479
20415
20402
20407
20391
20381
20483
20343
20340
20348
20322
20311
20315
20319
20368
20264
20252
20231
20239
20227
20214
20203
20212
20292
20186
20194
20148
20134
20242
20105
20099
20076
20097
20093
20050
20071
20045
20009
20021
20009
20111
19986
19974
19955
19956
19942
20063
19915
19915
19895
19901
19885
19847
19857
19846
19879
19816
19818
19808
19785
19783
19773
19749
19764
19751
19705
19709
19821
19687
19686
19692
19647
19664
19644
19617
19612
19614
19606
19572
19574
19572
19569
19537
19543
19524
19543
19487
19499
19481
19586
19473
19453
19548
19422
19413
19503
19391
19382
19492
19367
19367
19334
19353
19361
19309
19304
19435
19293
19277
19341
19268
19258
19227
19226
19281
19204
19188
19174
19190
19199
19147
19150
19151
19119
19121
19135
19089
19085
19167
19060
19060
19171
19041
19028
19009
19011
19013
18981
18983
19078
18962
18949
19083
18935
18919
19017
18902
18886
18870
18885
18857
18835
18859
18864
18809
18809
18855
18796
18791
18756
18771
18788
18747
18736
18875
18718
18703
18684
18701
18689
18650
18669
18665
18631
18634
18638
18597
18596
18630
18560
18567
18651
18543
18555
18613
18522
18533
18599
18501
18503
18519
18465
18470
18516
18438
18442
18534
18412
18410
18420
18364
18380
18373
18339
18359
18333
18492
18308
18309
18322
18271
18286
18341
18242
18239
18271
18212
18217
18282
18179
18183
18271
18176
18188
18127
18139
18159
18094
18095
18147
18071
18071
18049
18060
18017
18030
18013
18020
18007
17989
17991
17968
18045
17933
17937
17974
17908
17919
17918
17877
17894
17896
17855
17852
17837
17830
17916
17806
17806
17956
17795
17899
17765
17751
17730
17751
17760
17719
17705
17889
17709
17717
17669
17679
17795
17660
17649
17627
17626
17763
17625
17606
17578
17589
17559
17574
17583
17526
17535
17553
17500
17510
17600
17481
17483
17662
17476
17449
17617
17445
17441
17603
17423
17411
17377
17409
17383
17386
17366
17354
17509
17337
17332
17316
17331
17317
17287
17318
17300
17263
17268
17471
17257
17249
17229
17224
17429
17210
17207
17350
17193
17173
17391
17173
17159
17229
17132
17154
17138
17105
17125
17106
17083
17107
17103
17063
17077
17267
17064
17071
17037
17039
17095
17024
17020
16999
17015
17070
16989
16980
17022
16954
16962
17101
16946
16939
16911
16948
16943
16903
16908
16889
16915
16895
16868
16878
16962
16863
16847
16847
16855
16837
16817
16835
16811
16802
16821
16817
16785
16792
16952
16775
16768
16755
16775
16743
16740
16748
16733
16711
16727
16719
16692
16707
16702
16674
16695
16680
16910
16677
16672
16644
16661
16650
16643
16625
16637
16683
16620
16617
16791
16594
16604
16695
16586
16581
16582
16573
16549
16558
16563
16606
16570
16733
16538
16532
16571
16515
16522
16572
16497
16517
16511
16485
16506
16577
16481
16495
16465
16705
16463
16468
16594
16452
16454
16681
16455
16425
16416
16450
16419
16409
16433
16409
16390
16420
16417
16386
16411
16414
16361
16380
16391
16382
16374
16359
16364
16360
16503
16353
16351
16370
16318
16359
16332
16486
16319
16328
16356
16304
16314
16352
16297
16318
16328
16284
16303
16302
16281
16291
16285
16450
16279
16266
16469
16271
16271
16327
16253
16282
16253
16485
16248
16270
16247
16230
16265
16245
16234
16252
16236
16505
16238
16224
16211
16243
16247
16204
16228
16284
16211
16210
16263
16200
16209
16275
16197
16209
16231
16194
16200
16355
16207
16189
16180
16206
16182
16184
16206
16214
16178
16205
16252
16189
16169
16457
16193
16190
16277
16168
16180
16266
16157
16181
16216
16159
16181
16199
16155
16208
16187
16164
16175
16297
16179
16156
16115
16197
16171
16157
16179
16243
16166
16169
16224
16150
16172
16213
16150
16179
16178
16262
16155
16197
16168
16158
16190
16172
16153
16178
16342
16178
16167
16154
16190
16191
16165
16179
16385
16183
16175
16166
16199
16201
16174
16188
16445
16215
16313
16178
16186
16460
16199
16188
16188
16202
16192
16194
16230
16210
16187
16207
16215
16196
16210
16214
16239
16195
16220
16220
16215
16526
16215
16231
16234
16486
16213
16256
16227
16485
16231
16249
16290
16225
16259
16260
16249
16263
16251
16415
16245
16293
16268
16256
16290
16268
16545
16271
16282
16300
16271
16317
16317
16287
16321
16310
16297
16313
16324
16324
16309
16330
16328
16325
16552
16327
16348
16389
16327
16360
16348
16458
16351
16389
16360
16359
16361
16401
16380
16372
16399
16401
16505
16386
16401
16455
16399
16426
16424
16426
16419
16449
16445
16722
16457
16444
16445
16451
16478
16462
16716
16486
16474
16531
16487
16504
16666
16509
16511
16738
16513
16524
16685
16520
16529
16554
16530
16550
16559
16576
16553
16587
16586
16572
16607
16584
16796
16596
16612
16815
16607
16621
16666
16615
16646
16635
16911
16647
16652
16728
16650
16694
16704
16676
16678
16698
16729
16688
16709
16702
16736
16710
16718
16718
16825
16719
16753
16729
17012
16732
16759
16789
16740
16778
16769
16758
16783
16780
16828
16777
16807
16789
17055
16801
