EGG
34362
34303
34362
34365
34393
34095
34311
34325
34362
34325
34300
34383
34399
34229
34369
34377
34383
34335
34344
34372
34402
34238
34375
34374
34375
34362
34276
34375
34340
34391
34384
34205
34380
34356
34388
34406
34158
34372
34342
34383
34391
34385
34370
34303
34391
34385
34395
34398
34279
34375
34311
34401
34343
34397
34351
34390
34378
34389
34382
34301
34394
34366
34391
34377
34391
34395
34332
34389
34325
34400
34394
34356
34394
34377
34391
34296
34377
34372
34390
34395
34357
34395
34407
34279
34389
34351
34386
34379
34389
34389
34356
34391
34386
34380
34375
34382
34374
34391
34360
34375
34389
34365
34370
34391
34377
34385
34372
34377
34381
34369
34373
34388
34359
34367
34377
34368
34365
34378
34362
34398
34367
34361
34383
34370
34415
34367
34382
34356
34420
34372
34372
34389
34362
34415
34364
34461
34368
34408
34372
34417
34373
34462
34367
34364
34412
34366
34367
34395
34366
34452
34358
34351
34396
34367
34356
34367
34351
34402
34357
34361
34359
34359
34417
34353
34343
34357
34351
34405
34358
34346
34380
34354
34428
34350
34344
34361
34340
34381
34351
34439
34359
34334
34357
34343
34437
34359
34508
34331
34338
34372
34350
34439
34353
34335
34351
34343
34471
34342
34331
34382
34355
34516
34327
34336
34359
34336
34517
34356
34325
34527
34326
34311
34349
34323
34407
34343
34556
34330
34327
34382
34327
34541
34319
34311
34356
34324
34422
34330
34311
34322
34307
34334
34311
34455
34335
34309
34322
34323
34415
34327
34470
34300
34311
34319
34303
34342
34311
34439
34324
34364
34306
34293
34320
34295
34318
34278
34333
34287
34379
34308
34463
34295
34283
34279
34279
34299
34276
34343
34283
34460
34297
34583
34265
34268
34266
34249
34275
34269
34287
34262
34418
34263
34244
34287
34255
34405
34251
34236
34246
34237
34278
34248
34410
34250
34222
34247
34237
34489
34206
34207
34252
34222
34535
34198
34191
34247
34201
34527
34181
34196
34215
34183
34184
34162
34180
34171
34167
34498
34175
34223
34148
34159
34478
34165
34255
34133
34199
34143
34140
34118
34129
34251
34123
34108
34085
34106
34236
34087
34106
34068
34095
34183
34055
34040
34287
34055
34108
34029
34023
34206
34023
34035
34007
33996
34342
33998
34030
33973
33972
34345
33987
34132
33972
34023
33934
33947
33922
33913
34207
33927
34095
33924
34071
33903
33940
33863
33856
34191
33863
33862
33837
33823
33926
33815
33819
33838
33882
33796
33788
33765
33775
34031
33771
33862
33759
33772
33711
33723
34124
33727
33753
33695
33684
33886
33678
33702
33650
33637
34045
33671
33738
33641
33856
33636
33710
33610
33692
33586
33620
33581
33980
33595
33579
33895
33531
33529
33602
33556
33909
33511
33511
33642
33515
33474
33473
33732
33487
33561
33452
33517
33431
33455
33431
33415
33764
33415
33422
33793
33414
33454
33365
33367
33775
33358
33343
33341
33511
33342
33359
33317
33318
33689
33328
33479
33323
33370
33279
33287
33255
33287
33365
33260
33263
33242
33244
33223
33227
33214
33252
33492
33236
33287
33207
33223
33188
33181
33167
33172
33162
33172
33227
33148
33143
33140
33466
33146
33124
33148
33100
33132
33110
33095
33084
33119
33245
33091
33064
33476
33100
33167
33063
33069
33047
33052
33035
33050
33069
33031
33044
33012
33007
33159
33024
33023
32996
32980
33310
32998
33050
32973
32975
32963
32982
33127
32966
32967
32935
32958
33097
32943
32961
32911
32917
33015
32919
33143
32923
32930
32900
32889
33158
32892
32991
32871
32871
32869
32849
32855
32868
33089
32855
32868
32839
32842
32931
32844
32845
32815
32839
32903
32812
32831
32805
32803
32795
32807
32785
32785
33029
32794
32839
32766
32765
32998
32764
33012
32766
32852
32753
32814
32738
32741
32983
32742
32787
32711
32724
32759
32710
32726
32764
32705
32695
32915
32711
32761
32687
32693
32831
32673
32872
32687
32879
32669
32647
32669
32652
32662
32846
32657
32713
32647
32645
32798
32644
32656
32626
32653
32693
32621
32623
32612
32621
32682
32611
32615
32708
32613
32619
32599
32615
32583
32604
32581
32599
32630
32583
32589
32583
32595
32615
32576
32600
32579
32583
32573
32580
32566
32573
32572
32551
32568
32575
32562
32563
32565
32562
32559
32511
32550
32551
32543
32548
32540
32555
32529
32533
32511
32535
32556
32398
32519
32506
32525
32535
32532
32519
32477
32516
32519
32519
32548
32406
32517
32487
32537
32539
32366
32509
32463
32511
32500
32519
32527
32511
32497
32407
32500
32463
32510
32464
32515
32517
32497
32462
32381
32510
32476
32505
32504
32488
32510
32212
32455
32451
32500
32487
32493
32449
32417
32477
32435
32501
32485
32492
32468
32277
32454
32399
32490
32442
32493
32492
32487
32502
32483
32509
32493
32411
32423
32492
32513
32325
32485
32495
32103
32446
32470
32495
32513
32186
32413
32423
32487
32500
32488
32503
32497
32451
32391
32508
32501
32501
32519
32101
32391
32454
32508
32511
32509
32528
32097
32422
32322
32473
32474
32519
32508
32519
32503
32209
32467
32482
32529
32511
32527
32517
32530
32558
32533
32559
32084
32423
32418
32455
32423
32479
32474
32540
32533
32559
32565
32543
32548
32153
32437
32359
32423
32487
32484
32516
32557
32540
32579
32550
32574
32602
32580
32469
32372
32477
32565
32601
32608
32588
32599
32222
32449
32561
32615
32617
32151
32571
32411
32601
32615
32623
32574
32398
32615
32618
32631
32565
32327
32491
32564
32616
32623
32653
32659
32647
32661
32655
32669
32677
32687
32175
32549
32462
32612
32671
32696
32695
32445
32696
32711
32421
32644
32687
32695
32706
32199
32570
32654
32702
32719
32718
32707
32495
32695
32709
32737
32740
32732
32693
32542
32684
32730
32763
32759
32746
32775
32272
32775
32256
32630
32636
32727
32774
32788
32739
32534
32746
32814
32797
32729
32584
32655
32771
32821
32843
32810
32823
32410
32673
32759
32822
32828
32839
32869
32511
32738
32775
32764
32354
32871
32391
32765
32501
32820
32679
32823
32881
32887
32911
32903
32775
32844
32902
32918
32917
32939
32722
32838
32429
32900
32715
32817
32839
32826
32845
32814
32791
32811
32711
32822
32897
32909
32948
32993
33005
33011
33017
32751
32975
32560
32879
32876
32901
32901
32903
32982
32961
33019
33052
33073
33063
33079
33070
33083
33093
33101
33082
33084
33102
33060
33066
33010
32965
32839
32981
32948
33012
32691
33128
32695
33053
32771
33091
32718
33151
32786
33149
32743
33076
32719
33079
32871
33071
33023
33076
32978
33078
32995
33071
33090
33111
33063
33097
33132
33217
33199
33248
33263
33254
33272
33011
33162
32977
33159
32988
33145
33158
33177
33287
33289
33159
33270
33319
33322
33172
33318
33301
33327
33311
33339
33338
33340
33365
33345
33340
33207
33031
33236
33169
33255
33380
33375
33399
32891
33331
33150
33237
33379
33411
33431
32916
33287
33423
33423
33350
33222
33350
33407
33446
33473
33055
33327
33147
33483
33477
33498
33479
33353
33479
33505
33511
32970
33348
33470
33509
33535
33019
33351
33492
33535
33543
33543
33447
33431
33543
33556
33567
33575
33439
33567
33557
33568
33583
33420
33562
33593
33587
33400
33567
33604
33572
33450
33474
33570
33591
33598
33284
33431
33576
33603
33604
33595
33421
33583
33596
33605
33067
33419
33579
33611
33624
33271
33436
33583
33604
33617
33611
33530
33319
33436
33603
33615
33636
33621
33649
33618
33510
33435
33462
33500
33576
33592
33591
33635
33637
33653
33487
33646
33663
33650
33659
33644
33673
33120
33500
33564
33553
33634
33663
33671
33659
33681
33199
33491
33633
33671
33677
33140
33533
33535
33635
33530
33527
33521
33510
33543
33527
33390
33655
33191
33696
33244
33561
33447
33542
33653
33711
33655
33735
33723
33717
33560
33710
33717
33631
33711
33733
33647
33607
33705
33739
33736
33663
33703
33755
33767
33341
33692
33754
33749
33603
33700
33742
33751
33767
33734
33671
33749
33773
33764
33789
33468
33715
33771
33775
33799
33369
33624
33767
33778
33812
33789
33700
33539
33639
33693
33638
33767
33799
33826
33403
33671
33782
33807
33827
33820
33838
33814
33838
33543
33783
33799
33829
33851
33822
33847
33434
33748
33831
33847
33847
33844
33827
33860
33867
33671
33843
33871
33311
33682
33839
33856
33881
33359
33683
33836
33879
33883
33863
33892
33879
33889
33875
33899
33351
33751
33586
33748
33445
33705
33863
33894
33903
33894
33911
33908
33905
33895
33922
33909
33902
33908
33869
33767
33895
33908
33910
33911
33935
33922
33938
33913
33938
33924
33947
33927
33935
33897
33883
33826
33825
33788
33828
33742
33652
33823
33493
33794
33779
33855
33901
33871
33887
33746
33911
33737
33848
33744
33635
33764
33799
33741
33901
33749
33671
33953
33685
33775
33575
33884
33351
33927
33958
33772
33922
33967
33970
33959
33980
33965
33741
33958
33981
33990
33631
33799
33935
33902
33957
33964
33968
33964
33987
33978
33985
33966
33752
33927
33889
33973
33967
33999
33463
33780
33983
33983
33885
33940
33975
33990
33826
33887
33991
33978
33967
33495
33783
33974
33979
33844
33959
33969
33996
33599
33795
33973
33972
33993
33335
33815
33983
33980
33999
33323
33735
33965
33978
34004
33980
33997
33356
33741
33919
33991
33991
33463
33738
33947
33975
34003
33329
33785
33971
33983
33991
33431
33735
33964
33970
34001
33450
33747
33969
33983
33994
33980
34007
33677
33791
33985
33991
34015
33332
33765
33895
33988
34007
33341
33759
33964
33959
33991
33983
34009
33978
33979
33658
33739
33882
33911
33982
33830
33988
33991
33994
34011
34007
33959
34010
34010
33941
33466
33861
33717
33759
33775
33750
33699
33782
33851
33764
33927
33756
33765
33799
33863
33836
33999
34007
33903
33973
33994
34025
34011
33765
34015
34012
33932
33910
33948
34029
34007
33775
34017
34030
33754
34038
33429
33859
34039
33953
34010
33927
33958
34020
34036
33455
33775
34015
34029
34046
33489
33863
34029
34031
34044
33351
33760
34023
34039
34012
33910
34031
34052
33639
33797
34039
34023
33764
34029
34023
33790
34036
34023
34047
33539
33812
34036
34044
34069
33647
33853
34055
34045
33898
33379
33791
34047
34054
34055
33855
33948
34055
34055
33807
34055
34054
33918
33935
33902
34066
34063
34087
34067
33945
33799
33846
34061
34036
34078
34075
34089
33683
33823
34065
34081
34085
33759
33871
34070
34071
34100
33436
33835
34073
34095
34102
34067
34106
33902
34019
34092
34098
34113
33431
33966
34114
33420
33856
34092
34084
34131
33447
33863
33988
34083
34111
34126
33863
33661
33875
34106
34121
34139
33452
33886
34125
34143
33957
34123
34140
34127
34007
34037
34145
34135
34157
34095
34138
34173
34150
33919
34135
34164
34101
34130
34164
34183
33676
33935
34129
34156
34193
34172
33985
34099
34148
34184
34167
34182
34066
34089
34180
34199
34207
33687
34039
34211
34199
34213
33623
33970
34180
34207
34204
34211
34196
34069
34189
34227
34216
34233
33606
34005
34062
34125
34227
34228
34237
34223
34239
34231
34233
34247
34248
34257
34238
34255
34167
33932
34261
34247
34229
34039
34257
34284
34253
34277
34211
33927
34233
34263
34267
34167
34167
34150
33735
34295
34284
34311
34276
34303
34284
34213
34087
34293
34311
34269
33901
34326
34311
34278
34246
34311
34337
34308
34183
34284
34327
34335
34239
34033
34351
34340
34149
34361
34335
34220
34366
34327
34212
34285
34357
34366
34278
34239
34189
34343
34377
34364
34377
34353
34270
34364
34381
34371
34181
34036
34399
34406
34293
34362
34389
34407
34287
34135
34413
34393
34393
34185
33835
34413
34409
34388
34257
33909
34421
34420
34452
34439
34453
34432
34402
34250
33889
34455
34428
34247
34466
34439
34318
34469
34449
34453
34337
34148
34471
34414
34311
34376
33926
34304
34452
34477
34486
34066
34247
34396
34404
34463
34471
34477
34461
34285
34443
34454
34470
34470
34414
34039
34284
34460
34460
34468
34329
34279
34425
34453
34460
34444
34428
34232
34215
34431
34450
34466
33937
34219
34446
34447
34467
34440
34203
34430
34442
34428
34253
34381
34455
34425
34204
34432
34429
34463
33789
34204
34322
34372
34449
34435
34455
34435
34455
34431
34447
34437
34444
34428
34434
34429
34447
34431
34289
34180
34191
34283
34215
34423
34426
34446
34423
34213
34402
34414
34431
34426
34436
34431
34390
34191
34311
34422
34431
34407
34083
34343
34217
34311
34439
34418
34454
34428
34196
34422
34423
34423
34040
34199
34423
34425
34398
34286
34405
34447
33978
34239
34428
34431
34322
34380
34431
34444
33835
34197
34412
34422
34439
34433
34439
34422
34439
34431
34439
34415
34438
34427
34343
34329
34407
34439
34423
34449
34423
34204
34311
34229
34417
34427
34435
34436
34437
34431
34454
34010
34199
34421
34433
34449
33812
34266
34442
34424
34460
33956
34223
34312
34279
34405
34420
34434
34431
34447
34436
34343
34351
34379
34435
34439
34282
34404
34438
34458
34423
34443
34181
34240
34427
34439
34345
34306
34375
34439
34427
34364
33869
34228
34417
34453
34387
34391
34439
34439
34439
34266
34394
34427
34439
33918
34227
34396
34436
34461
33906
34220
34422
34439
34429
34375
34431
34444
34427
34334
34151
34267
34431
34429
34447
34438
34295
34402
34436
34433
34308
34420
34439
34424
34296
34363
34422
34439
33872
34231
34387
34422
34439
34417
34438
33869
34250
34381
34423
34424
34423
34435
33856
34236
34311
34333
34431
34407
34423
34407
34231
34318
34356
34418
34406
34276
34406
34402
34357
34301
34387
34425
34114
34223
34391
34410
34420
34391
34311
34311
34377
34386
34394
34415
33924
34196
34383
34383
34403
33894
34231
34052
34263
34382
34375
34395
34169
34307
34383
34381
34354
34071
34211
34373
34370
34390
34119
34211
34380
34370
34392
34150
34197
34277
34325
34367
34356
34367
34356
34374
33921
34387
33981
34225
34367
34362
34357
33825
34237
34031
34210
33868
34207
34334
34350
34367
34343
34364
33771
34209
34257
34354
34369
33919
34172
34340
34344
34344
34167
34340
34360
33911
34278
34344
33762
34194
34065
34147
34311
34334
34343
34339
34359
33858
34127
34332
34326
34212
34277
34334
34340
34127
34330
34343
33765
34142
34311
34322
34343
33923
34141
34267
34338
34327
34332
34346
34331
34205
34217
34323
34343
33775
34205
34079
34204
34311
34311
34346
33895
34125
34300
34333
34335
34331
34207
34332
34343
34325
34303
34183
34327
34334
34247
34295
34335
34343
33868
34180
34311
34311
34331
33838
34130
34263
34311
34331
34311
34347
34329
34341
34311
34335
34311
34319
34119
34310
34319
34335
34311
34335
34322
34321
34343
34326
34345
34327
34268
34276
34337
34332
34284
34331
34335
34170
34311
34334
34360
34167
34281
34349
33901
34172
34337
34324
34351
33939
34163
34324
34325
34324
34207
34322
34343
34335
34263
34265
34332
34344
33933
34162
34300
34348
34358
34329
34366
33911
34185
34325
34363
34358
34092
34311
34359
34343
34173
34287
34333
34362
33809
34178
34327
34356
34369
33829
34157
34287
34330
34340
33849
34201
34004
34197
34327
34326
34311
34356
34353
34354
34372
34364
34373
34103
34209
34357
34363
34383
33903
34212
34365
34369
34389
34372
34196
34343
34371
34390
34166
34231
34291
34372
34394
34383
34207
34036
34404
34374
34383
34332
34047
34389
34389
34382
34323
34088
34302
34383
34391
34410
33950
34209
34354
34356
34383
34405
34417
34334
34401
34414
33887
34234
34405
34397
34418
34095
34394
34412
33879
34246
34415
34418
34382
34373
34431
34429
34207
34404
34415
34421
34255
34410
34417
34332
34393
34433
34445
34257
34375
34434
34439
34264
34404
34446
34405
34401
34436
34460
34263
34327
34463
34170
34435
34455
34448
34347
34453
34453
34378
34415
34455
34438
34302
34470
34486
34453
34356
34279
34055
34371
34482
34483
34498
34111
34421
34494
33968
34293
34331
34278
34465
34495
34353
34407
34463
34495
34485
34311
34491
34494
34463
34439
34498
34527
34140
34473
34509
34511
34444
34373
34453
34535
34511
34344
34502
34507
34487
34447
34515
34542
34311
34519
34541
34531
34442
34412
34563
34473
34537
34406
34512
34542
34481
34549
34068
34500
34567
34190
34411
34564
34543
34378
34549
34556
34395
34567
34559
34391
34577
34567
34423
34575
34563
34415
34567
34581
34437
34518
34580
34526
34559
34590
34613
34326
34583
34615
34442
34599
34460
34591
34605
34473
34621
34599
34419
34539
34604
34625
34066
34567
34639
34101
34510
34632
34620
34422
34627
34070
34607
34641
34585
34639
34516
34485
34452
34449
34602
34516
34524
34641
34639
34429
34479
34583
34637
34639
34636
34592
34628
34420
34618
34631
34632
34190
34580
34613
34618
34562
34539
34615
34455
34629
34118
34487
34623
34020
34519
34627
34207
34561
34633
34461
34609
34470
34560
34596
34611
34596
34522
34459
34577
34607
34114
34447
34615
34207
34416
34604
34015
34489
34611
34018
34383
34586
34596
34445
34463
34587
34603
34597
34459
34487
34589
34596
34603
34503
34324
34421
34567
34596
34596
34463
34573
34591
34583
34564
34531
34589
34599
33990
34369
34575
34574
34381
34590
34580
34604
34576
34526
34439
34359
34382
34567
34586
34575
34575
34572
34279
34239
34502
34547
34369
34464
34523
34589
34599
34355
34564
34599
34023
34511
34589
34087
34575
34596
34186
34542
34548
34429
34349
34582
34586
34277
34567
34567
34565
34580
34575
34582
34567
34590
34586
34580
34591
34582
34580
34576
34587
34567
33925
34565
33951
34567
34567
34567
34559
34575
34575
34567
34567
34572
34567
34573
34567
34575
34575
34575
34567
34567
34567
34577
34567
34566
33927
34236
34409
34263
33907
33911
33945
34166
34567
34044
34136
34270
34103
33927
34567
34567
34580
34567
34560
34551
34555
34492
34367
34311
34381
34583
34588
34574
34567
34254
33911
34565
34559
34575
34573
34583
33911
34340
34492
34481
34577
34567
34598
34197
34383
34502
34507
34566
34567
34577
34181
34409
34583
34549
34302
34555
34549
34586
34286
34551
34588
34383
34537
34582
34303
34385
34389
34303
34309
34535
34554
34553
34556
34551
34552
34548
33988
33993
34457
34515
34543
34540
34538
34551
34558
34559
34567
34495
34343
34287
34282
34310
34340
34375
34335
34407
34383
34412
34342
34481
34523
34521
34526
34102
34324
34431
34383
34445
34481
34377
34149
33975
34064
33982
33995
34161
34089
34303
34122
33991
34101
34278
34328
34383
34479
34495
34494
34500
34479
34463
34367
34357
34351
34357
34415
34415
34479
34487
34474
34421
34439
34460
34487
34486
34487
34495
34483
34486
34476
34482
34490
34492
34475
34488
34437
34444
34388
34255
34214
34219
34221
34360
34223
34242
34211
34271
34260
34420
34447
34454
34448
34452
34459
34454
34458
34449
34447
34454
34455
34447
34455
34434
34427
34199
34455
34374
34437
34431
34230
33767
34456
34439
34439
34299
34236
34263
33781
34263
34375
34431
34451
34420
34167
34420
34419
34420
34196
34407
34426
34327
34416
34423
34167
34438
34113
34412
34436
34400
34423
34165
34417
33911
34207
34381
34405
34420
34429
34425
34439
34439
34382
34382
34241
34175
34163
34303
34421
34420
34415
34409
34215
34183
34309
34427
34427
34415
34356
34214
34236
34140
34033
34279
34405
34420
34422
34429
34426
34436
34428
34422
34420
34385
34183
34167
34147
34172
34243
34222
34241
34394
34406
34396
34415
34412
34407
34415
34412
34402
34414
34424
34406
34412
34401
34383
34247
34333
34422
34399
34159
34399
34398
34167
34415
34405
34367
34119
34406
34439
34407
34405
34400
34415
34411
34411
33798
33799
33734
33950
34010
34207
34157
34311
34379
34412
34410
34426
34425
34420
34429
34420
34403
34401
34391
34415
34423
34413
34407
34431
34428
34300
34374
34426
34266
34406
34415
34167
34428
34422
34175
34415
33828
34165
34415
34420
34341
34397
34404
34415
34366
34423
34422
34421
34423
34417
34415
34435
34428
34431
34423
33727
33761
34429
34439
34420
34433
34422
34423
34421
34364
34257
34191
34198
34214
34255
34207
34188
34444
34406
34396
34435
34463
33789
34379
34463
34205
34215
34105
34408
34311
34455
34471
33908
34447
34467
34463
34455
34471
34447
34488
34462
34415
33797
34468
34469
34469
34465
34471
33971
34181
34311
34151
34420
34477
34489
34498
34498
34415
34231
34383
34458
34488
34487
34482
34487
34487
33862
34389
34494
34495
34495
34511
34502
34516
34503
34522
34516
34517
34519
34508
34501
34248
34506
34509
34261
34503
34516
34526
34257
34511
34388
34526
34527
34286
34543
34529
34431
34492
34538
34429
34511
34538
34389
34520
34535
34511
34532
33857
34535
34490
34526
34546
34381
34535
34548
34396
34523
34535
34567
34428
34531
34567
33966
34294
34515
34561
34582
34554
34471
34543
34553
34585
34567
34339
34503
34535
34583
34567
34311
34585
34578
34517
34495
34532
34603
34577
34607
34291
34359
34595
34590
34598
34602
34615
34601
34619
34610
34607
34128
34468
34623
34604
34495
34541
34613
34634
34024
34375
34631
34260
34366
34628
34623
34645
34294
34364
34406
34406
34632
34637
34623
34584
34638
34662
34100
34533
34667
34639
34439
34631
34657
34629
34655
34656
34567
34671
33980
34423
34664
33977
34485
34679
34662
34453
34683
34676
34686
34230
34507
34692
34684
34405
34695
34109
34496
34703
34203
34657
34705
33978
34508
34701
34392
34654
34694
34644
34694
34707
34287
34443
34687
34679
34452
34656
34676
34601
34652
34685
34601
34676
34663
34602
34628
34661
34679
34559
34663
34649
34662
34660
34387
34660
34661
34677
34071
34445
34346
34583
34679
34557
34647
34636
34386
34636
34660
34092
34532
34660
34637
34426
34630
34646
34663
34628
34645
34644
34228
34628
34614
34506
34631
34662
34052
34373
34636
34631
34360
34631
34609
34367
34623
34623
34620
34554
34626
34631
34542
34610
34637
33903
34399
34518
34509
34629
34598
34540
34519
34591
34622
34625
34502
34612
34604
34382
34607
34625
34340
34607
34609
34361
34613
34494
34591
34399
34391
34390
34573
34598
34582
34497
34551
34615
33929
34527
34567
34599
34594
34399
34612
34382
34598
34335
34595
34598
34335
34603
33911
34406
34607
33925
34567
34607
34594
34594
34354
34572
34583
34323
34583
34580
34364
33959
34594
34583
34332
34591
34575
34331
34576
34581
34330
34591
34554
34585
34439
34567
34583
34583
34565
34588
34461
34559
34575
34531
34469
34588
34583
34583
33911
34527
34590
34311
34562
34602
34295
34565
34368
34567
34567
34431
34582
33901
34343
33943
34591
34028
34399
34582
33899
34444
34575
34064
34458
34591
33887
34339
34588
34031
34532
34572
33964
34567
34311
34588
34276
34551
34511
34181
34398
34565
34412
34548
34467
34551
34044
34478
34565
34395
34543
34567
34415
34551
34560
34143
34343
34564
33959
34474
34567
34510
34535
34478
34556
34477
34528
34348
34532
34535
34332
34534
34207
34525
34543
34479
34520
34369
34523
33979
34492
34516
34503
34509
34311
34535
34128
34515
34457
34490
34508
34276
34524
34428
34502
34353
34492
34487
34467
34484
34482
34351
34500
34245
34479
34332
34478
34073
34491
34488
34446
34471
34442
34471
34263
34244
34357
34458
34465
34037
34420
34459
34454
34241
34454
34446
34318
34438
34463
34400
34219
34342
34435
33823
34367
34439
34375
34217
34372
34430
34423
34232
34398
34420
34418
34251
34422
33951
34407
34415
34345
34402
34222
34375
34388
34215
34382
34390
34196
34399
34374
34214
34396
34092
34380
34396
34320
34378
34169
34388
34101
34375
34339
34339
34369
34279
34383
34383
34219
34159
34144
34375
34359
34126
34191
34212
34199
34309
34325
34341
34342
34348
34343
34356
34356
34352
34347
34353
34255
34156
34148
34284
34334
34311
34307
33983
34199
34265
34292
34329
34342
34327
34302
34129
34289
34303
34311
34290
34127
34311
34332
34284
34069
33759
34301
34310
34180
34247
34311
34308
34292
34124
34287
34284
34287
34100
34205
34279
34295
34289
34257
34060
34271
34273
34223
34173
34269
34179
34119
33795
34260
34260
34244
34119
34095
34274
34279
34252
34201
34031
33751
34260
34247
34278
34090
34268
34260
34147
34236
34239
34109
34272
34236
34114
33745
34247
34203
34103
34253
34236
34107
34249
34239
34225
34146
34087
34071
34261
34228
33799
34239
34178
34151
34242
34211
34046
34226
34223
34055
34244
34251
34240
34216
34150
33737
34231
34218
34076
34241
34223
34051
34223
34220
34098
34215
34030
34222
34213
34234
34198
34217
34220
34063
34231
34140
33708
34219
34231
34108
34223
34189
33724
34215
34213
34119
33831
34229
34210
34183
34045
34212
34207
34071
34207
34229
34212
34225
34207
34218
34215
34202
34196
34191
34108
34143
34054
34033
34085
33927
34076
33724
34220
34205
34116
33928
34049
34118
34055
34015
34100
33767
34221
34207
34211
34213
34199
34199
34191
34071
34055
34167
34137
34100
34151
34067
34053
34151
34199
34222
34209
34207
34205
34215
34213
34207
34207
34212
34204
34231
33742
34105
34063
34076
34095
34067
34029
34087
33772
34231
34212
34220
34215
34201
34097
34041
34064
33863
34202
33755
34210
33749
34231
34207
34226
34215
34219
34212
34135
34079
34212
34238
34213
34198
34087
33847
34235
34207
34222
34217
34205
34188
34143
34071
33991
34079
33972
34127
34229
34230
34228
34199
34086
33983
34208
34116
34207
34199
34195
34190
34223
34189
34151
34164
34156
34205
34226
34244
34237
34219
33777
34161
34229
34260
34231
34238
34231
34245
34230
34235
34214
34237
34237
34245
34242
34244
34256
34228
34260
34241
34260
34236
34260
34244
34235
33995
34127
34197
34242
34215
34260
34241
34242
34255
34255
34216
34236
34223
34244
34193
34197
34183
34141
34191
34159
34175
34136
34019
34260
34259
34293
34268
34278
34265
34265
34277
34247
34223
34183
34142
33887
34293
33838
34251
34273
34300
34271
34272
34273
34273
34181
34271
34289
34293
34245
34204
34126
34170
33885
34295
34281
34279
34287
34271
34289
34286
34265
34199
34228
34204
34183
34117
34182
34096
34191
33991
34231
33927
34220
34303
34310
34295
34311
34300
34310
34301
34274
34278
34269
34297
34306
34311
34295
34311
34310
34311
34286
34256
34150
34308
34319
34309
34295
34236
34251
34325
34333
34333
34254
34213
34053
34295
34332
34339
34322
34012
34358
34334
34228
34245
34342
34363
34336
34311
34275
33966
34345
34345
34343
34353
34338
34347
34279
34239
34362
34366
34354
34343
34303
34097
34311
34348
34370
34355
34380
34365
34375
34367
34364
34372
34365
34367
34359
34363
34343
34276
34223
34381
34358
34320
34305
34232
34316
34232
34300
34308
34311
34300
34303
34271
34258
33970
34370
34362
34327
34310
33996
34374
34348
34343
34348
34337
34324
34242
34295
34271
34288
34279
34327
34225
34266
34181
34268
33949
34340
34311
34327
34311
34276
34311
34231
34298
34279
34218
34264
33943
34279
34284
34302
34087
34311
34284
34302
34290
34287
34278
34299
34287
34295
34197
34239
34292
34287
34284
34226
34011
34272
34275
34248
34252
34265
34179
33900
34268
34251
34230
34279
34204
33903
34196
34215
34247
34268
34122
34247
34269
34223
34105
34232
34236
34243
34188
34055
34242
34236
34239
34225
34182
34241
34204
34007
34240
34223
34175
34234
34215
34175
34158
34245
34220
34125
33859
34213
34153
34234
34173
33949
34220
34215
34134
34212
34229
34207
34222
34191
34212
34211
34183
34204
34167
34183
34105
34139
33991
34183
34183
34204
34188
34213
34189
34191
34196
34182
34166
34068
34123
34062
34118
33852
34196
34169
34183
34183
34141
34167
34135
34159
33991
34117
34154
34188
34160
34143
34101
33955
34174
34159
34132
34137
33886
34159
34164
34150
34154
34103
34108
34006
34093
33964
34099
34146
34170
34143
34151
34132
34148
34134
34076
34138
34118
34055
33956
34069
33911
34151
34148
34143
34122
34151
34129
34133
34124
34119
34126
34127
34119
34137
34119
34107
34111
34087
34093
33990
34046
33794
34119
34111
34092
34111
34014
34078
34012
34039
33856
34031
33828
34110
34095
34094
34081
34078
34084
34054
34080
34016
34079
34009
34020
33932
34003
33735
34087
34055
34004
34003
34066
34074
34055
34004
33998
34055
34055
34046
34009
34019
33889
34038
34047
33978
33975
34037
34031
34025
33869
33972
34012
34037
34021
34015
34022
33985
34008
33960
33972
33760
34030
34013
33997
34004
33892
33932
33991
33994
33996
33863
33927
33687
33996
33972
33970
33975
33918
33919
33829
33898
33683
33937
33639
33969
33951
33968
33947
33945
33951
33946
33935
33919
33925
33812
33877
33615
33937
33926
33927
33918
33919
33919
33838
33870
33767
33842
33676
33898
33898
33901
33906
33895
33887
33899
33885
33895
33876
33881
33878
33884
33866
33876
33882
33879
33876
33874
33863
33850
33870
33820
33839
33719
33797
33599
33813
33581
33862
33839
33856
33831
33848
33838
33831
33840
33827
33827
33835
33826
33831
33540
33799
33821
33779
33685
33777
33724
33806
33799
33813
33766
33814
33709
33514
33799
33778
33784
33799
33751
33678
33604
33782
33780
33775
33740
33757
33797
33767
33722
33599
33774
33771
33721
33743
33767
33733
33670
33461
33742
33767
33719
33762
33766
33710
33567
33745
33756
33702
33764
33719
33657
33494
33736
33741
33729
33692
33743
33747
33645
33732
33735
33745
33708
33596
33718
33727
33726
33706
33679
33722
33735
33724
33695
33631
33446
33716
33708
33712
33697
33662
33732
33706
33687
33533
33705
33693
33671
33703
33703
33623
33695
33687
33664
33703
33660
33572
33683
33687
33669
33708
33687
33658
33480
33683
33685
33661
33695
33671
33615
33516
33685
33681
33671
33639
33683
33661
33623
33539
33423
33676
33631
33671
33652
33567
33396
33660
33668
33622
33652
33671
33653
33609
33543
33645
33652
33624
33663
33627
33551
33644
33641
33631
33640
33653
33581
33444
33652
33637
33641
33607
33631
33647
33585
33631
33647
33602
33645
33631
33534
33644
33639
33604
33642
33580
33527
33391
33624
33638
33637
33611
33646
33644
33620
33509
33631
33623
33628
33625
33637
33591
33527
33623
33629
33626
33635
33599
33650
33600
33385
33623
33628
33588
33639
33620
33602
33567
33383
33620
33611
33631
33621
33532
33619
33628
33591
33612
33521
33376
33620
33622
33610
33621
33595
33543
33383
33615
33625
33581
33636
33599
33535
33453
33423
33607
33613
33598
33620
33615
33527
33621
33626
33613
33607
33617
33510
33615
33606
33607
33632
33607
33588
33556
33615
33623
33631
33603
33636
33620
33583
33494
33625
33623
33607
33639
33635
33575
33614
33623
33633
33627
33583
33629
33610
33631
33594
33603
33536
33607
33494
33599
33519
33607
33513
33630
33605
33626
33586
33611
33533
33602
33436
33622
33468
33644
33628
33636
33627
33628
33632
33538
33615
33496
33654
33631
33606
33583
33631
33644
33404
33615
33632
33639
33623
33586
33637
33630
33637
33626
33639
33645
33645
33647
33644
33647
33650
33645
33642
33649
33645
33655
33652
33649
33652
33639
33648
33631
33623
33630
33663
33666
33668
33662
33671
33652
33655
33647
33595
33654
33652
33662
33655
33659
33661
33653
33652
33667
33639
33614
33506
33671
33666
33670
33667
33663
33669
33668
33643
33662
33663
33665
33667
33651
33652
33671
33648
33665
33662
33679
33660
33663
33671
33671
33679
33687
33679
33663
33706
33709
33686
33663
33623
33518
33687
33684
33695
33700
33701
33687
33681
33700
33702
33703
33694
33701
33715
33718
33733
33719
33726
33724
33727
33723
33727
33717
33727
33715
33705
33700
33679
33597
33729
33718
33725
33705
33724
33599
33741
33732
33716
33739
33693
33710
33561
33754
33556
33751
33741
33719
33750
33700
33743
33684
33743
33635
33733
33716
33745
33740
33757
33743
33756
33765
33758
33775
33746
33608
33771
33767
33751
33779
33788
33764
33764
33726
33666
33585
33770
33779
33777
33781
33763
33799
33777
33773
33756
33603
33779
33791
33757
33727
33613
33788
33789
33789
33791
33783
33796
33799
33787
33799
33789
33817
33767
33797
33717
33798
33703
33799
33756
33799
33810
33829
33828
33815
33829
33823
33785
33658
33820
33827
33822
33812
33851
33820
33792
33724
33825
33833
33831
33815
33830
33815
33766
33669
33823
33825
33827
33823
33838
33826
33732
33807
33807
33820
33799
33815
33785
33804
33773
33820
33775
33806
33708
33799
33799
33796
33797
33749
33780
33697
33774
33636
33791
33595
33799
33775
33796
33775
33799
33602
33767
33651
33767
33599
33796
33783
33791
33783
33775
33772
33770
33773
33753
33781
33764
33770
33764
33772
33697
33772
33727
33764
33706
33759
33750
33751
33772
33765
33767
33567
33767
33557
33767
33758
33774
33753
33770
33751
33748
33748
33716
33753
33724
33754
33723
33753
33735
33751
33710
33745
33735
33741
33724
33756
33743
33719
33660
33572
33734
33740
33745
33724
33754
33711
33567
33751
33742
33724
33729
33727
33705
33638
33565
33743
33750
33735
33735
33764
33735
33727
33701
33661
33582
33726
33734
33733
33733
33720
33740
33756
33737
33703
33644
33727
33723
33740
33735
33721
33749
33742
33714
33695
33635
33569
33739
33727
33732
33729
33716
33753
33703
33607
33724
33727
33740
33713
33748
33745
33717
33647
33739
33735
33727
33719
33743
33727
33695
33636
33741
33718
33732
33718
33754
33743
33725
33725
33687
33585
33729
33727
33734
33724
33723
33749
33716
33617
33727
33717
33723
33724
33732
33719
33701
33621
33727
33731
33727
33719
33717
33713
33739
33731
33725
33716
33732
33719
33647
33573
33718
33715
33727
33707
33711
33735
33725
33620
33695
33718
33695
33721
33725
33719
33727
33710
33734
33543
33695
33612
33706
33671
33715
33692
33709
33671
33703
33663
33707
33667
33703
33663
33703
33677
33700
33709
33701
33705
33710
33677
33671
33670
33623
33527
33686
33697
33679
33706
33687
33644
33534
33686
33678
33685
33671
33695
33677
33575
33511
33683
33687
33684
33660
33682
33685
33692
33646
33607
33525
33667
33671
33662
33659
33671
33639
33569
33654
33652
33663
33635
33676
33671
33643
33607
33541
33644
33652
33645
33647
33631
33663
33644
33566
33646
33638
33639
33628
33629
33595
33500
33623
33636
33524
33646
33626
33628
33628
33603
33631
33613
33617
33593
33623
33579
33617
33563
33606
33511
33599
33463
33615
33447
33599
33554
33609
33567
33588
33479
33621
33615
33623
33602
33599
33604
33516
33592
33599
33603
33597
33563
33583
33601
33567
33606
33600
33567
33599
33569
33597
33542
33583
33495
33579
33511
33586
33487
33577
33470
33607
33590
33594
33585
33593
33583
33590
33583
33603
33583
33597
33588
33583
33583
33567
33585
33501
33582
33582
33582
33575
33580
33592
33578
33519
33455
33572
33587
33575
33578
33567
33581
33561
33516
33413
33577
33576
33569
33586
33551
33527
33439
33572
33575
33570
33570
33580
33558
33527
33463
33566
33564
33567
33572
33593
33581
33511
33570
33577
33575
33582
33564
33509
33575
33579
33575
33575
33562
33455
33575
33574
33583
33585
33585
33575
33573
33582
33567
33585
33527
33573
33504
33577
33426
33582
33575
33607
33581
33567
33583
33575
33580
33559
33583
33603
33578
33605
33463
33583
33486
33588
33562
33523
33455
33575
33583
33592
33575
33599
33581
33511
33588
33590
33598
33597
33581
33453
33588
33607
33614
33583
33567
33543
33500
33582
33598
33603
33599
33599
33606
33583
33567
33501
33452
33604
33600
33616
33598
33615
33588
33557
33447
33606
33613
33605
33604
33633
33578
33525
33615
33615
33611
33611
33631
33642
33636
33607
33577
33502
33638
33630
33628
33619
33644
33636
33639
33583
33469
33631
33639
33619
33653
33621
33543
33645
33639
33639
33681
33655
33631
33577
33642
33641
33639
33671
33653
33659
33639
33562
33663
33669
33650
33680
33631
33655
33670
33679
33670
33697
33573
33676
33660
33683
33684
33671
33696
33687
33691
33684
33670
33679
33669
33622
33597
33686
33695
33702
33703
33692
33719
33700
33691
33668
33575
33711
33711
33702
33715
33711
33695
33636
33727
33732
33721
33713
33751
33727
33696
33607
33735
33734
33735
33724
33735
33743
33748
33745
33730
33671
33577
33751
33748
33757
33754
33752
33769
33775
33759
33764
33775
33767
33761
33780
33796
33781
33775
33726
33695
33618
33789
33791
33791
33791
33799
33782
33731
33645
33799
33799
33789
33830
33815
33789
33707
33822
33813
33822
33799
33785
33830
33837
33679
33829
33824
33815
33853
33833
33812
33774
33690
33844
33842
33853
33863
33857
33820
33775
33780
33756
33745
33714
33771
33868
33871
33879
33879
33890
33879
33866
33903
33873
33818
33892
33905
33891
33911
33891
33815
33748
33909
33907
33900
33928
33879
33869
33913
33923
33933
33926
33916
33926
33862
33928
33817
33948
33943
33949
33950
33940
33955
33943
33961
33911
33948
33863
33951
33813
33980
33981
33983
33886
33981
33924
33991
33958
33981
33911
33983
33868
33995
34010
34002
33901
34004
33956
34004
34012
34029
34021
34031
34020
34019
34039
34023
34038
33999
34036
34001
34044
33981
34043
33981
34055
34013
34055
34015
34052
33965
34054
33941
34086
33943
34069
33956
34068
33924
34117
34103
34092
33916
34118
34103
34123
33966
34096
33991
34111
34034
34119
34055
34119
34063
34132
34119
34139
34100
34132
34041
34151
34143
34167
34164
34166
33990
34143
34108
34167
34102
34169
34148
34175
34181
34186
34165
34183
34188
34205
34218
34199
34215
34196
34199
34215
34183
34223
34199
34225
34163
34212
34139
34215
34161
34233
34219
34246
34183
34243
34170
34246
34191
34254
34217
34260
34221
34252
34161
34273
34199
34265
34228
34271
34191
34263
34163
34279
34095
34311
34293
34291
34307
34230
34324
34319
34268
34311
34324
34328
34321
34275
34347
34333
34340
34336
34301
34339
34190
34367
34357
34329
34346
34192
34383
34372
34181
34357
34351
34371
34278
34391
34381
34390
34387
34374
34382
34279
34385
34246
34422
34401
34430
34422
34429
34428
34409
34431
34437
34431
34439
34439
34458
34446
34463
34439
34461
34452
34451
34447
34439
34463
34409
34463
34404
34482
34463
34477
34475
34490
34485
34477
34481
34501
34465
34501
34420
34496
34414
34484
34333
34529
34500
34479
34502
34411
34502
34511
34519
34522
34444
34503
34518
34536
34527
34523
34510
34497
34511
34449
34495
34374
34510
34511
34529
34511
34496
34519
34428
34499
34423
34519
34523
34511
34518
34502
34519
34500
34503
34455
34505
34331
34534
34516
34532
34510
34508
34516
34465
34516
34501
34531
34491
34525
34490
34507
34519
34524
34527
34496
34516
34415
34514
34380
34500
34372
34508
34361
34518
34366
34512
34522
34540
34510
34521
34527
34532
34527
34519
34513
34488
34525
34490
34517
34460
34519
34495
34519
34503
34527
34524
34529
34525
34532
34518
34519
34431
34516
34391
34526
34343
34551
34534
34535
34543
34511
34531
34494
34532
34493
34539
34489
34524
34497
34525
34453
34519
34439
34531
34471
34533
34455
34530
34390
34535
34532
34564
34549
34541
34549
34514
34543
34439
34548
34403
34535
34403
34566
34559
34540
34551
34487
34558
34549
34546
34550
34516
34556
34532
34549
34440
34543
34415
34567
34562
34573
34559
34559
34557
34519
34559
34418
34594
34567
34548
34567
34532
34575
34522
34567
34550
34567
34567
34580
34565
34567
34588
34567
34558
34455
34567
34583
34558
34587
34567
34538
34484
34567
34577
34591
34509
34580
34567
34591
34577
34581
34567
34493
34588
34567
34581
34591
34591
34599
34587
34591
34563
34524
34452
34576
34588
34589
34591
34582
34588
34596
34567
34599
34575
34518
34583
34588
34591
34591
34579
34601
34590
34564
34495
34593
34580
34605
34583
34553
34452
34597
34588
34572
34607
34598
34583
34482
34575
34587
34586
34575
34598
34561
34487
34583
34594
34567
34567
34599
34583
34559
34540
34498
34427
34586
34580
34589
34567
34596
34588
34578
34555
34503
34583
34567
34577
34572
34567
34567
34575
34557
34560
34564
34567
34564
34551
34561
34567
34567
34493
34559
34556
34559
34564
34547
34479
34561
34557
34540
34563
34531
34420
34550
34549
34401
34559
34559
34546
34550
34519
34543
34525
34541
34523
34543
34509
34551
34518
34526
34527
34468
34389
34540
34541
34527
34540
34551
34534
34482
34428
34391
34520
34529
34525
34522
34527
34506
34502
34510
34540
34485
34403
34517
34514
34535
34498
34359
34519
34502
34505
34525
34487
34364
34511
34489
34535
34508
34463
34387
34506
34511
34511
34521
34495
34444
34355
34508
34511
34495
34518
34487
34406
34499
34501
34491
34511
34500
34430
34492
34503
34500
34501
34500
34443
34495
34437
34481
34447
34492
34453
34493
34431
34489
34439
34487
34463
34491
34454
34489
34470
34486
34478
34491
34483
34479
34479
34484
34482
34482
34489
34485
34494
34478
34462
34415
34355
34484
34485
34484
34461
34500
34465
34411
34333
34466
34461
34431
34471
34471
34397
34484
34499
34404
34476
34468
34477
34334
34479
34471
34469
34485
34502
34426
34490
34487
34469
34478
34479
34476
34463
34402
34446
34477
34484
34471
34471
34471
34469
34434
34456
34481
34466
34479
34468
34484
34476
34398
34457
34481
34487
34469
34478
34478
34479
34357
34411
34430
34487
34492
34469
34468
34478
34491
34375
34462
34487
34505
34490
34495
34329
34403
34462
34491
34494
34478
34498
34496
34343
34424
34470
34485
34503
34480
34493
34490
34359
34489
34503
34471
34506
34491
34359
34466
34503
34484
34495
34484
34400
34451
34469
34495
34515
34484
34503
34503
34423
34472
34508
34500
34494
34500
34343
34436
34479
34515
34517
34490
34498
34503
34505
34495
34414
34470
34515
34517
34517
34503
34509
34516
34527
34375
34484
34518
34513
34511
34519
34439
34517
34520
34517
34517
34521
34372
34462
34502
34534
34519
34517
34522
34363
34439
34471
34508
34510
34535
34558
34527
34532
34526
34452
34535
34548
34533
34548
34542
34469
34516
34535
34535
34548
34555
34545
34542
34421
34485
34526
34553
34559
34548
34551
34567
34551
34567
34561
34564
34556
34558
34485
34493
34513
34567
34567
34567
34567
34564
34567
34460
34513
34564
34583
34584
34567
34576
34590
34580
34579
34583
34593
34499
34564
34591
34604
34595
34591
34591
34602
34597
34487
34483
34567
34580
34610
34628
34591
34615
34613
34615
34612
34445
34510
34581
34615
34631
34634
34628
34612
34617
34627
34631
34629
34639
34484
34553
34604
34618
34623
34645
34647
34639
34642
34647
34647
34655
34647
34665
34653
34519
34582
34625
34647
34676
34677
34678
34674
34663
34663
34667
34663
34666
34692
34695
34685
34687
34695
34687
34631
34693
34695
34588
34695
34693
34684
34687
34695
34556
34694
34701
34700
34703
34604
34703
34727
34644
34700
34727
34693
34719
34723
34729
34597
34730
34737
34629
34730
34750
34629
34737
34731
34732
34732
34727
34743
34762
34663
34757
34743
34612
34755
34759
34618
34758
34768
34623
34760
34778
34695
34762
34791
34716
34766
34759
34780
34659
34786
34797
34752
34797
34669
34705
34735
34757
34681
34805
34799
34807
34794
34797
34799
34804
34823
34794
34801
34823
34799
34708
34735
34768
34837
34853
34823
34823
34823
34845
34836
34716
34783
34843
34855
34830
34855
34855
34856
34716
34822
34856
34863
34855
34868
34872
34868
34874
34874
34869
34887
34877
34855
34891
34895
34791
34892
34893
34895
34885
34870
34903
34887
34895
34911
34906
34904
34782
34906
34900
34915
34786
34925
34915
34935
34876
34924
34927
34917
34925
34834
34932
34889
34925
34951
34926
34949
34944
34951
34789
34891
34942
34958
34957
34956
34964
34971
34813
34916
34968
34987
34966
34971
34983
34982
34875
34951
34995
35003
34990
35007
34998
34996
35007
34940
34997
35006
35015
35005
35018
35023
35022
35019
35018
35015
35027
34922
34991
35024
35044
35044
35047
35066
35045
35053
35047
35048
34923
35023
35035
35059
35039
35051
35068
35060
34951
35058
35063
35079
35060
35061
35078
35084
35078
34922
35036
35071
35101
35107
35108
35071
35103
35095
34945
35046
35095
35117
35087
35114
35100
35115
34999
35077
35111
35135
35115
35127
35139
35124
35047
35125
35151
35134
35143
35143
35016
35084
35140
35137
35119
35124
35147
35093
35165
35172
35159
35175
35173
35092
35148
35181
35199
35185
35191
35188
35063
35175
35191
35199
35177
35196
35202
35045
35136
35191
35217
35190
35204
35194
35084
35176
35220
35210
35205
35207
35060
35175
35221
35199
35202
35207
35223
35206
35068
35154
35202
35207
35194
35200
35093
35153
35180
35199
35190
35188
35203
35199
35044
35138
35185
35207
35174
35183
35191
35183
35079
35166
35199
35180
35170
35197
35066
35140
35181
35196
35189
35187
35180
35113
35152
35196
35171
35165
35182
35175
35175
35079
35143
35175
35183
35183
35163
35167
35166
35175
35168
35175
35163
35172
35038
35063
35110
35156
35175
35187
35152
35159
35156
35166
35111
35167
35180
35158
35168
35161
35073
35143
35174
35172
35157
35145
35161
35160
35161
35161
35168
35162
35142
35158
35163
35151
35087
35127
35151
35154
35179
35143
35157
35153
35162
35149
35038
35108
35111
35111
35149
35175
35173
35167
35157
35169
35172
35168
35131
35144
35155
35145
35015
35086
35121
35138
35132
35138
35132
35162
35142
35151
35151
35146
35140
35059
35117
35134
35166
35150
35132
35136
35149
35151
35135
35022
35116
35143
35151
35147
35143
35150
35146
35079
35143
35151
35126
35143
35143
35013
35076
35135
35158
35138
35143
35141
35037
35079
35135
35158
35146
35112
35127
35127
35141
35143
35142
34995
35092
35140
35149
35130
35137
35132
35143
35141
35068
35119
35118
35115
35132
35137
35049
35135
35124
35124
35117
35095
35127
35124
35097
35124
35116
35111
35135
35118
35116
35052
35125
35147
35111
35122
35116
35123
35054
35115
35105
35094
35108
35131
35062
35112
35114
35071
35105
35119
35076
35111
35095
35055
35109
35125
35079
35100
35113
35015
35098
35099
35047
35103
35102
35079
35105
34999
35095
35102
35039
35079
35056
35030
35079
35068
35004
35068
35047
35075
35079
34914
35047
35031
35075
35073
35061
35048
35039
35055
35058
35001
35053
35047
35055
35036
35017
35043
35031
35044
35031
35029
35030
34981
35023
35029
35024
35023
35037
34901
35015
34999
35015
35004
34959
35006
35007
34980
34999
34991
34978
35003
34989
34987
34895
34985
35004
34957
34994
34975
34968
34993
34990
34910
34973
34984
34913
34981
34981
34884
34973
34968
34820
34958
34973
34815
34942
34932
34943
34939
34932
34937
34941
34951
34823
34947
34944
34865
34926
34919
34922
34931
34921
34874
34924
34934
34842
34912
34926
34865
34911
34927
34869
34901
34924
34823
34907
34918
34838
34899
34908
34863
34903
34907
34859
34880
34900
34855
34887
34873
34871
34885
34882
34881
34753
34887
34896
34807
34886
34884
34817
34868
34863
34871
34764
34867
34872
34796
34849
34855
34843
34855
34863
34866
34850
34855
34856
34849
34853
34847
34847
34839
34839
34845
34855
34823
34806
34838
34837
34836
34818
34835
34797
34823
34823
34823
34836
34747
34836
34823
34816
34815
34823
34813
34812
34823
34819
34757
34804
34799
34799
34820
34811
34791
34773
34723
34799
34799
34797
34804
34815
34796
34797
34805
34764
34801
34781
34791
34787
34789
34789
34785
34795
34791
34789
34788
34780
34791
34762
34766
34764
34781
34761
34780
34772
34781
34780
34770
34775
34765
34759
34782
34737
34756
34629
34783
34759
34772
34767
34734
34758
34712
34758
34767
34759
34762
34693
34769
34762
34755
34756
34661
34771
34747
34757
34751
34754
34747
34756
34749
34754
34753
34734
34743
34725
34743
34650
34755
34735
34743
34741
34735
34727
34740
34735
34750
34741
34750
34612
34743
34733
34754
34732
34745
34636
34726
34647
34734
34735
34727
34740
34718
34732
34715
34733
34731
34732
34699
34727
34678
34719
34667
34716
34628
34719
34719
34733
34727
34719
34722
34679
34724
34647
34709
34639
34703
34671
34711
34710
34727
34711
34731
34719
34727
34717
34695
34711
34661
34719
34660
34719
34679
34716
34695
34716
34697
34708
34726
34711
34740
34727
34711
34661
34589
34716
34719
34729
34716
34734
34732
34705
34645
34717
34716
34703
34719
34663
34727
34711
34709
34703
34618
34719
34716
34713
34702
34604
34716
34731
34687
34586
34691
34723
34599
34722
34714
34703
34726
34703
34721
34724
34723
34727
34565
34694
34644
34705
34663
34713
34647
34708
34644
34729
34719
34599
34705
34719
34582
34722
34719
34711
34719
34721
34622
34719
34724
34709
34713
34718
34727
34636
34719
34738
34703
34726
34730
34724
34619
34724
34727
34712
34719
34731
34591
34725
34717
34636
34726
34721
34709
34679
34726
34721
34702
34731
34722
34711
34719
34713
34727
34725
34733
34715
34726
34729
34735
34722
34733
34723
34748
34671
34725
34738
34577
34731
34759
34683
34732
34730
34729
34728
34727
34740
34687
34729
34602
34727
34742
34647
34735
34748
34719
34733
34731
34724
34737
34729
34755
34650
34742
34759
34662
34748
34757
34656
34757
34765
34671
34759
34767
34679
34748
34757
34703
34750
34758
34751
34750
34749
34652
34695
34734
34772
34751
34739
34751
34759
34758
34748
34762
34637
34749
34761
34743
34759
34775
34653
34773
34757
34631
34764
34749
34757
34782
34679
34756
34727
34775
34770
34773
34759
34749
34789
34773
34709
34775
34774
34770
34764
34759
34774
34774
34753
34780
34775
34779
34655
34786
34787
34718
34789
34783
34743
34780
34789
34783
34652
34791
34804
34698
34791
34792
34773
34637
34793
34791
34788
34652
34794
34796
34791
34707
34793
34789
34796
34793
34799
34811
34709
34804
34806
34781
34813
34823
34739
34807
34823
34725
34803
34807
34807
34814
34806
34820
34813
34807
34807
34724
34797
34794
34801
34805
34828
34810
34815
34823
34821
34823
34703
34772
34812
34835
34839
34820
34823
34823
34823
34822
34823
34727
34817
34843
34839
34821
34833
34844
34727
34763
34801
34823
34847
34847
34846
34853
34847
34833
34847
34702
34772
34804
34836
34823
34839
34839
34846
34861
34860
34823
34831
34847
34855
34871
34855
34860
34855
34721
34805
34852
34866
34863
34859
34858
34878
34854
34823
34862
34869
34855
34781
34804
34858
34878
34866
34863
34880
34877
34868
34881
34874
34879
34874
34776
34823
34876
34887
34875
34879
34876
34869
34895
34887
34887
34891
34895
34814
34869
34895
34895
34895
34905
34887
34884
34749
34892
34911
34817
34901
34895
34881
34913
34887
34903
34837
34901
34887
34901
34919
34901
34903
34903
34906
34909
34911
34905
34904
34911
34757
34877
34868
34750
34914
34924
34910
34917
34928
34923
34924
34928
34919
34929
34918
34927
34914
34914
34900
34913
34909
34919
34902
34916
34905
34898
34904
34778
34904
34901
34894
34782
34900
34890
34863
34889
34881
34903
34814
34882
34882
34879
34746
34880
34892
34796
34863
34863
34799
34866
34869
34812
34862
34867
34836
34847
34837
34848
34849
34847
34771
34837
34852
34791
34839
34823
34815
34823
34823
34843
34728
34823
34821
34798
34823
34807
34833
34777
34805
34799
34804
34658
34795
34817
34703
34811
34787
34799
34706
34791
34809
34779
34799
34772
34791
34625
34786
34803
34677
34783
34788
34750
34767
34778
34777
34628
34758
34773
34642
34767
34746
34753
34687
34753
34695
34724
34724
34735
34727
34747
34734
34721
34727
34740
34758
34751
34732
34731
34739
34731
34733
34733
34591
34650
34692
34720
34720
34732
34717
34719
34730
34719
34613
34679
34695
34717
34691
34717
34711
34735
34686
34700
34702
34711
34598
34702
34694
34695
34692
34695
34686
34708
34695
34691
34683
34695
34687
34679
34540
34639
34658
34652
34678
34681
34676
34671
34675
34679
34671
34567
34660
34676
34695
34663
34669
34519
34637
34659
34670
34688
34648
34660
34654
34657
34545
34592
34624
34644
34652
34647
34629
34639
34641
34643
34636
34486
34599
34631
34647
34620
34631
34627
34487
34554
34622
34638
34611
34623
34618
34540
34575
34621
34629
34609
34605
34601
34462
34567
34591
34620
34610
34587
34599
34605
34589
34543
34598
34590
34594
34436
34500
34560
34585
34567
34580
34583
34567
34447
34539
34561
34567
34557
34548
34445
34535
34559
34545
34556
34463
34543
34533
34535
34533
34407
34454
34511
34541
34514
34535
34526
34358
34461
34508
34517
34503
34508
34509
34367
34414
34428
34471
34492
34494
34493
34476
34479
34495
34351
34425
34463
34474
34468
34465
34458
34452
34372
34414
34431
34439
34435
34447
34451
34440
34428
34415
34412
34415
34415
34409
34403
34398
34382
34398
34399
34407
34407
34407
34393
34308
34324
34368
34394
34383
34370
34367
34363
34375
34379
34357
34258
34319
34355
34359
34371
34343
34343
34349
34323
34339
34343
34311
34332
34311
34322
34229
34273
34302
34324
34311
34288
34292
34303
34285
34295
34292
34284
34278
34148
34167
34177
34156
34151
34132
34127
34263
34251
34271
34250
34230
34250
34273
34159
34246
34257
34105
34239
34235
34238
34239
34118
34223
34207
34236
34205
34190
34220
34199
34191
34199
34199
34211
34100
34195
34196
34076
34191
34199
34196
34196
34197
34167
34177
34183
34180
34180
34178
34031
34053
34055
34055
34075
34108
34126
34138
34157
34151
34159
34167
34150
34133
34143
34141
34135
34140
34135
34124
34114
34140
34119
34123
33978
34116
34115
34126
34111
34103
33974
34108
34110
34020
34100
34096
34100
34105
34099
34091
33974
34023
34030
34066
34055
34078
34071
34068
34092
34091
34060
34063
34055
34065
34066
34071
34055
34055
33958
33982
34011
34031
34048
34042
34055
34055
34055
34045
34066
33957
34046
34015
34037
33996
34031
34004
34022
34022
33979
34025
34022
34007
34021
34007
33966
34016
34027
34002
34011
33994
34007
33993
33952
34001
34018
33910
33996
34004
33860
33994
33997
33999
33981
33927
33984
33948
33987
33996
33898
33983
34005
33911
33988
33991
33901
33969
33971
33839
33961
33951
33966
33961
33920
33961
33983
33890
33966
33981
33893
33954
33975
33873
33956
33947
33955
33968
33870
33967
33967
33940
33935
33921
33942
33957
33839
33937
33943
33940
33937
33871
33943
33927
33790
33929
33927
33856
33939
33934
33894
33911
33938
33885
33927
33943
33879
33927
33911
33908
33919
33927
33907
33917
33908
33897
33917
33927
33816
33903
33852
33919
33907
33911
33926
33823
33908
33892
33917
33926
33834
33913
33924
33855
33908
33909
33815
33908
33899
33909
33904
33812
33908
33903
33891
33892
33870
33896
33901
33766
33895
33918
33895
33884
33863
33892
33914
33765
33898
33892
33812
33895
33894
33894
33875
33841
33887
33894
33814
33883
33894
33863
33881
33879
33886
33885
33874
33874
33756
33874
33868
33878
33869
33863
33887
33881
33831
33871
33886
33844
33883
33882
33866
33869
33871
33856
33877
33871
33875
33759
33877
33881
33799
33891
33881
33830
33880
33879
33884
33756
33871
33861
33876
33889
33812
33883
33892
33828
33884
33875
33871
33871
33876
33886
33767
33878
33876
33740
33886
33887
33842
33871
33869
33863
33879
33863
33868
33732
33878
33885
33859
33750
33876
33873
33876
33875
33884
33881
33877
33876
33887
33874
33747
33783
33789
33775
33799
33799
33838
33861
33854
33862
33863
33855
33828
33818
33815
33812
33824
33833
33845
33863
33863
33873
33887
33879
33818
33869
33900
33850
33884
33883
33884
33895
33809
33885
33887
33906
33839
33895
33886
33887
33887
33878
33750
33831
33869
33876
33885
33910
33903
33903
33881
33891
33895
33889
33882
33788
33836
33883
33892
33904
33883
33890
33885
33895
33892
33774
33855
33893
33902
33904
33901
33891
33895
33896
33897
33903
33889
33821
33861
33877
33903
33919
33917
33895
33899
33898
33916
33831
33917
33919
33775
33903
33887
33908
33924
33835
33903
33895
33903
33920
33903
33911
33919
33919
33839
33916
33911
33897
33913
33901
33903
33921
33926
33927
33856
33919
33925
33905
33917
33916
33924
33836
33921
33913
33919
33927
33918
33915
33927
33919
33917
33916
33925
33927
33810
33913
33946
33902
33932
33927
33909
33935
33914
33945
33847
33940
33916
33933
33935
33927
33925
33933
33941
33956
33849
33947
33966
33894
33951
33935
33947
33863
33956
33963
33953
33951
33958
33959
33950
33946
33950
33959
33827
33877
33919
33941
33972
33961
33948
33953
33958
33955
33962
33854
33908
33959
33975
33967
33975
33959
33974
33959
33975
33972
33965
33975
33874
33916
33951
33965
33990
33967
33973
33974
33981
33979
33980
33839
33868
33873
33965
33988
33976
33991
33850
33991
33983
33982
34007
33995
33879
33989
33975
33991
33915
33991
33934
33975
34004
34007
34005
34005
33991
34014
34002
34005
33984
34003
34002
34001
33885
33938
33972
34007
34007
34019
34023
34001
34031
34023
34014
34011
34009
34009
34008
33999
34000
34015
33998
34021
34023
34023
34029
34039
34037
34030
34022
34038
34021
33946
33955
33927
33955
33979
33967
33941
33953
33996
34003
34020
33995
33988
33972
33946
33949
33978
34010
34020
34053
33903
34047
34042
34050
34055
33999
34054
34055
33991
34055
34063
33997
34062
34062
34055
34049
34023
34065
34095
33918
34055
34060
34061
34050
34042
34059
34073
34058
34063
34058
34038
34061
34036
34058
34030
34055
33989
34047
33927
34062
34055
34021
34044
34010
34036
34037
34029
34028
34038
34032
33911
34031
34047
33967
34020
34007
34004
34015
34002
33988
34015
34006
33956
34009
34023
33972
34004
34001
33991
34004
33977
33987
33890
33991
34011
33916
33990
34009
33923
33980
33997
33892
33990
33991
33839
33972
33965
33962
33959
33943
33959
33981
33898
33960
33971
33821
33966
33959
33815
33962
33943
33950
33944
33927
33825
33951
33926
33932
33940
33927
33934
33941
33927
33927
33775
33927
33930
33927
33940
33935
33815
33940
33949
33831
33924
33939
33840
33924
33926
33911
33921
33831
33915
33926
33821
33906
33925
33791
33918
33919
33865
33905
33894
33905
33751
33895
33907
33877
33898
33893
33863
33894
33884
33840
33895
33879
33871
33895
33883
33886
33755
33891
33895
33799
33885
33887
33852
33871
33878
33847
33873
33862
33847
33869
33895
33794
33875
33879
33823
33867
33871
33783
33871
33879
33799
33861
33871
33807
33850
33875
33794
33847
33843
33844
33715
33855
33852
33791
33852
33837
33817
33845
33839
33860
33823
33715
33847
33847
33852
33743
33834
33841
33764
33831
33810
33824
33820
33822
33815
33821
33721
33831
33799
33807
33690
33820
33825
33779
33819
33799
33815
33757
33807
33796
33774
33809
33799
33784
33785
33799
33815
33767
33663
33791
33788
33795
33721
33783
33783
33793
33783
33772
33775
33782
33639
33697
33741
33763
33783
33763
33756
33765
33759
33765
33767
33748
33764
33671
33732
33759
33764
33726
33743
33733
33652
33708
33735
33735
33716
33717
33719
33730
33639
33707
33736
33710
33727
33721
33579
33675
33708
33695
33700
33708
33580
33660
33685
33715
33701
33687
33701
33687
33677
33573
33636
33653
33679
33671
33663
33662
33654
33517
33594
33627
33638
33663
33660
33643
33639
33646
33639
33526
33559
33612
33630
33632
33623
33622
33621
33556
33592
33605
33631
33606
33601
33597
33493
33575
33610
33595
33591
33587
33519
33566
33595
33569
33578
33575
33439
33503
33543
33579
33543
33559
33563
33404
33503
33527
33540
33535
33532
33543
33557
33524
33525
33520
33533
33527
33525
33463
33497
33519
33501
33507
33511
33500
33420
33492
33495
33513
33503
33495
33501
33493
33422
33427
33431
33455
33487
33495
33494
33482
33463
33463
33464
33462
33461
33475
33466
33471
33457
33343
33389
33419
33447
33452
33466
33465
33444
33439
33438
33445
33435
33445
33287
33379
33383
33382
33406
33402
33431
33436
33407
33431
33414
33300
33354
33375
33395
33413
33423
33405
33410
33410
33268
33359
33396
33413
33391
33404
33388
33274
33395
33386
33387
33399
33396
33392
33399
33380
33353
33310
33373
33383
33370
33371
33367
33359
33383
33383
33370
33336
33307
33279
33283
33287
33252
33250
33365
33359
33351
33343
33359
33367
33338
33332
33296
33271
33220
33341
33343
33337
33351
33339
33297
33245
33338
33327
33332
33335
33327
33323
33319
33324
33319
33333
33324
33303
33259
33181
33327
33317
33319
33319
33323
33287
33255
33163
33308
33312
33319
33306
33311
33278
33254
33316
33301
33303
33319
33287
33196
33299
33309
33295
33311
33285
33229
33297
33298
33311
33287
33299
33311
33303
33287
33259
33203
33287
33287
33271
33303
33309
33283
33255
33225
33203
33157
33287
33286
33287
33278
33299
33277
33247
33150
33287
33287
33283
33270
33287
33280
33252
33215
33285
33277
33279
33276
33247
33150
33277
33284
33276
33279
33210
33263
33271
33287
33185
33276
33275
33278
33243
33268
33271
33276
33151
33278
33271
33279
33268
33255
33143
33269
33277
33257
33275
33265
33159
33268
33284
33254
33268
33271
33278
33214
33271
33274
33234
33279
33267
33268
33122
33271
33278
33188
33269
33267
33247
33271
33271
33284
33212
33271
33287
33262
33143
33276
33287
33253
33273
33266
33284
33229
33275
33271
33265
33272
33283
33297
33241
33268
33271
33287
33279
33276
33283
33135
33228
33261
33268
33287
33279
33287
33279
33174
33246
33284
33301
33285
33287
33287
33279
33146
33210
33268
33287
33303
33308
33287
33287
33285
33287
33287
33287
33287
33161
33235
33269
33294
33295
33310
33315
33287
33287
33287
33302
33287
33207
33237
33281
33319
33294
33303
33299
33316
33184
33276
33308
33317
33303
33287
33310
33311
33303
33303
33311
33309
33328
33257
33327
33308
33319
33268
33324
33323
33328
33239
33324
33319
33327
33319
33325
33333
33313
33335
33332
33317
33335
33268
33339
33335
33269
33332
33339
33198
33330
33323
33343
33334
33331
33351
33339
33357
33341
33277
33351
33355
33358
33321
33356
33351
33351
33271
33304
33347
33357
33376
33359
33358
33367
33363
33359
33364
33287
33300
33367
33247
33310
33349
33388
33386
33372
33380
33379
33389
33383
33381
33249
33324
33356
33380
33395
33405
33380
33390
33383
33407
33398
33399
33323
33375
33380
33397
33415
33399
33407
33415
33413
33303
33339
33383
33404
33409
33414
33428
33420
33414
33411
33423
33425
33429
33415
33311
33379
33415
33445
33439
33439
33426
33447
33318
33389
33425
33426
33431
33455
33465
33445
33435
33445
33442
33438
33461
33463
33454
33450
33460
33393
33428
33460
33476
33474
33492
33463
33463
33479
33465
33478
33386
33422
33419
33447
33454
33371
33488
33485
33475
33516
33481
33502
33479
33493
33493
33493
33476
33510
33497
33390
33511
33527
33415
33506
33524
33479
33511
33516
33519
33513
33516
33525
33371
33420
33447
33495
33518
33543
33539
33542
33558
33543
33390
33543
33553
33482
33560
33548
33535
33415
33559
33575
33519
33555
33566
33566
33425
33565
33572
33569
33561
33569
33487
33582
33594
33511
33580
33574
33565
33583
33591
33602
33574
33583
33591
33598
33588
33457
33510
33535
33567
33578
33595
33623
33599
33603
33617
33604
33615
33499
33588
33615
33627
33630
33620
33611
33620
33620
33630
33644
33635
33647
33634
33645
33653
33649
33559
33621
33655
33651
33639
33659
33655
33659
33542
33604
33639
33665
33679
33676
33671
33677
33639
33679
33694
33669
33614
33677
33679
33663
33687
33563
33692
33710
33649
33702
33691
33684
33548
33704
33714
33692
33701
33709
33700
33543
33709
33709
33719
33719
33719
33717
33727
33711
33727
33722
33717
33732
33730
33698
33755
33756
33656
33748
33755
33751
33768
33615
33735
33699
33764
33775
33699
33765
33780
33674
33764
33780
33622
33775
33767
33772
33758
33631
33782
33768
33734
33766
33670
33766
33615
33784
33775
33785
33769
33745
33770
33646
33778
33764
33742
33764
33724
33749
33758
33766
33760
33734
33756
33701
33742
33583
33772
33749
33739
33764
33714
33751
33731
33749
33671
33730
33573
33749
33573
33743
33740
33757
33555
33727
33639
33742
33719
33757
33732
33740
33732
33743
33732
33743
33727
33742
33735
33730
33729
33660
33625
33569
33729
33717
33727
33717
33727
33719
33695
33657
33596
33727
33721
33713
33716
33698
33734
33720
33703
33657
33615
33707
33711
33717
33710
33694
33718
33718
33674
33637
33570
33711
33716
33708
33687
33735
33715
33703
33661
33554
33699
33703
33715
33683
33615
33701
33703
33680
33711
33670
33596
33703
33715
33700
33711
33705
33671
33553
33696
33701
33693
33595
33709
33699
33687
33615
33696
33681
33700
33660
33687
33639
33672
33693
33695
33696
33695
33693
33679
33684
33646
33691
33633
33683
33589
33668
33687
33699
33530
33703
33692
33687
33683
33613
33671
33595
33679
33644
33676
33543
33698
33678
33703
33573
33668
33622
33675
33636
33678
33644
33671
33668
33679
33639
33679
33643
33677
33636
33685
33656
33670
33693
33670
33695
33674
33687
33671
33687
33679
33684
33670
33676
33671
33687
33665
33671
33556
33663
33530
33676
33524
33671
33661
33679
33666
33686
33514
33655
33575
33667
33629
33666
33659
33645
33671
33653
33659
33653
33647
33523
33643
33543
33637
33492
33631
33595
33646
33578
33627
33537
33641
33569
33642
33588
33626
33566
33632
33619
33645
33615
33636
33606
33627
33578
33639
33578
33621
33595
33615
33613
33613
33612
33620
33626
33607
33623
33503
33593
33543
33609
33567
33607
33543
33543
33468
33593
33590
33583
33579
33584
33575
33583
33591
33595
33591
33583
33567
33534
33481
33455
33404
33391
33571
33549
33563
33565
33533
33557
33571
33565
33543
33521
33468
33463
33431
33535
33538
33543
33529
33516
33524
33543
33510
33491
33454
33515
33511
33512
33511
33507
33498
33491
33514
33501
33483
33447
33371
33492
33482
33484
33479
33497
33474
33452
33404
33373
33469
33474
33469
33449
33481
33463
33438
33412
33300
33455
33458
33445
33466
33431
33433
33364
33447
33445
33447
33443
33431
33444
33439
33416
33384
33359
33335
33321
33324
33304
33415
33417
33426
33419
33420
33415
33412
33412
33415
33424
33413
33410
33381
33359
33342
33276
33403
33405
33401
33383
33394
33407
33375
33247
33381
33383
33383
33398
33361
33263
33383
33244
33386
33381
33383
33382
33391
33365
33383
33381
33364
33367
33340
33361
33340
33359
33357
33367
33342
33287
33195
33353
33361
33355
33343
33361
33351
33343
33339
33303
33273
33206
33174
33350
33348
33350
33334
33355
33315
33171
33334
33340
33331
33363
33339
33287
33220
33154
33332
33340
33319
33319
33339
33322
33292
33244
33327
33316
33315
33319
33223
33325
33325
33295
33164
33305
33322
33303
33341
33323
33319
33303
33283
33272
33263
33167
33311
33302
33297
33298
33308
33297
33303
33316
33287
33255
33189
33298
33313
33287
33273
33316
33287
33259
33191
33129
33287
33287
33287
33285
33276
33305
33285
33255
33223
33159
33284
33285
33284
33299
33263
33303
33279
33261
33255
33247
33231
33191
33274
33272
33287
33267
33277
33282
33287
33287
33287
33263
33225
33119
33287
33275
33275
33263
33287
33276
33253
33183
33277
33274
33267
33286
33257
33228
33174
33276
33268
33279
33287
33244
33127
33267
33261
33260
33171
33263
33259
33271
33262
33263
33279
33263
33257
33223
33148
33268
33268
33268
33263
33278
33209
33268
33246
33263
33276
33263
33259
33267
33283
33271
33286
33103
33277
33134
33263
33220
33276
33263
33279
33267
33260
33257
33283
33276
33271
33247
33278
33265
33295
33271
33255
33252
33192
33159
33126
33279
33265
33275
33283
33276
33265
33269
33258
33287
33276
33255
33178
33281
33271
33274
33175
33278
33223
33263
33183
33279
33245
33279
33278
33280
33287
33275
33271
33140
33269
33175
33270
33180
33276
33150
33272
33124
33303
33282
33148
33287
33276
33133
33302
33287
33314
33285
33287
33310
33135
33274
33228
33301
33287
33287
33308
33285
33311
33159
33300
33277
33309
33295
33309
33301
33287
33300
33316
33303
33284
33180
33295
33306
33309
33311
33287
33325
33309
33287
33287
33271
33215
33317
33313
33317
33316
33320
33315
33308
33308
33335
33299
33260
33183
33327
33319
33324
33335
33328
33287
33202
33325
33332
33327
33321
33340
33332
33287
33198
33335
33333
33335
33351
33308
33235
33335
33351
33324
33359
33333
33275
33207
33351
33345
33351
33359
33347
33366
33343
33322
33265
33337
33356
33359
33351
33357
33348
33345
33375
33365
33375
33372
33361
33351
33377
33374
33348
33265
33196
33365
33374
33373
33375
33381
33365
33356
33386
33376
33363
33279
33380
33389
33374
33382
33388
33388
33384
33367
33405
33403
33375
33359
33327
33402
33390
33391
33404
33407
33383
33404
33411
33383
33324
33406
33402
33388
33423
33398
33338
33407
33411
33393
33407
33337
33404
33415
33400
33415
33367
33265
33429
33423
33431
33407
33421
33388
33431
33407
33421
33391
33427
33415
33438
33437
33436
33444
33427
33444
33364
33433
33428
33445
33460
33305
33433
33335
33447
33428
33452
33460
33332
33447
33383
33444
33461
33447
33444
33475
33469
33460
33452
33450
33439
33413
33386
33332
33461
33468
33471
33452
33487
33470
33415
33295
33479
33487
33477
33468
33494
33482
33447
33366
33483
33484
33473
33508
33479
33463
33345
33495
33488
33492
33491
33495
33485
33462
33365
33497
33502
33502
33524
33501
33503
33509
33501
33519
33500
33515
33482
33522
33444
33519
33463
33535
33446
33511
33353
33541
33385
33508
33431
33516
33445
33517
33492
33543
33514
33543
33542
33540
33558
33543
33543
33543
33527
33539
33550
33525
33450
33539
33559
33556
33548
33540
33574
33543
33503
33407
33572
33559
33566
33568
33567
33555
33550
33580
33557
33543
33527
33495
33486
33458
33415
33579
33571
33582
33581
33573
33588
33552
33485
33591
33588
33588
33599
33604
33581
33604
33596
33588
33537
33525
33463
33602
33612
33606
33591
33619
33606
33588
33537
33479
33615
33615
33614
33613
33607
33637
33620
33591
33468
33620
33620
33617
33615
33632
33617
33590
33535
33620
33631
33629
33606
33596
33540
33501
33616
33620
33631
33615
33606
33617
33570
33449
33607
33604
33581
33612
33567
33611
33570
33596
33501
33591
33517
33580
33466
33583
33582
33604
33435
33513
33423
33588
33580
33567
33595
33588
33580
33524
33438
33572
33561
33574
33574
33559
33568
33567
33559
33532
33532
33530
33506
33431
33415
33446
33447
33405
33383
33367
33543
33543
33551
33543
33543
33527
33530
33529
33512
33517
33522
33527
33543
33540
33529
33511
33492
33487
33459
33373
33517
33521
33516
33518
33508
33513
33516
33516
33519
33511
33500
33505
33495
33489
33490
33503
33495
33355
33464
33508
33501
33508
33499
33447
33492
33518
33478
33493
33485
33492
33407
33463
33487
33479
33475
33474
33304
33388
33452
33479
33493
33461
33479
33479
33476
33279
33383
33441
33484
33452
33479
33468
33462
33332
33368
33444
33469
33455
33458
33466
33455
33452
33446
33450
33287
33342
33401
33435
33455
33462
33442
33458
33447
33439
33343
33407
33447
33455
33422
33431
33432
33444
33429
33364
33362
33407
33439
33446
33415
33415
33429
33273
33391
33435
33415
33427
33415
33269
33389
33412
33447
33403
33407
33412
33413
33410
33337
33399
33413
33415
33428
33417
33393
33351
33303
33208
33287
33314
33367
33399
33400
33383
33382
33380
33389
33399
33380
33386
33389
33383
33383
33219
33302
33351
33363
33382
33390
33383
33349
33375
33372
33370
33357
33183
33223
33311
33333
33350
33357
33366
33359
33332
33339
33340
33338
33343
33335
33320
33333
33343
33348
33330
33325
33333
33332
33324
33311
33303
33308
33134
33308
33287
33309
33307
33319
33196
33299
33287
33279
33303
33303
33269
33287
33190
33277
33298
33254
33274
33271
33268
33114
33189
33231
33260
33269
33251
33247
33252
33247
33245
33239
33238
33089
33188
33225
33236
33223
33214
33213
33218
33210
33207
33063
33079
33093
33123
33184
33197
33196
33181
33177
33174
33175
33060
33047
33099
33135
33143
33167
33158
33159
33149
33152
33148
33079
33042
33073
33111
33135
33143
33143
33113
33106
33109
33109
33124
33121
33096
33106
32975
33005
33015
33030
33052
33076
33076
33086
33079
33079
33082
33079
33084
33070
33062
33061
33071
33054
33061
33050
32903
32959
33021
33031
33061
33026
33031
33039
33046
33031
33045
32917
32939
32935
32901
32866
33020
33015
33012
32998
33014
32999
33001
32998
32991
32835
32986
32966
32982
32996
32948
32986
32970
32943
32984
32981
32856
32970
32984
32892
32959
32980
32877
32966
32975
32895
32955
32966
32889
32945
32949
32875
32943
32935
32795
32919
32924
32775
32934
32950
32817
32917
32919
32913
32821
32908
32901
32927
32854
32754
32899
32895
32865
32877
32893
32919
32895
32899
32891
32866
32890
32796
32815
32850
32861
32810
32791
32755
32711
32868
32871
32868
32855
32879
32838
32775
32865
32864
32840
32854
32769
32851
32852
32842
32721
32838
32703
32847
32837
32839
32825
32843
32843
32815
32823
32676
32832
32823
32823
32823
32813
32822
32799
32821
32746
32826
32715
32808
32751
32807
32775
32807
32741
32805
32751
32806
32767
32807
32738
32798
32679
32794
32679
32775
32687
32791
32787
32802
32775
32796
32786
32775
32775
32745
32775
32695
32784
32780
32751
32774
32764
32767
32765
32774
32747
32759
32753
32751
32753
32691
32756
32762
32759
32751
32670
32748
32743
32743
32751
32648
32767
32741
32727
32737
32653
32739
32655
32735
32684
32743
32708
32732
32696
32727
32719
32735
32728
32724
32717
32722
32727
32701
32732
32649
32718
32658
32739
32655
32707
32623
32711
32606
32727
32715
32711
32588
32694
32699
32729
32700
32711
32591
32702
32674
32697
32685
32703
32688
32703
32695
32694
32709
32693
32659
32602
32685
32691
32694
32701
32701
32685
32668
32647
32612
32539
32686
32687
32679
32685
32668
32701
32669
32631
32678
32671
32679
32694
32669
32647
32599
32679
32669
32671
32687
32673
32647
32608
32577
32667
32663
32663
32674
32647
32587
32673
32663
32669
32679
32663
32629
32588
32676
32661
32666
32668
32659
32660
32675
32670
32663
32647
32617
32519
32663
32670
32647
32671
32631
32584
32660
32678
32668
32607
32661
32659
32647
32655
32628
32581
32660
32654
32657
32655
32663
32622
32519
32657
32652
32647
32666
32639
32551
32548
32652
32659
32663
32532
32644
32571
32654
32567
32652
32555
32650
32627
32643
32654
32647
32511
32647
32643
32645
32642
32655
32647
32637
32605
32540
32647
32641
32639
32639
32663
32631
32599
32638
32639
32647
32647
32661
32647
32615
32551
32638
32642
32647
32635
32665
32647
32613
32519
32647
32647
32639
32649
32637
32568
32650
32643
32642
32647
32647
32639
32573
32644
32646
32647
32647
32640
32587
32644
32645
32631
32655
32615
32567
32498
32634
32647
32643
32647
32639
32611
32570
32649
32647
32653
32641
32583
32540
32641
32647
32647
32644
32584
32644
32651
32586
32655
32646
32660
32519
32644
32559
32641
32614
32644
32627
32645
32636
32647
32647
32622
32557
32500
32647
32639
32647
32643
32644
32647
32660
32659
32636
32621
32551
32647
32653
32660
32647
32641
32642
32667
32669
32674
32663
32647
32614
32548
32647
32645
32659
32646
32658
32647
32611
32530
32644
32660
32654
32653
32644
32671
32631
32573
32519
32647
32671
32660
32647
32669
32641
32605
32543
32660
32661
32647
32660
32665
32655
32669
32676
32651
32619
32533
32659
32668
32663
32670
32669
32615
32569
32663
32667
32648
32658
32669
32621
32566
32668
32668
32658
32671
32657
32669
32676
32660
32652
32623
32575
32665
32671
32671
32673
32652
32674
32641
32599
32663
32668
32679
32668
32655
32679
32668
32655
32628
32628
32583
32675
32673
32663
32674
32668
32668
32684
32692
32673
32639
32590
32663
32677
32669
32687
32663
32671
32679
32660
32566
32679
32687
32677
32670
32695
32681
32655
32600
32524
32681
32687
32684
32678
32676
32675
32707
32695
32706
32668
32605
32558
32558
32690
32694
32691
32693
32679
32691
32681
32661
32648
32551
32695
32695
32688
32679
32685
32703
32674
32644
32605
32559
32694
32695
32695
32703
32686
32690
32682
32609
32682
32686
32697
32689
32697
32708
32684
32654
32596
32543
32684
32682
32692
32674
32694
32686
32676
32655
32632
32596
32547
32677
32678
32677
32674
32671
32668
32646
32573
32480
32642
32655
32646
32628
32648
32647
32554
32470
32628
32621
32629
32625
32619
32631
32631
32582
32510
32479
32613
32607
32613
32606
32597
32583
32615
32593
32575
32508
32575
32575
32588
32579
32573
32573
32591
32563
32534
32463
32564
32561
32560
32548
32563
32423
32540
32543
32554
32547
32551
32538
32551
32527
32529
32527
32510
32532
32469
32519
32465
32509
32514
32503
32501
32503
32500
32499
32503
32519
32503
32503
32495
32505
32485
32500
32487
32476
32484
32452
32474
32423
32455
32331
32475
32449
32471
32451
32439
32467
32346
32455
32449
32458
32452
32391
32437
32316
32455
32295
32451
32431
32445
32439
32423
32433
32351
32412
32370
32421
32334
32415
32339
32423
32381
32411
32404
32404
32415
32406
32412
32300
32383
32391
32407
32394
32370
32306
32383
32375
32375
32367
32383
32363
32337
32286
32359
32359
32372
32363
32358
32327
32351
32263
32354
32210
32359
32342
32342
32351
32330
32349
32286
32337
32335
32327
32335
32303
32193
32324
32333
32340
32325
32319
32251
32302
32316
32301
32319
32311
32311
32309
32286
32296
32311
32291
32292
32291
32289
32294
32275
32297
32278
32287
32263
32263
32275
32231
32263
32263
32179
32259
32118
32259
32119
32262
32244
32252
32244
32151
32246
32237
32257
32229
32231
32103
32223
32221
32223
32215
32216
32202
32199
32212
32191
32206
32143
32193
32194
32198
32189
32180
32194
32161
32182
32066
32199
32179
32157
32165
32118
32151
32094
32153
32127
32154
32110
32140
32074
32132
32047
32116
32116
32135
32119
32120
32109
32095
32109
32019
32105
32106
32091
32087
32049
32087
32021
32070
31989
32069
31916
32055
31954
32052
31950
32044
31975
32047
31887
32023
31909
32025
31945
32023
31958
32007
31925
31998
31908
31996
31925
31994
31947
31983
31926
31973
31967
31967
31887
31987
31961
31956
31965
31925
31947
31895
31932
31799
31943
31933
31940
31921
31935
31927
31916
31899
31915
31903
31891
31901
31863
31897
31853
31878
31863
31884
31870
31867
31852
31860
31877
31863
31860
31855
31866
31719
31750
31823
31833
31823
31830
31823
31787
31747
31815
31814
31809
31807
31799
31780
31734
31644
31791
31787
31788
31783
31771
31765
31763
31783
31780
31766
31760
31751
31745
31727
31737
31711
31688
31646
31597
31731
31725
31732
31733
31710
31623
31593
31707
31697
31702
31714
31700
31702
31687
31674
31637
31693
31687
31681
31687
31679
31666
31684
31674
31655
31635
31559
31653
31651
31653
31655
31645
31642
31647
31647
31645
31623
31542
31639
31634
31637
31618
31551
31633
31615
31604
31615
31550
31596
31583
31586
31558
31587
31559
31583
31519
31580
31439
31584
31423
31586
31571
31593
31564
31565
31552
31571
31556
31561
31439
31553
31485
31547
31516
31543
31487
31538
31493
31530
31492
31529
31494
31518
31491
31516
31482
31511
31420
31500
31380
31517
31494
31503
31495
31500
31486
31503
31495
31500
31468
31491
31484
31484
31468
31477
31473
31467
31469
31458
31454
31438
31460
31391
31458
31349
31469
31452
31436
31451
31398
31438
31364
31434
31319
31431
31313
31429
31375
31421
31380
31426
31343
31411
31367
31412
31350
31404
31325
31391
31293
31383
31308
31399
31387
31385
31293
31387
31339
31387
31343
31381
31367
31367
31373
31353
31372
31333
31372
31294
31363
31366
31364
31239
31367
31356
31364
31354
31351
31349
31359
31343
31351
31335
31334
31346
31284
31329
31223
31333
31223
31334
31327
31339
31316
31327
31327
31263
31319
31317
31311
31317
31272
31299
31302
31311
31303
31287
31296
31303
31199
31303
31303
31287
31295
31228
31279
31188
31296
31147
31281
31143
31283
31159
31275
31236
31257
31247
31215
31175
31141
31264
31263
31271
31263
31270
31279
31263
31239
31239
31223
31180
31171
31126
31239
31252
31239
31239
31254
31263
31207
31239
31239
31239
31212
31207
31169
31119
31231
31239
31233
31231
31239
31239
31237
31212
31182
31119
31079
31227
31224
31215
31223
31225
31167
31103
31221
31221
31223
31221
31202
31188
31158
31068
31207
31207
31207
31207
31217
31175
31127
31198
31196
31199
31199
31218
31199
31203
31174
31105
31203
31191
31189
31207
31188
31193
31186
31198
31055
31181
31071
31181
31127
31180
31063
31186
31171
31185
31172
31157
31172
31159
31182
31123
31167
31079
31165
31067
31163
31109
31171
31125
31166
31127
31159
31068
31163
31078
31167
31150
31157
31157
31142
31167
31126
31162
31133
31149
31111
31157
31111
31147
31133
31151
31137
31140
31141
31148
31129
31142
31132
31152
31132
31143
31110
31149
31111
31069
30975
31150
31151
31131
31147
31111
31108
31059
30989
31130
31125
31126
31135
31142
31124
31142
31130
31092
31083
31069
31039
31039
31131
31121
31135
31127
31118
31116
31142
31130
31127
31111
31110
31081
31092
31055
31031
30983
31111
31111
31108
31124
31111
31111
31101
31127
31125
31111
31036
31108
31103
31111
31100
31106
31111
31076
31021
31101
31108
31109
31116
31111
31114
31117
31102
31079
31073
31004
31108
31102
31090
31092
31111
31079
30990
31101
31103
31048
31098
31025
31087
31083
31108
31087
31095
31095
31093
31109
30956
31103
30983
31116
31093
31110
30959
31084
30961
31086
31007
31084
30999
31086
30982
31083
30980
31079
31086
31108
31102
31074
31023
30959
31087
31082
31078
31068
31092
31101
31078
31055
31014
31077
31068
31078
31087
31077
31077
31079
31078
31082
31087
31076
31086
31071
31068
31092
31076
31039
30948
31028
31069
31032
31078
31009
31073
31067
31073
31079
31068
31093
30983
31076
30971
31076
31046
31055
31043
31015
30991
30954
30930
30922
31074
31071
31063
31068
31065
31078
31061
31039
30983
30930
31051
31066
31068
31076
31073
31032
30996
30922
31061
31056
31058
31079
31050
31015
30943
31054
31060
31074
31050
31053
31075
31053
31012
30930
31059
31067
31067
31066
31055
31017
30956
31044
31055
31063
31060
31073
31046
30999
30995
30955
31060
31063
31060
31055
31049
31079
31045
31059
31049
31029
30991
30937
30918
31055
31053
31055
31048
31055
31058
31047
31036
31043
31058
31052
31055
31048
30988
30977
30952
30908
31037
31046
31039
31030
31039
31023
31023
31015
31012
31023
30997
30974
30968
30938
30882
30992
30990
30987
30984
30991
30976
30980
30974
30973
30962
30973
30967
30975
30961
30966
30949
30967
30963
30943
30908
30887
30867
30844
30939
30924
30940
30916
30947
30908
30886
30839
30794
30911
30903
30902
30906
30903
30895
30896
30906
30898
30862
30823
30785
30885
30879
30887
30870
30879
30863
30795
30864
30868
30861
30854
30855
30864
30839
30822
30775
30703
30847
30830
30837
30837
30828
30844
30821
30822
30828
30829
30823
30781
30764
30706
30814
30796
30799
30814
30797
30791
30798
30800
30794
30787
30758
30713
30691
30657
30768
30775
30770
30766
30769
30763
30767
30765
30763
30727
30723
30726
30737
30759
30740
30719
30716
30701
30718
30711
30719
30695
30660
30646
30609
30592
30722
30711
30715
30710
30719
30709
30703
30716
30710
30702
30700
30701
30695
30680
30692
30701
30694
30671
30632
30575
30675
30677
30675
30671
30685
30591
30540
30665
30662
30649
30654
30652
30666
30634
30599
30524
30652
30639
30631
30643
30651
30647
30644
30644
30642
30623
30626
30622
30618
30614
30608
30620
30490
30535
30548
30585
30606
30607
30609
30604
30599
30591
30591
30598
30580
30465
30503
30551
30564
30582
30575
30563
30573
30561
30567
30439
30510
30529
30558
30550
30556
30543
30551
30530
30447
30499
30524
30545
30518
30527
30521
30524
30516
30399
30431
30461
30471
30505
30516
30503
30492
30502
30487
30494
30487
30492
30485
30471
30366
30386
30412
30447
30479
30463
30469
30452
30455
30449
30447
30445
30442
30447
30436
30439
30433
30428
30404
30415
30407
30373
30407
30414
30363
30400
30399
30369
30387
30374
30343
30382
30375
30383
30379
30321
30365
30371
30362
30340
30351
30346
30343
30337
30343
30340
30327
30322
30311
30316
30313
30199
30215
30215
30214
30215
30214
30180
30183
30191
30213
30201
30212
30225
30235
30250
30260
30269
30246
30247
30243
30238
30239
30229
30230
30227
30215
30226
30215
30215
30204
30055
30108
30145
30125
30123
30108
30141
30157
30127
30097
30110
30157
30166
30175
30161
30151
30143
30143
30150
30134
30132
30140
30135
30124
30126
30001
30058
30087
30093
30098
30111
30119
30101
30100
30095
30095
30099
30095
30085
30086
30069
30074
30070
30062
30063
30055
30055
30056
30038
30059
30052
30052
29959
30049
30043
30001
30028
30023
29991
30030
30022
29999
30015
30015
30015
30003
30005
30001
29907
29925
29957
29993
30007
29988
29982
29989
29978
29988
29873
29911
29947
29958
29969
29968
29959
29953
29949
29951
29950
29935
29844
29894
29926
29940
29932
29930
29919
29922
29851
29867
29898
29898
29919
29927
29911
29911
29908
29906
29807
29846
29879
29903
29893
29895
29890
29877
29799
29845
29881
29892
29868
29863
29868
29878
29870
29850
29809
29863
29875
29852
29854
29854
29851
29829
29703
29757
29814
29822
29853
29831
29833
29831
29846
29823
29819
29821
29815
29815
29703
29733
29734
29747
29721
29724
29759
29740
29756
29740
29762
29783
29786
29798
29796
29782
29780
29780
29777
29772
29664
29722
29713
29750
29744
29751
29767
29778
29765
29758
29767
29757
29761
29755
29740
29743
29751
29756
29740
29743
29653
29679
29721
29735
29735
29734
29746
29725
29732
29725
29729
29719
29727
29635
29658
29711
29723
29676
29713
29703
29679
29703
29701
29706
29588
29700
29703
29605
29703
29703
29671
29679
29698
29687
29564
29695
29687
29565
29694
29684
29583
29691
29691
29656
29671
29666
29663
29671
29684
29668
29675
29581
29659
29653
29572
29658
29663
29669
29605
29658
29662
29667
29628
29661
29652
29662
29628
29535
29644
29647
29639
29575
29642
29628
29639
29532
29647
29658
29587
29635
29636
29625
29629
29630
29637
29566
29622
29634
29636
29556
29623
29630
29591
29622
29607
29612
29537
29615
29630
29567
29614
29607
29618
29544
29612
29627
29575
29605
29603
29581
29606
29612
29602
29614
29567
29596
29605
29603
29548
29590
29592
29569
29596
29587
29584
29510
29586
29611
29575
29501
29583
29591
29562
29578
29593
29586
29495
29586
29591
29585
29583
29596
29577
29497
29549
29586
29574
29583
29566
29506
29569
29591
29589
29570
29567
29575
29571
29572
29453
29525
29573
29583
29573
29572
29564
29567
29562
29484
29535
29559
29565
29562
29570
29565
29575
29579
29459
29519
29539
29559
29581
29565
29559
29571
29568
29559
29472
29543
29569
29551
29557
29567
29476
29503
29551
29549
29559
29493
29542
29564
29545
29553
29564
29495
29547
29556
29550
29548
29550
29460
29526
29555
29571
29554
29559
29559
29554
29487
29537
29554
29569
29552
29559
29556
29559
29546
29487
29534
29565
29551
29546
29553
29551
29440
29471
29478
29506
29534
29549
29559
29561
29548
29545
29553
29545
29551
29547
29441
29479
29532
29546
29558
29551
29550
29559
29540
29553
29532
29551
29546
29555
29548
29549
29541
29455
29520
29551
29545
29547
29536
29534
29527
29527
29529
29540
29555
29548
29556
29571
29563
29564
29567
29563
29549
29548
29540
29551
29559
29549
29548
29547
29547
29557
29558
29567
29561
29564
29571
29548
29558
29553
29553
29416
29486
29497
29529
29556
29567
29545
29547
29562
29556
29487
29540
29567
29564
29549
29552
29553
29460
29484
29499
29557
29572
29548
29551
29551
29429
29479
29540
29554
29551
29563
29552
29447
29510
29546
29566
29547
29556
29549
29559
29557
29455
29487
29519
29547
29551
29552
29554
29548
29479
29562
29551
29562
29563
29443
29502
29551
29581
29562
29562
29476
29559
29559
29562
29463
29484
29511
29535
29559
29575
29575
29575
29574
29566
29568
29566
29567
29575
29514
29566
29567
29575
29495
29564
29567
29556
29455
29575
29575
29574
29476
29519
29551
29567
29586
29567
29571
29564
29575
29582
29582
29571
29500
29533
29555
29572
29575
29580
29572
29575
29581
29575
29580
29580
29457
29503
29501
29536
29548
29572
29576
29572
29572
29576
29575
29568
29585
29559
29578
29564
29577
29509
29563
29560
29520
29560
29551
29559
29440
29541
29548
29487
29538
29543
29505
29522
29538
29541
29487
29518
29526
29506
29511
29508
29529
29484
29501
29511
29524
29471
29502
29490
29509
29412
29503
29501
29446
29486
29489
29491
29406
29479
29471
29479
29383
29477
29471
29413
29461
29447
29440
29447
29468
29444
29439
29351
29447
29444
29434
29438
29433
29447
29370
29435
29423
29412
29433
29421
29406
29422
29423
29412
29351
29412
29400
29415
29308
29404
29425
29366
29406
29407
29407
29391
29399
29399
29399
29317
29347
29377
29391
29399
29381
29384
29372
29391
29377
29263
29311
29367
29375
29382
29364
29358
29363
29365
29359
29359
29356
29255
29301
29306
29326
29350
29351
29367
29348
29348
29342
29348
29341
29342
29346
29239
29276
29286
29301
29328
29335
29327
29333
29252
29308
29342
29319
29326
29320
29319
29247
29302
29309
29318
29311
29307
29317
29311
29308
29231
29287
29303
29302
29292
29293
29218
29279
29300
29287
29295
29287
29284
29177
29215
29261
29286
29287
29276
29262
29271
29274
29271
29266
29263
29185
29235
29252
29276
29268
29249
29254
29251
29261
29174
29203
29243
29250
29268
29255
29247
29245
29242
29235
29238
29161
29215
29229
29231
29237
29231
29225
29231
29235
29159
29207
29235
29223
29210
29209
29127
29174
29205
29205
29222
29209
29219
29199
29122
29188
29204
29191
29191
29180
29188
29183
29063
29138
29166
29178
29173
29175
29169
29169
29107
29146
29166
29153
29164
29159
29159
29154
29039
29055
29093
29127
29135
29143
29148
29134
29139
29127
29036
29084
29107
29130
29111
29119
29109
29108
29035
29079
29108
29115
29098
29089
29060
28999
29089
29085
29079
29082
29083
29074
29077
28967
28997
29035
29077
29071
29052
29050
29045
29054
28933
29003
29036
29047
29036
29015
29023
28956
29003
29007
29028
28997
29003
29006
29005
28996
28957
28998
28999
28988
28999
28991
28935
28956
28981
28966
28975
28973
28961
28911
28971
28966
28965
28957
28951
28862
28919
28940
28951
28935
28929
28935
28926
28935
28866
28903
28931
28913
28919
28913
28836
28888
28905
28911
28911
28902
28900
28898
28903
28887
28819
28859
28892
28901
28877
28876
28874
28872
28876
28764
28815
28818
28839
28860
28868
28850
28851
28851
28850
28775
28819
28831
28847
28837
28844
28839
28829
28829
28759
28796
28807
28823
28828
28822
28815
28809
28816
28815
28801
28812
28807
28807
28798
28804
28799
28743
28790
28785
28775
28795
28791
28784
28750
28777
28775
28783
28774
28770
28767
28768
28770
28770
28772
28767
28758
28771
28698
28759
28781
28705
28751
28743
28749
28745
28751
28740
28738
28742
28709
28729
28729
28732
28663
28727
28740
28711
28727
28727
28721
28641
28719
28729
28703
28714
28722
28692
28708
28711
28707
28705
28703
28714
28700
28710
28700
28708
28658
28692
28699
28679
28679
28679
28679
28679
28679
28703
28662
28679
28691
28679
28636
28677
28671
28679
28676
28693
28594
28672
28655
28676
28661
28678
28671
28658
28519
28613
28644
28665
28664
28663
28661
28658
28650
28599
28631
28642
28647
28655
28647
28649
28659
28555
28580
28631
28635
28647
28641
28647
28657
28639
28646
28638
28633
28638
28564
28589
28622
28642
28635
28634
28631
28627
28635
28566
28614
28626
28638
28623
28627
28627
28623
28615
28632
28516
28586
28607
28623
28631
28628
28625
28618
28614
28610
28613
28610
28621
28573
28614
28615
28580
28611
28612
28619
28567
28607
28608
28612
28576
28601
28603
28615
28605
28554
28612
28614
28574
28595
28604
28592
28529
28599
28599
28535
28605
28611
28548
28586
28607
28572
28599
28588
28583
28516
28595
28611
28575
28585
28590
28594
28551
28583
28596
28580
28591
28586
28589
28533
28591
28591
28596
28580
28587
28595
28593
28549
28588
28591
28487
28542
28570
28598
28590
28583
28591
28583
28586
28532
28566
28580
28595
28591
28598
28594
28583
28595
28593
28584
28583
28543
28577
28584
28596
28575
28590
28593
28588
28517
28555
28583
28587
28591
28599
28595
28601
28593
28589
28589
28593
28587
28588
28491
28551
28589
28589
28601
28587
28586
28607
28583
28598
28596
28503
28536
28546
28559
28542
28569
28591
28597
28613
28589
28598
28581
28594
28598
28607
28569
28593
28607
28519
28599
28599
28511
28597
28612
28571
28601
28603
28600
28564
28595
28605
28612
28563
28607
28599
28591
28605
28616
28575
28613
28606
28602
28617
28609
28620
28581
28618
28613
28610
28570
28605
28614
28606
28622
28612
28627
28583
28615
28629
28623
28605
28609
28620
28631
28621
28553
28606
28631
28595
28626
28636
28596
28621
28634
28569
28624
28632
28617
28631
28568
28625
28620
28637
28642
28586
28639
28588
28639
28583
28642
28636
28618
28641
28596
28634
28601
28645
28585
28649
28647
28643
28615
28653
28656
28646
28620
28654
28601
28651
28651
28668
28654
28663
28647
28663
28662
28669
28658
28665
28655
28669
28653
28670
28670
28679
28674
28676
28671
28679
28671
28687
28671
28679
28679
28671
28629
28677
28628
28678
28635
28679
28654
28699
28650
28687
28676
28692
28661
28692
28692
28687
28695
28697
28695
28679
28655
28705
28701
28699
28705
28706
28695
28719
28710
28691
28652
28705
28711
28710
28711
28719
28690
28673
28711
28708
28714
28735
28719
28657
28719
28713
28733
28730
28667
28747
28727
28731
28726
28734
28737
28711
28738
28693
28740
28709
28743
28687
28751
28739
28751
28743
28751
28746
28740
28756
28724
28752
28711
28761
28679
28773
28755
28757
28763
28764
28760
28721
28780
28764
28770
28767
28788
28775
28777
28759
28753
28780
28759
28770
28743
28777
28786
28786
28789
28799
28775
28779
28791
28801
28780
28776
28799
28743
28795
28790
28813
28796
28807
28804
28806
28807
28816
28807
28807
28807
28827
28820
28820
28820
28839
28815
28833
28831
28841
28823
28846
28824
28846
28838
28845
28826
28843
28838
28845
28847
28835
28839
28842
28832
28844
28849
28851
28775
28847
28805
28848
28807
28853
28814
28856
28863
28826
28867
28850
28857
28873
28858
28860
28850
28866
28864
28812
28869
28857
28863
28870
28779
28860
28853
28857
28861
28852
28866
28854
28860
28777
28852
28822
28852
28844
28850
28778
28844
28847
28831
28844
28831
28839
28830
28849
28849
28823
28777
28831
28839
28830
28844
28828
28838
28830
28826
28769
28823
28781
28825
28777
28827
28814
28815
28823
28815
28815
28724
28808
28703
28815
28755
28806
28782
28807
28806
28805
28807
28803
28820
28799
28796
28804
28780
28804
28765
28799
28744
28795
28710
28804
28791
28805
28789
28790
28794
28751
28780
28734
28782
28751
28785
28731
28788
28727
28783
28766
28774
28791
28785
28783
28790
28788
28702
28782
28749
28775
28773
28791
28788
28771
28776
28726
28778
28709
28780
28666
28762
28707
28767
28714
28781
28695
28783
28765
28786
28766
28777
28759
28772
28772
28773
28775
28724
28767
28706
28777
28769
28761
28767
28755
28767
28755
28772
28751
28759
28753
28761
28743
28763
28743
28767
28679
28772
28754
28770
28763
28751
28757
28760
28762
28759
28751
28771
28743
28755
28748
28759
28748
28763
28759
28766
28756
28756
28756
28766
28748
28754
28751
28747
28743
28761
28747
28757
28751
28748
28673
28759
28669
28767
28747
28763
28631
28746
28693
28756
28700
28750
28736
28749
28743
28763
28748
28734
28753
28730
28743
28691
28746
28751
28751
28742
28701
28736
28748
28741
28750
28730
28746
28719
28740
28669
28729
28646
28740
28734
28746
28730
28740
28741
28747
28738
28726
28730
28707
28729
28701
28717
28679
28720
28671
28724
28717
28731
28721
28734
28709
28719
28709
28718
28719
28701
28720
28647
28716
28712
28716
28708
28705
28711
28697
28711
28677
28700
28690
28709
28697
28708
28696
28674
28697
28615
28701
28698
28687
28679
28688
28679
28679
28679
28678
28676
28668
28676
28663
28679
28676
28666
28647
28666
28631
28661
28655
28658
28660
28650
28647
28624
28647
28561
28656
28641
28650
28651
28633
28639
28587
28639
28630
28643
28630
28639
28625
28623
28620
28612
28619
28628
28618
28610
28604
28603
28610
28572
28605
28607
28615
28607
28608
28603
28583
28601
28521
28604
28591
28573
28599
28535
28601
28587
28580
28582
28540
28583
28589
28583
28577
28580
28583
28551
28575
28577
28571
28579
28559
28577
28540
28578
28540
28572
28503
28564
28551
28575
28563
28569
28564
28554
28562
28551
28551
28541
28551
28505
28561
28457
28566
28537
28563
28487
28559
28549
28553
28546
28550
28535
28545
28543
28500
28551
28541
28544
28551
28497
28544
28530
28532
28535
28465
28545
28540
28519
28537
28512
28540
28526
28519
28529
28494
28532
28481
28541
28525
28526
28529
28490
28535
28523
28516
28527
28492
28535
28521
28484
28516
28514
28527
28519
28530
28519
28505
28519
28495
28517
28511
28524
28523
28518
28517
28492
28519
28423
28519
28516
28526
28484
28509
28513
28522
28519
28516
28508
28513
28521
28505
28511
28515
28511
28519
28500
28514
28507
28510
28511
28511
28511
28510
28519
28480
28503
28508
28508
28519
28519
28518
28483
28507
28527
28506
28512
28514
28516
28485
28513
28523
28491
28506
28519
28463
28523
28519
28519
28514
28415
28506
28519
28476
28504
28518
28466
28519
28513
28452
28525
28531
28500
28508
28531
28479
28528
28532
28476
28519
28527
28495
28521
28525
28491
28521
28529
28494
28519
28531
28509
28527
28527
28526
28531
28533
28535
28460
28527
28524
28500
28535
28535
28503
28535
28543
28527
28529
28545
28507
28534
28534
28540
28541
28540
28530
28539
28519
28535
28551
28526
28542
28548
28540
28527
28547
28515
28542
28434
28551
28543
28553
28545
28551
28548
28556
28543
28560
28550
28558
28567
28564
28554
28550
28565
28570
28570
28535
28573
28569
28564
28574
28574
28546
28566
28570
28577
28580
28580
28552
28579
28591
28564
28585
28593
28534
28592
28610
28544
28589
28596
28583
28608
28553
28596
28610
28567
28596
28605
28595
28613
28604
28618
28575
28613
28607
28615
28581
28611
28627
28593
28615
28622
28567
28621
28620
28620
28626
28626
28610
28620
28641
28623
28630
28630
28601
28646
28645
28666
28652
28646
28615
28657
28646
28647
28652
28651
28658
28655
28662
28661
28670
28654
28663
28668
28679
28663
28676
28620
28679
28621
28679
28637
28679
28646
28679
28638
28679
28679
28695
28700
28685
28679
28669
28718
28697
28710
28705
28711
28703
28649
28717
28705
28722
28647
28724
28719
28733
28722
28734
28722
28735
28718
28726
28721
28741
28729
28732
28740
28734
28740
28745
28742
28732
28750
28711
28747
28711
28773
28759
28774
28757
28767
28769
28783
28773
28783
28763
28791
28775
28785
28791
28789
28787
28783
28788
28788
28813
28804
28791
28773
28811
28806
28805
28807
28807
28821
28819
28813
28785
28761
28822
28829
28839
28826
28835
28833
28831
28837
28841
28839
28837
28852
28823
28845
28860
28850
28852
28868
28853
28854
28871
28831
28869
28837
28871
28814
28879
28839
28888
28878
28899
28885
28902
28892
28881
28902
28878
28900
28867
28908
28903
28911
28916
28903
28908
28855
28929
28917
28926
28935
28915
28930
28935
28935
28908
28942
28935
28949
28953
28922
28942
28911
28958
28951
28958
28969
28965
28974
28931
28988
28971
28988
28978
28961
28980
28925
28988
28934
28990
29002
29015
28996
29005
29006
28958
29023
29011
29025
29010
29015
29028
29012
29031
29003
29032
29000
29031
28999
29040
29024
29036
29006
29062
28982
29062
29068
29071
29067
29063
29074
29031
29091
29039
29087
28997
29086
29093
29108
29092
29124
29103
29108
29108
29116
29122
29130
29108
29120
29116
29132
29135
29125
29094
29132
29135
29144
29151
29148
29140
29113
29142
29140
29159
29154
29165
29158
29151
29143
29106
29174
29173
29178
29191
29203
29183
29133
29188
29190
29199
29202
29191
29217
29201
29175
29158
29227
29223
29223
29233
29187
29229
29231
29230
29230
29236
29209
29242
29248
29253
29253
29191
29259
29263
29263
29273
29255
29209
29271
29261
29274
29263
29285
29277
29295
29263
29305
29287
29302
29269
29306
29309
29317
29319
29326
29321
29329
29329
29321
29335
29322
29337
29324
29340
29335
29348
29351
29351
29345
29354
29371
29355
29375
29375
29383
29370
29386
29375
29382
29385
29383
29396
29367
29390
29341
29410
29404
29402
29407
29373
29419
29351
29418
29420
29423
29423
29403
29429
29423
29441
29429
29415
29432
29350
29450
29446
29441
29459
29438
29454
29462
29430
29447
29383
29468
29447
29455
29455
29452
29454
29447
29454
29459
29447
29457
29452
29455
29447
29447
29457
29439
29460
29415
29455
29402
29459
29425
29457
29425
29455
29425
29455
29422
29447
29367
29473
29455
29455
29444
29423
29455
29373
29467
29455
29467
29460
29439
29479
29464
29444
29455
29399
29462
29340
29471
29459
29475
29352
29455
29399
29455
29359
29466
29468
29473
29463
29469
29471
29447
29470
29382
29471
29474
29446
29460
29471
29463
29468
29422
29487
29463
29469
29474
29437
29474
29470
29482
29476
29450
29471
29395
29487
29477
29465
29479
29474
29483
29412
29492
29477
29470
29490
29421
29487
29483
29475
29484
29387
29498
29484
29429
29503
29487
29468
29488
29481
29503
29493
29472
29495
29426
29493
29372
29513
29500
29492
29501
29447
29499
29459
29498
29455
29502
29417
29510
29509
29495
29509
29458
29514
29503
29510
29514
29519
29513
29496
29510
29455
29506
29434
29521
29511
29527
29431
29532
29439
29523
29461
29524
29447
29519
29447
29535
29524
29536
29531
29532
29526
29532
29531
29522
29529
29525
29532
29524
29533
29541
29540
29551
29471
29527
29442
29532
29479
29534
29457
29539
29540
29549
29542
29566
29551
29550
29527
29549
29543
29546
29542
29548
29550
29535
29550
29521
29552
29523
29551
29493
29545
29561
29564
29547
29557
29549
29554
29541
29536
29551
29509
29550
29492
29539
29495
29567
29433
29564
29545
29574
29559
29524
29555
29503
29556
29492
29551
29494
29556
29479
29546
29521
29550
29500
29546
29533
29538
29558
29452
29572
29559
29549
29556
29511
29550
29486
29540
29551
29558
29486
29547
29522
29557
29540
29548
29531
29543
29559
29551
29558
29435
29548
29535
29537
29540
29526
29546
29542
29548
29412
29548
29535
29542
29528
29543
29531
29546
29530
29542
29535
29530
29447
29529
29524
29461
29439
29525
29531
29519
29529
29527
29519
29492
29516
29519
29515
29515
29530
29511
29483
29473
29510
29510
29511
29519
29510
29495
29446
29404
29503
29503
29508
29503
29503
29523
29503
29480
29439
29381
29495
29500
29503
29493
29508
29492
29475
29427
29492
29491
29490
29479
29487
29479
29492
29453
29500
29439
29487
29437
29493
29445
29486
29463
29487
29447
29493
29447
29479
29487
29489
29487
29481
29485
29461
29481
29412
29489
29474
29482
29479
29469
29487
29438
29484
29415
29484
29477
29491
29479
29478
29477
29453
29481
29474
29469
29476
29423
29495
29477
29458
29479
29487
29458
29476
29403
29487
29479
29490
29477
29477
29479
29437
29477
29483
29495
29477
29487
29477
29447
29476
29475
29484
29478
29460
29487
29429
29473
29434
29475
29384
29483
29487
29469
29466
29476
29478
29478
29475
29476
29383
29487
29475
29447
29485
29479
29483
29487
29458
29476
29406
29487
29479
29469
29478
29382
29497
29479
29494
29482
29491
29487
29422
29501
29494
29495
29485
29478
29493
29468
29486
29439
29483
29375
29492
29486
29500
29485
29457
29493
29436
29502
29493
29516
29489
29501
29504
29492
29495
29492
29511
29505
29497
29495
29503
29503
29503
29509
29495
29518
29502
29517
29508
29516
29511
29519
29503
29527
29507
29511
29518
29514
29517
29523
29524
29533
29508
29517
29460
29525
29435
29532
29523
29541
29527
29541
29515
29543
29525
29537
29431
29527
29527
29524
29535
29497
29532
29485
29547
29473
29554
29447
29551
29543
29545
29547
29537
29556
29553
29548
29540
29546
29558
29546
29547
29554
29530
29558
29555
29508
29552
29559
29566
29554
29574
29571
29574
29573
29585
29567
29569
29569
29575
29575
29589
29571
29575
29532
29596
29535
29585
29559
29588
29557
29589
29524
29525
29589
29593
29591
29593
29603
29560
29598
29597
29601
29539
29610
29626
29567
29605
29548
29603
29581
29620
29575
29615
29591
29621
29620
29627
29622
29627
29642
29551
29631
29541
29639
29637
29636
29647
29645
29655
29645
29651
29613
29652
29647
29650
29659
29643
29669
29659
29651
29658
29674
29669
29658
29647
29630
29620
29674
29682
29674
29674
29671
29698
29695
29684
29646
29620
29691
29693
29690
29698
29703
29685
29655
29633
29703
29703
29716
29703
29703
29703
29727
29722
29699
29671
29647
29721
29716
29711
29725
29735
29721
29747
29741
29725
29703
29679
29661
29743
29749
29748
29744
29756
29752
29753
29767
29751
29729
29703
29678
29771
29775
29775
29774
29791
29764
29757
29733
29716
29697
29788
29791
29791
29791
29789
29791
29804
29783
29726
29803
29804
29812
29814
29827
29803
29781
29759
29817
29815
29831
29829
29831
29844
29821
29803
29781
29837
29835
29839
29847
29859
29837
29794
29855
29857
29857
29855
29861
29879
29877
29863
29871
29863
29858
29807
29879
29879
29874
29887
29888
29900
29887
29871
29908
29901
29911
29894
29900
29900
29908
29914
29921
29895
29919
29916
29927
29921
29924
29935
29937
29936
29946
29959
29878
29934
29884
29951
29902
29951
29914
29953
29944
29972
29959
29969
29980
29966
29980
29972
29983
29876
29991
29988
29997
29994
30014
30004
30008
29887
30015
29930
30023
30021
30012
30020
30002
30020
29979
30025
30003
30028
30029
30036
30045
30049
30006
30047
30050
29959
30059
30053
30033
30070
30057
30066
30059
30061
30076
30070
30091
29990
30078
30061
30087
30085
30092
30092
30103
30086
30099
30079
30118
30051
30105
30047
30119
30052
30118
30119
30125
30132
30030
30138
30085
30142
30116
30149
30137
30149
30140
30151
30150
30159
30112
30183
30170
30063
30155
30180
30173
30190
30183
30196
30098
30197
30189
30137
30207
30196
30140
30206
30207
30196
30212
30215
30223
30228
30215
30233
30159
30229
30155
30236
30169
30244
30195
30247
30207
30249
30215
30247
30201
30259
30263
30197
30285
30270
30278
30266
30284
30255
30228
30277
30287
30285
30295
30272
30235
30292
30292
30303
30326
30309
30281
30247
30326
30316
30325
30325
30324
30327
30306
30333
30311
30342
30305
30345
30279
30349
30250
30365
30270
30362
30291
30352
30304
30367
30324
30381
30367
30395
30356
30394
30356
30391
30364
30404
30326
30398
30315
30417
30403
30415
30420
30297
30421
30431
30391
30431
30421
30431
30364
30435
30343
30471
30446
30460
30447
30453
30347
30453
30391
30463
30414
30471
30453
30479
30430
30471
30436
30478
30470
30479
30476
30486
30468
30487
30500
30492
30490
30486
30479
30498
30417
30489
30400
30487
30495
30471
30482
30463
30489
30470
30497
30471
30500
30432
30493
30383
30486
30422
30496
30407
30478
30427
30487
30423
30487
30381
30498
30356
30488
30407
30491
30383
30503
30486
30497
30484
30485
30491
30455
30485
30471
30487
30471
30500
30453
30486
30450
30486
30471
30497
30471
30486
30469
30500
30463
30489
30479
30498
30504
30379
30484
30436
30492
30501
30494
30499
30490
30501
30509
30506
30503
30498
30460
30419
30490
30509
30503
30499
30485
30517
30496
30479
30401
30384
30405
30420
30451
30453
30465
30467
30465
30466
30436
30429
30495
30495
30500
30509
30495
30388
30508
30507
30500
30513
30490
30359
30511
30510
30389
30509
30517
30400
30502
30487
30511
30524
30464
30510
30501
30480
30514
30503
30501
30516
30503
30492
30509
30525
30445
30522
30511
30508
30507
30461
30516
30531
30428
30523
30517
30490
30525
30520
30527
30476
30517
30519
30495
30519
30519
30503
30522
30518
30503
30375
30518
30520
30385
30531
30501
30521
30547
30471
30524
30545
30486
30525
30521
30542
30412
30527
30543
30471
30527
30538
30508
30535
30533
30535
30398
30533
30543
30469
30535
30532
30461
30529
30537
30460
30528
30551
30468
30534
30543
30455
30533
30541
30504
30530
30527
30514
30524
30531
30495
30524
30531
30500
30527
30543
30410
30522
30513
30528
30524
30503
30532
30531
30506
30530
30533
30469
30523
30503
30533
30543
30431
30533
30530
30406
30525
30495
30527
30541
30436
30518
30527
30441
30521
30508
30532
30516
30482
30517
30511
30495
30522
30519
30532
30471
30508
30516
30533
30423
30511
30445
30513
30486
30503
30484
30502
30508
30431
30501
30507
30479
30377
30502
30405
30421
30471
30479
30505
30503
30503
30487
30479
30488
30486
30477
30398
30439
30453
30471
30493
30471
30463
30471
30471
30476
30332
30389
30414
30441
30439
30460
30466
30452
30453
30452
30449
30454
30447
30455
30447
30367
30423
30424
30455
30457
30446
30441
30447
30429
30302
30346
30374
30404
30419
30414
30415
30431
30438
30431
30427
30421
30361
30287
30424
30420
30421
30391
30422
30407
30382
30404
30415
30407
30278
30420
30412
30333
30403
30403
30375
30401
30407
30418
30375
30398
30406
30415
30375
30271
30401
30401
30407
30329
30390
30397
30407
30327
30388
30402
30343
30239
30397
30381
30285
30388
30397
30351
30381
30381
30396
30335
30375
30394
30375
30379
30387
30383
30372
30383
30378
30369
30369
30375
30290
30287
30293
30301
30311
30366
30380
30277
30372
30377
30263
30375
30379
30266
30365
30367
30270
30374
30362
30357
30367
30355
30252
30358
30367
30307
30364
30359
30326
30362
30366
30321
30359
30357
30341
30362
30359
30306
30356
30366
30308
30357
30342
30325
30347
30359
30352
30367
30365
30317
30362
30355
30355
30247
30351
30343
30353
30345
30343
30247
30348
30359
30239
30357
30335
30357
30355
30349
30268
30351
30362
30359
30369
30359
30351
30335
30231
30362
30351
30345
30230
30346
30356
30355
30345
30351
30358
30334
30347
30345
30366
30311
30349
30346
30367
30333
30351
30361
30361
30352
30349
30327
30364
30356
30358
30359
30295
30335
30359
30374
30367
30353
30359
30361
30228
30289
30337
30361
30375
30359
30359
30353
30277
30300
30358
30365
30371
30367
30359
30315
30277
30207
30367
30361
30359
30359
30370
30359
30366
30370
30375
30359
30321
30367
30356
30359
30296
30282
30257
30357
30364
30365
30375
30381
30375
30343
30292
30366
30367
30373
30385
30380
30375
30359
30267
30381
30389
30387
30383
30378
30399
30373
30332
30308
30311
30273
30390
30397
30377
30388
30401
30388
30388
30395
30385
30400
30399
30381
30394
30387
30375
30399
30396
30401
30388
30415
30323
30407
30383
30393
30404
30418
30420
30314
30407
30397
30410
30420
30419
30424
30406
30423
30422
30400
30387
30340
30425
30423
30417
30415
30439
30420
30372
30426
30440
30338
30435
30326
30442
30407
30448
30437
30441
30433
30439
30438
30439
30460
30451
30460
30452
30457
30443
30468
30452
30466
30360
30447
30421
30469
30452
30458
30465
30468
30483
30466
30471
30407
30471
30444
30471
30447
30481
30492
30487
30484
30486
30503
30485
30492
30489
30495
30398
30492
30431
30499
30405
30492
30421
30505
30487
30502
30484
30514
30500
30516
30530
30404
30509
30440
30513
30487
30520
30517
30534
30540
30532
30535
30453
30529
30524
30531
30541
30460
30534
30481
30549
30505
30546
30521
30555
30535
30557
30576
30426
30559
30483
30567
30500
30562
30535
30571
30559
30575
30535
30578
30553
30588
30567
30591
30556
30591
30512
30581
30503
30581
30499
30596
30503
30599
30596
30599
30606
30607
30618
30598
30625
30612
30623
30623
30622
30625
30599
30622
30591
30636
30615
30638
30599
30641
30631
30642
30653
30562
30639
30652
30650
30644
30596
30531
30652
30671
30666
30660
30664
30518
30670
30668
30681
30650
30682
30681
30679
30681
30673
30691
30638
30685
30642
30691
30630
30695
30573
30711
30704
30599
30719
30711
30716
30709
30706
30713
30663
30726
30595
30742
30727
30727
30742
30714
30736
30695
30727
30603
30751
30647
30750
30634
30759
30759
30772
30767
30775
30596
30779
30770
30726
30769
30771
30778
30775
30775
30775
30791
30752
30791
30694
30786
30650
30823
30645
30799
30693
30811
30764
30813
30805
30815
30823
30822
30826
30743
30820
30756
30836
30799
30833
30803
30839
30815
30839
30839
30852
30831
30855
30854
30855
30860
30762
30855
30773
30868
30825
30870
30847
30873
30876
30878
30893
30891
30881
30777
30879
30784
30892
30805
30887
30842
30887
30815
30895
30792
30908
30866
30908
30859
30932
30895
30927
30901
30923
30866
30941
30914
30930
30934
30947
30952
30943
30951
30943
30969
30959
30980
30964
30959
30863
30954
30860
30970
30887
30955
30906
30991
30917
30997
30967
30991
30939
30983
30869
31003
31005
30975
31006
30839
31023
31012
31003
31018
30972
31018
30940
31017
30876
31039
31033
31040
31033
31046
31036
31052
31049
30995
31049
31061
31055
31065
31052
31060
31036
31072
31036
31075
31023
31070
31074
31095
31084
31087
31087
31092
31095
31010
31103
31108
31102
31100
31071
31103
31013
31111
31102
31119
31118
31133
31111
31139
31127
31142
31142
31124
31140
31111
31157
31074
31135
30991
31161
30998
31165
31156
31167
31153
31161
31169
31132
31168
31132
31164
31139
31175
31165
31173
31157
31161
31186
31002
31158
31061
31149
31077
31162
31111
31161
31134
31150
31098
31150
31161
31176
31158
31170
31154
31142
31156
31117
31165
31125
31151
31083
31137
31149
31165
31153
31087
31135
30987
31167
30980
31164
31156
31163
31151
31117
31141
31030
31167
31148
31151
31156
31087
31149
31090
31162
31119
31156
31106
31156
31058
31143
31145
31159
31148
31159
31146
31103
31143
31068
31140
31010
31135
31023
31143
30983
31165
31152
31156
31143
31143
31151
31151
31147
31150
31151
31132
31156
31124
31151
31025
31147
31076
31155
31141
31140
31151
31151
31169
31143
31148
31143
31147
31137
31143
31129
31105
31060
31157
31146
31133
31143
31135
31079
31155
31069
31137
31053
31148
31076
31143
31077
31151
31081
31154
31063
31135
30998
31133
31156
31109
31158
31079
31143
31019
31157
31019
31167
31148
31173
30989
31166
31026
31154
31154
31163
31159
31141
31157
31135
31161
31131
31159
31098
31151
31047
31151
31007
31175
30991
31163
31153
31172
31155
31156
31165
31140
31165
31080
31148
31050
31160
31087
31156
31064
31149
31038
31175
31156
31109
31143
31165
31173
31164
31143
31159
31071
31159
30999
31175
31156
31140
31172
31071
31148
31063
31155
30995
31167
31175
31156
31159
31111
31151
30975
31183
31167
31124
31163
31123
31164
31051
31154
31031
31149
31031
31159
30978
31179
31159
31175
31146
31040
31168
31159
31036
31170
31148
31083
31161
31083
31151
31047
31167
30972
31151
30983
31165
31153
31168
31149
31167
31151
31157
30980
31159
31031
31143
31093
31130
31108
31137
31140
31139
31151
30956
31124
30996
31119
31130
31137
31124
31139
31127
31126
31127
31114
31118
31127
31127
31092
31122
31059
31117
31055
31116
31092
31120
31079
31111
31081
31107
31055
31103
31063
31098
31028
31094
31028
31095
30967
31081
31095
31107
31087
31101
31078
31087
31092
31080
31079
31098
31083
31069
31084
31015
31071
30975
31063
30911
31063
30920
31069
31071
31065
31054
31030
31050
31058
31071
31055
31038
31050
31026
31045
30983
31060
31012
31033
31045
31044
31050
31042
31052
31039
31046
30894
31029
31023
31026
30921
31028
30954
31018
30919
31013
30911
31007
30847
31034
31015
31033
31015
30999
31012
30981
31005
30956
30999
30919
30999
30901
31014
30980
30999
30975
31005
30987
31002
30971
30999
30889
31015
30993
31001
30996
30974
31003
30946
30993
30937
30990
30948
30982
30948
30983
30908
30983
30878
30964
30844
30999
30980
30990
30983
30980
30973
30965
30977
30949
30977
30927
30977
30919
30982
30918
30971
30934
30975
30956
30975
30973
30956
30948
30971
30960
30943
30912
30803
30959
30971
30959
30956
30949
30964
30906
30855
30965
30964
30955
30951
30962
30930
30951
30855
30963
30959
30939
30946
30871
30941
30822
30967
30948
30959
30948
30950
30940
30951
30951
30921
30949
30861
30951
30798
30957
30943
30966
30948
30957
30951
30913
30945
30852
30938
30935
30965
30781
30955
30943
30933
30941
30943
30943
30919
30944
30887
30942
30793
30948
30934
30842
30937
30845
30943
30940
30937
30935
30911
30945
30858
30928
30836
30932
30828
30936
30790
30955
30945
30951
30932
30899
30940
30855
30951
30940
30933
30947
30857
30929
30823
30932
30950
30951
30939
30877
30931
30945
30943
30943
30867
30930
30933
30927
30936
30946
30901
30934
30938
30949
30950
30890
30946
30823
30957
30951
30927
30941
30855
30943
30943
30964
30948
30918
30945
30855
30927
30948
30943
30939
30893
30930
30943
30956
30942
30911
30932
30956
30953
30954
30919
30951
30851
30950
30838
30944
30951
30959
30959
30922
30962
30895
30962
30901
30949
30879
30963
30924
30963
30966
30964
30957
30828
30958
30905
30951
30879
30959
30839
30982
30828
30970
30970
30976
30973
30966
30964
30995
30981
30956
30980
30955
30971
30903
30971
30972
30981
30973
30983
30983
30951
30972
30855
30975
30975
31005
30983
30971
30983
30968
30999
30901
30983
30887
31004
30989
30965
31004
30919
30983
30881
31005
31010
30951
30997
30853
31015
30999
30990
31009
30914
31011
30996
31014
31012
31004
31004
30990
31022
31012
31009
31005
31020
31023
30854
31007
30932
31018
30946
31015
30903
31023
30879
31021
31029
31043
31029
31055
31036
31036
31029
31060
31031
31051
31034
31060
31046
31068
30887
31063
31047
31069
31041
31058
30903
31075
31055
31061
31055
31027
31054
31023
31069
31035
31066
31047
31075
31021
31074
31017
31050
30941
31073
31069
31086
31077
31071
30918
31099
31085
31079
30974
31068
30943
31103
31086
31076
31091
31060
31093
31039
31080
30975
31101
30943
31108
31099
31085
31119
31020
31110
31097
31111
31111
31079
31102
30983
31127
31111
31116
31121
31087
31121
31101
31121
31071
31119
31122
31121
31135
31092
31132
31133
31143
31147
31089
31140
31014
31158
31142
31069
31135
31147
31115
31151
30993
31141
31155
31158
31143
31147
31031
31175
31159
31134
31157
31067
31180
31176
31135
31159
31169
31173
31175
31170
31179
31142
31168
31182
31149
31191
31060
31181
31187
31194
31107
31207
31199
31154
31197
31046
31215
31203
31189
31212
31132
31210
31123
31200
31046
31229
31228
31225
31217
31214
31228
31204
31233
31156
31215
31069
31245
31235
31236
31231
31084
31250
31239
31219
31239
31161
31237
31106
31255
31268
31269
31252
31261
31265
31237
31271
31214
31266
31188
31268
31133
31271
31270
31279
31273
31200
31278
31275
31286
31285
31275
31288
31271
31295
31231
31293
31290
31284
31311
31210
31295
31167
31300
31179
31327
31303
31327
31309
31330
31317
31334
31317
31335
31334
31324
31332
31310
31335
31249
31333
31224
31331
31227
31341
31267
31335
31212
31333
31255
31343
31355
31367
31355
31363
31358
31351
31367
31340
31367
31319
31358
31285
31364
31294
31363
31239
31361
31386
31396
31373
31367
31389
31375
31388
31372
31399
31355
31396
31386
31399
31391
31392
31367
31390
31319
31407
31332
31403
31346
31418
31365
31415
31348
31407
31258
31431
31419
31444
31425
31431
31431
31415
31443
31414
31431
31431
31443
31458
31442
31461
31443
31438
31460
31447
31456
31434
31455
31348
31454
31359
31455
31350
31455
31377
31464
31434
31473
31396
31470
31446
31481
31472
31483
31454
31477
31463
31472
31421
31477
31333
31460
31343
31460
31300
31461
31351
31454
31415
31469
31434
31452
31446
31461
31345
31462
31461
31476
31452
31470
31457
31450
31316
31447
31335
31455
31455
31464
31447
31460
31447
31463
31441
31455
31447
31454
31445
31447
31442
31437
31433
31403
31435
31396
31442
31386
31439
31390
31431
31367
31431
31397
31431
31408
31430
31402
31425
31386
31420
31317
31430
31423
31412
31420
31423
31414
31360
31404
31271
31429
31415
31396
31406
31383
31418
31302
31399
31237
31423
31401
31421
31406
31423
31409
31410
31407
31415
31391
31398
31396
31403
31407
31311
31391
31399
31394
31407
31388
31398
31382
31405
31375
31397
31355
31394
31313
31367
31220
31410
31388
31356
31382
31260
31402
31384
31398
31389
31385
31298
31383
31211
31366
31249
31371
31215
31387
31380
31401
31385
31343
31388
31311
31367
31292
31365
31270
31367
31263
31367
31260
31371
31184
31381
31367
31361
31385
31279
31359
31235
31366
31193
31393
31375
31399
31367
31359
31375
31334
31366
31332
31377
31326
31359
31313
31365
31311
31361
31335
31373
31326
31367
31265
31379
31359
31371
31362
31361
31359
31349
31359
31348
31367
31284
31359
31233
31373
31367
31351
31364
31308
31348
31223
31374
31353
31335
31355
31212
31367
31355
31341
31351
31316
31353
31271
31323
31188
31356
31349
31359
31345
31311
31334
31287
31339
31231
31345
31334
31322
31340
31295
31331
31284
31335
31291
31324
31279
31331
31287
31318
31230
31309
31309
31335
31317
31316
31324
31309
31312
31300
31316
31266
31308
31141
31300
31301
31308
31287
31319
31296
31303
31291
31309
31281
31307
31278
31292
31286
31269
31289
31254
31278
31231
31273
31167
31271
31274
31290
31264
31239
31255
31162
31261
31261
31239
31260
31223
31253
31127
31269
31239
31258
31239
31210
31221
31083
31239
31219
31237
31230
31188
31223
31198
31216
31186
31213
31204
31193
31228
31199
31223
31198
31221
31075
31185
31111
31201
31145
31187
31145
31193
31167
31183
31125
31175
30995
31185
31174
31169
31178
31115
31157
31071
31143
30981
31166
31155
31127
31151
31071
31148
31050
31143
31079
31131
31141
31139
31129
31097
31135
31135
31055
31132
31116
31017
31111
30983
31132
31111
31117
31105
31087
31113
31038
31104
30946
31106
30927
31124
31113
31100
31098
31107
31099
31072
31089
31075
31085
31054
31093
30983
31079
31030
31087
30996
31077
31002
31063
30999
31073
30926
31089
31063
31047
31022
30997
30943
31062
31060
31055
31069
31022
30919
31057
31061
31034
31063
30995
30889
31050
31055
31051
31063
31025
30971
30890
31041
31044
31036
31057
31023
31005
30958
30887
30909
31020
30945
31041
30980
31031
31004
31028
31026
31023
31039
31019
31030
31012
31017
30881
31007
30929
31022
30997
31004
31036
31017
31025
30941
31015
30999
31012
30993
31012
31015
31007
30991
30999
31007
31004
31003
30964
30995
31006
31014
31006
30996
31003
30940
30978
30998
30999
31004
30883
31007
30992
30991
30990
30903
30975
30983
30991
30991
30940
30983
30855
31007
30981
30975
30975
30930
30980
30839
30983
30818
30973
30803
30983
30981
30993
30975
30979
30983
30959
30975
30813
30983
30982
30926
30957
30818
30983
30975
30980
30975
30965
30973
30964
30971
30953
30981
30960
30979
30959
30980
30932
30979
30935
30972
30914
30965
30809
30983
30980
30970
30965
30951
30970
30890
30966
30849
30969
30799
30983
30967
30970
30967
30970
30972
30937
30969
30894
30966
30807
30983
30973
30979
30971
30948
30968
30927
30965
30821
30972
30854
30963
30818
30980
30866
30977
30965
30991
30971
30983
30972
30956
30972
30855
30983
30980
30935
30967
30815
30967
30919
30975
30876
30967
30889
30981
30971
30967
30983
30901
30974
30983
30818
30977
30909
30983
30989
30914
30982
30972
30976
30993
30943
30988
30969
30959
30967
30983
30948
30989
31007
30867
30979
30983
30983
30991
30983
30983
30982
30973
30988
31003
30919
30999
30983
30980
30990
30947
30989
30999
30942
30991
31005
30813
30999
30980
30991
30996
30980
31003
31028
30919
30989
31018
30865
31003
30991
31001
31005
30980
31005
31001
30978
31007
30996
30983
31005
30999
30966
31015
31029
30894
31013
30998
31019
31011
30990
31020
31012
30938
31022
31018
31021
31023
30940
31028
31033
30866
31027
31030
31028
31045
30931
31043
31023
31034
31033
30944
31047
31028
31036
31061
30861
31035
30983
31044
31049
30877
31030
31003
31043
31068
30974
31051
31070
30957
31055
31071
30932
31069
31063
31062
31055
31022
31069
31085
30934
31063
31076
30903
31069
31053
30909
31068
31076
30895
31061
30951
31075
31036
31079
31092
30911
31073
31023
31084
31071
31087
31079
31085
31103
30965
31087
31100
30928
31094
31091
30919
31110
31087
31111
31093
31065
31098
31103
31050
31111
31116
30935
31102
31031
31121
31117
30935
31109
31027
31124
31114
31119
31119
31118
31133
31116
31084
31125
31115
31111
30940
31135
31139
30966
31141
31119
30981
31143
31155
31079
31143
31154
31146
31149
31111
31149
31171
31034
31159
31165
30981
31155
31135
31175
31165
31054
31167
31172
31066
31161
31183
31095
31185
31188
31127
31182
31181
31175
31175
31181
31182
31079
31183
31185
31131
31198
31203
31099
31205
31204
31156
31199
31211
31158
31204
31196
31207
31111
31213
31207
31177
31215
31207
31185
31223
31216
31207
31075
31226
31221
31102
31235
31238
31098
31225
31222
31111
31239
31236
31239
31239
31225
31248
31228
31239
31185
31234
31095
31262
31259
31267
31255
31261
31261
31259
31271
31239
31269
31239
31271
31198
31267
31107
31284
31268
31271
31291
31247
31286
31202
31272
31180
31285
31214
31286
31273
31303
31284
31295
31296
31296
31295
31313
31298
31294
31276
31309
31263
31303
31257
31303
31182
31313
31176
31329
31335
31328
31327
31322
31325
31327
31335
31239
31323
31164
31343
31339
31309
31347
31249
31345
31149
31361
31347
31349
31364
31314
31355
31229
31383
31364
31293
31365
31282
31370
31261
31367
31385
31387
31371
31353
31383
31308
31380
31398
31348
31372
31392
31363
31398
31317
31390
31308
31391
31225
31422
31415
31398
31406
31328
31422
31420
31372
31417
31311
31413
31287
31431
31431
31380
31429
31255
31454
31433
31418
31439
31273
31454
31445
31460
31450
31453
31446
31444
31454
31443
31450
31436
31454
31393
31454
31374
31440
31318
31468
31452
31467
31463
31455
31444
31448
31449
31423
31448
31335
31436
31273
31455
31447
31448
31447
31427
31435
31391
31427
31299
31445
31433
31403
31419
31428
31435
31423
31399
31429
31308
31423
31413
31434
31420
31415
31423
31312
31441
31418
31422
31420
31395
31413
31412
31420
31430
31420
31428
31247
31423
31420
31399
31407
31397
31410
31410
31409
31421
31405
31423
31404
31405
31403
31399
31405
31367
31400
31367
31407
31392
31390
31375
31398
31326
31399
31324
31391
31294
31391
31280
31399
31304
31383
31320
31390
31340
31404
31371
31383
31290
31383
31380
31415
31382
31403
31396
31356
31380
31295
31372
31316
31394
31335
31391
31367
31382
31377
31394
31335
31382
31319
31388
31361
31383
31327
31375
31261
31383
31383
31385
31389
31381
31391
31383
31382
31396
31383
31392
31383
31390
31388
31222
31318
31361
31393
31316
31381
31259
31390
31391
31372
31374
31335
31378
31311
31367
31262
31364
31378
31383
31388
31364
31380
31351
31392
31319
31383
31292
31401
31379
31391
31367
31375
31371
31365
31379
31367
31367
31351
31367
31307
31372
31268
31366
31291
31367
31297
31367
31325
31377
31372
31365
31373
31367
31367
31374
31339
31370
31343
31367
31359
31375
31334
31367
31343
31366
31361
31364
31367
31356
31380
31193
31375
31365
31378
31357
31381
31359
31372
31367
31354
31308
31364
31351
31327
31354
31359
31351
31359
31350
31346
31345
31229
31363
31367
31305
31356
31348
31348
31335
31268
31319
31339
31356
31340
31319
31335
31340
31338
31265
31223
31220
31248
31255
31307
31311
31325
31322
31159
31327
31324
31335
31324
31323
31309
31334
31311
31318
31319
31326
31181
31326
31324
31213
31313
31326
31254
31308
31290
31284
31125
31307
31292
31149
31299
31308
31206
31300
31303
