EGG
24177
24308
24282
24493
24547
24135
24169
24182
24233
24274
24305
24303
24325
24385
24422
24517
24666
24869
24458
24498
24506
24551
24576
24623
24655
24670
24683
24702
24729
24804
24896
25158
24809
24849
24891
24910
24950
24981
25001
25004
25031
25055
25087
25114
25150
25235
25427
25190
25204
25251
25271
25316
25351
25357
25387
25409
25479
25621
25769
25499
25521
25551
25573
25604
25659
25671
25692
25700
25743
25874
26103
25795
25825
25870
25897
25917
25932
25975
26174
25997
26009
26071
26103
26129
26132
26158
26219
26402
26554
26249
26274
26298
26327
26352
26393
26430
26458
26446
26485
26525
26596
26767
26579
26604
26640
26677
26699
26727
26748
26749
26775
26807
26837
26885
26965
27111
27215
26940
26967
26989
27021
27075
27084
27092
27131
27200
27306
27399
27214
27227
27265
27281
27306
27330
27360
27410
27425
27450
27482
27492
27495
27521
27725
27622
27611
27639
27678
27686
27700
27715
27965
27827
27809
27825
27877
27862
28130
27962
27946
27972
28004
28004
28266
28199
28150
28148
28145
28167
28204
28215
28232
28262
28431
28351
28347
28380
28379
28567
28470
28467
28501
28507
28535
28644
28583
28599
28639
28651
28674
28815
28754
28761
28788
28783
28818
28933
28911
28906
28935
28954
28974
29150
29069
29053
29065
29095
29127
29148
29172
29189
29215
29286
29267
29299
29311
29326
29434
29390
29415
29447
29467
29475
29503
29659
29684
29671
29663
29666
29668
29677
29696
29726
29750
29771
29798
29927
29885
29870
29899
29934
29943
29969
30100
30047
30063
30057
30087
30119
30138
30220
30199
30215
30236
30263
30283
30298
30332
30337
30452
30438
30435
30455
30477
30505
30535
30546
30567
30660
30660
30671
30687
30705
30713
30741
30773
30791
30811
30839
30925
30908
30921
30939
30951
30980
31057
31063
31078
31081
31103
31140
31157
31221
31199
31212
31239
31278
31287
31320
31359
31359
31398
31429
31423
31469
31495
31515
31550
31557
31588
31605
31623
31655
31671
31695
31719
31751
31791
31806
31834
31853
31879
31898
31915
31942
31960
31982
32007
32039
32059
32079
32110
32127
32151
32167
32205
32229
32247
32281
32292
32323
32332
32367
32388
32421
32447
32463
32495
32513
32519
32559
32580
32599
32629
32596
32655
32695
32730
32761
32767
32775
32828
32829
32858
32887
32917
32917
32902
32980
33004
33025
33044
33063
33094
33098
33134
33167
33194
33201
33222
33247
33263
33269
33315
33351
33372
33396
33402
33436
33421
33479
33511
33541
33559
33564
33603
33619
33635
33618
33687
33719
33743
33756
33783
33807
33815
33839
33799
33862
33911
33949
33964
33979
33999
34023
34047
34015
34046
34115
34143
34172
34191
34231
34231
34255
34271
34299
34311
34340
34366
34391
34364
34415
34447
34501
34495
34524
34548
34566
34607
34623
34636
34663
34695
34727
34743
34759
34743
34792
34819
34850
34871
34886
34911
34947
34951
34940
34951
34899
35043
35095
35098
35111
35125
35135
35146
35159
35175
35149
35148
35295
35309
35331
35353
35388
35407
35423
35438
35480
35439
35542
35526
35557
35519
35610
35639
35641
35695
35687
35719
35663
35758
35727
35804
35751
35847
35876
35882
35911
35930
35959
36006
36023
36027
36021
36007
35993
36114
36127
36159
36182
36198
36243
36245
36236
36203
36309
36342
36359
36359
36423
36431
36430
36401
36487
36510
36535
36556
36582
36607
36615
36643
36692
36727
36735
36765
36783
36799
36823
36847
36851
36852
36846
36855
36867
36949
36994
37009
37028
37052
37071
36965
37082
37156
37157
37181
37204
37175
37242
37278
37274
37311
37331
37326
37397
37383
37415
37438
37463
37505
37507
37532
37567
37585
37605
37635
37657
37673
37692
37711
37735
37762
37779
37809
37827
37831
37863
37869
37930
37954
37947
37895
37999
38023
38052
38050
38117
38114
38146
38171
38180
38158
38151
38117
38084
38291
38326
38343
38355
38381
38404
38423
38460
38478
38503
38518
38543
38554
38577
38598
38615
38679
38692
38716
38733
38750
38743
38775
38797
38815
38839
38837
38833
38828
38773
38971
38975
39014
39044
39061
39069
39095
39109
39157
39196
39212
39225
39241
39261
39281
39303
39316
39319
39332
39325
39327
39255
39472
39495
39515
39532
39558
39575
39589
39604
39679
39687
39706
39735
39708
39695
39647
39815
39838
39863
39871
39871
39939
39968
39987
40000
40028
40055
40079
40095
40127
40138
40159
40188
40207
40228
40250
40271
40293
40274
40123
40356
40382
40379
40428
40423
40220
40501
40519
40541
40565
40575
40588
40640
40669
40678
40630
40711
40748
40775
40791
40831
40838
40868
40867
40916
40683
40910
40871
40967
40967
41034
41073
41085
41095
41123
41108
41190
41207
41223
41255
41263
41258
41259
41197
41136
41375
41411
41421
41422
41442
41511
41531
41463
41570
41575
41607
41628
41649
41668
41700
41703
41711
41735
41766
41794
41823
41870
41884
41902
41908
41887
41779
41990
42021
42035
42060
42087
42105
42118
42134
42175
42215
42239
42230
42240
42178
42322
42349
42358
42389
42409
42421
42453
42463
42519
42540
42503
42405
42342
42621
42646
42661
42671
42725
42745
42777
42812
42813
42842
42863
42827
42711
42933
42958
42975
42991
42983
43048
43092
43096
43088
42927
43167
43171
43164
43239
43247
43192
43293
43327
43347
43351
43372
43429
43455
43457
43364
43223
43527
43551
43587
43614
43582
43655
43683
43708
43588
43436
43771
43808
43764
43829
43831
43893
43762
43941
43932
43983
43807
44009
44057
44070
44095
44108
44143
44086
44177
44172
44247
43924
44268
44262
44293
44359
44366
44420
44407
44407
44423
44454
44413
44382
44345
44582
44603
44623
44647
44655
44703
44711
44735
44759
44745
44791
44845
44879
44847
44663
44923
44952
44975
44997
44991
44991
45063
45094
45127
45140
45159
45167
45205
45247
45255
45223
45147
45055
45173
45115
45387
45407
45437
45447
45423
45502
45527
45551
45565
45479
45247
45636
45655
45676
45638
45713
45759
45788
45783
45645
45844
45862
45869
45855
45902
45960
45988
46011
45972
45642
46070
46079
46103
46087
46150
46182
46215
46235
46261
46255
46157
46300
46343
46351
46335
46343
46439
46079
46471
46460
46455
46534
46572
46596
46621
46623
46615
46621
46428
46700
46727
46716
46727
46799
46823
46855
46894
46743
46541
46551
46943
46978
46983
47007
47006
47029
47020
47023
47071
47111
47143
47180
47213
47228
47279
47280
47298
47326
47335
47300
47202
47239
47172
47015
47461
47479
47508
47487
47525
47591
47614
47612
47548
47614
47647
47173
47725
47732
47748
47756
47704
47781
47847
47879
47893
47814
47530
47942
47964
47893
48007
48039
48071
48063
47975
47623
48121
48149
48093
48205
48230
47983
48252
48263
48222
48327
48367
48388
48379
48367
48381
48332
48223
48479
48490
48519
48439
48572
48583
48611
48612
48643
48613
48582
48711
48764
48535
48771
48789
48711
48837
48822
48557
48876
48900
48919
48925
48956
48975
48953
48958
49047
49067
49090
49111
49127
49071
49081
49151
49190
49219
49245
49261
49279
49022
49263
49351
49363
49365
49263
49355
49437
49452
49126
49469
49516
49553
49543
49433
49588
49604
49599
49655
49595
49671
49700
49487
49775
49773
49767
49671
49799
49831
49837
49845
49783
49927
49927
49823
49927
49967
49991
50006
49358
49572
50047
50113
50127
50140
50127
50175
50199
50215
50115
50231
50247
49903
50311
50327
50235
50335
50356
50375
49766
50397
50447
50439
50367
50487
50495
50503
50463
50599
50591
50615
50607
50495
50640
50650
50663
50439
50741
50750
50695
50668
50783
50807
50806
50215
50525
50863
50917
50915
50815
50924
50934
50951
50927
51028
50999
51012
51044
50431
51116
51116
51007
51135
51143
51156
51191
50831
51239
51291
51279
51263
51165
51295
51309
51343
51335
51287
51412
51431
51423
51317
51451
51439
50879
51463
51557
51534
51503
51564
51463
51615
51540
51615
50924
51654
51703
51687
51646
51717
51736
51747
51119
51683
51845
51847
51783
51839
51879
51151
51667
51957
51942
51830
51954
51975
51988
51639
52027
52079
52061
51935
52092
52095
51686
52158
52186
52103
52151
52196
52007
52271
52279
52270
52167
52291
52307
52227
52334
52387
52359
52231
52369
52404
52405
51703
52431
52487
52486
52359
52487
52517
52375
52583
52584
52578
52463
52611
52612
52583
52687
52668
52533
52676
52695
52705
52743
52607
52743
52743
52775
52839
52799
52695
52847
52836
52671
52913
52895
52805
52909
52162
52975
52966
52862
52972
52987
52884
53071
53060
53062
52947
53084
53076
53071
53146
53110
53116
53183
53190
53175
53191
53222
53247
53191
53255
53254
53116
53330
53297
53222
53311
53327
53303
53423
53380
53279
53415
53406
52826
53415
53502
53509
53399
53483
53509
52831
53500
53607
53604
53599
53535
53452
53573
53629
53627
52820
53687
53711
53612
53692
53686
53741
53767
53719
53751
53767
53357
53844
53841
53791
53703
53851
53839
53860
53937
53903
53850
53940
53047
53968
53980
53919
53979
53945
54046
53918
53991
54055
53159
54031
54127
54100
53987
54117
54122
54151
54172
54004
54181
54191
53937
54269
54222
54181
54244
54238
53511
54215
54344
54372
54335
54170
54343
54359
53834
54437
54415
54246
54404
54430
53802
54531
54493
54327
54487
54279
54596
54535
54407
54535
54127
54649
54611
54551
54611
54629
54676
54484
54647
54663
54486
54767
54716
54567
54716
54728
54686
54637
54663
54655
54823
54836
54879
54868
54911
54930
54947
54980
54924
54599
53969
54938
54962
54915
54823
54983
55020
55079
55101
55095
55035
55033
55047
55043
54942
55125
55183
54612
55126
55135
55119
55013
55138
55196
55260
55220
54447
55222
55246
55078
55263
55343
55281
55303
55207
55343
55431
55125
55345
55369
55388
55215
55293
55378
55479
55508
55531
55444
55463
55486
55495
55369
55375
55497
55591
55621
55671
55303
55579
55604
55599
55511
55491
55607
55695
55690
55735
55756
55767
55671
54791
55700
55732
55631
55601
55812
55877
55861
55679
55789
55808
55815
55836
55845
55662
55773
55889
55919
55980
56021
56005
55246
55940
55935
55951
55845
55804
55964
56034
56109
56135
55623
54933
56063
56071
56095
56097
56116
56116
56129
55965
56087
56175
56228
56255
56281
56278
56325
56327
56348
56349
56360
56360
56390
56380
56303
56399
56420
56359
55972
55359
56007
56071
55719
55340
55274
55279
55396
55583
55235
56432
56436
55708
56455
56487
56501
56506
56502
56519
56527
56548
56567
56556
56571
56413
56716
56678
56648
56663
56461
56622
56666
56660
56687
56692
56702
55893
56839
56796
56741
56577
56647
56695
56606
56711
56647
56711
56805
56823
56879
56935
56972
56996
56983
56391
56903
56917
56934
56950
56956
56949
56977
56988
56999
56999
57030
57031
56986
57013
57111
57127
57195
57197
57204
57223
57247
57239
57262
56991
55956
57157
57167
57180
57195
57215
57216
57239
57223
57199
57127
57095
57125
57124
57135
57140
57139
57188
57351
57407
57447
57439
57479
57468
57503
57534
57565
57511
57351
56372
57479
57497
57510
57503
57327
57535
57572
57599
57596
57644
57668
57692
57685
57175
56932
56839
57628
57656
57656
57684
57701
57716
57607
57574
57748
57831
57863
57891
57154
57781
57804
57631
57749
57892
57943
56903
57852
57863
57758
57900
57935
58031
58055
58063
58063
58097
58075
58103
58116
58119
58119
58140
58144
58135
58151
58159
58207
58198
58099
58039
57151
58119
58151
58047
57983
58148
58182
58196
58228
58224
58247
58247
58159
58087
58287
58286
58292
58309
58343
58391
58460
58476
58300
57223
57727
58404
58422
58420
58260
58319
58484
58542
58592
58631
58631
58657
58631
58503
58453
58359
57469
58567
58593
58599
58621
58623
58510
58468
58483
58495
58599
58542
58527
58702
58747
58787
58828
58855
58887
58887
58925
58948
58692
58471
57695
58840
58876
58887
58887
58927
58932
58951
58948
58972
58798
58836
58975
59041
59055
59143
59109
58782
58419
59079
59087
59114
59143
59031
59204
59278
59313
59317
59316
58237
59215
59221
59252
59284
59285
59295
59271
59120
59244
59239
59291
59380
59380
59426
59471
59515
59558
59572
59250
59247
59461
59469
59527
59455
59358
59356
59380
59465
59420
59399
59462
59431
59502
59629
59591
59508
59655
59743
59732
59737
59799
59818
59799
59775
59718
59630
59627
59655
59748
59847
59863
59900
59939
59966
59956
59961
59980
59996
59982
59998
60063
60115
60111
60086
60053
60050
60069
60231
60095
60131
60119
60092
60317
60198
59996
60206
60231
60229
60359
60412
60333
60167
60260
60335
60329
59166
60308
60508
60476
60422
60387
60420
60454
60455
60031
60611
60660
60639
60591
60581
60423
60396
60551
60631
60630
60647
60634
60647
60353
60839
60817
60783
60746
60751
60614
60604
60631
60649
60663
60759
60854
60880
60895
60908
60919
60917
59967
61103
61124
61108
61071
61021
60996
61063
61060
61055
61059
61278
61227
61204
61186
61124
61031
61205
61236
61233
61079
61423
61327
61212
61159
61347
61348
61358
60212
61519
61527
61423
61247
61437
61511
61477
61220
61661
61572
61444
61575
61599
60389
61751
61783
61721
61679
61661
61639
61725
61703
61850
61877
61831
61783
61751
61841
61847
61035
62007
61939
61863
61863
61959
61025
62108
61959
62029
62017
62183
62100
61916
62039
62124
62151
62151
62164
62167
62316
62293
62272
62284
62260
62133
62308
62343
62335
62351
61412
62471
62512
62471
62463
62271
62471
62471
62503
62517
62518
62654
62573
62599
62607
62727
62703
62564
62682
62695
61764
62836
62780
62559
62704
62807
62823
62844
62839
62874
62880
62884
62061
62645
63047
63036
63009
62823
63031
63050
62303
63156
63149
63006
63130
63143
62412
63239
63228
63191
63085
63239
63271
63147
63365
63375
63359
63175
63326
63375
63409
62807
63495
63463
63366
63492
63524
63535
63430
63615
63596
63479
63524
63623
63655
63673
63678
63623
63742
63751
63751
63783
63781
63852
63845
63847
63687
63863
63879
63932
63798
63989
63991
63996
63996
63845
64020
64046
64077
63967
64117
64140
64148
64133
64095
64007
64167
64239
64246
64279
64303
64308
64311
64327
64263
64260
64227
64262
64433
64463
64471
64493
64519
64519
64556
64572
64592
64614
64636
64647
64671
64711
64735
64807
64895
65127
64951
64871
64845
64854
64895
64903
64934
64956
64975
65006
65028
65031
65071
65100
65123
65135
65190
65231
65175
65205
65223
65251
65255
65269
65214
65236
65265
65343
65351
65375
65383
65399
65407
65429
65461
65455
65462
65479
65488
65500
65502
65507
65511
65511
65507
65510
65503
65527
65502
65511
65511
65500
65518
65518
65524
65511
65508
65511
65504
65500
65504
65519
65509
65511
65511
65495
65511
65508
65508
65511
65500
65511
65501
65499
65503
65511
65504
65503
65511
65508
65502
65508
65500
65503
65508
65519
65503
65511
65511
65503
65519
65510
65502
65510
65511
65511
65497
65488
65505
65517
65508
65510
65510
65501
65511
65503
65508
65503
65498
65517
65509
65511
65498
65498
65511
65508
65511
65511
65511
65508
65511
65500
65502
65511
65511
65511
65509
65510
65492
65501
65511
65503
65496
65492
65510
65503
65511
65508
65511
65510
65511
65527
65508
65518
65510
65500
65502
65511
65511
65511
65511
65511
65502
65511
65503
65511
65516
65508
65517
65511
65495
65500
65511
65511
65503
65502
65506
65511
65503
65516
65503
65511
65496
65518
65507
65508
65511
65509
65511
65525
65511
65511
65500
65504
65519
65519
65510
65503
65500
65519
65511
65503
65515
65510
65508
65508
65508
65511
65509
65511
65511
65519
65509
65508
65508
65519
65510
65508
65511
65492
65511
65497
65527
65511
65511
65511
65511
65511
65511
65527
65506
65502
65508
65519
65516
65506
65505
65518
65500
65511
65508
65510
65502
65511
65511
65508
65508
65504
65527
65511
65517
65511
65502
65519
65508
65506
65511
65506
65508
65519
65503
65502
65511
65519
65511
65511
65500
65508
65527
65503
65516
65511
65510
65506
65511
65510
65511
65508
65511
65519
65503
65519
65502
65502
65505
65511
65514
65506
65505
65519
65511
65509
65510
65502
65505
65511
65507
65504
65509
65508
65508
65508
65503
65519
65511
65511
65508
65513
65509
65517
65508
65519
65510
65506
65508
65511
65519
65516
65510
65519
65511
65517
65511
65508
65507
65511
65527
65509
65511
65504
65511
65504
65519
65509
65511
65511
65511
65505
65511
65511
65516
65503
65511
65516
65509
65525
65519
65511
65517
65511
65510
65508
65511
65511
65505
65500
65497
65519
65500
65510
65519
65517
65519
65516
65500
65508
65511
65516
65519
65508
65508
65511
65504
65524
65508
65502
65511
65517
65519
65516
65519
65509
65511
65516
65511
65511
65519
65519
65504
65510
65519
65502
65503
65505
65500
65519
65519
65518
65518
65519
65500
65515
65513
65506
65511
65508
65508
65519
65511
65502
65508
65517
65510
65505
65519
65514
65511
65503
65501
65511
65511
65519
65502
65525
65519
65511
65517
65500
65500
65513
65508
65525
65504
65516
65510
65500
65504
65519
65509
65503
65527
65519
65519
65510
65508
65519
65504
65511
65511
65511
65519
65511
65507
65508
65511
65511
65519
65511
65502
65511
65508
65524
65508
65509
65524
65509
65504
65500
65511
65519
65505
65511
65516
65510
65511
65508
65511
65508
65519
65517
65510
65510
65511
65517
65511
65516
65511
65508
65510
65518
65516
65525
65509
65516
65519
65519
65509
65510
65516
65516
65508
65519
65516
65511
65511
65517
65511
65511
65511
65517
65508
65511
65509
65511
65510
65519
65510
65500
65511
65511
65517
65510
65508
65510
65518
65511
65504
65503
65519
65504
65508
65511
65510
65506
65519
65506
65508
65519
65509
65511
65519
65506
65515
65508
65519
65519
65508
65519
65508
65509
65526
65519
65516
65516
65518
65515
65517
65519
65519
65503
65519
65511
65511
65511
65503
65509
65511
65504
65519
65497
65509
65511
65504
65516
65500
65515
65502
65502
65510
65519
65519
65511
65508
65519
65508
65519
65511
65524
65516
65511
65502
65510
65504
65517
65516
65517
65525
65516
65519
65527
65511
65511
65509
65511
65519
65511
65527
65519
65511
65511
65511
65516
65511
65519
65527
65525
65506
65511
65526
65508
65511
65513
65511
65519
65510
65516
65513
65502
65510
65511
65519
65510
65504
65519
65503
65511
65511
65508
65526
65518
65519
65508
65524
65527
65514
65519
65519
65499
65511
65511
65518
65510
65501
65517
65516
65505
65508
65519
65511
65510
65510
65516
65508
65511
65518
65509
65506
65500
65504
65519
65525
65519
65511
65519
65509
65525
65511
65527
65508
65535
65519
65516
65508
65526
65519
65511
65519
65511
65514
65514
65522
65524
65514
65503
65516
65519
65511
65515
65511
65510
65519
65502
65517
65519
65509
65511
65519
65518
65510
65511
65516
65518
65505
65508
65511
65524
65510
65512
65511
65519
65519
65519
65508
65524
65516
65504
65511
65525
65509
65527
65516
65504
65500
65519
65511
65525
65515
65509
65516
65508
65503
65508
65516
65500
65519
65519
65508
65516
65514
65508
65519
65517
65506
65511
65511
65524
65493
65510
65527
65519
65518
65516
65519
65511
65519
65511
65511
65511
65511
65511
65517
65508
65519
65508
65527
65519
65514
65508
65511
65508
65527
65517
65524
65510
65519
65527
65519
65516
65508
65508
65519
65535
65511
65511
65511
65524
65515
65511
65509
65509
65514
65519
65519
65527
65514
65505
65517
65510
65535
65527
65508
65510
65513
65527
65504
65535
65519
65508
65517
65502
65516
65511
65517
65511
65515
65508
65511
65508
65511
65516
65508
65508
65519
65516
65511
65508
65519
65508
65510
65511
65519
65511
65510
65535
65519
65519
65518
65519
65511
65519
65519
65519
65524
65518
65516
65513
65510
65511
65511
65525
65511
65519
65527
65524
65503
65524
65510
65517
65504
65511
65508
65511
65516
65516
65508
65516
65519
65502
65511
65503
65518
65524
65516
65514
65516
65511
65518
65517
65525
65527
65508
65524
65505
65516
65511
65535
65519
65510
65505
65518
65517
65519
65516
65519
65509
65508
65527
65511
65516
65519
65508
65517
65519
65522
65508
65514
65511
65519
65515
65515
65511
65507
65517
65519
65516
65503
65516
65519
65496
65516
65519
65511
65516
65527
65508
65512
65511
65519
65527
65519
65526
65516
65524
65511
65508
65502
65511
65511
65515
65514
65509
65519
65506
65511
65514
65508
65501
65508
65511
65508
65510
65516
65516
65511
65506
65525
65500
65511
65519
65513
65518
65508
65519
65510
65503
65504
65506
65519
65511
65496
65518
65511
65515
65511
65511
65511
65518
65500
65516
65496
65510
65511
65508
65511
65508
65510
65511
65519
65520
65511
65519
65508
65508
65516
65516
65508
65510
65511
65525
65519
65516
65513
65511
65516
65517
65519
65513
65517
65516
65516
65511
65515
65510
65508
65519
65525
65496
65510
65518
65511
65519
65505
65511
65511
65511
65511
65518
65502
65519
65511
65518
65508
65511
65518
65524
65519
65508
65517
65503
65514
65510
65511
65518
65517
65527
65524
65524
65516
65519
65517
65519
65513
65511
65508
65508
65511
65519
65518
65511
65525
65511
65500
65500
65517
65519
65504
65511
65516
65505
65519
65506
65527
65511
65504
65509
65527
65519
65511
65508
65510
65508
65511
65516
65511
65517
65508
65519
65509
65510
65511
65509
65500
65516
65519
65511
65509
65511
65511
65524
65516
65511
65527
65511
65524
65519
65509
65516
65508
65517
65511
65511
65510
65514
65516
65524
65527
65519
65504
65516
65513
65516
65511
65509
65508
65502
65518
65508
65511
65519
65516
65519
65511
65508
65517
65517
65502
65511
65508
65519
65519
65517
65533
65516
65517
65509
65500
65500
65511
65519
65511
65511
65525
65514
65517
65504
65524
65519
65501
65519
65513
65511
65535
65527
65511
65525
65505
65518
65511
65527
65508
65527
65511
65510
65511
65511
65519
65511
65500
65527
65524
65511
65516
65509
65508
65510
65509
65516
65511
65525
65517
65512
65511
65510
65516
65514
65511
65509
65502
65508
65505
65517
65506
65519
65516
65517
65518
65508
65511
65509
65519
65524
65526
65511
65516
65511
65519
65527
65511
65511
65527
65510
65511
65511
65502
65510
65527
65500
65519
65527
65525
65519
65511
65514
65511
65505
65516
65519
65516
65513
65511
65508
65516
65511
65519
65516
65516
65508
65519
65503
65511
65505
65511
65510
65508
65519
65519
65505
65511
65508
65527
65527
65519
65511
65508
65519
65519
65511
65511
65511
65519
65511
65510
65517
65524
65509
65511
65511
65519
65519
65516
65527
65513
65508
65516
65516
65511
65511
65509
65517
65526
65510
65516
65519
65511
65519
65496
65519
65535
65519
65504
65508
65519
65511
65504
65498
65516
65517
65511
65508
65527
65511
65519
65535
65519
65525
65511
65511
65511
65500
65511
65511
65500
65508
65509
65517
65504
65511
65511
65512
65519
65511
65518
65511
65519
65517
65525
65511
65527
65516
65519
65519
65527
65515
65510
65517
65511
65517
65511
65525
65524
65519
65511
65509
65525
65511
65511
65516
65527
65527
65516
65509
65525
65524
65527
65524
65504
65510
65511
65519
65517
65516
65510
65509
65519
65511
65510
65525
65511
65516
65527
65519
65519
65516
65511
65508
65511
65511
65517
65511
65516
65517
65510
65519
65516
65525
65510
65511
65511
65516
65516
65518
65505
65508
65519
65519
65512
65510
65502
65518
65513
65516
65527
65515
65516
65515
65511
65511
65527
65516
65524
65511
65511
65511
65524
65513
65527
65506
65519
65511
65519
65518
65519
65515
65511
65527
65519
65519
65535
65519
65524
65508
65511
65527
65519
65512
65510
65504
65516
65516
65527
65505
65508
65519
65500
65517
65519
65504
65511
65519
65519
65516
65519
65527
65516
65511
65517
65516
65511
65516
65519
65524
65518
65511
65502
65519
65515
65519
65519
65511
65511
65511
65508
65516
65511
65519
65511
65519
65527
65519
65510
65519
65500
65527
65511
65519
65511
65511
65527
65527
65519
65511
65519
65514
65511
65519
65514
65510
65506
65527
65510
65524
65524
65519
65524
65519
65508
65516
65524
65511
65511
65511
65519
65519
65516
65519
65511
65504
65525
65512
65516
65527
65511
65527
65508
65515
65527
65525
65527
65508
65511
65510
65511
65518
65519
65519
65518
65517
65511
65525
65519
65524
65511
65508
65513
65512
65527
65516
65527
65517
65517
65519
65519
65508
65516
65527
65519
65500
65525
65511
65511
65511
65535
65516
65511
65506
65511
65511
65511
65516
65524
65519
65519
65527
65508
65505
65515
65522
65527
65519
65513
65519
65518
65525
65511
65527
65517
65524
65517
65517
65519
65517
65516
65515
65518
65503
65527
65511
65527
65511
65510
65508
65517
65505
65511
65519
65510
65527
65517
65508
65511
65508
65508
65519
65500
65524
65510
65511
65508
65511
65524
65517
65516
65511
65519
65516
65519
65519
65508
65519
65516
65511
65524
65503
65521
65517
65508
65527
65511
65511
65511
65519
65527
65504
65527
65516
65517
65511
65511
65516
65522
65510
65522
65508
65527
65519
65511
65508
65515
65503
65502
65524
65513
65519
65519
65527
65510
65524
65519
65516
65510
65508
65511
65507
65509
65511
65508
65527
65527
65524
65525
65516
65516
65505
65519
65508
65509
65511
65519
65516
65527
65519
65500
65516
65511
65510
65511
65509
65511
65527
65516
65519
65515
65517
65519
65510
65519
65511
65519
65508
65519
65516
65535
65505
65519
65519
65519
65517
65513
65525
65511
65511
65511
65518
65515
65519
65516
65518
65504
65511
65510
65516
65518
65508
65535
65519
65511
65512
65511
65502
65527
65527
65518
65511
65517
65519
65508
65516
65515
65525
65511
65514
65513
65511
65510
65502
65511
65519
65511
65511
65519
65521
65516
65517
65519
65525
65511
65514
65511
65527
65519
65511
65513
65516
65516
65510
65504
65519
65524
65519
65511
65517
65508
65516
65508
65515
65518
65519
65505
65511
65514
65517
65519
65511
65517
65527
65508
65511
65519
65516
65519
65511
65519
65516
65517
65511
65519
65534
65511
65519
65527
65503
65527
65511
65519
65508
65514
65517
65508
65511
65517
65511
65516
65519
65500
65519
65515
65506
65525
65516
65509
65511
65519
65516
65519
65510
65524
65510
65511
65527
65511
65516
65527
65527
65511
65516
65500
65508
65533
65518
65512
65511
65527
65504
65512
65508
65508
65519
65526
65508
65504
65508
65497
65516
65514
65524
65516
65511
65527
65511
65525
65511
65511
65525
65511
65511
65510
65502
65519
65511
65514
65511
65511
65511
65519
65517
65511
65505
65515
65511
65519
65508
65511
65518
65519
65511
65515
65519
65511
65519
65510
65502
65517
65513
65508
65511
65508
65519
65527
65527
65516
65525
65524
65510
65511
65511
65511
65511
65519
65508
65519
65508
65519
65511
65511
65525
65516
65516
65509
65511
65508
65517
65512
65507
65527
65525
65516
65509
65500
65516
65519
65519
65503
65519
65518
65527
65519
65506
65527
65510
65527
65516
65510
65505
65509
65501
65519
65516
65518
65518
65517
65514
65511
65519
65516
65510
65513
65510
65522
65508
65511
65510
65505
65493
65511
65524
65508
65508
65527
65511
65508
65509
65527
65519
65511
65527
65500
65527
65517
65518
65517
65510
65514
65508
65511
65517
65516
65524
65519
65511
65506
65519
65511
65503
65524
65527
65519
65516
65504
65511
65511
65515
65515
65519
65511
65511
65511
65532
65505
65519
65505
65511
65519
65500
65516
65519
65516
65511
65519
65511
65527
65509
65510
65519
65508
65511
65519
65500
65527
65519
65515
65527
65503
65504
65525
65519
65516
65504
65525
65519
65511
65519
65511
65511
65519
65519
65508
65527
65503
65526
65513
65518
65519
65519
65535
65511
65519
65524
65519
65516
65503
65511
65516
65511
65516
65519
65501
65511
65524
65509
65506
65524
65511
65519
65516
65497
65511
65525
65519
65510
65527
65511
65527
65511
65511
65505
65510
65508
65519
65515
65517
65516
65504
65511
65500
65511
65518
65511
65517
65508
65524
65511
65525
65511
65533
65500
65519
65519
65511
65519
65511
65525
65519
65517
65519
65519
65513
65511
65519
65509
65511
65519
65515
65519
65511
65507
65508
65514
65511
65516
65519
65511
65511
65511
65508
65516
65510
65519
65517
65527
65518
65508
65517
65517
65511
65503
65518
65519
65518
65519
65511
65527
65508
65519
65524
65516
65516
65512
65514
65514
65527
65516
65511
65535
65510
65511
65510
65523
65517
65527
65516
65511
65511
65527
65519
65525
65513
65511
65516
65527
65502
65500
65509
65516
65527
65510
65511
65498
65503
65510
65519
65517
65510
65519
65511
65511
65511
65519
65510
65511
65519
65511
65514
65516
65503
65510
65519
65519
65510
65511
65514
65524
65519
65508
65511
65519
65527
65513
65527
65508
65511
65510
65527
65508
65519
65519
65519
65517
65519
65510
65506
65502
65516
65518
65517
65511
65505
65511
65519
65519
65516
65518
65511
65527
65519
65517
65511
65511
65510
65511
65505
65511
65519
65519
65516
65519
65511
65519
65510
65527
65519
65511
65511
65519
65511
65516
65519
65508
65511
65518
65511
65516
65506
65511
65511
65511
65519
65519
65516
65527
65519
65511
65519
65504
65511
65508
65519
65506
65519
65518
65515
65516
65516
65531
65518
65511
65504
65511
65511
65511
65511
65516
65508
65519
65525
65508
65516
65512
65519
65509
65508
65519
65511
65517
65509
65514
65527
65504
65517
65508
65519
65527
65511
65516
65527
65509
65511
65517
65510
65514
65527
65503
65527
65501
65519
65511
65492
65519
65519
65535
65518
65519
65508
65519
65519
65511
65519
65500
65527
65516
65511
65511
65516
65517
65508
65511
65519
65502
65519
65527
65511
65519
65511
65511
65508
65519
65501
65519
65517
65498
65519
65516
65517
65508
65504
65508
65527
65511
65508
65516
65525
65502
65508
65508
65511
65511
65510
65516
65508
65511
65519
65519
65516
65519
65508
65513
65508
65524
65508
65511
65517
65527
65525
65518
65508
65525
65511
65511
65508
65519
65515
65516
65511
65512
65513
65511
65519
65519
65525
65508
65519
65510
65519
65519
65517
65510
65527
65508
65516
65511
65517
65524
65502
65519
65519
65511
65516
65511
65504
65516
65504
65527
65510
65510
65510
65510
65508
65508
65511
65511
65519
65522
65508
65507
65519
65504
65508
65527
65511
65519
65516
65511
65518
65519
65511
65500
65500
65533
65510
65511
65519
65510
65516
65514
65511
65516
65519
65508
65519
65527
65519
65519
65527
65519
65527
65527
65511
65519
65511
65506
65516
65519
65511
65518
65519
65517
65516
65525
65519
65527
65519
65525
65517
65519
65517
65527
65527
65513
65519
65527
65513
65508
65516
65519
65506
65511
65519
65519
65518
65500
65533
65511
65517
65516
65508
65519
65511
65524
65519
65505
65519
65514
65510
65515
65527
65508
65510
65527
65519
65508
65511
65519
65518
65519
65511
65504
65519
65516
65511
65511
65511
65516
65519
65516
65510
65504
65525
65511
65527
65508
65518
65510
65527
65535
65519
65508
65511
65516
65525
65515
65516
65519
65511
65501
65518
65524
65527
65510
65517
65519
65519
65519
65511
65511
65519
65514
65527
65508
65519
65518
65519
65511
65519
65502
65516
65518
65508
65524
65533
65511
65511
65509
65511
65508
65514
65517
65511
65510
65511
65527
65511
65519
65508
65519
65527
65511
65508
65511
65518
65505
65516
65519
65505
65519
65508
65519
65504
65511
65527
65503
65519
65514
65511
65496
65502
65527
65519
65517
65516
65508
65511
65511
65527
65519
65519
65508
65504
65514
65519
65527
65519
65527
65517
65511
65498
65527
65518
65516
65504
65510
65519
65524
65517
65508
65519
65510
65519
65511
65527
65516
65516
65511
65519
65508
65509
65518
65525
65515
65517
65504
65519
65510
65516
65511
65511
65525
65511
65511
65502
65518
65525
65516
65511
65519
65510
65508
65513
65511
65502
65519
65518
65519
65519
65516
65519
65508
65518
65511
65535
65516
65503
65511
65517
65511
65511
65525
65505
65508
65510
65527
65518
65508
65527
65519
65519
65504
65516
65518
65511
65519
65527
65519
65518
65527
65508
65525
65516
65511
65535
65510
65516
65511
65524
65508
65510
65525
65527
65525
65519
65525
65517
65519
65517
65524
65516
65510
65519
65500
65511
65519
65518
65511
65509
65518
65519
65511
65517
65507
65527
65511
65511
65516
65511
65511
65517
65511
65518
65508
65511
65504
65516
65511
65511
65535
65508
65511
65525
65508
65525
65514
65519
65508
65514
65511
65510
65519
65516
65511
65519
65505
65518
65517
65519
65510
65502
65506
65519
65519
65508
65511
65504
65503
65519
65511
65511
65519
65524
65525
65511
65511
65525
65511
65517
65505
65519
65519
65527
65511
65519
65514
65516
65511
65519
65510
65517
65523
65527
65511
65514
65519
65519
65511
65519
65511
65519
65508
65527
65511
65508
65519
65502
65517
65511
65516
65519
65524
65516
65519
65511
65519
65525
65510
65513
65517
65508
65519
65524
65519
65519
65500
65519
65516
65502
65515
65496
65527
65516
65513
65517
65517
65511
65519
65513
65511
65519
65517
65508
65508
65516
65511
65517
65525
65510
65506
65519
65531
65511
65501
65519
65511
65505
65516
65519
65511
65500
65508
65516
65516
65511
65524
65511
65516
65511
65518
65511
65516
65516
65508
65516
65519
65524
65535
65527
65516
65532
65519
65519
65511
65519
65525
65516
65517
65524
65519
65506
65511
65516
65519
65527
65511
65527
65516
65511
65511
65511
65508
65524
65511
65511
65511
65513
65511
65511
65511
65511
65509
65518
65524
65502
65510
65511
65510
65508
65525
65509
65503
65504
65511
65508
65527
65519
65508
65511
65519
65511
65508
65516
65519
65518
65511
65519
65508
65511
65511
65519
65519
65511
65516
65508
65510
65518
65511
65504
65517
65515
65519
65518
65512
65508
65519
65519
65504
65511
65519
65511
65510
65505
65527
65519
65517
65506
65527
65516
65507
65524
65523
65527
65511
65511
65508
65508
65516
65503
65517
65515
65516
65524
65519
65525
65500
65517
65511
65508
65519
65510
65519
65511
65511
65519
65516
65526
65518
65511
65511
65517
65527
65508
65519
65501
65508
65516
65515
65511
65524
65506
65527
65527
65525
65513
65519
65516
65519
65502
65527
65525
65519
65511
65507
65510
65504
65516
65519
65511
65519
65511
65511
65524
65508
65504
65519
65502
65511
65511
65509
65512
65511
65516
65500
65527
65516
65518
65514
65516
65527
65510
65504
65511
65510
65504
65511
65511
65519
65524
65519
65518
65511
65508
65525
65527
65510
65521
65511
65511
65524
65508
65511
65519
65511
65519
65510
65516
65515
65511
65524
65511
65517
65511
65516
65517
65504
65506
65517
65511
65500
65519
65519
65515
65524
65521
65525
65508
65517
65519
65510
65508
65516
65496
65511
65510
65512
65516
65508
65516
65508
65527
65517
65516
65519
65518
65511
65511
65519
65511
65511
65527
65504
65524
65508
65516
65525
65511
65511
65516
65527
65510
65519
65527
65502
65514
65519
65510
65519
65517
65506
65525
65519
65511
65511
65518
65517
65519
65515
65512
65519
65514
65511
65508
65515
65517
65510
65517
65519
65518
65518
65511
65509
65519
65511
65508
65511
65527
65504
65519
65511
65524
65519
65518
65511
65518
65516
65509
65519
65500
65515
65511
65509
65508
65518
65519
65515
65508
65512
65508
65527
65511
65505
65511
65511
65519
65511
65510
65505
65515
65525
65519
65516
65519
65502
65527
65511
65525
65511
65511
65518
65519
65512
65524
65519
65516
65511
65497
65511
65511
65508
65510
65511
65508
65509
65519
65519
65510
65525
65514
65519
65510
65508
65519
65524
65525
65533
65519
65508
65511
65517
65516
65519
65511
65518
65525
65508
65516
65519
65511
65511
65508
65510
65516
65519
65511
65511
65519
65515
65505
65510
65509
65516
65527
65513
65518
65516
65511
65524
65519
65516
65518
65527
65519
65515
65535
65516
65511
65511
65524
65504
65511
65510
65509
65519
65509
65503
65503
65510
65525
65508
65506
65502
65517
65511
65500
65504
65516
65508
65508
65516
65511
65505
65524
65527
65519
65511
65511
65519
65516
65519
65519
65514
65516
65519
65519
65510
65519
65519
65511
65508
65511
65519
65510
65510
65511
65510
65511
65527
65517
65517
65526
65526
65496
65527
65508
65519
65515
65517
65508
65511
65525
65525
65519
65516
65519
65513
65511
65507
65511
65525
65514
65506
65519
65516
65509
65516
65516
65516
65527
65519
65518
65500
65511
65516
65503
65517
65515
65517
65516
65510
65519
65527
65504
65511
65508
65519
65518
65511
65519
65518
65511
65511
65511
65519
65519
65506
65519
65508
65511
65504
65518
65516
65516
65511
65516
65519
65524
65510
65511
65522
65500
65516
65519
65515
65519
65513
65511
65511
65519
65517
65527
65521
65511
65517
65510
65510
65509
65508
65516
65511
65508
65518
65504
65510
65519
65519
65511
65511
65527
65519
65494
65527
65527
65508
65516
65524
65508
65524
65511
65516
65509
65516
65526
65503
65527
65525
65511
65511
65509
65508
65519
65516
65517
65516
65524
65511
65510
65525
65509
65533
65516
65511
65509
65516
65517
65519
65516
65511
65514
65508
65511
65516
65519
65519
65524
65510
65511
65511
65503
65513
65516
65519
65516
65511
65500
65508
65508
65511
65517
65516
65511
65519
65513
65510
65516
65511
65508
65535
65527
65516
65526
65525
65511
65505
65516
65511
65511
65508
65514
65516
65511
65512
65519
65518
65519
65508
65508
65508
65527
65508
65527
65525
65501
65511
65508
65519
65516
65518
65519
65506
65510
65519
65517
65519
65510
65519
65524
65511
65511
65517
65519
65511
65508
65527
65509
65535
65519
65511
65533
65517
65524
65511
65527
65511
65504
65524
65511
65517
65513
65527
65519
65511
65511
65506
65527
65508
65519
65516
65513
65527
65517
65508
65516
65519
65508
65519
65509
65511
65525
65508
65516
65518
65519
65508
65493
65519
65533
65504
65513
65519
65518
65519
65511
65519
65514
65519
65516
65511
65527
65511
65527
65511
65508
65517
65519
65511
65519
65511
65506
65508
65510
65519
65515
65519
65511
65508
65511
65527
65511
65510
65519
65527
65511
65511
65516
65511
65516
65504
65504
65510
65516
65510
65516
65524
65510
65506
65502
65502
65509
65514
65508
65519
65506
65511
65508
65503
65505
65509
65527
65516
65504
65511
65514
65519
65517
65514
65524
65510
65519
65512
65511
65519
65500
65508
65512
65516
65510
65511
65509
65508
65527
65511
65511
65511
65511
65516
65504
65527
65509
65516
65511
65506
65511
65519
65525
65526
65511
65526
65518
65508
65504
65516
65516
65519
65511
65518
65519
65508
65508
65508
65510
65517
65511
65519
65511
65531
65516
65517
65516
65508
65533
65504
65519
65511
65519
65519
65505
65508
65518
65511
65517
65516
65516
65518
65508
65519
65511
65510
65511
65505
65507
65519
65516
65525
65517
65511
65511
65517
65505
65527
65519
65516
65524
65516
65515
65519
65516
65511
65519
65505
65518
65510
65510
65511
65521
65524
65513
65511
65511
65506
65519
65511
65504
65517
65510
65511
65519
65535
65514
65518
65519
65517
65519
65519
65519
65511
65519
65508
65527
65519
65508
65511
65519
65524
65509
65527
65511
65504
65519
65511
65508
65516
65508
65508
65527
65500
65508
65509
65519
65519
65524
65511
65511
65519
65519
65527
65516
65504
65516
65527
65511
65527
65511
65516
65527
65519
65514
65511
65527
65525
65517
65519
65519
65511
65511
65519
65520
65508
65511
65517
65516
65513
65533
65510
65511
65508
65519
65517
65516
65509
65524
65516
65511
65519
65514
65508
65508
65519
65507
65516
65519
65519
65519
65506
65519
65519
65493
65517
65511
65508
65516
65516
65516
65511
65519
65511
65527
65511
65518
65526
65519
65527
65511
65527
65516
65517
65527
65527
65510
65503
65510
65516
65527
65519
65514
65527
65519
65519
65511
65519
65519
65513
65509
65508
65511
65500
65511
65519
65527
65508
65519
65511
65527
65519
65508
65519
65496
65511
65525
65517
65519
65519
65507
65517
65511
65508
65502
65511
65512
65525
65516
65517
65524
65511
65516
65527
65527
65516
65525
65517
65516
65508
65516
65508
65519
65516
65524
65508
65519
65535
65519
65505
65519
65511
65508
65502
65508
65519
65511
65513
65527
65527
65519
65510
65503
65519
65504
65510
65508
65519
65502
65516
65508
65519
65519
65519
65519
65516
65519
65527
65516
65519
65509
65511
65516
65504
65517
65511
65517
65511
65518
65525
65511
65512
65519
65508
65519
65500
65510
65519
65516
65535
65527
65517
65519
65511
65508
65524
65513
65510
65519
65519
65508
65525
65508
65503
65513
65510
65519
65505
65511
65524
65516
65516
65513
65509
65511
65519
65527
65516
65519
65505
65516
65511
65508
65519
65511
65516
65519
65511
65508
65516
65527
65519
65514
65519
65511
65525
65508
65516
65516
65519
65524
65503
65519
65511
65511
65519
65516
65517
65519
65527
65510
65511
65510
65510
65519
65510
65508
65519
65514
65516
65511
65513
65511
65511
65519
65516
65510
65525
65516
65516
65524
65511
65511
65508
65511
65508
65519
65508
65511
65511
65517
65510
65510
65518
65519
65519
65511
65508
65508
65511
65519
65508
65511
65519
65519
65511
65511
65508
65508
65511
65508
65501
65508
65525
65511
65519
65517
65511
65511
65524
65518
65516
65516
65517
65508
65511
65511
65511
65517
65517
65508
65515
65511
65511
65518
65516
65527
65517
65519
65519
65510
65510
65509
65508
65511
65524
65527
65525
65504
65511
65517
65527
65508
65519
65511
65524
65506
65519
65527
65511
65511
65510
65516
65511
65509
65519
65496
65519
65517
65527
65514
65517
65510
65511
65511
65500
65517
65519
65508
65511
65507
65519
65508
65516
65510
65533
65527
65510
65500
65511
65508
65517
65527
65519
65504
65511
65516
65516
65511
65511
65512
65525
65511
65525
65517
65505
65516
65506
65519
65525
65514
65517
65515
65516
65527
65511
65524
65516
65518
65511
65510
65524
65527
65509
65526
65511
65525
65516
65516
65518
65516
65511
65519
65511
65492
65508
65524
65518
65511
65517
65519
65534
65508
65508
65508
65519
65511
65510
65519
65518
65526
65524
65519
65526
65525
65525
65500
65519
65519
65511
65508
65516
65519
65517
65511
65511
65516
65511
65527
65527
65511
65517
65504
65511
65511
65511
65519
65519
65519
65511
65519
65517
65511
65519
65525
65524
65504
65519
65500
65525
65517
65510
65503
65516
65519
65511
65527
65511
65513
65500
65511
65500
65511
65511
65527
65527
65508
65516
65511
65514
65511
65514
65511
65510
65519
65523
65516
65516
65502
65519
65519
65518
65517
65527
65511
65508
65511
65518
65516
65500
65516
65519
65513
65521
65519
65504
65508
65527
65517
65516
65511
65516
65508
65510
65519
65514
65509
65509
65511
65527
65503
65518
65504
65524
65516
65510
65519
65526
65508
65508
65504
65508
65525
65508
65519
65508
65510
65510
65511
65519
65519
65508
65525
65516
65518
65506
65519
65500
65508
65527
65511
65527
65511
65510
65508
65510
65510
65527
65519
65500
65509
65511
65503
65517
65510
65508
65504
65516
65519
65511
65518
65511
65519
65525
65511
65524
65515
65506
65513
65525
65509
65509
65508
65527
65508
65516
65515
65511
65511
65535
65510
65519
65500
65525
65516
65504
65504
65524
65518
65510
65509
65516
65527
65518
65519
65517
65527
65516
65517
65524
65519
65508
65516
65527
65527
65519
65508
65517
65524
65519
65527
65527
65511
65527
65500
65517
65510
65527
65511
65519
65518
65511
65519
65508
65518
65519
65511
65519
65510
65511
65511
65516
65519
65516
65514
65506
65516
65510
65525
65517
65517
65519
65511
65511
65519
65519
65519
65511
65509
65508
65511
65505
65511
65509
65525
65508
65511
65519
65511
65527
65504
65527
65511
65509
65498
65516
65519
65511
65511
65519
65511
65511
65508
65511
65510
65519
65516
65516
65527
65519
65527
65518
65525
65525
65527
65516
65511
65511
65517
65519
65518
65511
65526
65511
65516
65508
65511
65519
65510
65516
65519
65508
65515
65518
65519
65511
65524
65519
65504
65525
65527
65527
65519
65527
65502
65519
65508
65519
65519
65511
65508
65527
65511
65527
65519
65524
65523
65511
65516
65516
65510
65510
65516
65519
65511
65527
65510
65518
65508
65517
65527
65525
65515
65511
65519
65516
65510
65516
65524
65514
65519
65519
65514
65519
65519
65517
65511
65515
65518
65505
65511
65511
65511
65527
65508
65519
65524
65508
65527
65511
65508
65506
65527
65504
65509
65519
65519
65504
65519
65519
65517
65527
65511
65514
65524
65511
65527
65524
65519
65511
65508
65510
65515
65510
65509
65511
65510
65510
65519
65514
65503
65504
65519
65496
65518
65511
65516
65511
65519
65517
65516
65519
65510
65511
65508
65518
65509
65511
65525
65508
65527
65527
65516
65519
65519
65516
65526
65511
65516
65527
65516
65517
65519
65519
65508
65508
65511
65511
65519
65524
65500
65511
65510
65516
65508
65519
65510
65502
65525
65508
65519
65510
65510
65512
65508
65506
65508
65502
65511
65500
65511
65511
65504
65519
65511
65508
65519
65513
65525
65510
65511
65517
65518
65511
65507
65504
65508
65504
65508
65519
65511
65511
65519
65504
65511
65504
65511
65519
65525
65500
65519
65511
65527
65517
65525
65511
65535
65519
65510
65511
65519
65518
65524
65516
65526
65517
65511
65516
65517
65504
65500
65519
65511
65511
65505
65516
65519
65515
65511
65511
65515
65525
65511
65519
65508
65508
65519
65519
65517
65527
65519
65517
65511
65519
65519
65516
65511
65519
65511
65508
65511
65511
65518
65510
65508
65505
65508
65518
65508
65502
65519
65508
65524
65516
65511
65516
65525
65525
65519
65516
65516
65502
65511
65511
65517
65516
65518
65519
65517
65500
65505
65516
65509
65516
65519
65518
65516
65511
65511
65525
65511
65511
65515
65516
65502
65517
65511
65511
65518
65510
65519
65519
65510
65535
65519
65519
65519
65516
65535
65516
65519
65518
65511
65527
65516
65516
65525
65519
65511
65508
65524
65516
65508
65511
65515
65511
65510
65516
65533
65516
65524
65511
65511
65519
65519
65511
65511
65516
65519
65504
65516
65516
65511
65510
65511
65510
65519
65515
65502
65511
65519
65519
65515
65527
65517
65518
65508
65517
65519
65511
65519
65519
65518
65527
65503
65515
65511
65514
65518
65510
65511
65511
65516
65516
65519
65511
65504
65519
65511
65527
65511
65504
65510
65527
65511
65516
65519
65527
65519
65525
65510
65508
65519
65508
65519
65527
65517
65512
65508
65511
65516
65511
65500
65510
65511
65524
65511
65519
65494
65511
65508
65533
65511
65508
65519
65517
65523
65511
65518
65525
65511
65492
65511
65511
65514
65511
65503
65511
65524
65511
65509
65511
65502
65527
65511
65511
65509
65511
65511
65510
65524
65508
65506
65519
65508
65500
65511
65527
65510
65511
65516
65511
65508
65527
65511
65525
65519
65511
65519
65517
65516
65508
65527
65516
65516
65511
65514
65527
65511
65508
65516
65508
65518
65519
65508
65511
65519
65510
65525
65518
65533
65527
65511
65516
65516
65501
65519
65510
65511
65504
65519
65527
65502
65517
65517
65517
65519
65509
65511
65519
65525
65516
65511
65516
65513
65508
65511
65502
65508
65509
65518
65508
65511
65512
65517
65511
65524
65508
65525
65519
65504
65519
65527
65511
65511
65516
65519
65511
65511
65511
65510
65519
65511
65511
65518
65519
65519
65505
65517
65518
65510
65495
65516
65527
65511
65518
65509
65519
65517
65508
65511
65519
65509
65511
65511
65504
65511
65511
65524
65519
65516
65510
65511
65508
65516
65500
65519
65517
65527
65510
65504
65502
65511
65519
65515
65516
65519
65525
65511
65511
65511
65516
65508
65501
65524
65510
65510
65511
65502
65508
65519
65510
65524
65511
65508
65513
65525
65511
65511
65511
65516
65518
65502
65519
65511
65517
65511
65505
65516
65508
65525
65510
65513
65513
65511
65508
65519
65513
65518
65516
65506
65518
65517
65508
65519
65516
65516
65509
65508
65519
65519
65527
65519
65508
65510
65519
65509
65518
65511
65506
65516
65527
65519
65506
65518
65511
65508
65511
65524
65519
65511
65525
65524
65524
65508
65512
65511
65511
65511
65519
65524
65527
65519
65523
65524
65519
65506
65525
65508
65511
65507
65516
65519
65519
65508
65519
65511
65510
65511
65513
65527
65509
65508
65511
65517
65511
65526
65525
65519
65511
65516
65511
65524
65517
65514
65527
65510
65517
65508
65517
65525
65517
65508
65500
65527
65505
65508
65508
65511
65517
65516
65510
65525
65515
65511
65516
65527
65517
65511
65525
65500
65513
65519
65511
65516
65516
65511
65505
65519
65509
65511
65508
65527
65508
65505
65527
65519
65516
65511
65510
65513
65535
65519
65508
65527
65510
65502
65527
65516
65535
65518
65517
65516
65519
65519
65519
65516
65513
65519
65516
65508
65525
65509
65519
65506
65519
65511
65506
65519
65511
65505
65505
65510
65508
65511
65518
65527
65503
65517
65511
65509
65504
65524
65516
65519
65527
65500
65510
65510
65518
65517
65526
65509
65527
65516
65504
65502
65519
65511
65516
65511
65519
65511
65519
65502
65519
65519
65519
65519
65516
65510
65519
65519
65516
65519
65519
65527
65516
65511
65524
65518
65527
65516
65511
65519
65511
65525
65505
65492
65508
65511
65516
65521
65524
65519
65524
65526
65503
65511
65511
65519
65504
65519
65511
65505
65516
65505
65508
65517
65519
65517
65515
65511
65511
65525
65524
65519
65516
65521
65511
65519
65511
65519
65511
65511
65517
65524
65511
65518
65508
65519
65519
65511
65510
65503
65511
65525
65519
65518
65519
65517
65515
65504
65527
65511
65519
65519
65526
65511
65527
65511
65535
65527
65511
65525
65510
65511
65511
65505
65511
65512
65502
65510
65518
65516
65527
65502
65519
65516
65519
65516
65508
65505
65510
65516
65504
65509
65525
65515
65511
65518
65535
65519
65517
65511
65519
65525
65511
65510
65511
65516
65511
65519
65519
65516
65510
65505
65504
65516
65511
65508
65524
65516
65516
65517
65517
65508
65511
65511
65516
65519
65510
65519
65516
65527
65508
65504
65527
65519
65524
65519
65519
65527
65513
65514
65510
65508
65517
65533
65511
65516
65514
65501
65510
65514
65511
65511
65516
65519
65519
65519
65518
65514
65527
65506
65518
65508
65500
65519
65518
65518
65510
65519
65500
65503
65510
65511
65519
65519
65510
65525
65511
65519
65516
65517
65511
65519
65535
65516
65508
65496
65519
65504
65519
65519
65519
65519
65517
65516
65519
65506
65508
65519
65501
65511
65516
65516
65519
65508
65507
65511
65519
65519
65516
65519
65525
65518
65517
65511
65508
65510
65524
65504
65502
65515
65508
65505
65506
65527
65512
65508
65519
65518
65503
65496
65519
65527
65511
65513
65514
65516
65519
65527
65516
65508
65508
65511
65516
65516
65517
65500
65519
65519
65508
65516
65516
65516
65511
65511
65519
65525
65508
65503
65510
65519
65511
65519
65511
65511
65519
65500
65514
65527
65519
65515
65511
65525
65519
65511
65511
65508
65505
65510
65519
65527
65511
65500
65508
65503
65516
65524
65524
65516
65524
65518
65519
65525
65510
65516
65519
65516
65508
65511
65519
65516
65510
65516
65525
65511
65519
65511
65511
65511
65527
65525
65525
65511
65519
65519
65508
65511
65504
65519
65511
65508
65510
65514
65508
65509
65527
65519
65509
65508
65511
65519
65500
65526
65511
65511
65516
65511
65511
65518
65505
65516
65508
65511
65510
65510
65511
65519
65519
65519
65511
65514
65519
65519
65511
65511
65511
65519
65511
65519
65516
65511
65516
65517
65527
65508
65511
65519
65502
65527
65527
65517
65519
65517
65508
65509
65510
65524
65519
65511
65524
65516
65511
65525
65533
65511
65527
65524
65507
65514
65511
65511
65508
65510
65517
65510
65519
65527
65511
65519
65511
65508
65508
65511
65508
65519
65517
65525
65516
65516
65524
65516
65517
65535
65525
65517
65510
65511
65511
65514
65519
65511
65504
65518
65516
65511
65508
65519
65517
65511
65506
65519
65511
65517
65516
65510
65511
65511
65511
65527
65517
65511
65517
65511
65511
65511
65508
65511
65511
65511
65532
65510
65508
65519
65517
65516
65511
65519
65519
65524
65519
65527
65524
65511
65519
65519
65511
65509
65511
65519
65510
65519
65517
65518
65516
65500
65504
65527
65502
65511
65511
65516
65511
65503
65510
65516
65519
65500
65519
65519
65510
65512
65516
65506
65519
65517
65514
65516
65508
65519
65519
65527
65508
65511
65511
65525
65511
65508
65533
65527
65510
65516
65510
65514
65503
65519
65509
65506
65511
65504
65519
65508
65524
65519
65515
65519
65511
65527
65519
65519
65511
65500
65527
65524
65508
65516
65527
65508
65511
65516
65504
65511
65525
65519
65511
65511
65510
65517
65504
65516
65519
65513
65519
65519
65504
65510
65518
65510
65512
65508
65519
65508
65525
65505
65510
65511
65511
65527
65507
65514
65527
65505
65508
65511
65511
65511
65518
65519
65511
65508
65533
65527
65504
65525
65519
65519
65511
65519
65519
65503
65511
65504
65510
65508
65511
65516
65508
65516
65518
65519
65519
65519
65517
65519
65508
65517
65517
65511
65519
65512
65517
65513
65526
65510
65508
65517
65527
65504
65519
65519
65524
65524
65517
65511
65519
65524
65511
65524
65501
65510
65519
65508
65496
65511
65501
65519
65511
65517
65504
65516
65511
65519
65527
65510
65511
65503
65519
65518
65535
65519
65517
65515
65508
65517
65519
65517
65519
65502
65511
65519
65527
65516
65524
65511
65508
65519
65519
65511
65516
65519
65519
65509
65504
65511
65518
65519
65508
65525
65506
65508
65519
65508
65519
65511
65508
65510
65511
65511
65519
65519
65527
65511
65510
65527
65511
65519
65519
65508
65516
65517
65516
65519
65517
65527
65519
65511
65508
65508
65511
65505
65508
65501
65505
65518
65516
65519
65511
65517
65519
65527
65519
65516
65527
65533
65508
65516
65517
65511
65525
65511
65510
65515
65511
65511
65509
65516
65510
65502
65509
65510
65511
65511
65517
65525
65519
65506
65511
65519
65510
65511
65519
65519
65519
65516
65511
65526
65519
65526
65517
65519
65519
65535
65505
65511
65519
65511
65511
65518
65511
65509
65519
65517
65519
65516
65516
65519
65504
65500
65505
65511
65511
65516
65519
65508
65506
65507
65510
65511
65511
65519
65502
65513
65511
65512
65508
65516
65506
65511
65519
65511
65516
65519
65511
65519
65510
65518
65527
65518
65517
65511
65504
65511
65511
65525
65509
65511
65516
65517
65519
65519
65519
65500
65511
65503
65519
65517
65500
65512
65517
65511
65508
65527
65525
65525
65516
65525
65525
65519
65519
65508
65504
65515
65518
65527
65517
65512
65516
65511
65509
65511
65516
65510
65525
65511
65511
65519
65511
65519
65519
65511
65511
65516
65519
65519
65527
65511
65519
65525
65517
65519
65524
65510
65517
65517
65527
65511
65509
65517
65517
65516
65511
65516
65517
65516
65511
65525
65518
65508
65505
65511
65508
65511
65525
65519
65517
65519
65504
65533
65527
65527
65508
65525
65519
65510
65511
65519
65516
65514
65505
65519
65533
65500
65503
65508
65501
65510
65509
65519
65519
65518
65519
65511
65506
65518
65508
65519
65516
65510
65519
65524
65511
65503
65516
65527
65506
65511
65519
65525
65527
65519
65504
65516
65516
65510
65517
65519
65510
65511
65516
65509
65508
65511
65511
65509
65503
65511
65496
65509
65508
65509
65502
65508
65508
65511
65510
65509
65527
65510
65504
65509
65511
65510
65516
65513
65519
65510
65508
65511
65508
65519
65517
65509
65508
65519
65508
65509
65508
65516
65519
65504
65519
65509
65511
65511
65516
65509
65506
65511
65508
65511
65511
65508
65508
65522
65501
65504
65516
65508
65508
65511
65508
65519
65506
65519
65511
65519
65503
65517
65511
65524
65511
65519
65511
65527
65527
65504
65527
65511
65519
65508
65504
65519
65508
65519
65516
65519
65508
65519
65511
65511
65508
65519
65511
65508
65511
65524
65524
65517
65511
65508
65511
65527
65516
65516
65527
65511
65519
65509
65519
65511
65511
65527
65511
65511
65511
65519
65508
65524
65519
65511
65508
65519
65503
65509
65500
65509
65514
65519
65502
65516
65525
65509
65516
65510
65516
65519
65516
65512
65511
65527
65525
65524
65510
65511
65511
65511
65511
65519
65510
65504
65519
65511
65511
65516
65511
65511
65516
65535
65511
65511
65511
65518
65503
65519
65505
65525
65511
65510
65507
65500
65510
65503
65508
65511
65519
65517
65517
65511
65519
65504
65511
65519
65511
65519
65524
65511
65519
65511
65511
65527
65517
65511
65511
65520
65519
65505
65519
65516
65509
65508
65500
65508
65519
65519
65508
65535
65517
65508
65514
65504
65510
65519
65516
65508
65519
65516
65514
65517
65511
65525
65511
65511
65511
65511
65516
65519
65525
65511
65511
65519
65516
65508
65511
65524
65502
65524
65511
65511
65519
65507
65514
65511
65508
65517
65518
65525
65503
65511
65514
65519
65517
65500
65501
65508
65518
65519
65516
65503
65510
65508
65508
65505
65508
65511
65511
65519
65511
65519
65511
65502
65525
65519
65519
65519
65521
65511
65517
65511
65509
65506
65525
65511
65508
65511
65508
65510
65517
65519
65518
65516
65504
65519
65519
65511
65519
65514
65519
65504
65517
65511
65517
65519
65513
65516
65508
65511
65519
65500
65508
65511
65503
65519
65511
65510
65502
65511
65500
65519
65511
65519
65511
65511
65508
65519
65525
65511
65511
65515
65516
65509
65519
65519
65524
65519
65503
65506
65504
65525
65516
65509
65504
65513
65505
65500
65519
65509
65527
65519
65509
65511
65519
65511
65494
65519
65519
65511
65527
65523
65511
65527
65519
65511
65509
65500
65519
65511
65511
65526
65503
65509
65513
65509
65515
65510
65511
65508
65511
65519
65508
65511
65527
65503
65510
65500
65511
65500
65519
65517
65527
65508
65505
65503
65526
65516
65503
65504
65511
65511
65511
65503
65511
65524
65510
65517
65527
65535
65510
65511
65511
65527
65519
65511
65503
65515
65511
65508
65511
65517
65517
65509
65511
65519
65517
65511
65511
65503
65511
65510
65516
65511
65500
65500
65508
65506
65511
65492
65510
65519
65511
65511
65524
65508
65493
65505
65508
65509
65511
65527
65527
65519
65517
65508
65508
65519
65510
65519
65515
65510
65516
65511
65519
65519
65517
65508
65511
65510
65527
65508
65516
65516
65509
65512
65508
65527
65511
65503
65516
65511
65511
65508
65515
65492
65511
65516
65502
65519
65527
65509
65519
65508
65525
65508
65511
65508
65525
65518
65511
65510
65513
65500
65506
65514
65519
65519
65502
65511
65518
65501
65519
65500
65519
65511
65525
65527
65511
65519
65508
65524
65519
65504
65519
65516
65511
65493
65511
65511
65510
65511
65496
65519
65506
65511
65508
65504
65519
65511
65503
65501
65511
65519
65502
65510
65505
65511
65511
65518
65511
65510
65508
65504
65527
65502
65518
65505
65508
65511
65517
65511
65527
65500
65507
65519
65527
65492
65519
65503
65508
65519
65497
65519
65510
65511
65501
65516
65508
65511
65511
65517
65500
65511
65511
65508
65508
65506
65519
65510
65508
65518
65508
65516
65508
65524
65510
65518
65518
65518
65516
65519
65501
65527
65519
65509
65502
65519
65517
65500
65503
65509
65519
65508
65519
65509
65508
65511
65508
65511
65517
65508
65519
65498
65510
65505
65527
65508
65516
65505
65511
65500
65517
65527
65511
65516
65508
65519
65511
65519
65504
65517
65518
65511
65519
65514
65511
65511
65519
65500
65517
65511
65509
65508
65518
65511
65502
65511
65508
65503
65511
65511
65500
65525
65519
65509
65511
65508
65508
65511
65503
65511
65516
65500
65517
65511
65511
65511
65509
65511
65519
65519
65507
65518
65519
65519
65510
65525
65511
65511
65511
65505
65525
65518
65516
65511
65511
65509
65511
65519
65510
65518
65535
65516
65508
65500
65519
65506
65499
65511
65511
65517
65509
65511
65510
65511
65518
65510
65511
65511
65518
65511
65502
65509
65511
65510
65508
65511
65508
65504
65509
65511
65511
65524
65511
65511
65495
65500
65517
65508
65502
65510
65507
65519
65519
65519
65506
65511
65519
65508
65511
65503
65517
65519
65510
65511
65519
65505
65511
65510
65510
65510
65519
65502
65533
65511
65504
65511
65515
65517
65505
65500
65527
65525
65511
65519
65519
65500
65517
65524
65511
65516
65510
65519
65516
65503
65511
65511
65519
65511
65508
65511
65511
65504
65516
65511
65501
65509
65510
65519
65508
65519
65519
65511
65517
65519
65511
65492
65516
65508
65502
65527
65512
65516
65503
65508
65508
65500
65519
65502
65516
65503
65519
65508
65510
65527
65511
65508
65511
65511
65509
65519
65516
65511
65508
65509
65504
65511
65503
65517
65500
65503
65508
65527
65511
65504
65511
65510
65519
65511
65515
65508
65508
65510
65516
65510
65509
65525
65518
65517
65519
65511
65504
65527
65511
65527
65511
65525
65511
65508
65511
65509
65525
65519
65511
65511
65510
65511
65509
65516
65524
65519
65502
65508
65500
65511
65506
65510
65494
65504
65500
65519
65516
65511
65519
65505
65527
65505
65511
65508
65519
65519
65519
65516
65519
65519
65519
65518
65525
65500
65493
65519
65508
65510
65510
65517
65519
65527
65519
65516
65519
65517
65511
65508
65510
65503
65510
65525
65492
65500
65511
65511
65498
65510
65511
65507
65519
65519
65510
65516
65512
65511
65500
65508
65511
65516
65521
65511
65506
65514
65519
65500
65511
65511
65511
65511
65519
65516
65511
65509
65511
65517
65496
65511
65519
65497
65496
65511
65503
65511
65511
65516
65503
65511
65516
65509
65511
65503
65525
65507
65505
65525
65525
65511
65502
65505
65508
65516
65519
65509
65517
65509
65519
65519
65511
65511
65525
65527
65511
65511
65506
65511
65519
65510
65503
65519
65508
65527
65511
65511
65508
65511
65519
65511
65517
65510
65509
65519
65511
65505
65511
65527
65503
65511
65519
65502
65511
65511
65509
65508
65508
65518
65517
65508
65510
65511
65527
65516
65517
65508
65510
65516
65509
65511
65511
65511
65511
65519
65516
65519
65508
65508
65504
65518
65527
65510
65518
65519
65527
65511
65511
65533
65508
65508
65518
65511
65508
65508
65510
65511
65502
65506
65519
65508
65511
65500
65519
65504
65511
65504
65511
65516
65516
65511
65504
65503
65508
65516
65511
65516
65519
65510
65517
65510
65511
65515
65508
65524
65519
65511
65500
65519
65513
65511
65511
65519
65527
65517
65519
65511
65508
65527
65527
65524
65508
65511
65527
65500
65508
65516
65511
65503
65519
65504
65519
65519
65511
65508
65524
65503
65511
65511
65511
65509
65503
65510
65519
65511
65519
65519
65511
65511
65517
65519
65508
65511
65511
65511
65516
65511
65501
65516
65500
65509
65524
65516
65511
65519
65511
65519
65535
65511
65508
65519
65504
65511
65516
65502
65519
65505
65518
65525
65517
65506
65519
65511
65519
65511
65505
65508
65519
65511
65519
65525
65527
65519
65496
65500
65510
65500
65503
65516
65518
65511
65508
65511
65504
65519
65511
65516
65526
65519
65511
65511
65516
65511
65510
65511
65511
65519
65517
65510
65511
65517
65519
65519
65511
65511
65496
65506
65519
65504
65519
65507
65511
65511
65511
65511
65505
65511
65519
65508
65511
65519
65511
65502
65511
65509
65511
65511
65509
65516
65508
65492
65519
65511
65511
65519
65517
65518
65509
65517
65509
65518
65519
65511
65511
65519
65511
65511
65517
65511
65500
65505
65503
65511
65511
65524
65511
65511
65510
65516
65511
65508
65519
65519
65516
65511
65519
65511
65516
65510
65511
65508
65510
65519
65505
65519
65516
65527
65511
65500
65509
65517
65511
65511
65506
65519
65511
65515
65511
65519
65514
65519
65509
65511
65511
65519
65519
65519
65511
65510
65519
65519
65527
65504
65509
65508
65508
65519
65506
65511
65511
65508
65518
65511
65519
65511
65508
65511
65508
65506
65511
65508
65516
65505
65517
65519
65511
65519
65497
65512
65519
65519
65516
65511
65518
65508
65511
65518
65511
65492
65516
65510
65503
65517
65508
65506
65509
65519
65519
65511
65510
65506
65527
65509
65501
65500
65519
65518
65508
65519
65517
65511
65519
65519
65510
65519
65517
65517
65519
65502
65510
65513
65511
65519
65516
65506
65519
65519
65511
65517
65527
65516
65519
65517
65511
65508
65517
65514
65511
65511
65511
65519
65503
65519
65519
65511
65511
65514
65503
65504
65513
65508
65511
65510
65511
65510
65518
65516
65519
65511
65511
65505
65500
65505
65516
65509
65519
65527
65519
65511
65527
65527
65511
65511
65516
65508
65511
65517
65503
65511
65527
65511
65516
65511
65506
65519
65508
65511
65524
65502
65504
65508
65519
65527
65511
65508
65519
65517
65517
65517
65501
65519
65511
65500
65511
65510
65511
65508
65519
65527
65511
65510
65508
65511
65516
65519
65505
65516
65497
65519
65519
65511
65509
65519
65503
65511
65504
65511
65527
65519
65511
65510
65502
65509
65511
65495
65511
65511
65497
65511
65519
65527
65505
65517
65511
65519
65500
65510
65506
65516
65524
65511
65496
65519
65519
65518
65508
65508
65519
65519
65505
65511
65511
65517
65511
65500
65508
65527
65506
65519
65519
65511
65517
65504
65519
65511
65527
65519
65511
65511
65503
65511
65509
65508
65508
65504
65500
65519
65508
65511
65511
65506
65519
65519
65511
65511
65511
65519
65518
65511
65527
65518
65511
65519
65511
65511
65508
65519
65501
65519
65527
65511
65518
65516
65508
65511
65511
65492
65511
65511
65519
65511
65511
65502
65500
65505
65511
65508
65519
65510
65496
65508
65492
65503
65511
65503
65508
65500
65519
65511
65519
65503
65511
65511
65508
65508
65519
65502
65500
65518
65495
65518
65511
65511
65511
65502
65511
65511
65511
65510
65509
65492
65504
65510
65527
65511
65525
65500
65496
65506
65509
65500
65508
65508
65511
65515
65511
65503
65511
65506
65511
65500
65506
65510
65509
65517
65511
65511
65516
65511
65511
65508
65510
65508
65516
65519
65504
65513
65503
65508
65504
65508
65519
65511
65516
65500
65511
65496
65511
65500
65510
65519
65511
65511
65510
65508
65506
65519
65519
65511
65510
65519
65510
65508
65511
65509
65527
65511
65507
65499
65511
65510
65511
65511
65500
65505
65503
65508
65511
65511
65511
65502
65505
65505
65506
65510
65511
65519
65510
65519
65524
65506
65519
65502
65503
65504
65519
65492
65525
65516
65501
65511
65506
65508
65519
65492
65519
65511
65504
65509
65511
65500
65510
65504
65502
65519
65511
65507
65511
65508
65509
65504
65510
65511
65506
65506
65503
65511
65500
65503
65504
65502
65511
65509
65502
65519
65511
65500
65509
65511
65503
65519
65509
65511
65500
65511
65519
65508
65511
65517
65508
65519
65511
65525
65511
65511
65511
65511
65511
65511
65518
65511
65516
65511
65509
65511
65517
65507
65508
65511
65508
65511
65504
65511
65502
65511
65502
65506
65511
65508
65511
65508
65511
65508
65511
65508
65519
65511
65509
65511
65511
65511
65498
65509
65496
65510
65504
65511
65524
65503
65508
65511
65500
65510
65519
65500
65511
65509
65511
65488
65511
65509
65508
65510
65506
65511
65511
65503
65508
65511
65504
65511
65496
65511
65511
65519
65500
65511
65510
65511
65511
65504
65527
65508
65511
65511
65515
65500
65508
65509
65511
65516
65517
65502
65511
65525
65508
65511
65510
65504
65510
65507
65511
65511
65525
65511
65511
65519
65511
65519
65496
65503
65511
65511
65500
65504
65519
65511
65510
65511
65518
65511
65503
65500
65511
65511
65508
65497
65511
65511
65511
65518
65495
65511
65511
65493
65511
65508
65492
65511
65505
65511
65508
65495
65500
65511
65511
65519
65511
65502
65511
65511
65501
65519
65519
65509
65506
65509
65509
65504
65511
65508
65511
65500
65500
65511
65519
65510
65510
65511
65511
65511
65502
65508
65508
65501
65511
65509
65508
65508
65502
65511
65511
65517
65511
65505
65511
65511
65519
65511
65506
65511
65511
65511
65509
65503
65500
65510
65499
65510
65492
65511
65500
65508
65506
65492
65511
65511
65504
65511
65516
65508
65496
65500
65527
65497
65497
65495
65500
65518
65506
65503
65454
65455
65439
65445
65431
65415
65406
65396
65380
65359
65436
65355
65346
65343
65260
65310
65287
65308
65279
65248
65196
65239
65223
65204
65399
65191
65127
65176
65215
65148
65119
65108
65118
65079
64952
65031
65179
65020
65015
64967
64972
65028
64954
64940
64903
64900
64846
64884
64863
64826
64815
64796
64775
64620
64748
64750
64743
64719
64676
64645
64652
64644
64639
64628
64559
64580
64571
64574
64551
64518
64503
64492
64743
64468
64447
64295
64412
64724
64391
64382
64359
64183
64335
64316
64252
64284
64223
64324
64253
64231
64199
64125
64117
64166
64164
64135
64144
64124
64007
63929
64060
64071
63823
64039
64007
63847
63968
63964
63894
63964
63935
63751
63914
63884
63846
63876
63839
63658
63807
63799
63791
63742
63716
63735
63615
63732
63670
63623
63655
63495
63640
63655
63452
63591
63383
63578
63543
63423
63516
63479
63348
63484
63421
63412
63420
63391
63390
63399
63351
63177
63252
63308
62628
63271
63292
63092
63229
63207
63141
63200
63055
63149
63124
63131
62934
63087
62591
63104
62980
63031
63055
62958
62511
62951
62945
62964
62911
62909
62724
62411
62876
62847
62863
62700
62119
62764
62767
62740
62719
62727
62727
62534
62639
62663
62629
62669
62464
62583
62599
62383
62516
62567
62471
62087
62464
62455
62359
62413
62407
62311
62406
62351
62406
62151
62303
62141
62255
62269
62317
62072
62207
62260
62063
62124
62207
62127
61668
62108
62071
61439
62103
61879
61173
62013
61959
62004
61908
61935
61847
61903
61741
61854
61111
61883
61826
61698
61735
61757
60869
61783
61703
61630
61647
61249
61695
61613
61597
61063
61612
61375
61503
61340
61537
61319
61447
61295
61473
61415
61279
61348
61365
61343
61167
61295
61253
61301
61249
61191
61191
61159
61228
61159
61132
61101
61164
61070
61063
60258
61092
60854
60986
60764
60990
60796
60926
60884
60962
60860
60847
60807
60887
60805
60753
60735
60804
60725
60575
60676
60654
60671
60615
59677
60669
60567
60564
60532
60068
60573
60463
60479
59567
60503
60423
60372
60361
60422
60245
60335
59527
60348
60135
60234
60068
60228
60116
60162
60005
60190
59965
60108
59204
60121
60068
60023
59999
60055
59960
59963
59431
59983
59885
59874
59847
59911
59829
59655
59783
59527
59811
59644
59703
58759
59751
59631
59623
59620
58967
59637
59541
59541
58727
59574
59481
59305
59431
59164
59487
59367
59350
59343
59199
59387
59292
59284
59242
58887
59285
59253
59175
59124
59143
58455
59175
59101
59060
59015
58980
59079
58999
58836
58945
58931
58883
58826
58951
58911
58838
58695
58804
58764
58447
58815
58740
58583
58677
58687
58631
58668
58649
58461
58579
58549
58362
58575
58500
58319
58453
58428
58159
58455
58399
58231
58343
58303
58190
58334
58287
58183
58180
58199
58177
58179
58103
58164
57959
58077
58061
57716
58077
57935
57988
57957
57940
57975
57895
57791
57855
57831
57799
57863
57804
57625
57721
57732
57692
57719
57719
57607
57631
57599
57265
57638
57524
57518
57503
57524
57532
57388
57351
57428
56879
57438
57351
57348
57311
57287
57340
57260
57236
57196
56719
57223
57159
57044
57111
57072
57113
56927
57039
57015
56511
57015
57005
56951
56796
56907
56879
56860
56540
56873
56839
56772
56759
56732
56727
56726
56742
56719
56638
56623
56611
56583
56533
56583
56583
56543
56407
56425
56431
56423
56396
55546
56270
56400
56342
56303
56030
55605
56228
56221
56199
56182
56014
56157
56163
56135
55796
56055
56044
56020
55863
55914
55943
55943
55908
55900
55889
55886
55878
55879
55815
55540
54909
55743
55714
55708
55687
55663
55652
55541
55540
55599
55610
55604
55558
55495
54992
55463
55455
55413
55399
55396
55375
55348
55303
55277
55175
55210
55142
55135
55078
55189
55191
55175
55148
55159
55151
55110
55097
55047
55044
55036
54997
55000
54965
54951
54917
54911
54900
54871
54815
54735
54652
54627
54661
54604
54583
54599
54679
54660
54640
54602
54607
54582
54559
53702
53689
54495
53867
53679
54463
53631
54404
54388
54373
54358
54332
54316
54279
54278
54271
54254
54237
54223
53364
54175
54151
54143
54126
54102
54087
54079
54039
53199
53639
53919
54021
54021
53975
53950
53926
53855
53797
53869
53831
53822
53711
53684
53765
53757
53733
53719
53678
53658
53671
53631
53623
53591
53578
53562
53554
53525
53508
53491
52967
52803
53199
53440
53468
53439
53378
53359
53389
53365
53350
53310
53279
53175
53156
53094
53173
53191
53167
53156
53126
53124
53108
53082
52256
52329
52506
52477
52663
52986
53015
52968
52950
52919
52831
52743
52836
52854
52855
52831
52807
52788
52626
52743
52783
52783
52743
52707
52671
52548
52597
52631
52615
52613
52581
52580
52548
52231
52532
52551
52532
52503
52476
52460
52423
52373
52287
52399
52391
52365
52270
52180
52160
52154
52142
52179
52252
52223
52229
52171
52116
52121
52100
52055
51994
52116
52084
52020
51935
51919
51905
51895
51876
51959
51946
51967
51889
51935
51815
51924
51925
51909
51908
51908
51891
51708
51397
51047
51231
51351
51079
51765
51719
51719
51687
51700
51668
51652
51642
51567
51511
51548
51631
51631
51583
51559
51472
50940
50719
50691
51486
50759
50855
51444
51439
51415
51418
51408
51391
51364
51353
51335
51335
51327
51310
51279
51287
50922
51042
51207
51022
51180
51079
50695
51175
51156
51157
51135
51132
51111
51116
51093
51095
51055
51060
51039
51036
51023
51005
50983
50983
50971
50962
50949
50927
50918
50127
50900
50924
50895
50871
50855
50759
50686
50671
50812
50791
50732
50651
50614
50607
50645
50591
50596
50693
50695
50669
50671
50661
50654
50561
50646
50541
50607
50589
50569
50500
50556
50587
50529
50519
50015
50407
50526
49814
50460
50439
50331
50463
50435
50119
50399
50362
50399
50239
50341
50140
50364
50239
50302
50303
50239
50311
50167
50268
50235
50234
50231
50070
50212
49517
50239
50183
50029
50150
49836
50170
50007
50111
49799
50131
49947
50068
50076
49997
50055
50045
50005
50054
49892
50007
49975
49757
49999
49810
49959
49773
49943
49788
49919
49799
49919
49796
49877
49703
49888
49694
49833
49798
49844
49748
49797
49835
49767
49791
49031
49787
49639
49732
49105
49758
49711
49701
49703
49727
49631
49658
49267
49700
49492
49633
49191
49647
49482
49599
48899
49622
49511
49567
49559
49582
49543
49463
49537
49361
49548
49527
49412
49498
48751
49469
49495
49311
49462
49443
49415
49466
49381
49397
49413
49187
49431
49397
49252
49357
48925
49359
49383
49325
49271
49333
48636
49300
49344
49303
49279
49276
49277
49244
49279
49156
49251
48551
49271
49223
49223
49213
48871
49242
49207
49061
49190
49159
49127
49204
49071
49143
48420
49159
49159
48982
49119
49110
49135
49118
48985
49087
48949
49116
49087
48991
49063
48463
49082
49042
48993
49015
48301
49047
49021
48902
48997
48600
49015
48967
48969
48951
48989
48967
48820
48951
48325
48901
48949
48926
48790
48903
48900
48572
48913
48907
48806
48757
48856
48863
48855
48844
48135
48679
48828
48863
48833
48679
48757
48796
48795
48647
48820
48811
48764
48634
48743
48751
48758
48310
48743
48775
48628
48724
48725
48713
48743
48705
48647
48693
48580
48708
48695
48628
48677
48282
48687
48647
48511
48647
48641
48629
48647
48511
48628
48598
48591
48341
48641
48586
48447
48580
48575
47855
48613
48495
48551
48548
48517
48566
48407
48535
48519
48516
48466
48532
48492
48375
48495
48487
48391
48511
48447
48454
48455
48455
48495
48385
48451
47917
48476
48438
48428
48423
48427
48417
48263
48391
48391
48391
48391
48391
48413
48283
48359
48075
48384
48222
48355
47790
48375
48346
48307
48327
48303
48342
48192
48303
48261
48327
48175
48287
48223
48319
48241
48135
48201
48263
48247
48244
48005
48260
48294
48253
48207
48097
48223
48221
48229
47516
48191
48243
48237
48175
48051
48191
48199
48191
48183
47845
48198
48190
48055
48135
48159
47551
48175
48190
48091
48135
48135
47943
48168
48135
48042
48116
48126
48110
48052
48135
48106
47979
48083
48087
48079
47518
48031
48103
48067
47966
48063
47359
47895
48087
48063
47915
48045
48036
48036
48055
48061
47908
48020
48017
48031
48023
47911
48006
47991
47975
48027
47995
47980
47983
47495
48014
47815
47966
47974
47663
47975
47972
47802
47949
47958
47890
47982
47942
47836
47943
47623
47966
47917
47916
47616
47953
47855
47808
47915
47879
47930
47743
47879
47879
47642
47927
47839
47879
47343
47917
47879
47847
47877
47670
47879
47879
47693
47849
47843
47679
47879
47718
47845
47844
47811
47855
47668
47833
47074
47854
47822
47623
47814
47797
47015
47747
47838
47815
47623
47783
47783
47751
47823
47772
47616
47772
47764
47773
47751
47687
47580
47603
47623
47717
47740
47440
47777
47751
47732
47749
47718
46933
47636
47775
47748
47691
47719
47706
47747
47557
47716
47199
47743
47535
47701
47691
47716
47703
47687
47690
47639
47743
47668
47677
47682
47522
47716
47691
47613
47679
47694
47695
47523
47646
47677
47652
47521
47687
47647
47591
47628
47439
47660
47623
47644
46875
47675
47655
47455
47615
47617
47411
47671
47636
47474
47545
47623
47108
47663
47639
47435
47605
47614
46847
47639
47601
47516
47592
47252
47623
47515
47591
46788
47615
47607
47423
47603
47049
47620
47431
47572
47569
47535
47615
47566
47567
47577
47511
47607
47575
47565
47138
47599
47463
47563
46756
47601
47396
47559
47505
47572
47500
47563
47359
47583
47389
47556
47340
47591
47551
47378
47535
47310
47583
47475
47479
47538
47023
47556
47559
47394
47438
47540
46750
47575
47559
47350
47554
47521
47527
47575
47511
47534
47140
47535
47567
47443
47535
47529
47541
47564
47442
47533
47533
47390
47568
47543
47439
47533
47533
47327
47580
47508
47516
47541
47412
47569
47540
47364
47543
47528
47551
47541
47355
47543
47534
47502
47572
47556
47423
47495
47525
46934
47556
47549
47350
47527
46687
47581
47559
47476
47462
47514
46668
47541
47553
47429
47512
47530
47540
47556
47487
47487
47535
47539
47286
47559
47469
47516
47516
47535
47555
47438
47535
47524
47130
47585
47546
47423
47527
47245
47570
47544
47347
47471
47535
47383
47582
47553
47380
47527
47537
47506
47575
47351
47543
47424
47579
47388
47527
47545
46697
47582
47359
47546
46927
47583
47367
47563
46847
47603
47569
47366
47562
47349
47615
47455
47559
46751
47623
47524
47583
46690
47623
47569
47590
47452
47604
47569
47596
47636
47610
47445
47592
47645
47615
47591
47591
47661
47618
47564
47608
47655
47444
47612
47646
47623
47608
47623
47586
47649
47623
47623
47679
47650
47431
47623
47623
46775
47701
47687
47654
47479
47654
47137
47708
47623
47647
47656
47694
47680
47503
47662
47435
47740
47691
47508
47676
47679
47468
47751
47700
47591
47708
47554
47767
47719
47507
47703
47730
47111
47727
47773
47713
47623
47751
47739
47775
47749
47723
47732
47607
47796
47759
47732
47751
47727
47791
47579
47775
47175
47827
47690
47781
47775
47843
47799
47591
47799
46913
47859
47655
47807
47223
47877
47815
47804
47807
47847
47877
47827
47831
47826
47727
47903
47865
47680
47781
47868
47903
47692
47809
47857
47879
47863
47689
47935
47871
47940
47879
47903
47879
47908
47903
47756
47530
47905
47897
47908
47911
47911
47751
47743
47814
47949
47959
47963
47956
47983
47972
47983
47999
48007
47780
47076
47967
47970
47975
47983
47911
47831
47827
47879
47943
47927
47948
47978
48007
47991
47998
47827
48042
48076
47451
48038
47879
48053
47931
47863
48039
48047
48046
47428
47783
48047
48087
48116
48127
48122
48116
48103
48061
48006
47912
47890
48028
48111
48135
48155
48167
48173
48164
48169
48148
48159
48175
47252
48132
48135
48135
48135
48135
47292
47591
48135
48204
48220
48209
48213
48228
48228
48221
48212
48204
48196
48055
48007
47996
47990
48044
48044
48076
48217
48220
48207
48224
48214
48236
48225
48249
48244
48249
48247
48250
48255
48247
47847
47916
47610
47527
47396
48284
48263
48287
48287
48299
48303
48305
48305
47605
48359
48334
48185
48303
47431
48351
48377
48342
48287
48345
47727
48415
48364
48263
48350
48359
48087
48423
48191
48380
47477
48435
48413
48327
48407
48412
48430
48391
48333
48420
48421
48014
48468
48450
48424
48438
48479
48466
48302
48441
48485
48471
48431
48463
48391
48501
48279
48479
47719
48526
48502
48471
48493
48544
48495
48503
48171
48571
48325
48519
48453
48553
48391
48530
47967
48583
48359
48548
48567
48580
48374
48556
48558
48540
48607
48537
48479
48567
48351
48642
48508
48599
47906
48647
48451
48597
48612
48644
48644
48437
48618
48633
48690
48628
48639
48642
48671
48556
48647
48679
48647
48583
48678
48735
48687
48517
48676
48698
48540
48735
48623
48694
48717
48111
48775
48743
48612
48735
48724
48225
48807
48775
48591
48740
48279
48806
48775
48625
48775
48772
48823
48656
48783
48787
48844
48743
48712
48802
48213
48869
48797
48738
48820
48812
48863
48639
48835
48863
48860
48664
48852
48871
48884
48679
48871
48711
48903
48709
48884
48631
48903
48815
48902
48966
48751
48903
48540
48958
48767
48943
48947
48967
48740
48943
48055
49010
48935
48972
48487
49007
48796
48975
48747
49031
48931
48900
48991
48933
49046
48894
49015
49069
49031
48951
49016
48884
49063
48959
49044
49046
49108
49063
48980
49063
48189
49106
49108
48899
49095
48175
49148
49124
48980
49104
48710
49159
49178
48997
49143
48295
49185
49159
48981
49135
48609
49215
49185
49014
49186
48787
49238
49197
49005
49197
48575
49255
49078
49204
48486
49268
49213
49220
49223
48990
49303
49267
49088
49231
49261
49303
49297
49247
49186
49279
49279
48646
49332
49324
49159
49300
49287
49149
49377
49287
49315
49325
49345
49366
49159
49335
49348
48732
49415
49372
49277
49375
49373
49415
49366
49370
49382
49444
49406
49255
49398
49440
49415
49415
49428
49503
49320
49433
49428
49455
49453
49407
49483
49383
49463
49517
49308
49478
49540
49500
49495
48871
49552
49351
49519
49572
49383
49536
49582
49524
49543
49019
49591
49535
49559
49159
49615
49383
49589
49615
49607
49580
48665
49652
49605
49591
49607
49644
49660
49431
49623
49631
49662
49469
49652
48774
49711
49663
49655
49665
49719
49671
49687
49663
49747
49716
49598
49703
49693
49085
49756
49735
49548
49726
49725
49615
49799
49740
49562
49749
49534
49807
49775
49580
49780
49767
49029
49855
49821
49630
49782
49383
49871
49828
49628
49807
49106
49881
49860
49828
49828
49908
49839
49838
49839
49862
49895
49830
49863
49943
49887
49895
49892
49967
49879
49903
49343
49984
49903
49909
49943
49919
50007
49782
49954
49095
50015
49777
49975
49380
50045
49863
49990
50066
50018
49999
49927
50028
50015
49188
50113
50100
50131
50092
50095
50085
50074
50095
50095
50020
49926
49908
50009
50111
50104
50097
50127
50132
49562
50167
50210
50183
50171
50159
50127
50132
50069
50007
49991
50108
50183
50207
50199
49870
50284
50276
50266
50260
50247
50244
50199
50084
50071
50103
50260
50289
50333
50346
50362
50343
50351
50343
50311
50147
50143
50222
50167
50236
50271
50215
50324
50244
50332
50367
50388
50383
50396
50386
50396
50407
50404
50415
49433
50055
50011
50348
50518
50532
50516
50478
50317
50292
50463
50495
50485
50503
49876
50436
50535
50580
50581
50558
50551
50541
50463
50407
50371
50371
50383
50439
50551
50567
50524
50511
50613
50623
50631
50620
50501
50455
50615
50630
50668
49670
50617
50752
50719
50695
50663
50593
50695
50693
50499
50791
50767
50759
50633
50565
50716
50758
50746
50495
50752
50855
50855
50839
50823
50810
50823
50806
50663
50679
50679
50651
50727
50743
50823
50871
50863
50879
50848
50887
50868
50151
50874
50959
50989
50948
50948
50943
50993
50991
50933
50946
50335
50991
51043
51022
50951
50853
51073
51055
51055
51059
51048
51041
51044
51062
51063
51068
50987
51055
51009
51079
51151
50087
51093
50940
50983
51092
51111
51130
51140
51143
51142
51165
51186
51191
51191
51207
51241
51251
51247
51271
51263
51231
51283
51279
51250
51233
51207
51055
51116
51188
51071
51137
51079
51095
51085
51095
51207
51284
51300
51303
51325
51319
50491
50934
51245
51382
51396
51431
51431
51415
51435
51447
51454
51444
51438
51430
51430
51311
51356
51275
51280
51285
51252
51269
51316
51397
51463
51478
51495
51508
51508
51501
51511
51525
51519
50543
50772
51015
51247
50843
51255
51356
51572
51653
51671
51658
51639
51630
51638
51633
51647
51639
51623
51668
51604
51492
51619
51677
51695
51684
51695
50774
51006
51325
51666
51791
51791
51815
51819
51791
51804
51819
51823
51821
51807
51820
51815
51823
51841
51855
51870
51884
51907
51908
51926
51918
51927
51926
51917
51890
51796
51921
51936
51447
52015
51957
51783
51951
51963
51159
52060
52014
51915
51999
52015
51444
51788
52103
52111
52065
52060
51911
52046
52056
52071
51277
52156
52167
52124
52084
51921
52135
52127
52135
52143
51715
52231
52255
52255
52206
52213
52199
52023
52215
52225
51663
52295
52290
52263
52066
52246
52271
51348
52343
52327
52231
52220
52300
51631
52391
52335
52180
52340
52359
51367
52420
52412
52379
52372
52380
51406
52415
52485
52500
52447
52284
52440
52455
51486
52511
52549
52503
52359
52487
52518
52519
52357
52597
52607
52573
52388
52575
52567
52588
52589
52655
52605
52565
52623
51668
52700
52671
52639
52470
52651
52671
51678
52708
52743
52711
52556
52708
52727
51995
52762
52797
52583
52759
52766
52554
52847
52807
52613
52807
52798
51815
52837
52909
52871
52679
52855
52860
52461
52951
52901
52770
52917
52894
52743
52998
52935
52871
52946
52948
53035
53026
53017
52852
52999
52996
52839
52962
53085
52996
52967
53064
53068
52657
53140
53108
52908
53082
53102
53105
53079
53218
53172
52964
53146
53160
53151
53246
53214
53169
53140
53207
53219
53149
53287
53223
53247
53249
53330
53292
53127
53288
53303
53230
53382
53301
53334
53354
52741
53323
53425
53361
53287
53393
53402
53407
52988
53498
53469
53255
53443
53450
53428
53327
53335
53415
53487
53511
53511
52640
53526
53607
53564
53511
53511
53571
53581
53639
53652
53460
53601
53608
53400
53710
53607
53663
53668
53740
53723
53510
53684
53699
52871
53767
53767
53572
53751
52871
53851
53791
53765
53796
53758
53868
53828
53810
53828
53475
53921
53880
53792
53853
53870
53255
53423
53305
53607
53942
53989
53999
53998
53968
53895
53975
53983
53537
54079
54023
53999
54020
54035
54092
53963
54062
54061
53663
54144
54119
53927
54107
54102
54183
54179
54138
53991
54129
54181
54183
53224
54261
54231
54023
54204
54228
54236
54087
54323
54243
54151
54263
54271
54383
54322
54169
54319
53308
54396
54375
54231
54365
54365
54367
54455
54398
54244
54415
54407
54373
54508
54463
54324
54440
54455
53990
54564
54532
54461
54327
54511
54510
53660
54527
53511
54575
54653
54607
54532
54589
54615
54618
54631
53863
54719
54677
54518
54671
54663
54738
54755
54716
54583
54708
54708
54831
54791
54623
54759
54759
53759
54839
54815
54725
54812
54815
54839
54924
54877
54687
54849
54887
54868
54404
54991
54911
54750
54908
54935
54204
55029
54967
54871
54879
54986
54996
55002
54023
55036
55116
55119
55084
55046
54895
55092
55079
54071
55175
55204
54964
55121
55151
55157
55239
54999
55156
55254
55189
55184
55271
55217
55213
55284
55244
55275
55132
55246
55284
55296
55386
55127
55303
55386
55292
54591
55396
55228
55356
54974
55471
55391
55366
55407
54853
55510
55342
55452
54420
55559
55471
55303
55372
55503
55505
55495
54449
55611
55612
55478
55545
55559
55095
55676
55631
55579
55592
55620
55623
55599
55733
55687
55505
55679
55751
55639
55591
55717
55719
55716
54663
55815
55846
55686
55773
54900
55815
55815
55911
55679
55263
55751
55815
55919
55735
55346
55889
55883
55893
55902
55927
55933
55911
55933
56038
55805
55964
56047
55879
55015
56030
56007
55286
56101
56037
55420
56055
56055
56181
55900
55036
56135
56105
56173
56127
56142
56231
56079
56152
56244
56118
56163
56230
56186
56079
56224
56223
56316
56094
56254
56354
56276
56279
55399
56359
56126
56292
56413
56217
56316
56423
56191
55559
56383
56361
56455
56245
55967
56413
56406
56463
56263
55687
56471
56444
56567
56303
56484
55687
56570
56493
56527
56327
56571
56407
56535
56491
56615
56473
56564
56687
56605
56607
56583
56681
56652
56479
56631
56687
56687
56661
56647
56756
56695
56699
56708
56554
56776
56629
56732
56535
56815
56634
56767
56765
56836
56628
56791
56879
56829
56791
56831
56949
56862
56743
56871
56551
56924
56734
56895
56998
56924
56935
56929
57031
56913
56956
56967
57071
57027
56818
57005
57015
57031
57055
57021
57028
57135
56895
57055
56981
57113
57025
57084
57190
57140
57119
57123
57223
57159
57159
56148
57263
57053
57191
56228
57295
57239
57055
57238
56949
57327
57135
57260
57095
57316
57117
57306
57335
57335
57319
57319
57418
57172
57351
56881
57444
57223
57372
57503
57492
57479
57494
57469
57461
57414
57297
57460
57479
57477
57503
57447
57596
57628
57595
57572
57506
57534
57539
57660
57556
57582
57005
57684
57548
57606
56575
57727
57503
57663
57693
57712
57564
57679
57781
57637
57703
57454
57796
57620
57735
57302
57804
57630
57766
57847
57783
57799
57471
57852
57815
57415
57895
57678
57847
57935
57700
57854
57991
57757
57889
58007
57735
57927
58024
57780
57935
58035
57801
57959
58049
57812
57999
58071
58007
58018
58055
58039
58047
58101
58052
58077
57170
58166
57918
58098
57375
58196
58142
58055
58126
58068
58215
58071
58166
58163
58247
58239
58146
58211
57863
58308
58196
58236
57479
58327
58204
58285
58255
58397
58223
58295
57391
58407
58175
58343
58327
58457
58348
58373
57378
58492
58375
58375
58404
58399
58468
58284
58412
58481
58468
58357
58451
57902
58567
58484
58495
57460
58399
58613
58559
58471
58540
58544
58532
58624
58580
58423
58596
58575
58695
58606
58487
58604
58610
57687
58735
58665
58485
58663
58654
58375
58759
58703
58711
58527
58723
58711
58823
58759
58748
58748
58697
58756
58063
58868
58799
58740
58791
58813
58862
58631
58814
57798
58943
58855
58844
58855
58965
58911
58717
58884
58971
58909
58919
57903
59015
58772
58924
58394
59037
58982
58950
58953
59078
58950
58988
58119
59078
58877
59014
59116
59015
59031
59024
59143
59097
58887
59071
58909
59127
59079
59087
59189
59127
59099
59119
59239
59143
59135
59132
59263
59175
59156
59163
58919
59228
59015
59205
58764
59300
59127
59221
59183
59302
59172
59262
58366
59335
59143
59278
58535
59345
59125
59306
59191
59362
59199
59324
59361
59391
59246
59356
58827
59415
59220
59380
59327
59431
59266
59399
59462
59418
59423
58535
59500
59346
59444
58455
59527
59446
59455
59572
59399
59511
59309
59540
59517
58999
59596
59399
59498
59647
59500
59543
59527
59655
59591
59548
59575
59420
59683
59579
59604
59583
59671
59655
59447
59620
58567
59716
59682
59495
59655
58718
59743
59687
59591
59676
58887
59748
59695
59686
59422
59766
59557
59719
59221
59820
59727
59723
59726
59823
59823
59756
59700
59763
59863
59799
59783
58722
59900
59710
59812
59580
59877
59703
59831
59734
59902
59823
59805
59847
59903
59895
59716
59860
59287
59950
59805
59893
59893
59957
59949
59767
59908
59895
59899
59967
59839
59934
59911
60039
59959
59965
59086
60022
59879
59963
59834
60058
59823
59991
59929
60023
60015
59999
60100
60011
59988
60015
59647
60103
59880
60044
59383
60159
60067
60036
60055
60101
60127
59924
60094
60007
60167
59973
60118
59047
60207
60006
60140
59070
60235
60199
60035
60148
60164
59364
60263
60215
60013
60197
59852
60223
60052
60191
60277
60195
60199
60196
60263
60291
60119
60146
60239
60238
60228
59686
60187
60319
60342
60343
60316
60284
60198
60135
60116
60263
60303
60292
60284
59695
59964
60316
60404
60414
60423
60391
60406
60377
60355
60223
60317
60386
60369
60343
59975
60325
60284
60443
60483
60488
60455
60415
60348
60303
60414
60423
60412
59791
60293
60495
60527
60538
60528
60487
60502
60475
60487
60486
60390
60337
60481
60470
60479
59525
60487
60569
60543
60519
60510
60340
60492
60522
60525
60514
59547
60533
60628
60583
60545
60464
60399
60540
60565
60567
60546
59628
59850
60591
60655
60657
60670
60647
60669
60679
60679
60679
60671
60679
60652
60445
60567
60678
60726
60668
60645
60487
60647
60671
60637
60255
60715
60740
60767
60625
60655
60663
60604
60679
60703
60679
60599
60520
60620
60695
60694
60711
60709
60711
60679
60708
60704
60718
60724
60735
60727
60717
60735
60039
60839
60815
60845
60719
60735
60751
60743
60737
60666
59892
60726
60849
60855
60815
60788
60759
60673
60789
60807
60807
60775
59797
60340
60862
60879
60861
60836
60815
60711
60807
60815
60807
59943
60509
60902
60892
60805
60837
60847
60829
60023
60959
60887
60863
60744
60823
60870
60862
60836
60373
60956
60967
60916
60855
60775
60887
60893
60886
59911
60956
60959
60923
60916
60903
60743
60785
60900
60927
60908
60663
61020
60935
60852
60908
60935
60929
60918
59909
59988
60786
61025
61047
61021
61045
61060
60935
60167
60828
61036
61053
61063
61056
61039
61029
60999
61001
61004
60983
60861
60826
60981
60999
60996
60998
60981
61015
61012
61018
60999
61011
61005
61004
60999
60999
60348
61090
61131
61093
61092
61063
61039
61061
61028
61135
61063
60246
61055
61045
60927
61063
61142
61140
60348
61063
61013
61092
61158
61103
61060
61084
61063
61077
61126
61079
60981
60974
60975
60932
60959
60984
61095
61076
61058
61060
61022
60935
61080
61103
61116
61100
60871
61191
61215
61160
61159
61136
61127
60975
61127
61138
61146
61143
61167
61156
61153
61148
61159
61143
61148
61137
60373
61116
61247
61183
61137
61152
61231
61111
61176
61159
61247
61142
61159
60167
61263
61150
61191
60962
61231
61031
61174
61147
61199
61183
61178
61255
61191
61223
61231
61223
61191
60295
61269
61052
61204
61287
61220
61224
61191
61284
61115
61206
60656
61287
61231
61087
61148
61223
61311
61237
61242
61132
61262
61103
61239
61308
61252
61237
61223
61319
61063
61240
60551
61351
61242
61117
61238
61231
61316
61259
61254
61226
61327
61175
61255
60884
61311
61118
61263
61348
61260
61271
61244
61319
61279
61263
61255
61364
61183
61271
61301
61300
61262
61269
61356
61313
61121
61280
61260
61358
61293
61122
61279
61271
60997
61379
61319
61108
61287
61268
61348
61317
61214
61287
61316
61312
61236
61282
61349
61309
61285
61287
61378
61144
61279
61359
61184
61289
61279
61310
61157
61303
60569
61364
61146
61300
61375
61303
61301
60599
61404
61166
61295
61279
61390
61282
61311
60583
61399
61318
61292
60935
61380
61183
61316
61155
61327
61287
60967
61319
61319
60885
61319
61287
60487
61361
61186
61292
61386
61319
61301
60878
61319
61311
60495
61324
61295
61303
61388
61303
61303
61287
61407
61294
61319
61274
61357
61183
61287
61396
61148
61287
61302
61335
61271
61292
61397
61287
61319
60831
61311
61308
60783
61319
61295
60410
61343
61148
61293
61351
61287
61295
61364
61269
61270
61396
61159
60359
61303
61288
61060
61269
61277
61366
61231
61276
61375
61111
61258
61340
61180
61255
61319
61276
61023
61300
61256
61245
61356
61260
61260
61028
61287
61254
61228
61351
61253
61262
61060
61257
61247
60255
61316
61108
61228
61311
61140
61220
61294
61163
61246
60521
61276
61175
61191
61300
61111
61215
61274
61215
61191
61252
61191
61191
60306
61255
61148
61173
61276
61031
61191
60095
61239
61119
60583
61223
61007
61159
61245
61188
60988
61142
60279
60749
61119
61220
61122
61116
61086
61215
61095
61103
61127
60038
61208
61127
61015
61086
60479
61188
60910
61083
60972
61140
60935
61061
61092
61119
60900
61052
61026
61135
61076
61013
61044
60125
61114
60858
61029
61030
61073
60988
61011
60983
61052
60879
60980
61071
61031
60829
60989
60625
61039
60799
60959
60665
61012
60855
60950
60935
61046
60783
60935
60899
61031
60917
60930
60268
60999
60927
60862
60898
60975
60903
60886
60327
60935
60719
60852
60053
60964
60703
60839
60807
60897
60759
60839
60895
60839
60753
60806
60887
60814
60807
59951
60863
60623
60783
60828
60805
60652
60775
59949
60807
60671
60740
60818
60746
60727
59738
60783
60647
60695
60678
60775
60583
60679
59767
60751
60580
60678
60666
60678
60566
60639
60724
60581
60623
60655
60631
60590
60583
60671
60581
60591
60550
60630
60514
60549
60643
60470
60532
60615
60527
60519
60487
60503
60505
60197
60543
60484
60415
60463
60532
60463
60455
60083
60492
60390
60423
60423
60453
60295
60405
60464
60257
60391
60377
60463
60372
60327
60351
60423
60348
60254
60335
60413
60324
60295
59300
60369
60199
60276
59971
60295
60250
60224
60341
60175
60228
60143
60244
60223
60182
60263
60022
60167
60021
60183
60151
59399
60167
59972
60127
60014
60167
59966
60083
60126
60127
59932
60071
60095
60056
60060
60012
60119
60025
59991
60015
59797
60029
59908
59972
59588
60020
59911
59951
59911
59908
59980
59767
59911
58967
59970
59893
59702
59863
59253
59911
59762
59823
59108
59872
59714
59815
59783
59793
59835
59711
59750
59724
59806
59615
59719
59399
59749
59655
59669
59748
59683
59652
59655
59719
59590
59615
58631
59687
59453
59583
59644
59559
59552
59431
59583
59455
59511
59592
59399
59493
59447
59485
59471
58799
59487
59399
59431
59503
59423
59399
59252
59399
59367
59367
59431
59251
59335
58990
59399
59380
59310
59204
59271
59271
59271
59231
59319
59247
59207
59079
59111
59215
59174
58213
59108
59256
59183
59076
59108
59125
58407
59167
59142
59036
58911
59015
59069
59060
59039
58650
59084
59095
59084
59040
59014
58811
58858
58954
58943
58919
58919
57959
58375
58631
58855
58871
58918
58932
58913
58874
58839
58819
58773
58648
58735
58791
58780
58758
57751
58542
58789
58791
58727
58700
58567
58676
58660
58631
58126
58318
58519
58567
58671
58670
58663
58663
58631
58615
58598
58568
58543
58532
58525
58431
58350
58340
58375
58452
58439
58436
58412
57935
58277
58455
58463
58436
58375
58349
58298
58191
58223
58305
58310
58287
58292
58265
58271
58237
58214
57447
58285
58127
58187
58216
58208
58035
58148
57325
58183
58020
58105
58119
58111
58057
58059
58143
57894
58028
58103
58029
58007
57889
58004
57831
57950
57991
57968
57847
57927
57151
57980
57887
57863
57853
57922
57845
57644
57823
57767
57823
57623
57767
57636
57823
57733
57723
57159
57767
57652
57667
57733
57537
57641
56911
57710
57620
57607
57597
57631
57567
57567
56583
57598
57351
57511
57439
57541
57415
57468
57441
57110
57487
57270
57419
57383
57423
57401
57351
57308
57276
57236
57175
57257
57260
57281
57263
57268
57223
57103
57084
57060
57046
57095
57166
57169
57150
57091
57044
56959
57060
57060
57063
57055
57039
57015
56935
56925
56859
56839
56889
56839
56871
56766
56807
56839
56896
56887
56866
56839
56839
56834
56806
56807
56783
56781
55829
56279
55879
56291
56711
56779
56765
56737
56685
56684
56476
56553
56551
56591
56599
56572
56570
56542
56543
56511
56375
56572
56551
56548
56519
56487
56455
56444
56407
56375
56247
56231
56263
56327
56319
56319
56294
56271
55956
56298
56311
56295
56284
56103
56180
56167
56167
55292
55870
56205
56154
56055
56071
56070
55557
56115
56057
56013
55853
55983
55975
55021
55967
56007
55948
55895
55894
55863
55687
55724
55815
55815
54863
55863
55799
55750
55717
55734
55720
55692
55231
55732
55695
55545
55629
55612
54652
55459
55633
55575
55390
55518
55500
55082
55534
55468
55291
55431
55421
55430
55448
55364
55324
55350
55094
55367
55175
55270
55268
55175
55287
55134
55140
55180
54767
55199
55196
55101
55103
55079
55092
55109
55010
54941
55023
55003
54967
54927
55015
54935
54838
54858
54879
54863
54933
54879
54731
54743
54791
54783
54733
54791
54750
54717
54591
54647
54652
54630
54260
54663
54631
54575
54463
54407
54535
54511
54489
54517
54534
54486
54447
54419
54250
54399
54350
54343
53710
54307
54369
54319
54277
54095
54242
54213
54199
54215
54083
54127
54139
53389
54132
54124
54084
53909
54023
54023
53983
54015
53991
53807
53943
53919
53680
53948
53851
53815
53829
52998
53767
53855
53757
53615
53725
53694
53502
53715
53559
53655
52999
53669
53619
53575
53554
53466
53407
53503
53479
53457
53436
53420
52860
53255
53423
53431
53383
53367
53349
53316
53271
53144
53095
53201
53205
53191
53167
53140
52651
53098
53126
53125
53055
52927
53023
53013
52975
52967
52136
52534
52903
52919
52935
52910
52839
52687
52663
52778
52788
52743
52741
51994
52519
52288
52387
52653
52628
52487
52615
52615
52599
52588
52547
52520
52549
52527
52485
52127
51567
51647
51819
52167
52359
52388
52359
52332
52305
52287
52262
52216
52125
52051
52057
52124
52124
52103
52082
52054
52055
52020
52004
51492
51847
51898
51966
51957
51927
51879
51910
51892
51879
51846
51835
51819
51670
51719
51711
51687
51631
51529
51647
51655
51591
51557
51559
51430
51543
51559
51031
51455
51489
51406
51435
51389
51237
51413
51343
51335
50465
51135
51300
50426
51207
51207
50412
51185
51169
51171
51156
51119
51092
51047
51039
51029
51028
51014
50997
50975
50951
50942
50903
50895
50867
50853
50845
50814
50791
50791
50759
50720
50726
50687
50649
50628
50613
50509
50421
50511
50525
50487
50499
50448
50439
50421
50400
50391
50365
50351
50318
50309
50287
50271
50247
50225
50204
50177
49807
50079
50165
50151
50119
50087
50053
50039
50021
49957
49869
49799
49791
49886
49876
49887
49842
49831
49821
49799
49775
49765
49727
49685
49733
49663
49663
49639
48849
49247
49348
49367
49485
49335
49333
49263
49423
49436
49415
49447
49405
49372
49367
49287
49158
49143
49207
49255
49223
49205
49181
49159
49140
49109
49103
48391
48815
49046
49067
49052
49015
48903
48807
48903
48891
48879
48862
48519
48829
48835
48821
48799
48767
48727
48725
48678
48588
48495
48540
48577
48612
48583
48575
48567
48530
48517
48511
48471
48460
48447
48391
48335
48316
48189
47956
47775
48263
48249
48239
48215
48199
47809
47559
47455
48100
48090
48079
48054
48039
48007
47993
47971
47447
47583
47794
47620
47246
47171
47199
47805
47799
47079
47175
47180
47087
47700
47656
47655
47581
47476
47479
47463
47495
47517
47426
47335
47366
47314
47335
47346
47303
47271
47231
47189
47167
47143
47159
47159
47233
47210
47193
47175
47159
47129
47111
47084
47078
46567
46788
46964
46981
47005
46976
46960
46933
46919
46890
46855
46841
46821
46805
46672
46599
46590
46639
46698
46668
46647
46639
46620
46576
46583
46207
46519
46519
46495
46470
46447
46423
46420
46399
46367
46343
46327
46316
45661
45734
45620
46238
45679
45924
45991
46164
46148
46112
46116
46087
46078
46047
46045
45959
45846
45940
45926
45911
45881
45877
45857
45799
45831
45823
45815
45732
45598
45575
45586
45658
45663
45647
45627
44982
45061
45004
45223
45422
45492
45514
45492
45472
45359
45285
45261
45236
45261
45319
45319
45295
44895
45189
45249
45244
45218
45191
45053
45030
45119
45110
45101
45078
44527
44575
44985
44974
44983
44984
44963
44943
44913
44903
44727
44807
44829
44807
44787
44775
44750
44351
44575
44663
44700
44679
44655
44628
44604
44551
44551
44545
44535
44510
44514
44449
44359
44312
44285
44276
44263
44223
44230
44185
44188
44285
44270
44263
44239
44207
43625
43655
44167
44148
43591
43695
44058
44079
44079
44059
44038
44021
43983
43989
43974
43935
43878
43764
43801
43766
43814
43820
43807
43797
43757
43748
43735
43580
43711
43679
43111
43391
43478
43593
43588
43599
43582
43563
43428
43380
43388
43426
43471
43445
43439
43419
43400
43391
43367
43149
43270
43319
43323
43302
43289
43219
42830
43228
43190
43182
43172
43151
43140
43121
43111
43079
43066
43052
42503
43015
42927
42981
42828
42969
42887
42924
42887
42874
42884
42724
42842
42733
42834
42745
42773
42759
42695
42739
42630
42691
42439
42658
42667
42573
42604
42314
42595
42479
42556
42533
42519
42516
42399
42475
42459
42349
42447
42399
42397
42383
42292
42375
42340
42319
42301
42129
42295
42190
42247
42243
42223
42216
42135
42174
42153
42089
42119
41943
42111
41958
42071
41564
42053
41977
42023
41999
41923
41991
41924
41946
41919
41908
41916
41875
41871
41447
41855
41843
41679
41802
41797
41661
41775
41751
41629
41716
41695
41479
41691
41668
41509
41607
41111
41619
41540
41569
41571
41564
41564
41404
41514
41505
41479
41479
41329
41439
41431
41077
41415
41412
41303
41375
40924
41338
41343
41232
41303
41161
41298
41174
41235
41245
41143
41223
41127
41189
41175
41033
41159
41029
41109
41111
40999
41091
41067
41058
41040
41020
41039
40903
40983
40935
40965
40821
40936
40927
40903
40925
40762
40875
40439
40868
40799
40815
40814
40645
40807
40687
40765
40476
40759
40735
40596
40695
40242
40654
40684
40532
40647
40627
40421
40575
40596
40597
40444
40551
40549
40495
40527
40514
40514
40495
40484
40450
40444
40438
40439
40415
40399
40364
40251
40244
40231
40303
40263
40183
40164
40172
40158
40133
40161
40194
40181
40199
40191
40183
40150
39903
39878
40030
40015
40012
40083
40047
40071
40053
40059
40037
39942
39889
39887
39902
39942
39943
39943
39916
39911
39501
39476
39492
39575
39556
39708
39648
39551
39671
39623
39581
39340
39343
39599
39636
39655
39661
39649
39614
39620
39592
39559
39551
39457
39407
39217
39165
39159
39141
39117
39519
39263
39415
39444
39287
39284
39354
39334
39319
39399
39407
39407
39383
39388
39355
39335
39351
39323
39269
39239
39284
39285
39270
39253
39243
39204
39196
39074
39065
39135
39038
39037
39047
39088
39105
39095
39079
39068
39067
39061
38990
38962
38888
38886
38868
38903
38852
38845
38842
38903
38919
38897
38884
38861
38829
38820
38841
38836
38821
38693
38685
38679
38694
38645
38628
38626
38655
38627
38626
38599
38575
38556
38522
38523
38519
38548
38583
38557
38567
38551
38543
38517
38508
38150
38229
38387
38443
38471
38456
38455
38430
38351
38319
38375
38355
38364
38342
38341
37947
38023
38242
38290
38279
38278
38262
38261
38240
38236
38215
38198
38187
38117
38052
38063
38050
38039
38007
37981
38052
38069
38057
38031
38031
38023
38019
37997
37990
37963
37966
37943
37591
37725
37855
37855
37842
37863
37871
37844
37833
37817
37821
37814
37799
37780
37761
37746
37751
37745
37735
37741
37719
37695
37692
37679
37671
37655
37639
37627
37601
37582
37559
37557
37535
37539
37511
37449
37485
37447
37461
37453
37457
37428
37413
37423
37423
37404
37381
37367
37350
37327
37311
37295
37291
37271
37222
37207
37180
37141
37127
37121
37140
37079
37014
37031
36834
36855
37126
37116
37116
37084
37085
37065
37055
37044
37050
37016
37020
37011
36991
36972
36974
36947
36950
36919
36927
36871
36836
36818
36823
36827
36863
36847
36838
36814
36807
36786
36767
36743
36699
36556
36404
36714
36692
36655
36609
36591
36615
36642
36643
36634
36614
36591
36575
36556
36532
36531
36523
36527
36519
36463
36433
36487
36460
36455
36383
36359
36359
36388
36372
36359
36185
36271
36303
36311
36316
36246
36266
36271
36131
36225
36221
36227
36215
36221
36189
36129
36151
36137
36062
36099
36087
36103
36047
36054
36039
35869
35962
36023
36025
35924
35975
35967
35719
35847
35921
35925
35837
35885
35860
35847
35847
35847
35780
35807
35796
35612
35741
35774
35755
35713
35719
35447
35629
35685
35695
35612
35642
35631
35335
35598
35613
35556
35575
35271
35526
35542
35463
35501
35487
35361
35463
35474
35427
35439
35407
35293
35374
35393
35309
35359
35327
35237
35309
35295
35254
35274
35109
35231
35261
35215
35205
35135
35199
35179
35156
35147
34895
35111
35135
35075
35079
35059
35057
35047
35025
34972
35018
34983
34982
34821
34951
34911
34943
34897
34805
34894
34872
34847
34797
34850
34811
34791
34590
34782
34733
34759
34730
34518
34709
34695
34692
34476
34652
34663
34631
34619
34602
34389
34535
34572
34504
34541
34519
34346
34481
34507
34439
34455
34215
34411
34431
34387
34375
34269
34363
34327
34324
34327
34055
34255
34287
34230
34247
33981
34129
34186
34207
34151
34171
34143
34105
34129
34102
34097
34071
33868
34007
34079
34004
34017
33991
33983
33968
33927
33975
33903
33927
33781
33899
33835
33863
33857
33839
33639
33697
33763
33795
33735
33757
33733
33511
33646
33706
33671
33671
33667
33515
33646
33599
33598
33415
33385
33475
33566
33543
33516
33508
33453
33503
33445
33462
33287
33399
33443
33388
33396
33375
33247
33287
33345
33335
33301
33307
33282
33068
33151
33199
33225
33242
33187
33190
33183
33116
33157
33159
33118
33119
32981
33095
33097
33060
33055
32971
33023
33018
32999
32990
32967
32877
32943
32958
32927
32903
32807
32900
32865
32862
32766
32825
32831
32809
32799
32597
32743
32763
32733
32735
32538
32685
32701
32679
32679
32486
32612
32643
32615
32605
32453
32559
32583
32551
32533
32390
32487
32502
32478
32470
32439
32428
32454
32421
32413
32388
32316
32375
32391
32347
32351
32326
32156
32263
32302
32300
32263
32258
32245
32117
32199
32229
32183
32179
32018
32132
32152
32127
32118
32101
32037
32087
32069
32061
32045
31931
31996
32037
31988
31980
31968
31866
31924
31943
31903
31911
31897
31788
31861
31879
31845
31837
31669
31764
31807
31783
31783
31751
31636
31679
31727
31709
31703
31615
31663
31682
31650
31647
31635
31620
31548
31589
31607
31570
31559
31537
31479
31525
31511
31495
31477
31450
31478
31459
31423
31323
31391
31423
31383
31363
31359
31236
31327
31343
31327
31301
31302
31275
31213
31267
31267
31229
31215
31207
31149
31196
31163
31159
31036
31111
31150
31119
31106
31079
31031
31073
31050
31047
31029
31018
31011
30997
30922
30964
30966
30966
30950
30924
30902
30907
30886
30885
30795
30821
30855
30829
30829
30803
30806
30748
30769
30759
30766
30743
30725
30723
30704
30710
30691
30662
30622
30647
30647
30629
30613
30548
30597
30593
30567
30531
30551
30535
30484
30522
30507
30486
30463
30491
30467
30439
30424
30437
30419
30270
30407
30388
30371
30311
30340
30355
30333
30311
30285
30311
30295
30276
30269
30247
30199
30239
30235
30213
30204
30175
30149
30169
30150
30135
30065
30119
30127
30103
30086
30015
30066
30068
30045
30036
30020
29988
30005
30002
29985
29959
29909
29948
29940
29914
29910
29870
29892
29897
29879
29855
29853
29838
29823
29811
29805
29799
29775
29743
29764
29767
29748
29735
29712
29726
29703
29687
29671
29631
29654
29654
29639
29622
29623
29541
29611
29585
29572
29527
29565
29558
29540
29529
29515
29514
29491
29483
29460
29472
29465
29435
29350
29431
29415
29403
29385
29378
29377
29359
29351
29337
29322
29330
29319
29308
29293
29290
29281
29260
29239
29228
29235
29219
29205
29207
29191
29185
29172
29162
29158
29143
29118
29111
29116
29114
29085
29078
29062
29059
29071
29047
29036
29027
29012
28990
28967
28988
28978
28967
28943
28977
28943
28915
28902
28803
28903
28878
28870
28885
28860
28850
28827
28829
28803
28795
28821
28789
28788
28757
28755
28793
28743
28729
28701
28735
28703
28679
28725
28677
28669
28639
28671
28644
28619
28612
28593
28631
28586
28577
28564
28607
28557
28529
28521
28511
28549
28501
28492
28477
28466
28517
28468
28441
28441
28415
28485
28438
28399
28384
28372
28358
28397
28389
28339
28325
28316
28302
28362
28311
28290
28271
28268
28244
28293
28246
28228
28220
28202
28191
28236
28181
28175
28159
28141
28228
28149
28125
28118
28098
28167
28103
28080
28070
28047
28070
28042
28031
28021
28050
28003
27988
27989
27962
28002
27951
27947
27932
27840
27944
27919
27908
27888
27947
27873
27861
27839
27943
27860
27815
27810
27802
27828
27790
27790
27770
27756
27810
27748
27719
27722
27711
27702
27810
27724
27683
27671
27673
27662
27666
27655
27665
27679
27605
27599
27591
27572
27559
27678
27583
27540
27524
27540
27503
27506
27547
27491
27488
27479
27460
27438
27580
27473
27436
27403
27411
27383
27382
27454
27379
27356
27357
27333
27319
27471
27334
27301
27301
27270
27422
27283
27251
27255
27226
27313
27231
27203
27204
27180
27295
27183
27156
27155
27129
27112
27207
27125
27095
27085
27071
27215
27077
27047
27047
27023
27111
27012
27001
27012
26988
26964
27087
26959
26932
26951
26919
26903
26991
26896
26902
26866
26964
26868
26857
26824
27024
26853
26805
26812
26781
26951
26789
26765
26761
26755
26734
26733
26900
26723
26698
26700
26694
26667
26647
26845
26694
26631
26625
26631
26614
26589
26576
26807
26645
26567
26555
26565
26535
26516
26748
26567
26502
26493
26499
26487
26449
26433
26566
26442
26420
26436
26406
26385
26505
26391
26364
26372
26341
26324
26450
26322
26314
26303
26279
26524
26320
26268
26269
26238
26225
26371
26231
26209
26214
26185
26170
26311
26176
26155
26163
26119
26389
26143
26109
26105
26092
26092
26093
26068
26087
26219
26071
26022
26036
26006
25992
26068
25979
25984
25973
25944
26245
25956
25927
25923
25900
26027
25887
25895
25862
26135
25870
25876
25839
25820
25925
25822
25830
25792
25767
25883
25774
25758
25772
25746
25725
25700
25806
25713
25714
25675
25869
25671
25657
25649
25628
25742
25629
25607
25621
25590
25646
25759
25607
25559
25550
25529
25756
25543
25523
25529
25503
25470
25638
25495
25473
25470
25453
25425
25421
25628
25440
25401
25414
25402
25361
25468
25372
25347
25351
25351
25311
25532
25354
25297
25311
25295
25255
25238
25639
25359
25255
25225
25245
25205
25556
25226
25186
25174
25197
25159
25141
25261
25138
25153
25113
25095
25287
25105
25082
25095
25062
25043
25325
25101
25030
25044
25030
24995
24981
25118
24977
24966
24983
24943
24926
25003
24927
24923
24935
24898
24881
24875
25073
24886
24864
24871
24850
24823
25052
24825
24818
24807
24788
25082
24789
24779
24768
24743
25133
24769
24734
24751
24711
24678
24958
24710
24681
24709
24647
24642
24670
24639
24661
24602
24991
24634
24600
24603
24563
24801
24565
24564
24570
24525
24615
24537
24543
24494
24736
24492
24519
24473
24455
24499
24461
24459
24421
24511
24426
24447
24415
24389
24687
24434
24397
24378
24412
24366
24333
24695
24383
24327
24343
24294
24759
24403
24300
24282
24311
24279
24241
24364
24253
24268
24212
24479
24237
24210
24228
24191
24177
24239
24182
24172
24185
24189
24157
24126
24113
24103
24635
24187
24108
24107
24119
24079
24644
24092
24071
24071
24043
24665
24071
24047
24069
24039
23991
24348
24029
23999
24019
23970
23950
24351
23972
23954
23978
23948
23913
24436
23971
23926
23956
23926
23886
24299
23935
23879
23910
23855
24293
23912
23857
23879
23852
23811
24487
23885
23821
23801
23797
23813
23831
23827
23797
23774
23739
23751
24025
23755
23748
23780
23724
23711
24116
23776
23715
23713
23733
23714
23684
23662
24278
23764
23668
23655
23695
23657
23622
24194
23783
23658
23631
23623
23663
23602
23572
23676
23598
23629
23578
23559
23657
23559
23558
23583
23538
23533
23855
23570
23535
23540
23529
23492
23559
23503
23529
23510
23471
24196
23591
23473
23487
23499
23457
23445
23575
23447
23444
23476
23447
23419
23404
24108
23626
23462
23408
23457
23429
23379
23380
23609
23428
23386
23415
23383
23349
23341
23589
23351
23348
23387
23361
23313
23323
23647
23329
23346
23337
23303
24033
23419
23324
23303
23335
23284
23267
23819
23419
23269
23272
23303
23255
23242
23237
23979
23403
23250
23242
23282
23242
23212
23894
23271
23215
23215
23239
23191
23599
23208
23231
23191
23180
23238
23175
23181
23191
23158
23905
23181
23174
23206
23146
23514
23147
23175
23119
23239
23143
23114
23283
23125
23155
23117
23191
23119
23134
23090
23348
23111
23143
23114
23079
23303
23099
23135
23071
23206
23085
23093
23497
23103
23087
23058
23413
23071
23083
23071
23037
23215
23059
23100
23040
23442
23066
23037
23067
23027
23324
23028
23077
22996
23047
23053
23015
23009
23045
23017
22993
23019
23047
22981
23006
23016
23557
22992
22976
23046
23028
22969
23133
22989
22964
22999
23011
23447
22980
22971
22988
22990
23574
22975
22971
23141
23005
22947
22988
22989
22948
23132
22951
22957
22935
22953
22975
22940
22951
22991
22936
22919
22949
22930
22965
22919
23047
22931
22951
22901
23108
22925
22958
22919
22877
23355
23030
22916
22909
22951
22929
22895
22888
22879
23058
22945
22901
22890
22919
22895
22872
22971
22887
22887
22892
22927
22887
22872
22925
22886
22925
22876
22850
23092
22858
22863
23159
22873
22902
22870
22849
23554
22950
22869
22871
22867
22908
22897
22876
22880
22846
22853
22845
22838
22850
23516
23380
22956
22868
22865
22871
22902
22881
22854
22842
22845
23047
22911
22865
22871
22890
22859
22841
22958
22864
22869
22896
22861
22844
22945
22858
22862
22871
22858
23180
22863
22866
22871
22855
23269
22873
22872
22881
22853
23013
22870
22906
22887
22868
22854
23047
22880
22884
22911
22902
22879
22854
23055
22909
22892
22919
22900
22871
23483
23023
22894
22922
22911
22871
23203
22905
22942
22895
22879
22977
22906
22932
22903
22884
23243
23004
22919
22911
22923
22900
22895
23470
22980
22931
22927
22956
22948
22917
22919
22970
22933
22963
22920
22915
23096
22943
22971
22932
22919
22966
22989
22945
23221
22951
22997
22947
23475
22967
23013
22951
23012
23002
22974
23106
22984
23014
22967
23261
22983
23022
22988
23053
23001
23002
23491
23175
23010
23039
23009
23485
23057
23023
23047
23007
23231
23036
23053
23031
23022
23090
23047
23075
23065
23038
23350
23092
23056
23098
23058
23494
23105
23085
23099
23075
23418
23135
23092
23097
23127
23094
23092
23087
23282
23116
23117
23143
23133
23114
23244
23139
23155
23118
23269
23143
23175
23143
23143
23329
23153
23191
23166
23167
23421
23196
23180
23196
23177
23169
23267
23202
23190
23217
23206
23187
23383
23215
23236
23235
23199
23335
23229
23236
23257
23227
23377
23257
23261
23267
23242
23482
23270
23271
23295
23270
23271
23268
23389
23309
23303
23327
23317
23299
23289
23435
23341
23337
23318
23343
23331
23336
23388
23354
23351
23364
23359
23349
23490
23399
23367
23380
23399
23382
23375
23600
23442
23413
23412
23420
23421
23442
23443
23431
23447
23445
23442
23459
23446
23451
23583
23473
23473
23484
23464
23583
23498
23498
23510
23497
23482
23597
23526
23533
23522
23510
23621
23545
23550
23559
23567
23553
23654
23582
23585
23571
23615
23594
23591
23598
23696
23599
23619
23615
23607
23695
23626
23646
23644
23643
23749
23673
23663
23659
23787
23695
23684
23698
23679
23811
23743
23713
23729
23702
23714
23771
23737
23750
23739
23747
23846
23811
23783
23770
23781
23775
23766
23819
23805
23812
23900
23822
23823
23820
23835
23845
23905
23859
23860
23917
23870
23871
23914
23893
23899
23893
23930
23906
23925
23921
23932
23930
23943
23950
23953
23963
23965
23970
23979
23978
23980
23995
24005
24017
24018
24022
24029
24038
24030
24038
24053
24067
24066
24063
24071
24071
24084
24087
24085
24110
24111
24119
24113
24127
24130
24142
24140
24148
24151
24158
24175
24172
24188
24186
24190
24201
24214
24222
24229
24228
24247
24245
24244
24263
24263
24275
24277
24293
24293
24303
24304
24313
24263
24293
24300
24307
24319
24327
24310
24337
24363
24378
24391
24398
24404
24425
24439
24450
24455
24455
24449
24451
24471
24474
24477
24473
24463
24469
24472
24475
24475
24454
24425
24556
24566
24566
24575
24582
24583
24602
24613
24615
24626
24625
24636
24647
24657
24551
24623
24618
24612
24607
24583
24578
24573
24734
24743
24747
24607
24594
24772
24775
24791
24614
24630
24728
24785
24798
24812
24821
24845
24855
24874
24881
24894
24897
24894
24903
24905
24900
24919
24903
24876
24848
24878
24796
24985
24820
25015
25021
24900
25045
25052
25052
25059
25080
25073
25091
25131
25099
25087
25055
25021
24975
24947
24980
24980
25028
25024
24991
25223
25236
25235
25260
25246
25255
25282
25303
25303
25284
25239
25148
25349
25341
25356
25372
25383
25387
25399
25402
25413
25449
25455
25455
25442
25442
25463
25453
25449
25469
25430
25423
25364
25399
25439
25445
25455
25519
25537
25507
25491
25463
25406
25655
25656
25675
25676
25689
25694
25712
25455
25472
25552
25579
25548
25582
25518
25793
25804
25821
25793
25804
25825
25823
25837
25842
25846
25866
25879
25899
25927
25931
25942
25668
25703
25690
25784
25849
25908
25991
26047
26070
26078
26103
26076
26067
26063
26084
26112
26138
26145
26154
26169
26168
25927
25935
25966
25914
26047
26111
26117
26150
26169
26218
26269
26302
26340
26364
26362
26340
26335
26345
26355
26396
26411
26455
26447
26462
26204
26259
26347
26483
26535
26543
26559
26572
26573
26589
26575
26598
26625
26644
26660
26666
26631
26626
26657
26682
26674
26679
26759
26773
26775
26785
26791
26756
26787
26820
26829
26847
26867
26861
26884
26895
26903
26911
26944
26940
26958
26975
26988
26983
27006
27023
27030
27043
27063
27073
26745
26819
26806
26877
27055
27123
27143
27180
27210
27215
27201
27169
27182
27213
27213
27225
27257
27287
27313
27325
27355
27363
27363
27377
27391
27411
27093
27439
27450
27459
27471
27493
27157
27165
27151
27212
27311
27389
27480
27500
27508
27526
27591
27655
27679
27630
27626
27624
27655
27699
27748
27749
27767
27778
27795
27815
27825
27823
27843
27859
27877
27879
27907
27908
27933
27917
27912
27885
27911
27926
27970
28027
28030
28055
27806
27940
28015
28067
28124
28134
28063
28103
28161
28195
28202
27895
28127
28213
28271
28290
28234
28212
28233
28346
28319
28279
28275
28289
28311
28396
28418
28414
28052
28246
28308
28391
28477
28476
28519
28539
28565
28582
28604
28535
28518
28540
28623
28641
28463
28679
28660
28692
28644
28743
28652
28763
28450
28775
28698
28805
28418
28790
28881
28834
28875
28851
28932
28877
28925
28702
28924
28994
28974
29002
28901
29045
28998
29046
28725
29030
29120
29061
29116
28855
29122
29183
29140
29188
28816
29168
29254
29227
29241
29167
29295
29267
29311
29172
29348
29245
29365
29099
29386
29303
29429
29423
29327
29471
29380
29487
29247
29501
29530
29495
29548
29229
29543
29615
29515
29626
29343
29613
29690
29602
29689
29406
29687
29759
29735
29759
29594
29763
29823
29709
29827
29630
29839
29890
29805
29869
29923
29924
29783
29831
29942
30001
29929
29998
30037
30030
29675
29956
30087
30022
30117
30135
29959
30149
30174
30198
30135
30086
30228
30233
30183
30282
30159
30283
30299
30175
30318
30374
30327
30373
30214
30397
30428
30348
30446
30042
30415
30515
30391
30511
30101
30464
30551
30598
30559
30610
30499
30632
30505
30662
30567
30711
30656
30726
30554
30758
30732
30775
30789
30759
30845
30810
30855
30691
30879
30861
30884
30918
30702
30938
30903
30958
30983
30935
31034
30895
31057
30878
31081
30969
31105
30981
31135
31078
31169
30796
31173
31213
31223
30802
31226
31295
31281
30872
31324
31210
31340
31227
31375
31271
31403
31151
31420
31479
31429
31474
31355
31415
31349
31434
31495
31554
31532
31487
31611
31171
31559
31654
31694
31647
31699
31462
31662
31751
31749
31751
31783
31675
31813
31847
31749
31855
31860
31447
31679
31860
31641
31975
31521
31847
31919
31998
32007
32036
32057
32071
31956
32082
31897
32111
32131
32039
32172
32034
32196
32175
32255
32172
32249
31917
32247
32327
32168
32323
32338
32259
32383
32287
32395
32421
32253
32462
32315
32479
32253
32514
32445
32551
32167
32551
32473
32591
32367
32628
32500
32650
32655
32589
32699
32577
32755
32759
32373
32775
32710
32795
32532
32837
32719
32866
32796
32911
32868
32911
32803
32943
32993
32941
32986
32856
33045
32966
33055
33055
33119
33031
33105
33026
33159
33012
33190
32775
33157
33236
33087
33251
32939
33273
33309
33202
33318
33101
33350
33389
33223
33380
33413
33349
33466
33358
33479
33405
33529
33448
33525
33468
33591
33543
33588
33581
33654
33479
33654
33671
33597
33706
33727
33599
33748
33742
33714
33799
33737
33702
33822
33838
33738
33871
33903
33781
33849
33924
33487
33905
33988
34003
33863
33999
34023
33991
34063
34031
34054
34084
33827
34115
34109
34143
33700
34159
34205
34051
34221
34226
34214
34279
34183
34247
34295
34063
34325
34364
34217
34353
34383
34349
34420
34270
34437
34103
34448
34505
34404
34497
34359
34548
34567
34471
34581
34373
34619
34567
34628
34291
34678
34543
34681
34669
34727
34706
34740
34716
34791
34782
34624
34846
34661
34845
34692
34893
34751
34895
34906
34859
34951
34801
34964
34503
34995
34956
34983
35039
34932
35070
35093
35002
35111
35036
35140
35149
35055
35174
35044
35207
35059
35204
35012
35265
35132
35271
35030
35308
35149
35321
34870
35352
35388
35399
35281
35408
35295
35439
35308
35459
34999
35475
35529
35333
35519
35175
35548
35591
35581
35103
35608
35640
35631
35191
35667
35671
35575
35701
35717
35682
35758
35583
35766
35335
35791
35819
35642
35830
35604
35847
35881
35738
35887
35543
35931
35954
35845
35959
35756
36006
35882
36023
36034
35663
36053
36079
35943
36094
36086
36135
35958
36122
36138
36167
36197
36127
36215
35783
36231
36263
36095
36262
36127
36313
36317
36153
36331
36039
35847
35934
36056
36162
36165
36279
36260
36338
36095
36463
36482
36469
36414
36319
36428
36471
36390
36431
36591
36604
36615
36614
36639
36639
36667
36673
36695
36548
36532
36572
36687
36711
36735
36775
36787
36799
36807
36805
36831
36837
36843
36840
36823
36799
36526
36514
36895
36494
36423
36935
36615
36959
36954
36989
36982
36999
36999
37023
37029
37048
37058
37066
37071
37082
37095
37111
37075
36935
36988
37006
37023
37103
37191
37201
37210
37229
37225
37239
37253
37250
37207
37055
36788
37289
37303
37308
37079
36831
36839
37007
37023
37255
37190
37327
37407
37407
37438
37434
37437
37447
37441
37470
37477
37487
37497
37518
37527
37535
37479
37100
37564
37562
37575
37572
37585
37554
37508
37551
37588
37563
37539
37647
37671
37667
37691
37694
37692
37711
37718
37713
37737
37740
37748
37324
37438
37639
37711
37531
37278
37303
37823
37311
37535
37749
37725
37807
37843
37865
37845
37815
37729
37791
37895
37937
37934
37951
37959
37911
37833
37860
37921
37917
37983
38018
38023
38023
38052
38059
38071
38065
38075
38079
37984
37951
37988
37940
37968
37927
37935
37956
37946
37980
37997
38078
38127
38167
38138
38082
38023
38214
38218
38228
38223
38231
38253
38247
38203
38039
37754
37767
37824
38276
38287
38279
38299
38239
38132
38269
38345
38355
38351
38362
38362
38364
38370
38391
38351
38205
38213
38221
38247
38245
38274
38271
38287
38311
38335
38428
38439
38438
38455
38452
38452
38464
38484
38477
38495
38507
38508
38506
38295
38470
38503
38546
38555
38559
38557
38569
38447
38396
38559
38581
38575
38589
38589
38592
38598
38327
38609
38619
38602
38173
38533
38595
38640
38653
38659
38663
38683
38682
38588
38587
38636
38535
38509
38507
38502
38562
38628
38719
38719
38718
38727
38732
38735
38739
38737
38724
38734
38743
38759
38765
38759
38759
38616
38589
38598
38598
38601
38614
38687
38791
38743
38706
38695
38639
38615
38647
38663
38651
38815
38820
38813
38803
38796
38786
38771
38759
38791
38804
38829
38844
38839
38854
38839
38853
38858
38860
38850
38855
38854
38863
38855
38867
38881
38870
38882
38863
38874
38831
38629
38695
38543
38535
38559
38503
38636
38701
38828
38806
38813
38806
38783
38799
38796
38832
38887
38893
38876
38855
38863
38782
38575
38420
38887
38893
38891
38887
38892
38895
38899
38900
38898
38903
38891
38897
38886
38899
38767
38914
38871
38898
38900
38850
38724
38916
38919
38910
38908
38797
38859
38891
38900
38917
38909
38775
38719
38783
38895
38887
38890
38815
38903
38884
38692
38895
38824
38732
38735
38719
38710
38737
38727
38727
38711
38815
