EGG
48
48
47
49
48
47
48
48
49
47
49
48
50
48
48
49
49
47
47
49
48
49
47
47
49
49
48
48
48
48
48
49
48
49
48
47
49
48
48
47
50
49
48
48
48
48
47
49
48
48
47
49
48
48
50
48
47
48
48
48
47
48
49
47
48
49
49
48
48
47
48
47
48
49
47
48
48
49
48
48
49
48
48
48
48
47
48
47
48
48
47
48
48
49
49
48
48
48
48
48
48
49
48
48
48
48
48
49
47
49
47
49
49
50
48
48
47
48
49
47
47
48
48
47
49
48
47
49
47
48
48
48
48
49
49
48
48
49
48
48
48
48
49
47
48
47
49
48
48
50
49
48
48
48
48
47
47
48
49
48
49
49
48
49
48
47
49
49
48
49
48
47
48
50
47
48
47
49
49
48
48
48
49
49
48
48
48
49
48
48
48
49
46
48
48
49
48
49
47
47
48
48
47
49
49
48
48
49
48
49
48
48
47
47
47
49
48
48
47
49
48
50
49
48
48
48
49
49
47
48
47
48
48
48
47
49
48
48
47
48
48
49
48
49
48
48
49
48
47
49
49
48
48
48
48
48
47
47
49
47
48
47
47
48
48
49
48
49
47
47
48
49
48
48
47
48
49
49
47
48
48
48
48
48
48
47
48
49
49
49
48
49
48
48
48
48
48
48
48
48
48
48
48
48
49
48
47
49
49
49
49
47
48
46
49
48
49
49
47
48
47
47
50
48
48
47
48
48
48
48
47
47
49
48
48
49
48
48
48
49
48
47
48
48
48
50
47
48
48
49
49
47
50
48
49
47
49
47
48
49
48
48
48
48
48
48
47
48
49
49
48
47
49
48
48
47
49
49
49
48
49
48
48
48
49
47
49
48
48
49
48
48
49
49
49
47
49
48
48
49
47
48
48
48
48
49
48
48
49
48
47
48
48
48
48
48
49
48
48
47
48
50
48
48
48
49
48
49
48
48
47
47
49
49
49
48
48
48
49
49
48
48
48
49
49
49
48
49
47
47
47
49
48
48
47
47
48
48
47
48
48
48
48
47
48
49
49
49
48
48
48
48
49
49
47
48
49
49
48
48
48
48
48
48
49
48
49
48
48
47
47
50
48
48
47
47
49
49
48
48
48
50
47
47
49
48
47
48
47
48
49
47
48
48
49
48
48
49
47
47
49
49
51
79
75
87
94
95
98
106
110
114
122
128
134
132
140
146
152
157
165
169
175
158
182
190
194
199
206
214
220
224
228
154
233
241
245
255
260
267
274
279
190
280
290
294
310
313
318
323
320
330
340
344
351
360
332
361
366
374
382
388
417
417
412
416
427
425
436
441
368
442
453
463
465
490
498
488
495
501
518
518
530
429
534
543
548
581
566
575
527
580
598
605
633
625
622
628
564
623
647
655
684
671
676
623
693
701
735
713
719
730
732
731
747
746
788
773
772
776
789
799
774
799
820
829
857
848
843
852
742
872
874
901
890
901
901
912
931
934
955
943
953
955
967
917
986
992
1003
1035
1003
1015
1040
1044
1050
1064
1060
1068
1075
1104
1092
1102
1113
1139
1135
1132
1125
1139
1146
1202
1174
1186
1188
1232
1220
1206
1216
1219
1325
1281
1259
1273
1277
1279
1287
1293
1304
1315
1358
1341
1317
1329
1343
1352
1507
1486
1406
1395
1407
1417
1442
1436
1431
1427
1463
1464
1466
1503
1498
1485
1485
1509
1560
1522
1537
1550
1570
1601
1566
1568
1569
1582
1808
1902
1656
1635
1636
1651
1695
1661
1649
1666
1900
1703
1709
1748
1722
1706
1730
2112
1839
1757
1778
1782
1814
1789
1802
2036
1872
1827
1841
1847
1870
1901
1909
1879
1893
1885
1914
1912
2143
2051
1948
1949
1974
1986
2023
2028
2032
2022
2035
2018
2024
2044
2329
2075
2076
2085
2112
2124
2123
2130
2140
2140
2171
2145
2156
2162
2177
2485
2214
2210
2212
2217
2243
2265
2290
2265
2259
2278
2776
2316
2301
2362
2679
2323
2330
2361
2398
2382
2368
2391
2864
2400
2413
2451
2450
2452
2444
2442
2884
2472
2503
2513
2496
2614
2524
2543
2560
2553
2571
2627
2572
2575
2620
2642
2633
2626
2634
2869
2649
2655
2665
2672
2689
2682
2707
2710
2725
2762
2772
2756
2774
2760
2766
2780
2948
2814
2810
2807
2827
2885
2866
2865
2874
2865
2921
3505
2899
2905
2922
2931
3183
3320
3069
2983
2971
2981
2995
3013
3029
3071
3058
3052
3045
3064
3064
3716
3535
3196
3127
3109
3138
3148
3156
3175
3196
3223
3233
3238
3235
3215
3221
3237
3346
3244
3268
3301
3288
3286
3298
3508
3338
3339
3365
3399
3374
3376
3379
3399
3529
3908
3984
3436
3437
3451
3483
3509
3491
3502
3496
3521
4092
3526
3543
3589
3578
3569
3580
3748
3606
3610
3621
3651
3678
3684
3670
3676
3865
3700
3718
3710
3753
3783
3763
3749
4022
3781
3789
3838
3825
3811
3831
3911
3865
3860
3907
3907
3889
4062
3907
3926
3985
3957
3967
3959
4017
4406
4009
4005
4015
4047
4058
4081
4101
4122
4111
4120
4132
4131
4128
4130
4212
4643
4170
4181
4232
4224
4234
4230
4221
4241
4323
4897
4295
4289
4302
4301
4335
4364
4394
4366
4371
4375
4386
4532
4421
4423
4431
4449
4499
4513
4495
4502
4503
4516
4555
4715
4884
5037
5178
4582
4596
4594
4626
4634
4664
4680
4671
4669
4702
4843
5276
4732
4721
4745
4742
4773
4790
4810
4845
4831
4843
4840
4852
4847
4851
4876
4891
4908
4993
5034
5450
4962
4974
4972
5005
5027
5038
5035
5042
5049
5063
5065
5076
5077
5093
5105
5149
5177
5177
5168
5218
5278
5300
5829
5218
5228
5230
5255
5287
5290
5296
5526
5310
5324
5348
5379
5400
5420
5421
5439
5444
5463
5470
5465
5470
5473
5478
5496
5509
5500
5575
5774
5749
5978
5741
5590
5592
5603
5606
5639
5669
5695
5683
5688
5682
5726
5877
5734
5738
5745
5778
5806
5819
5846
5828
5828
5829
5887
5943
6138
6270
5895
5905
5926
5949
5985
5956
6232
5997
5994
6110
6018
6042
6054
6055
6637
6077
6103
6149
6129
6122
6134
6300
6174
6170
6188
6236
6245
6241
6242
6245
6253
6271
6276
6342
6614
6332
6330
6349
6363
6378
6433
6410
6408
6415
6457
6667
6993
6468
6470
6509
6543
6563
6561
6562
6572
6582
6593
6608
6622
6636
6631
6648
6656
6674
6743
6827
6858
7038
6738
6756
6762
6777
6791
6834
6807
6995
6839
6836
6860
6864
6885
6922
6924
6945
6967
6985
6984
6985
6993
6982
7005
7033
7075
7158
7404
7473
7083
7090
7109
7126
7154
7163
7163
7173
7182
7215
7263
7400
7232
7246
7257
7270
7310
7345
7326
7337
7341
7354
7355
7375
7371
7396
7407
7436
7467
7431
7463
7465
7473
7528
7609
7871
8055
8013
7556
7562
7586
7597
7607
7617
7631
7667
7710
7685
7665
7691
7699
7812
7995
8282
7756
7773
7788
7786
7805
7813
7863
7873
7887
7909
7888
7897
7898
7905
7922
7959
8057
8466
7975
7975
8009
8042
8038
8044
8056
8275
8083
8089
8141
8128
8127
8161
8335
8690
8179
8201
8215
8236
8260
8277
8269
8277
8268
8291
8297
8307
8441
8867
8348
8358
8378
8369
8404
8411
8429
8451
8471
8490
8486
8497
8502
8517
8520
8530
8546
8582
8642
8644
8829
8608
8611
8623
8644
8670
8704
8700
8692
8709
8977
8721
8729
8740
8786
8792
8816
8837
8826
8826
8839
8823
8886
8979
9375
8884
8901
8908
8909
8950
8952
8978
9001
9005
9030
9039
9051
9039
9036
9041
9069
9187
9502
9533
9411
9620
9134
9135
9148
9185
9220
9198
9210
9212
9254
9428
9714
9254
9262
9276
9301
9337
9356
9340
9349
9343
9441
9367
9385
9404
9428
9419
9418
9546
9779
9466
9470
9491
9493
9509
9518
9550
9565
9580
9598
9583
9598
9604
9610
9629
9631
9631
9647
9663
9657
9686
9693
9735
9737
9771
9847
10039
9894
9765
9778
9800
9833
9850
9854
9874
9887
9865
9869
9861
9892
10008
10395
9913
9918
9941
9957
9990
10011
9994
9998
10009
10022
10514
10039
10086
10095
10097
10107
10129
10100
10114
10109
10128
10134
10154
10158
10191
10342
10186
10190
10215
10249
10232
10249
10250
10278
10346
10455
10746
10307
10295
10320
10319
10332
10349
10375
10395
10412
10413
10410
10413
10407
10433
10543
10871
10451
10451
10463
10481
10484
10503
10502
10530
10546
10560
10564
10591
10583
10590
10583
10591
10607
10764
10616
10631
10627
10643
10662
10676
10710
10710
10707
10707
10718
10768
11147
10732
10733
10748
10779
10803
10816
10796
10788
10827
11047
11266
10831
10837
10858
10854
10876
10898
10909
10914
10927
10918
10923
10917
10933
10934
10935
10975
11231
11439
10969
10982
10983
10998
11000
11019
11020
11021
11031
11055
11084
11076
11077
11081
11095
11090
11101
11093
11119
11114
11133
11152
11183
11272
11265
11357
11173
11167
11179
11198
11215
11229
11214
11213
11216
11251
11379
11246
11234
11263
11288
11287
11281
11280
11277
11307
11322
11301
11335
11353
11346
11347
11335
11333
11375
11352
11353
11395
11376
11383
11369
11393
11392
11527
11590
11553
11587
11826
11416
11428
11428
11424
11462
11489
11482
11478
11471
11472
11482
11577
11943
11497
11487
11519
11518
11555
11551
11567
11564
11564
11572
11578
11585
11573
11583
11576
11597
11590
11590
11596
11584
11594
11594
11604
11601
11607
11617
11622
11622
11627
11630
11635
11641
11643
11652
11658
11666
11673
11698
11791
11943
12107
11681
11677
11691
11687
11692
11700
11719
11747
11749
11745
11748
11750
11749
11750
11730
11732
11802
11742
11741
11742
11748
11777
11793
11800
11784
11788
11767
11782
11791
11795
11887
12132
11788
11777
11787
11791
11799
11811
11817
11825
11843
11850
11844
11861
11860
11842
11848
11838
11837
11833
11825
11838
11837
11837
11850
11859
11853
11861
11865
11860
11868
11877
11869
11872
11860
11865
11863
11865
11867
11879
11947
12008
12069
12036
12026
12079
12129
12295
12226
11883
11879
11871
11887
11899
11918
11918
11928
11913
11903
11894
11893
11893
11892
11897
11887
11891
11911
11983
12087
12170
12263
11877
11897
11878
11913
11913
11911
11908
11917
11924
11922
11911
11900
11886
11879
11880
11956
12005
12174
12330
11883
11875
11878
11879
11872
11875
11878
11866
11877
11876
11864
11870
11852
11870
11876
11864
11859
11861
11862
11856
11851
11857
11854
11875
11879
11857
11861
11830
11839
11939
11838
11828
11823
11820
11845
11846
11833
11830
11851
11826
11830
11797
11807
11797
11813
11802
11820
11970
11782
11785
11783
11779
11771
11776
11794
11804
11771
11762
11865
11838
11941
11998
12038
11742
11742
11725
11729
11722
11739
11750
11727
11718
11714
11707
11690
11692
11713
11731
12033
11670
11663
11661
11651
11654
11637
11660
11663
11665
11652
11655
11636
11663
11622
11609
11596
11598
11719
11575
11585
11590
11602
11586
11571
11563
11539
11536
11522
11554
11621
11580
11565
11598
11688
11730
11739
11873
11460
11458
11693
11578
11541
11452
11439
11425
11450
11482
11567
11665
11660
11685
11836
11376
11357
11353
11334
11342
11320
11324
11332
11337
11309
11290
11423
11493
11438
11505
11716
11259
11238
11231
11222
11211
11239
11228
11234
11216
11180
11158
11150
11146
11134
11122
11110
11111
11109
11093
11115
11134
11079
11066
11049
11028
11020
11046
11099
11182
10981
10979
10969
10952
10955
10956
10972
10931
10917
10909
10897
10897
10908
10883
10873
10854
10835
10825
10806
10807
10789
10790
10791
10783
10776
10730
10720
10705
10694
10686
10674
10655
10652
10632
10639
10631
10632
10623
10607
10583
10596
10564
10575
10542
10531
10524
10519
10497
10479
10485
10470
10422
10405
10454
10391
10388
10385
10333
10639
10319
10330
10321
10276
10262
10259
10251
10241
10232
10226
10186
10644
10188
10147
10161
10144
10108
10088
10170
10066
10066
10076
10021
10012
10015
9995
9984
9947
10426
9919
9918
9916
9875
10042
9847
9876
9816
9813
9845
9771
9799
9745
9726
9791
9705
9723
9671
10002
9642
9634
9639
9590
9847
9574
9540
9558
9509
9485
9486
9476
9455
9461
9405
9556
9421
9365
9382
9327
9302
9281
9576
9271
9238
9250
9207
9188
9357
9140
9141
9150
9094
9606
9049
9081
9023
9015
8988
8993
8988
8934
9064
8908
8933
8871
8846
9005
8805
8815
8768
8748
8753
8736
8696
8795
8652
8656
8642
8591
9029
8558
8562
8545
8495
9008
8478
8452
8441
8427
8408
8360
8351
8866
8351
8295
8283
8262
8267
8207
8187
8491
8136
8132
8148
8093
8613
8042
8043
8026
7982
8251
7941
7919
7920
7908
7862
7826
7892
7796
7815
7771
7729
8190
7733
7658
7654
7678
7621
7572
7571
7987
7638
7499
7478
7476
7469
7407
7397
7364
7888
7349
7298
7295
7295
7242
7216
7186
7163
7321
7113
7101
7093
7069
7018
7013
7151
6958
6936
6925
6920
6868
6837
7028
6791
6783
6785
6716
6696
6792
6645
6649
6624
6579
6946
6537
6515
6523
6454
6665
6404
6405
6373
6332
6327
6309
6259
6239
6209
6195
6202
6132
6685
6085
6079
6065
6007
6342
5961
5950
5951
5896
5870
5857
5823
5810
5759
5746
5718
5694
5655
5638
5603
5618
5549
5528
5489
5483
5517
5423
5419
5379
5350
5351
5288
5278
5245
5207
5222
5160
5157
5098
5624
5037
5028
4994
5175
4941
4938
4914
4866
4901
4805
4801
4744
4760
4711
4680
4636
4628
4567
4575
4567
4514
4468
4513
4409
4435
4362
4324
4315
4294
4267
4210
4624
4147
4148
4132
4072
4052
4050
3992
3976
3974
3895
3882
3850
3839
3801
3752
3727
3711
3700
3655
3617
3621
3559
4070
3493
3521
3436
3492
3389
3411
3325
3307
3268
3266
3249
3187
3185
3139
3106
3073
3046
3028
3024
2947
3356
2901
2904
2843
3375
2778
2808
2723
3231
2679
2679
2608
2722
2569
2537
2495
2466
2453
2423
2384
2345
2346
2293
2265
2262
2218
2172
2325
2110
2128
2058
2031
2047
1968
1953
1915
1879
1894
1831
1828
1753
1740
1722
1682
1658
1616
1581
1766
1530
1505
1477
1427
1540
1379
1361
1355
1291
1252
1284
1196
1205
1136
1137
1077
1052
1006
973
952
923
912
852
776
804
805
730
655
676
641
623
581
484
514
490
463
297
398
396
352
272
292
275
239
215
187
159
136
102
73
51
49
49
49
48
48
49
48
47
48
47
47
47
48
48
48
48
49
48
49
48
50
48
48
47
48
48
49
47
48
48
49
48
49
48
49
48
48
48
48
48
49
47
50
49
47
48
48
47
49
49
49
49
48
48
49
47
48
47
49
48
48
48
48
48
48
47
47
47
48
48
49
48
49
47
47
48
48
47
48
48
48
47
48
48
48
48
49
47
48
49
48
49
49
49
48
48
48
47
48
47
48
47
49
47
48
47
47
48
48
48
48
47
48
46
49
49
49
48
48
47
48
49
49
48
48
49
48
48
48
47
49
49
49
48
48
49
49
48
47
47
49
48
48
49
49
47
49
48
48
49
49
47
48
47
48
48
48
48
48
50
48
48
47
47
48
49
48
47
47
49
48
48
48
48
48
49
49
48
48
48
48
48
48
48
48
49
49
48
48
48
49
48
47
49
49
48
49
49
49
48
49
48
49
48
48
48
48
48
48
48
48
49
48
48
47
49
48
49
48
48
48
47
47
49
48
48
48
49
49
48
46
48
48
48
48
48
48
49
48
47
49
48
47
48
48
47
48
48
48
48
49
47
48
49
49
49
49
48
47
49
47
48
48
48
49
48
48
48
48
47
48
48
49
49
49
48
47
47
48
48
48
47
49
48
49
48
47
47
48
48
48
49
48
48
49
48
50
48
47
48
48
47
49
49
50
48
48
48
48
49
48
49
48
48
48
48
48
47
49
48
48
47
49
47
47
48
50
49
47
49
48
48
48
49
49
48
49
47
49
47
47
47
47
47
49
49
47
48
48
48
48
47
48
48
48
49
48
47
47
48
48
48
47
48
48
49
48
48
47
49
48
48
48
47
48
48
48
48
48
48
48
48
48
49
47
48
48
49
48
47
48
48
48
48
47
47
47
48
48
48
48
47
47
48
48
47
49
48
48
48
47
48
48
47
48
48
48
49
47
49
48
47
47
47
47
48
49
48
47
48
49
47
47
47
47
48
49
48
48
47
47
49
48
47
49
49
48
47
49
48
49
48
49
47
49
47
47
48
48
49
47
47
48
47
47
48
48
49
47
47
49
49
48
48
48
49
49
48
48
47
47
48
47
47
49
48
49
48
47
49
49
47
48
48
47
48
47
49
49
48
49
48
48
48
49
48
47
48
48
48
48
47
48
48
48
48
49
50
48
48
48
47
47
48
49
49
48
47
48
47
49
49
46
48
47
48
47
48
47
47
48
49
48
48
48
49
49
49
48
49
47
48
47
48
48
48
48
49
49
48
48
47
48
48
48
48
49
49
49
47
49
48
48
48
48
48
49
49
48
48
48
49
48
49
48
48
48
48
50
48
48
48
47
48
48
48
50
48
48
47
49
47
48
48
49
49
48
48
47
49
49
47
47
49
48
49
49
48
48
48
49
48
47
48
48
48
48
48
49
49
48
48
47
47
48
47
48
47
49
47
49
48
48
48
47
49
47
48
48
48
47
48
48
48
49
48
48
48
48
49
48
48
48
48
47
48
47
48
49
48
48
48
47
48
48
48
48
47
48
49
49
49
49
48
48
49
47
49
48
47
48
47
48
48
48
48
47
48
49
47
48
48
47
48
48
47
48
49
48
48
48
49
47
48
47
47
48
48
47
47
47
48
47
48
48
48
48
47
49
49
49
47
47
48
48
49
47
48
48
47
48
48
48
48
47
48
48
47
47
48
48
49
49
47
48
47
48
48
49
49
48
48
48
47
48
48
49
47
48
48
49
47
48
49
48
49
48
48
49
50
49
48
50
49
48
47
47
48
47
48
48
48
47
48
49
48
49
50
47
47
48
49
49
48
48
48
48
49
49
47
46
47
48
48
48
48
49
47
48
49
49
49
48
48
47
47
48
47
49
47
49
48
47
48
48
49
50
47
47
47
49
48
48
49
49
48
48
49
48
49
48
48
47
47
49
47
47
48
48
48
48
47
47
49
48
48
49
49
47
48
48
48
47
49
47
49
47
48
49
48
49
47
48
48
46
48
48
49
48
48
48
48
48
48
48
48
48
49
49
47
50
48
48
49
49
48
48
49
48
49
47
47
49
48
49
49
47
47
49
47
47
48
48
48
47
48
48
48
48
48
47
48
47
48
49
47
49
48
49
48
48
48
48
48
48
49
48
48
48
49
47
48
48
48
50
49
47
49
48
49
47
47
49
49
48
48
48
47
48
49
48
48
49
48
48
47
48
47
47
49
48
47
48
48
48
47
47
49
48
50
48
48
48
47
49
47
46
48
49
48
49
48
49
48
48
47
48
48
49
49
49
49
48
48
49
48
48
48
49
48
48
48
48
48
48
49
47
49
48
48
47
47
48
47
49
48
48
48
48
48
47
49
48
48
48
47
47
48
47
47
48
49
49
48
48
48
48
47
48
49
49
48
48
49
49
48
47
48
48
48
48
48
49
49
49
48
48
48
48
49
48
47
49
47
49
48
48
49
48
49
47
48
47
49
48
48
48
48
48
48
47
50
48
48
48
48
48
48
49
49
48
49
47
48
49
48
47
48
48
47
47
47
48
46
48
49
48
48
48
47
48
48
49
47
49
48
49
48
47
49
48
48
48
48
47
49
47
49
48
48
47
50
48
48
48
47
48
49
49
49
47
48
48
47
48
49
48
48
48
48
47
49
49
47
48
48
48
48
48
47
48
48
48
48
48
47
49
48
48
48
47
47
48
48
48
49
49
48
49
48
48
49
49
48
47
49
48
49
48
49
49
48
49
48
48
49
49
46
49
46
48
49
48
49
49
49
49
48
49
48
48
47
47
49
47
48
48
48
49
47
49
49
48
48
48
48
49
49
48
48
49
48
49
48
48
48
47
48
49
48
47
48
47
48
47
47
48
48
48
49
47
47
49
48
49
48
49
47
48
48
49
47
48
47
48
48
49
48
48
48
48
49
48
48
48
48
49
48
48
48
47
49
48
48
47
48
48
47
47
47
49
47
48
48
49
48
48
48
48
48
48
48
49
48
49
49
48
48
48
48
48
49
48
48
49
47
48
47
48
47
48
48
46
48
48
48
48
48
48
48
48
47
49
47
47
47
48
48
49
49
47
48
48
49
49
48
48
47
48
49
48
47
48
48
49
48
48
48
49
48
48
48
49
48
47
48
48
49
49
48
47
49
48
46
48
47
49
49
49
48
48
48
49
48
47
48
47
48
48
48
48
47
48
47
48
48
48
47
47
48
48
48
47
47
48
47
48
48
48
48
48
47
47
48
48
48
47
48
47
48
49
47
48
48
47
46
47
48
49
48
48
47
48
48
49
48
48
49
48
49
48
47
49
48
48
48
49
48
47
47
47
48
47
49
48
49
47
47
50
49
49
48
47
49
47
48
47
48
49
49
48
47
48
49
48
47
47
48
49
48
49
48
49
48
48
48
48
48
48
48
48
48
47
48
48
49
48
47
49
49
48
47
49
48
47
48
48
47
49
47
47
48
48
49
49
48
48
47
47
47
47
48
48
48
47
49
48
48
46
49
49
48
48
49
49
48
47
48
48
49
47
49
48
49
46
47
48
48
47
48
49
48
49
48
47
47
48
48
48
48
48
47
48
49
47
49
47
48
47
48
49
48
48
48
49
47
47
48
48
48
49
47
48
49
48
48
49
48
48
48
49
48
49
48
48
49
48
49
48
49
47
48
48
49
48
48
49
49
47
47
47
48
47
48
47
47
48
49
48
47
48
48
49
48
49
49
48
49
49
47
48
48
48
48
47
48
47
48
49
49
48
48
48
48
47
48
49
50
48
48
48
47
48
49
47
48
48
47
49
48
47
50
49
49
48
48
49
50
48
48
48
48
48
48
49
48
49
47
48
48
49
47
48
49
48
50
50
48
49
48
48
49
48
49
48
47
48
49
49
49
47
48
49
47
46
48
49
49
48
48
48
48
48
47
48
48
48
49
48
49
47
48
47
48
47
48
48
48
49
48
48
48
48
47
49
49
48
47
48
49
48
47
47
47
48
48
48
47
48
48
48
47
49
47
46
49
49
48
47
49
48
48
48
48
48
48
47
48
49
48
47
49
49
48
48
48
49
48
48
48
47
48
47
47
48
47
48
48
49
48
48
47
48
48
47
48
48
49
48
48
47
49
47
49
48
48
49
49
48
48
47
46
47
49
48
48
48
48
48
48
49
49
48
48
48
49
48
47
48
48
49
48
48
48
49
49
48
48
48
49
48
48
48
47
48
48
47
48
48
49
47
47
47
48
48
49
48
48
49
48
47
47
49
48
48
47
49
49
49
49
49
48
48
48
50
47
49
49
48
48
48
47
47
49
48
48
47
48
49
47
49
49
47
48
47
49
48
49
48
49
49
49
48
48
47
48
48
48
47
48
47
48
48
48
48
49
48
49
47
49
48
46
48
48
49
47
47
49
49
47
47
48
47
47
47
48
47
48
49
48
48
48
48
48
48
48
49
49
48
48
48
48
48
47
48
48
47
49
49
48
49
47
48
48
49
47
47
49
48
47
48
49
48
49
49
48
48
47
48
48
49
48
49
47
48
49
47
48
47
48
47
49
48
49
48
47
49
49
48
48
47
48
48
48
48
48
48
48
48
49
47
48
48
48
48
48
48
48
47
47
48
48
48
49
49
48
48
48
49
48
48
48
48
47
49
48
47
48
48
47
47
47
48
48
48
47
48
49
48
47
47
48
48
48
49
47
48
48
48
47
48
48
49
48
49
47
48
47
47
49
48
50
48
47
47
49
48
47
49
47
49
48
48
48
48
48
48
47
48
49
49
48
47
48
47
48
48
49
49
47
47
47
48
49
48
48
48
48
48
48
49
48
48
47
47
47
48
48
48
47
49
48
48
48
49
48
47
47
48
47
49
46
48
49
48
49
50
48
48
49
48
49
49
47
48
49
48
49
49
48
48
48
48
49
46
47
48
47
48
48
47
49
49
48
47
48
48
49
48
49
48
47
47
48
48
49
48
47
47
49
47
48
48
47
48
49
48
49
47
48
49
49
48
47
48
48
48
47
48
47
49
49
49
47
48
47
47
49
48
49
47
47
48
48
49
49
47
48
48
48
47
47
48
48
47
48
49
48
48
48
48
49
49
48
47
49
47
49
50
47
48
48
48
49
48
47
49
48
47
48
47
47
48
49
48
48
48
47
49
49
49
48
47
48
48
48
48
49
48
48
49
49
47
49
48
48
48
47
47
49
48
49
48
49
49
48
47
48
48
49
48
48
47
49
48
47
47
48
48
48
48
47
47
47
47
48
47
47
47
49
48
49
48
48
48
49
47
48
48
48
48
49
49
47
49
48
47
48
47
50
49
48
49
49
47
48
48
49
48
48
48
47
48
48
49
49
47
49
47
50
48
50
47
48
48
47
49
47
48
48
47
48
48
49
47
48
49
48
49
48
49
47
47
48
48
48
47
49
48
48
48
47
49
48
49
49
48
48
48
48
46
47
48
48
49
48
47
47
48
49
48
47
47
48
48
49
47
47
48
47
48
49
48
48
50
47
47
48
48
47
47
49
48
47
48
47
48
49
48
48
48
48
48
48
49
48
48
48
48
47
48
47
48
48
47
47
48
47
49
48
48
47
48
48
48
49
47
48
48
48
47
47
48
48
48
49
47
48
48
48
48
48
48
47
48
47
50
49
48
48
48
48
49
47
47
47
48
48
48
48
47
48
48
49
49
47
48
48
48
48
47
48
48
47
48
47
48
47
49
48
48
48
47
49
48
48
48
48
48
48
47
47
49
48
47
48
47
48
48
49
49
49
47
48
48
47
49
49
48
50
48
48
48
49
48
48
47
49
49
48
48
47
48
47
47
49
48
49
49
48
49
48
49
47
48
48
49
48
48
47
49
47
49
47
49
47
48
48
47
48
47
49
48
49
49
48
47
49
49
48
48
48
48
48
48
47
47
48
48
48
48
47
48
48
47
48
49
48
48
47
48
48
47
48
47
47
48
49
48
49
48
48
49
49
48
48
48
49
50
48
49
48
47
47
48
49
48
49
49
47
47
49
47
47
48
47
47
47
47
47
48
49
49
48
48
48
47
49
47
48
49
48
47
48
48
47
48
47
48
49
47
48
48
47
48
49
47
47
48
48
49
48
47
48
48
48
48
47
49
48
49
48
50
49
48
47
49
48
47
49
48
48
48
48
48
49
48
49
49
48
49
47
49
48
47
49
48
47
49
48
48
48
48
48
47
49
48
48
47
48
49
49
49
48
47
48
48
49
47
47
48
48
47
48
48
48
48
48
48
48
48
48
48
47
49
48
50
48
49
48
48
49
47
47
48
48
47
49
47
48
48
49
47
48
48
48
49
49
48
49
47
48
49
48
48
49
48
49
48
49
48
49
48
48
47
49
46
48
48
47
48
49
49
48
48
49
48
47
48
48
47
48
49
48
48
48
48
48
49
49
49
48
47
49
48
47
48
48
47
48
48
47
48
48
48
48
48
48
49
47
48
48
49
48
49
49
48
47
48
48
48
47
48
49
46
48
49
48
49
47
47
48
48
47
48
47
47
48
48
47
50
48
49
48
47
48
48
48
48
48
48
48
48
48
48
46
48
49
49
49
48
49
48
48
48
49
48
48
47
48
48
47
48
47
49
48
48
48
47
48
49
48
49
47
48
48
49
47
48
48
48
47
47
48
48
49
48
49
49
49
48
47
47
47
48
47
48
49
49
49
48
49
48
48
49
47
49
48
48
47
48
49
49
48
48
47
48
49
48
47
47
48
47
47
48
48
49
47
49
49
48
47
48
48
48
47
49
47
48
48
47
47
48
49
47
47
48
48
49
48
49
49
48
48
48
48
48
47
48
48
48
47
48
48
50
48
47
49
48
47
49
49
48
48
48
48
48
48
47
49
49
47
48
48
48
48
48
48
47
48
48
48
47
49
49
48
47
48
48
48
47
49
47
49
49
48
48
48
48
47
48
49
49
49
48
49
47
50
48
50
48
48
48
47
47
48
48
48
49
49
47
50
49
48
48
48
48
47
47
48
48
48
48
49
48
49
48
48
48
48
49
48
48
49
49
49
47
48
48
48
48
48
48
48
47
46
48
49
48
49
47
47
48
48
47
47
49
48
48
47
49
49
48
48
48
48
48
48
49
49
47
49
48
48
48
48
47
48
47
47
48
48
47
48
48
47
48
47
49
49
48
48
48
48
48
49
49
48
48
47
49
47
47
48
49
48
48
49
48
47
47
49
49
48
47
49
48
49
49
49
47
48
47
47
48
48
49
47
47
48
48
48
49
48
48
49
47
48
47
48
49
48
48
49
47
48
48
47
48
48
47
48
48
48
48
47
48
48
49
48
47
49
48
48
48
47
47
47
48
47
48
48
48
47
48
49
48
47
48
48
48
48
48
49
47
47
48
49
48
49
48
48
48
48
48
47
48
48
50
48
48
48
48
48
48
48
48
48
48
49
48
49
48
48
47
49
48
48
49
48
48
48
47
49
49
47
47
50
48
48
48
49
48
47
47
48
48
49
48
47
48
48
47
47
48
48
49
47
48
48
48
48
48
48
48
48
48
48
48
48
48
48
48
48
48
46
48
48
48
47
49
46
49
49
48
48
47
48
48
49
47
49
48
47
48
49
49
49
47
47
48
47
48
47
48
49
48
47
48
49
48
49
48
48
48
47
48
48
47
49
47
48
49
49
48
49
49
47
49
49
48
48
48
49
47
48
48
49
48
49
48
48
48
48
48
48
47
49
47
48
47
50
49
47
47
48
48
48
47
47
48
48
47
48
47
48
48
48
48
49
48
48
48
48
48
47
48
47
48
48
46
49
48
48
49
48
48
48
48
48
48
48
48
47
48
47
48
48
47
48
47
49
48
48
49
48
49
49
48
48
48
47
48
48
47
49
48
48
48
48
48
48
49
50
48
48
49
48
48
47
49
50
47
48
47
48
48
48
48
48
48
47
49
47
49
47
48
49
47
48
49
48
48
48
49
50
48
49
49
49
47
48
49
47
49
48
47
49
49
48
48
47
49
47
48
48
47
48
48
47
48
48
49
49
48
48
47
47
48
48
48
48
48
48
48
47
48
47
47
49
47
48
49
48
48
49
47
48
49
48
48
48
46
48
47
49
47
49
47
49
48
49
48
48
48
49
48
48
48
47
47
48
49
48
48
48
49
47
48
49
48
48
48
49
48
49
47
49
49
49
48
48
49
49
47
47
48
49
48
47
49
48
48
48
48
48
48
50
48
47
48
48
48
49
49
49
49
49
48
49
47
49
48
48
48
48
47
47
48
48
48
49
49
48
49
49
48
48
46
47
47
48
49
48
49
47
48
47
49
47
48
48
48
47
47
48
48
48
49
48
48
48
48
48
49
48
48
47
49
49
47
49
47
49
48
49
48
49
49
48
48
49
48
48
48
48
48
49
48
49
47
49
48
47
48
48
46
47
48
47
48
48
48
49
48
47
48
47
48
48
48
48
47
49
48
47
48
48
47
47
49
48
48
49
48
47
48
47
49
49
48
48
48
48
48
48
48
49
47
47
48
48
48
48
49
48
48
48
49
48
48
48
48
48
48
48
48
47
48
48
48
48
48
49
49
49
48
49
48
47
49
48
49
48
48
47
48
48
48
48
48
49
48
48
48
47
48
49
48
48
47
47
49
48
48
49
48
48
49
48
47
48
49
48
48
48
47
47
48
47
47
48
48
48
49
48
48
47
48
48
48
48
47
49
48
48
49
48
49
48
48
48
48
48
47
47
48
47
48
48
47
49
49
48
48
48
49
47
48
49
48
48
48
49
49
47
49
47
47
49
48
48
49
47
47
49
47
47
48
48
48
48
49
48
49
49
48
47
48
49
48
47
47
46
48
48
48
48
49
48
48
48
48
48
50
48
48
48
48
48
47
48
48
48
49
48
47
48
49
48
48
48
48
48
49
48
49
49
49
48
47
48
48
50
48
48
48
48
48
48
48
48
48
48
47
48
48
48
48
49
47
48
48
49
48
47
48
48
47
48
47
47
47
48
48
49
48
47
47
47
47
48
48
48
48
49
48
49
48
48
47
47
48
48
47
47
48
47
48
48
48
49
48
49
47
48
48
48
48
48
48
49
47
49
48
48
49
49
48
47
49
47
48
48
47
48
48
47
48
49
49
48
49
49
47
47
48
47
49
48
48
48
48
48
49
49
49
48
49
49
47
47
48
47
48
48
49
47
48
49
48
49
48
49
49
48
47
47
48
47
47
49
48
49
48
48
47
49
48
48
48
47
48
49
48
49
48
48
48
48
48
48
48
48
49
49
47
47
47
47
48
49
48
49
47
49
48
49
48
49
48
49
48
49
48
49
48
47
47
48
48
47
47
48
48
47
49
49
49
47
47
48
48
49
48
47
48
48
48
48
49
48
47
48
47
48
48
47
48
48
47
48
48
49
48
48
48
48
48
47
47
48
47
49
48
47
48
47
48
48
49
49
48
48
48
48
49
48
48
47
49
49
48
48
48
48
48
48
49
48
49
49
48
48
48
49
48
49
48
49
48
49
49
49
49
48
48
49
48
48
48
48
49
49
47
49
49
48
48
48
47
48
48
49
49
50
48
49
49
49
48
49
48
48
49
49
48
49
48
48
49
48
48
48
49
48
48
48
48
47
48
47
48
48
48
49
50
48
48
49
48
47
47
49
49
47
47
50
48
47
48
47
48
48
48
47
48
48
48
47
49
47
48
48
48
49
47
47
47
49
48
49
48
48
48
49
47
48
47
49
48
49
47
47
49
48
47
49
48
48
47
49
48
48
48
48
47
49
49
48
48
48
47
49
49
48
49
47
49
48
48
49
47
49
47
48
49
49
48
48
49
48
49
49
49
48
48
49
48
48
49
48
49
48
48
48
49
49
49
48
49
49
47
48
48
48
47
48
49
48
48
48
48
49
48
48
48
47
47
49
48
48
49
49
47
48
47
49
48
48
48
48
48
48
47
47
48
49
49
47
49
48
49
48
49
49
48
49
48
48
48
47
48
49
48
48
47
48
49
48
48
48
48
48
48
49
48
48
48
48
49
49
49
49
49
49
47
48
48
48
48
47
48
48
49
50
48
47
48
49
47
49
48
49
51
49
49
48
48
48
49
49
47
48
47
49
47
49
48
47
48
47
49
49
47
48
48
49
49
47
48
48
48
49
49
48
49
48
49
47
48
48
47
47
48
49
47
48
48
48
49
48
47
48
49
48
49
49
49
48
49
48
47
48
48
49
48
48
48
48
49
48
48
48
47
48
48
48
47
48
48
49
48
48
49
48
47
49
49
47
48
48
49
48
47
47
48
49
48
49
47
48
49
48
48
48
48
48
48
47
48
48
49
49
47
47
47
49
47
48
48
48
48
48
48
47
48
49
48
48
47
47
48
49
48
48
47
50
50
48
48
48
48
48
48
49
49
47
49
49
49
47
49
47
48
48
49
47
48
49
47
47
47
48
49
47
47
47
47
49
47
47
48
48
49
49
48
48
49
48
48
47
48
48
49
48
48
48
47
48
48
48
47
47
47
48
47
49
49
48
47
48
49
48
49
47
48
48
48
48
48
48
48
48
47
48
48
49
49
47
47
47
48
48
48
47
47
49
47
48
48
48
48
48
48
47
48
48
47
48
49
48
47
48
49
48
49
47
49
48
48
48
48
49
48
48
49
47
48
48
49
47
47
49
48
49
49
49
48
48
47
48
48
47
47
49
49
47
47
47
48
49
48
48
47
49
48
49
49
49
47
48
47
47
47
49
49
48
48
49
48
48
48
48
47
48
48
48
48
48
48
48
49
47
48
49
48
47
47
47
48
47
47
47
49
47
47
49
48
48
48
48
49
48
47
48
48
49
49
47
49
48
49
48
47
48
48
47
49
48
48
47
49
48
48
48
48
47
47
48
49
48
49
49
49
48
48
47
48
48
48
49
47
48
48
49
48
47
49
48
48
47
48
48
48
50
47
48
49
48
48
47
47
49
50
48
48
49
48
48
49
48
48
49
48
48
48
48
48
47
48
47
48
47
48
49
47
48
48
48
48
48
48
48
49
47
48
48
48
48
47
47
48
50
48
49
49
48
47
48
47
49
48
48
49
47
47
49
47
48
48
47
48
48
49
47
48
47
48
47
49
48
48
48
48
49
47
47
48
47
48
49
48
48
48
48
48
47
48
47
47
48
48
48
48
48
47
48
48
48
49
48
47
48
48
50
49
48
48
49
48
48
49
48
48
48
48
48
49
47
48
47
48
49
48
47
47
50
48
50
48
47
48
49
48
48
48
48
48
48
49
48
48
48
48
49
46
47
49
48
49
48
48
48
48
48
48
48
49
49
47
48
49
49
48
48
48
48
48
48
48
47
47
48
47
47
48
47
48
47
49
50
47
48
47
48
47
48
49
47
48
47
47
48
47
48
48
49
49
48
49
49
48
48
48
48
48
48
49
48
48
48
49
48
49
50
47
49
49
49
48
48
49
49
48
49
47
47
48
47
48
48
47
47
49
47
48
48
49
48
48
49
48
47
50
49
47
48
49
48
47
48
48
49
48
49
47
48
48
48
49
49
48
48
49
48
49
50
48
48
48
48
47
48
47
49
47
48
47
48
49
48
47
47
49
48
48
49
50
48
49
48
49
48
48
48
48
48
48
48
49
48
48
47
49
47
50
48
48
48
48
49
47
48
49
49
47
48
49
47
49
49
48
47
50
48
49
48
47
48
47
48
48
48
49
48
48
48
49
48
48
47
47
48
48
49
48
47
48
49
48
48
49
48
48
47
50
47
48
48
48
49
49
47
49
49
48
48
49
47
47
47
48
49
49
49
47
48
48
47
48
48
48
49
48
49
48
47
48
48
48
49
48
49
47
48
49
48
48
48
48
49
49
47
48
48
48
47
48
47
49
48
48
48
48
47
48
49
48
49
48
48
48
49
48
49
49
48
48
48
46
47
49
49
49
48
47
47
48
48
49
48
49
47
47
47
48
48
47
49
47
49
47
49
49
48
47
48
49
48
48
48
48
48
48
47
50
48
48
49
48
49
49
48
49
48
49
49
48
47
48
48
49
47
49
48
49
48
46
48
49
47
48
48
48
47
48
48
49
49
48
48
48
49
47
49
47
48
48
47
48
48
48
48
48
48
47
47
47
48
48
49
49
49
48
48
49
47
48
48
48
49
48
47
48
49
47
48
48
48
48
49
49
48
50
49
49
48
49
47
49
48
48
48
49
48
48
47
48
47
49
49
47
49
47
48
48
48
48
48
48
48
47
49
48
48
50
47
49
48
47
49
47
48
48
48
47
47
49
48
48
49
48
48
49
48
47
47
48
47
47
49
49
48
47
49
48
49
48
47
48
47
49
49
50
49
48
48
49
48
48
48
48
49
48
48
48
47
47
48
49
48
49
49
48
49
47
48
49
48
49
49
49
49
49
48
47
49
49
49
49
49
47
49
47
48
47
48
48
49
49
48
49
48
47
48
49
49
49
48
47
48
48
48
48
49
48
48
49
49
48
48
49
49
49
49
48
49
49
47
47
48
49
47
48
48
48
49
49
47
49
48
49
48
48
49
49
48
49
48
47
48
49
48
49
48
48
47
49
48
48
48
49
49
49
48
48
49
49
49
48
48
48
49
47
47
49
48
47
47
48
48
49
48
49
48
48
48
49
47
49
49
48
48
48
49
47
49
48
49
49
48
47
49
48
48
49
48
48
49
48
48
47
48
48
48
48
48
49
48
48
49
49
48
48
48
48
49
48
47
48
49
48
49
49
48
48
48
48
48
48
48
48
49
49
48
49
50
49
48
48
49
48
49
48
48
48
48
49
47
48
49
47
48
49
49
48
111
109
126
135
147
160
171
183
194
206
218
229
238
254
266
276
267
252
317
327
350
359
375
376
383
398
394
433
439
452
466
476
491
517
544
554
548
563
575
583
597
603
481
643
662
668
685
701
709
724
768
757
776
791
806
820
826
846
864
875
884
909
923
930
975
949
979
994
1005
1052
1025
1047
1069
1083
1093
1103
1110
1151
1156
1162
1212
1184
1204
1216
1238
1259
1266
1307
1291
1304
1366
1337
1365
1381
1372
1461
1415
1430
1456
1448
1509
1485
1534
1509
1526
1630
1555
1575
1606
1591
1605
1776
1658
1659
1689
1716
1694
1711
1726
1895
1763
1778
1819
1832
1816
1826
1949
1858
1882
1926
1910
1917
1955
1984
2007
2006
2016
2033
2046
2058
2075
2072
2093
2105
2115
2129
2149
2157
2179
2186
2208
2221
2234
2257
2282
2312
2326
2312
2352
2373
2380
2398
2416
2438
2446
2445
2466
2487
2499
2519
2538
2542
2570
2573
2578
2606
2617
2619
2614
2637
2648
2654
2670
2692
2715
2719
2736
2753
2751
2778
2789
2804
2799
2823
2844
2850
2871
2887
3406
3157
2980
3041
2981
2970
2980
2998
3019
3030
3042
3057
3072
3102
3148
3135
3140
3156
3174
3228
3214
3207
3214
3232
3253
3275
3287
3816
3821
3415
3362
3356
3367
3410
3425
3460
3466
3478
3478
3486
3490
3510
3524
3543
3551
3566
3588
3605
3621
3630
3643
3658
3685
3697
3715
3728
3922
3756
3768
3771
3815
3855
3866
3858
3883
3959
4069
4281
3927
3942
3975
3989
4010
4034
4069
4062
4054
4078
4093
4114
4134
4137
4158
4181
4182
4203
4210
4219
4232
4275
4768
4282
4300
4304
4330
4347
4376
4401
4428
4432
4443
4441
4456
4471
4809
4506
4517
4529
4545
4570
4574
4596
4616
4629
5200
4671
4681
4695
4706
4745
4785
4776
4783
4803
4813
4823
4878
4999
5130
5357
4901
4930
4940
4954
4972
4975
5011
5028
5058
5079
5098
5123
5138
5127
5148
5142
5167
5188
5490
5277
5305
5349
5306
5326
5487
5566
5795
5352
5933
5380
5671
5637
5568
5797
5470
5477
5686
5504
5542
5540
5559
5575
5597
5602
5636
5650
5681
5681
5716
5727
5749
5775
5801
5823
5815
5838
5839
5850
5879
5902
5933
5937
5948
5964
5977
5990
6017
6023
6052
6056
6089
6092
6087
6105
6122
6143
6161
6178
6197
6205
6230
6252
6281
6295
6316
6351
6373
6376
6394
6404
6412
6419
6435
6457
6476
6493
6506
6513
6538
6564
6586
6772
6761
6636
6633
6651
6685
6700
6719
6743
6751
6772
6782
6801
6821
6820
6834
6852
6881
6895
6903
6936
6957
6982
6989
7000
7026
7052
7076
7108
7105
7114
7118
7142
7147
7175
7194
7211
7230
7242
7759
7479
7309
7299
7334
7352
7376
7415
7451
7452
7457
7477
7499
7525
7541
7541
7556
7562
7589
7599
7619
7627
7647
7664
7680
7692
7724
7741
7741
7768
7785
7803
7823
7855
7893
7880
7885
8023
8211
8451
7969
7977
7998
8007
8042
8046
8069
8101
8133
8149
8187
8197
8191
8209
8221
8233
8245
8264
8287
8308
8321
8340
8415
8481
8579
8836
8419
8449
8452
8482
8495
8510
8538
8570
8583
8623
8648
8648
8661
8674
8676
8701
8788
8998
9060
9152
8794
8802
8819
8837
8850
8881
8927
8949
8934
8942
9002
9305
8999
9017
9022
9061
9089
9113
9142
9162
9178
9173
9190
9191
9257
9540
9250
9268
9317
9345
9348
9336
9436
9382
9398
9433
9464
9472
9482
9501
9498
9537
9621
9566
9709
9599
9621
9628
9659
9676
9710
9745
9764
9788
9797
9810
9814
9817
9844
9917
10215
9892
9913
9925
9942
9965
10399
9997
10013
10039
10471
10217
10214
10166
10161
10167
10181
10184
10209
10229
10253
10298
10297
10308
10330
10326
10343
10358
10390
10411
10420
10436
10526
10855
10935
10515
10890
10663
10605
10608
10610
10628
10645
10668
10671
10727
10825
11014
10760
10779
10791
10849
10836
10882
10865
10908
10918
10924
10949
10967
10978
11005
11014
11045
11072
11086
11098
11140
11137
11164
11178
11199
11214
11233
11243
11271
11311
11414
11719
11335
11358
11372
11404
11420
11594
11439
11479
11567
11506
11526
11869
11581
11584
11595
11646
11642
11645
11698
11676
11709
11735
11749
11752
11785
11813
11900
11836
11849
11861
11889
11934
11940
11953
11972
11997
12007
12025
12035
12043
12069
12092
12118
12154
12207
12306
12410
12513
12223
12234
12260
12274
12592
12690
12666
12619
12568
12725
12403
12415
12437
12450
12477
12493
12507
12536
12555
12564
12597
12619
12626
12665
12692
12718
12727
12737
12751
12769
12775
12800
12817
12841
12860
12878
12895
12908
12925
12942
12964
12981
13009
13027
13042
13068
13079
13089
13113
13137
13175
13199
13285
13338
13352
13559
13263
13278
13311
13354
13339
13351
13446
13390
13410
13417
13440
13468
13472
13511
13535
13555
13575
13596
13603
13637
13651
13677
13705
13721
13739
13741
13767
13785
13805
13822
13839
13859
13858
13977
13903
13954
13949
13944
13981
14015
14012
14191
14054
14094
14085
14258
14124
14165
14161
14187
14284
14218
14263
14252
14624
14302
14327
14346
14358
14385
14398
14415
14462
14442
14469
14640
14505
14528
14569
14553
14583
14620
14617
14660
14650
14950
14692
14723
14723
14748
14855
14790
14839
14822
15123
14871
14885
14927
14907
14934
14986
14979
15005
15021
15025
15334
15067
15088
15130
15117
15169
15167
15193
15195
15462
15242
15255
15286
15285
15559
15348
15351
15386
15401
15399
15417
15432
15610
15487
15498
15526
15524
15633
15573
15604
15595
15779
15638
15693
15676
15999
15719
15751
15769
15769
15801
15831
15839
15863
15860
15878
15991
15941
15944
15959
15991
16005
16037
16036
16049
16329
16331
16223
16146
16138
16167
16180
16199
16215
16238
16263
16295
16295
16294
16320
16577
16378
16383
16419
16432
16423
16731
16535
16503
16518
16532
16566
16593
16615
16620
16626
16633
16922
16805
16794
16743
16727
16748
16777
16813
16799
16822
16967
16870
16879
16899
16933
16927
16983
17004
16999
17033
17015
17038
17173
17085
17099
17140
17134
17143
17242
17191
17231
17223
17230
17281
17287
17315
17311
17503
17350
17389
17409
17407
17600
17455
17478
17508
17515
17520
17543
17550
17837
17728
17638
17641
17650
17695
17699
17705
17716
17755
17772
17799
17821
17825
17833
17853
17892
17964
17959
17953
17978
18013
18025
18029
18036
18063
18055
18295
18175
18143
18140
18177
18169
18404
18275
18235
18257
18292
18296
18308
18318
18425
18405
18385
18406
18438
18431
18663
18535
18502
18523
18548
18548
18591
18630
18598
18643
18656
18659
18677
18729
18731
18744
18756
18854
18804
18827
18845
18842
19007
18903
18913
18951
18956
18962
19194
19010
19015
19053
19063
19068
19116
19121
19155
19154
19398
19201
19210
19242
19251
19271
19274
19310
19325
19530
19391
19396
19407
19421
19489
19469
19487
19493
19706
19575
19558
19581
19610
19612
19618
19835
19690
19697
19724
19733
19739
19947
19927
19852
19831
19864
19870
19879
20087
19925
19940
19973
19983
19985
20062
20031
20071
20067
20079
20196
20133
20167
20167
20337
20213
20228
20264
20258
20470
20318
20329
20353
20351
20557
20422
20423
20454
20446
20655
20511
20521
20550
20552
20571
20610
20615
20646
20646
20847
20733
20706
20739
20768
20764
20786
20796
20871
20845
20868
20893
20902
21072
20963
20963
20999
20999
21015
21199
21068
21091
21103
21108
21269
21157
21183
21203
21203
21317
21265
21290
21302
21308
21423
21355
21373
21401
21415
21425
21439
21522
21490
21511
21541
21533
21719
21594
21611
21633
21645
21663
21807
21727
21729
21747
21765
21778
21804
21871
21843
21877
21875
22004
21927
21951
21949
22039
22005
22020
22018
22081
22066
22114
22108
22183
22159
22197
22183
22307
22241
22253
22277
22293
22303
22397
22367
22373
22403
22408
22423
22570
22519
22495
22509
22538
22551
22554
22688
22647
22633
22663
22671
22670
22822
22747
22747
22775
22774
22901
22832
22846
22866
22882
22998
22948
22949
22963
22990
22999
23015
23035
23175
23130
23116
23120
23159
23156
23175
23193
23323
23274
23262
23286
23303
23327
23333
23403
23421
23404
23415
23452
23468
23477
23573
23543
23555
23557
23582
23592
23613
23655
23735
23699
23703
23719
23741
23751
23861
23814
23822
23839
23861
23879
23839
23979
23955
23958
23993
23998
24006
24123
24085
24082
24103
24124
24143
24151
24170
24204
24298
24271
24271
24281
24295
24324
24333
24350
24387
24402
24416
24438
24454
24468
24524
24579
24575
24574
24580
24599
24619
24642
24648
24666
24695
24712
24721
24791
24794
24794
24820
24839
24872
24876
24894
24925
24928
24954
25017
25025
25029
25037
25052
25082
25104
25117
25133
25215
25207
25208
25223
25245
25258
25279
25290
25319
25341
25367
25373
25390
25415
25431
25479
25511
25519
25522
25553
25571
25578
25607
25607
25639
25659
25665
25722
25732
25735
25761
25790
25799
25824
25858
25869
25889
25913
25932
25943
25959
25999
26006
26031
26047
26060
26119
26119
26131
26156
26159
26174
26237
26246
26245
26269
26287
26295
26324
26370
26374
26395
26420
26429
26439
26486
26503
26528
26527
26564
26564
26590
26591
26660
26661
26669
26695
26714
26733
26750
26784
26795
26813
26829
26849
26870
26884
26909
26919
26964
26980
26987
27012
27035
27054
27063
27090
27106
27133
27142
27162
27183
27223
27239
27255
27269
27279
27301
27324
27339
27356
27387
27421
27437
27450
27476
27491
27511
27527
27539
27570
27597
27623
27643
27647
27679
27698
27716
27727
27755
27767
27787
27805
27832
27849
27866
27887
27911
27947
27946
27964
27994
28020
28039
28055
28081
28099
28119
28119
28151
28167
28195
28220
28239
28253
28268
28264
28316
28335
28366
28374
28396
28415
28431
28455
28466
28495
28523
28551
28557
28579
28601
28615
28636
28645
28686
28708
28727
28737
28756
28775
28759
28805
28851
28862
28886
28907
28926
28951
28961
28975
28881
28991
29024
29061
29082
29103
29130
29155
29159
29143
29199
29150
29223
29263
29290
29316
29318
29351
29372
29388
29411
29421
29403
29441
29460
29478
29491
29509
29563
29601
29615
29636
29663
29679
29690
29719
29732
29749
29773
29735
29796
29821
29865
29892
29884
29908
29933
29957
29975
29999
29955
29979
29999
30037
30076
30101
30132
30154
30186
30204
30231
30238
30273
30284
30305
30276
30322
30367
30389
30404
30415
30431
30455
30437
30502
30535
30550
30560
30597
30599
30628
30550
30601
30663
30700
30723
30755
30762
30777
30758
30821
30838
30868
30895
30895
30922
30948
30925
30983
31016
31031
31040
31071
31036
31106
31111
31138
31150
31142
31086
31223
31239
31262
31146
31283
31333
31351
31367
31380
31296
31364
31431
31491
31478
31495
31519
31463
31535
31589
31613
31628
31644
31665
31587
31671
31703
31762
31768
31780
31666
31775
31836
31871
31871
31909
31919
31828
31906
31975
32023
32015
32038
32061
31956
32077
32134
32163
32156
32186
32204
32103
32189
32238
32295
32295
32319
32337
32367
32249
32343
32404
32435
32473
32495
32507
32519
32542
32476
32562
32592
32635
32646
32670
32550
32643
32704
32754
32754
32775
32814
32694
32807
32861
32895
32924
32923
32943
32959
32983
32935
33009
33055
33053
33071
33087
33120
33141
33164
33181
33207
33212
33101
33103
33183
33191
33212
33201
33273
33273
33309
33279
33441
33473
33479
33495
33519
33557
33559
33579
33613
33627
33639
33655
33671
33703
33718
33735
33772
33807
33823
33847
33862
33884
33899
33927
33945
33967
33988
34003
34018
34044
34053
34075
34089
34117
34135
34156
34178
34199
34226
34241
34258
34271
34300
34311
34349
34351
34375
34399
34413
34435
34452
34477
34495
34540
34549
34577
34597
34615
34630
34647
34663
34683
34661
34703
34695
34702
34603
34807
34839
34823
34855
34903
34919
34945
34967
34980
35002
35031
35037
35063
35093
35118
35134
35142
35161
35183
35204
35228
35227
35231
35199
35287
35318
35332
35351
35359
35387
35426
35439
35479
35495
35521
35531
35551
35559
35590
35584
35615
35609
35607
35631
35658
35651
35685
35655
35615
35795
35829
35861
35868
35895
35905
35919
35932
35994
36001
36023
36015
36005
36007
36060
36071
36071
36087
36079
36100
36099
36103
36093
36085
36079
36159
36319
36359
36398
36432
36463
36425
36451
36471
36487
36503
36535
36575
36597
36634
36654
36671
36693
36719
36739
36758
36788
36788
36820
36822
36826
36837
36871
36871
36927
36955
36971
36998
37007
37027
37055
37079
37088
37109
37143
37152
37174
37189
37215
37238
37255
37287
37303
37316
37351
37367
37378
37394
37426
37440
37471
37495
37511
37535
37552
37572
37588
37606
37622
37631
37638
37687
37703
37703
37743
37743
37788
37828
37855
37879
37885
37895
37927
37941
37973
37997
38011
38039
38047
38068
38084
38121
38138
38145
38186
38206
38228
38231
38004
38057
38198
38262
38295
38279
38327
38343
38349
38357
38367
38316
38261
38535
38559
38325
38598
38629
38647
38671
38691
38711
38738
38759
38781
38801
38815
38847
38852
38890
38895
38926
38943
38975
38980
39008
39030
39044
39055
39102
39111
39139
39148
39175
39194
39223
39236
39260
39282
39300
39327
39357
39359
39101
39263
39359
39381
39414
39415
39487
39535
39527
39489
39523
39572
39612
39635
39648
39685
39673
39730
39749
39789
39827
39845
39866
39885
39908
39922
39943
39943
40002
39964
39975
40007
40050
40111
40127
40138
40124
40197
40221
40220
40247
40252
40251
40247
40275
40327
40318
40391
40356
40309
40383
40188
40512
40519
40541
40505
40226
40607
40591
40645
40671
40679
40599
40683
40750
40783
40807
40839
40858
40871
40891
40911
40905
40918
40967
40974
40995
41013
41038
41076
41073
41111
41084
41054
41077
41114
41172
41073
41095
41188
41188
41239
41247
41175
41309
41343
41438
41455
41479
41506
41515
41557
41574
41575
41551
41566
41349
41311
41335
41724
41700
41420
41791
41802
41828
41861
41848
41853
41903
41925
41924
41973
41983
42026
42038
42084
42079
42111
41775
41918
41980
42084
42114
42127
42151
42164
42085
42130
41975
42362
42375
42418
42413
42415
42391
42455
42455
42470
42567
42583
42607
42641
42651
42680
42687
42711
42735
42759
42772
42799
42821
42831
42837
42836
42876
42887
42857
42891
42935
43007
42951
42897
42650
43091
43111
43124
43141
43110
43207
43226
42815
43250
43271
43295
43253
43358
43374
43399
43404
43431
43444
43399
43500
43447
43324
43238
43164
43183
43179
43637
43217
43290
43447
43495
43399
43767
43804
43811
43839
43853
43815
43892
43911
43917
43903
43935
43948
44004
44071
44095
44020
44118
44119
44084
44207
44129
44221
43925
44271
44292
44268
44326
44346
44039
44317
44255
44164
44366
44511
44487
44519
44534
44126
44495
44627
44618
44607
44693
44707
44695
44751
44671
44796
44807
44783
44863
44780
44903
44796
44942
44958
44973
44995
44847
45063
45033
45079
45106
45142
45143
45143
45191
45022
45251
45273
45180
45303
45316
44990
45369
45399
45312
45436
44954
45454
45503
45536
45484
45569
45575
45597
45468
45665
45676
45687
45615
45679
45743
45775
45783
45639
45831
45870
45895
45822
45918
45941
45839
46014
46023
46001
46046
46071
45655
46112
46143
46125
46173
45717
46215
46247
46223
46287
46303
46279
46361
46374
46397
46323
46436
46004
46494
46479
45987
46556
46567
46386
46622
46599
46639
46687
46652
46695
46759
46748
46763
46786
46815
46852
46855
46687
46914
46895
46460
46983
46974
46598
47044
47023
47067
47108
47111
47135
47107
47108
47196
47228
46815
47187
47287
47306
47332
47343
47268
47325
47367
47423
47447
47479
47111
47528
47552
47455
47564
47048
47598
47655
47655
47647
47692
47725
47751
47661
47780
47327
47833
47860
47803
47860
47903
47313
47951
47973
47973
48006
48039
48070
48051
48093
48005
48157
48150
48103
48191
48192
47791
48180
48295
48326
48318
48223
48271
48358
48391
48421
47812
48412
48513
48436
48481
48541
48359
48588
48623
48519
48647
48039
48647
48740
48751
48757
48646
48788
48807
48837
48855
48876
48644
48924
48956
48852
48973
48981
48980
49063
49031
49078
49087
48836
49159
49180
49079
49183
48863
49268
49279
49215
49303
49311
49095
49366
49415
49415
49303
49436
49471
48903
49351
49567
49574
49481
49535
49613
49639
49309
49721
49699
49607
49735
49767
49703
49839
49830
49788
49860
49887
49863
49956
49909
49965
49999
50015
49989
50006
50052
49982
50118
50140
49637
50156
50229
50221
50159
50244
50295
50311
49671
50356
50403
50387
50398
50436
49775
50459
50526
50428
50525
50546
50583
50617
50554
50543
50660
50686
50692
50653
50781
50733
50740
50813
50834
50662
50910
50919
50797
50935
50949
50678
51042
51039
50937
51057
50692
51076
51135
51090
51159
50815
51247
51229
51207
51262
51291
50695
51343
51382
51372
51255
51415
51436
51255
51503
51516
51399
51543
51562
51391
51615
51648
51667
51550
51685
51710
51751
51783
51775
51687
51811
51831
51870
51889
51875
51917
51935
51966
52028
52007
51895
52039
51622
52124
52103
51990
52143
52167
52084
52252
52231
52191
52279
52287
52295
52390
52359
52263
52404
51687
52476
52477
52359
52483
52511
52543
52590
52628
52541
52623
52653
52666
52687
52743
52679
52756
52775
52798
52863
52826
52741
52861
52447
52967
52943
52847
52988
52500
53063
53022
52981
53071
53111
53125
52695
53163
53223
53135
53223
53255
53255
53308
53349
53343
53289
53359
53383
52927
53069
53476
53511
53436
53505
53552
53550
53623
53639
53508
53645
53671
53103
53743
53767
53655
53766
53798
53431
53871
53890
53873
53759
53922
53950
53159
54022
54023
53895
54047
54054
54087
53743
54148
54199
54191
54095
54221
53655
54299
54289
54167
54310
53575
54298
54423
54399
54276
54443
54447
53679
54279
54517
54595
54591
54572
54599
54510
54499
54663
54695
54693
54727
54314
54751
54854
54845
54854
54749
54879
54895
54908
54479
55023
55009
54983
54964
55032
54567
55137
55108
54991
55142
55165
54564
55265
55214
55175
55252
54762
55367
55343
55270
55366
55111
55471
55299
55441
54663
55559
55535
55423
55531
55569
55578
55399
55676
55716
55612
55700
55716
55733
55799
55735
55799
55815
55159
55916
55903
55813
55916
55943
55954
55939
56052
56036
55943
56054
56085
56100
56188
56147
56055
56191
56196
56285
56238
56272
56268
56358
56351
56324
56359
56447
56439
56373
56455
56465
56498
56510
56542
56551
56583
56596
56492
56703
56732
56687
56615
56636
56743
56772
56778
55919
56767
56903
56935
56916
56900
56780
56964
56960
56991
56996
57019
56807
57135
57092
57044
57130
57156
56543
57214
57276
57262
57272
57247
57143
57308
57327
57351
56519
57423
57479
57461
57319
57335
57382
57508
57571
57607
57653
57598
57479
57639
57670
57188
57759
57745
57722
57623
57756
57807
57815
57924
57863
57735
57911
57919
57671
58042
58007
57863
58023
58033
57583
58029
58157
58148
58005
58164
57262
58247
58268
58087
58260
57815
58375
58326
58321
58349
57463
58436
58484
58372
58468
58535
58487
58373
58535
58548
58523
58652
58519
58629
58644
58070
58727
58775
58740
58612
58759
58791
58431
58749
58919
58887
58793
58905
58919
58982
59015
58931
58959
59035
59043
59092
59162
59094
58964
59143
59143
58687
59292
59242
59180
59263
59276
59295
59143
59364
59423
59372
59375
59399
58727
59527
59519
59391
59527
59527
59559
59599
59527
59609
59622
59701
59718
59543
59703
59801
59631
59775
58845
59868
59825
59840
59862
59911
59935
59771
59932
59622
60020
59932
60022
59111
60135
60095
60087
60105
59823
60227
60186
60060
60199
60228
60221
60346
60284
60263
60321
60343
59527
60463
60423
60324
60423
60452
60452
60163
60573
60606
60561
60423
60381
59886
60629
60636
60671
60679
60726
60727
60724
60391
60871
60831
60823
60748
60860
60864
60889
60022
60767
61028
61042
61015
60886
61028
61047
61057
60740
61124
61199
61190
61191
61191
61236
61217
61137
61103
61127
61271
61319
61351
61343
61357
61380
60660
61447
61533
61498
61479
61339
61511
61533
61551
60641
61604
61698
61664
61436
61215
61698
61703
60772
61804
61775
61623
61807
61812
61219
61919
61879
61732
61883
61031
61839
62023
62023
62048
62087
62069
62127
62118
61822
62117
62119
62132
61908
62215
62260
62215
62196
62132
62247
62279
62311
62325
62343
62342
62079
62431
62471
62507
62367
61831
62263
62519
62596
62599
62591
62454
62580
62625
62633
62655
62660
62567
62548
62695
62780
62803
62823
62812
62656
62471
62054
62855
62870
62883
62919
62781
62950
63024
62975
62919
62343
63028
63063
63063
62976
63044
63146
63178
63207
63199
63166
62775
62680
63239
63268
63269
63303
63310
63188
63214
63377
63397
63436
63133
63445
63455
63487
63479
63422
63479
63532
63541
63572
63607
63637
63662
63661
63679
63686
63711
63719
63701
63495
63553
63743
63783
63748
63580
63484
63855
63887
63908
63919
63943
63943
63959
63982
63997
64007
64007
64055
64071
64095
64119
64117
64134
64062
64167
64184
64068
64229
64261
64252
64244
64290
64308
64519
64356
64343
64372
64310
64421
64743
64438
64477
64383
64500
64518
64543
64548
64423
64591
64607
64630
64644
64677
64575
64695
64716
64743
64749
64736
64774
64815
65215
64853
64864
64775
64916
64954
64956
64852
64983
65001
65124
65046
65055
65060
65095
65108
65279
65159
65173
65132
65199
65231
65238
65399
65283
65287
65279
65311
65327
65365
65367
65358
65373
65397
65413
65428
65423
65447
65454
65473
65476
65495
65511
65508
65518
65511
65510
65503
65511
65506
65494
65500
65519
65511
65510
65511
65510
65511
65500
65503
65506
65510
65500
65506
65511
65501
65519
65500
65519
65522
65511
65516
65507
65511
65509
65511
65508
65511
65511
65511
65506
65502
65511
65509
65503
65519
65509
65511
65511
65511
65511
65519
65511
65501
65519
65519
65511
65500
65517
65505
65510
65508
65510
65508
65518
65503
65509
65498
65511
65519
65511
65519
65511
65519
65509
65511
65506
65511
65509
65518
65519
65511
65511
65502
65516
65511
65518
65517
65519
65510
65511
65517
65503
65519
65511
65511
65517
65509
65508
65527
65516
65519
65508
65511
65511
65503
65519
65511
65511
65511
65509
65510
65511
65519
65511
65511
65517
65509
65509
65515
65502
65517
65527
65504
65511
65519
65518
65511
65506
65511
65511
65527
65508
65519
65508
65503
65517
65508
65519
65519
65519
65503
65509
65511
65511
65508
65505
65510
65518
65519
65527
65517
65516
65508
65511
65513
65511
65519
65511
65511
65500
65516
65525
65518
65516
65511
65510
65519
65519
65503
65527
65527
65511
65518
65516
65509
65516
65517
65517
65500
65511
65519
65527
65525
65519
65511
65511
65525
65511
65500
65519
65519
65517
65508
65511
65516
65511
65504
65519
65511
65511
65504
65511
65519
65519
65519
65517
65508
65508
65511
65511
65511
65519
65511
65510
65516
65511
65510
65525
65503
65519
65511
65524
65505
65511
65511
65504
65517
65500
65511
65519
65519
65511
65496
65516
65527
65510
65516
65514
65511
65510
65508
65527
65524
65519
65511
65516
65513
65511
65516
65511
65511
65519
65527
65519
65510
65525
65510
65514
65519
65513
65511
65508
65519
65511
65511
65502
65511
65517
65508
65517
65535
65503
65510
65519
65525
65508
65511
65519
65506
65501
65517
65527
65515
65517
65519
65496
65519
65527
65511
65504
65511
65500
65518
65519
65519
65516
65524
65519
65514
65524
65519
65511
65516
65505
65527
65516
65511
65519
65511
65519
65518
65535
65516
65519
65511
65527
65519
65502
65516
65524
65511
65511
65519
65507
65518
65519
65511
65519
65513
65516
65506
65511
65516
65511
65519
65519
65519
65511
65511
65518
65519
65525
65524
65519
65511
65516
65504
65519
65517
65519
65504
65519
65527
65509
65525
65519
65511
65510
65508
65496
65514
65509
65510
65510
65517
65511
65519
65516
65508
65519
65510
65517
65527
65511
65518
65519
65514
65519
65524
65527
65524
65519
65527
65519
65527
65519
65510
65510
65511
65519
65500
65516
65511
65524
65527
65510
65516
65508
65511
65519
65519
65527
65524
65511
65522
65508
65526
65494
65508
65511
65518
65518
65518
65511
65508
65516
65511
65511
65511
65525
65511
65535
65519
65519
65510
65527
65517
65508
65511
65511
65525
65519
65519
65508
65510
65509
65510
65511
65521
65524
65508
65527
65525
65516
65505
65510
65527
65511
65512
65516
65511
65519
65516
65518
65510
65511
65494
65525
65511
65509
65527
65521
65504
65509
65535
65533
65519
65527
65508
65526
65510
65519
65506
65518
65508
65519
65516
65510
65511
65510
65509
65510
65514
65509
65535
65508
65525
65511
65511
65511
65527
65500
65519
65502
65519
65527
65505
65527
65519
65526
65518
65527
65511
65511
65524
65527
65511
65516
65519
65517
65508
65527
65516
65519
65514
65496
65514
65519
65503
65525
65519
65527
65510
65518
65519
65517
65513
65519
65519
65526
65516
65511
65516
65516
65519
65525
65504
65514
65527
65508
65527
65508
65511
65519
65511
65511
65524
65517
65524
65533
65519
65535
65511
65519
65503
65511
65511
65508
65510
65502
65525
65511
65527
65504
65517
65510
65519
65517
65518
65516
65519
65510
65519
65519
65524
65511
65514
65519
65519
65510
65519
65519
65503
65502
65519
65519
65502
65522
65519
65524
65516
65516
65511
65510
65516
65525
65519
65519
65516
65516
65533
65511
65516
65500
65527
65513
65519
65527
65519
65519
65519
65511
65504
65511
65524
65516
65519
65514
65508
65519
65511
65511
65517
65508
65518
65511
65511
65516
65519
65516
65519
65535
65525
65511
65526
65510
65510
65516
65527
65519
65508
65524
65511
65516
65510
65503
65524
65511
65527
65504
65527
65511
65510
65519
65519
65519
65519
65519
65519
65514
65524
65519
65516
65508
65511
65519
65535
65527
65512
65519
65513
65517
65519
65510
65514
65524
65514
65516
65511
65519
65519
65510
65517
65518
65514
65519
65524
65519
65535
65519
65524
65513
65519
65513
65519
65516
65504
65519
65511
65510
65516
65516
65527
65511
65511
65500
65516
65527
65512
65519
65519
65525
65535
65519
65516
65527
65535
65519
65519
65525
65510
65516
65514
65532
65519
65527
65511
65504
65518
65519
65516
65514
65519
65518
65511
65504
65519
65527
65519
65525
65511
65519
65519
65524
65511
65519
65519
65527
65527
65518
65500
65524
65534
65519
65516
65511
65525
65511
65519
65519
65515
65524
65516
65519
65516
65527
65527
65519
65519
65510
65519
65514
65516
65510
65519
65512
65517
65516
65510
65519
65519
65517
65526
65514
65524
65508
65519
65527
65527
65519
65510
65511
65519
65517
65519
65511
65518
65525
65510
65512
65511
65511
65519
65535
65515
65511
65516
65519
65516
65519
65511
65510
65524
65527
65508
65525
65516
65519
65527
65513
65517
65511
65511
65511
65515
65519
65504
65525
65518
65511
65527
65511
65516
65503
65519
65519
65519
65519
65511
65516
65513
65516
65511
65513
65522
65515
65526
65511
65505
65519
65527
65508
65519
65518
65519
65519
65519
65519
65519
65508
65524
65519
65535
65512
65527
65510
65516
65524
65518
65516
65519
65512
65525
65516
65518
65527
65527
65516
65516
65511
65517
65511
65519
65524
65527
65519
65512
65527
65525
65519
65516
65514
65504
65511
65519
65511
65516
65524
65518
65527
65519
65503
65527
65527
65516
65510
65508
65519
65511
65510
65516
65526
65527
65510
65517
65513
65511
65516
65519
65514
65511
65510
65519
65504
65527
65515
65518
65513
65502
65522
65511
65525
65527
65517
65525
65527
65517
65511
65524
65519
65524
65516
65511
65508
65519
65511
65527
65527
65511
65504
65519
65533
65519
65519
65519
65511
65519
65516
65519
65525
65511
65510
65516
65508
65510
65519
65518
65527
65519
65525
65519
65516
65519
65511
65527
65511
65519
65510
65508
65511
65519
65509
65511
65524
65527
65518
65508
65524
65518
65526
65519
65506
65511
65519
65524
65525
65511
65523
65508
65519
65514
65526
65508
65516
65524
65516
65514
65510
65519
65514
65535
65515
65524
65519
65511
65508
65511
65510
65519
65510
65508
65518
65504
65516
65527
65505
65525
65519
65527
65508
65519
65518
65513
65514
65524
65525
65510
65516
65524
65508
65524
65519
65519
65511
65519
65503
65518
65527
65517
65527
65510
65524
65526
65519
65519
65515
65519
65526
65519
65519
65516
65516
65510
65508
65524
65513
65519
65513
65519
65516
65527
65527
65518
65512
65516
65517
65524
65508
65519
65527
65508
65525
65519
65511
65514
65519
65518
65519
65510
65504
65509
65527
65527
65508
65511
65519
65527
65508
65527
65511
65514
65519
65511
65517
65516
65519
65519
65511
65513
65510
65512
65519
65503
65518
65516
65527
65516
65535
65510
65511
65522
65525
65508
65516
65518
65519
65510
65526
65518
65519
65511
65512
65514
65511
65521
65519
65516
65511
65508
65524
65507
65535
65516
65511
65534
65535
65517
65519
65519
65511
65527
65510
65524
65510
65518
65535
65509
65517
65519
65511
65527
65519
65524
65518
65508
65510
65511
65517
65512
65532
65512
65508
65504
65517
65509
65527
65524
65517
65524
65519
65524
65527
65527
65516
65511
65519
65516
65519
65517
65519
65534
65508
65526
65516
65518
65524
65519
65519
65512
65527
65519
65516
65535
65519
65519
65527
65516
65518
65519
65510
65514
65511
65508
65517
65524
65517
65511
65517
65508
65533
65513
65519
65524
65508
65516
65524
65510
65519
65524
65508
65512
65527
65512
65516
65511
65519
65523
65516
65510
65519
65525
65524
65524
65511
65527
65519
65519
65521
65511
65511
65510
65509
65519
65526
65510
65508
65517
65519
65527
65519
65516
65525
65516
65517
65525
65519
65532
65527
65516
65535
65524
65524
65519
65525
65517
65527
65527
65532
65524
65508
65508
65524
65518
65513
65524
65508
65511
65519
65511
65519
65519
65508
65519
65517
65535
65518
65517
65519
65514
65512
65519
65519
65519
65519
65516
65511
65510
65511
65511
65527
65519
65517
65511
65519
65509
65517
65519
65527
65512
65511
65511
65525
65519
65508
65524
65525
65518
65511
65516
65508
65525
65517
65514
65527
65510
65535
65525
65511
65511
65512
65519
65527
65511
65527
65511
65527
65508
65519
65532
65510
65525
65516
65510
65509
65504
65515
65504
65511
65509
65518
65533
65524
65511
65508
65519
65510
65505
65519
65524
65519
65511
65510
65517
65500
65516
65519
65527
65519
65508
65534
65527
65510
65527
65516
65510
65521
65527
65518
65511
65532
65519
65527
65527
65508
65511
65527
65511
65524
65511
65505
65516
65530
65508
65519
65518
65516
65510
65516
65524
65506
65509
65519
65518
65517
65527
65517
65508
65524
65519
65519
65525
65514
65504
65519
65511
65525
65516
65516
65512
65511
65509
65511
65527
65514
65516
65519
65530
65524
65525
65519
65519
65516
65511
65518
65517
65517
65526
65517
65516
65519
65516
65524
65510
65524
65511
65511
65524
65512
65517
65519
65519
65525
65519
65519
65517
65519
65518
65519
65513
65516
65514
65527
65509
65527
65519
65509
65527
65527
65517
65511
65524
65505
65508
65527
65508
65527
65519
65514
65511
65519
65517
65508
65535
65524
65524
65526
65510
65516
65519
65512
65510
65516
65519
65519
65519
65519
65512
65511
65521
65527
65508
65525
65518
65511
65519
65527
65511
65518
65524
65516
65525
65508
65527
65524
65535
65525
65513
65517
65519
65510
65502
65521
65512
65519
65519
65525
65517
65527
65512
65512
65519
65527
65517
65517
65516
65518
65526
65518
65511
65519
65535
65519
65527
65527
65508
65507
65505
65511
65511
65524
65516
65519
65504
65519
65504
65524
65516
65533
65519
65519
65524
65516
65509
65508
65527
65524
65518
65508
65519
65519
65513
65527
65511
65516
65510
65508
65516
65511
65519
65527
65511
65511
65526
65508
65519
65527
65511
65511
65508
65519
65519
65508
65527
65517
65524
65514
65510
65518
65517
65516
65508
65526
65525
65508
65511
65516
65514
65527
65535
65526
65516
65511
65527
65511
65516
65516
65526
65514
65506
65514
65535
65519
65511
65511
65524
65516
65518
65518
65519
65527
65535
65524
65511
65517
65519
65525
65519
65516
65519
65515
65511
65511
65519
65511
65519
65518
65527
65508
65519
65519
65516
65519
65524
65519
65519
65519
65519
65527
65516
65511
65516
65523
65518
65510
65519
65524
65511
65508
65527
65519
65505
65511
65516
65519
65525
65527
65525
65524
65527
65527
65515
65508
65516
65517
65518
65519
65519
65518
65524
65509
65516
65526
65511
65535
65518
65515
65517
65519
65519
65524
65518
65516
65533
65517
65516
65527
65526
65525
65516
65508
65519
65519
65527
65527
65516
65519
65511
65516
65504
65527
65514
65511
65516
65511
65525
65519
65516
65514
65516
65524
65523
65509
65525
65505
65511
65524
65511
65525
65523
65518
65511
65494
65518
65516
65519
65508
65510
65514
65517
65524
65513
65535
65518
65518
65524
65527
65517
65527
65527
65516
65514
65518
65534
65508
65527
65525
65519
65519
65504
65527
65511
65516
65514
65527
65525
65514
65527
65517
65510
65511
65519
65508
65526
65527
65519
65535
65517
65509
65524
65519
65511
65516
65510
65515
65518
65527
65516
65525
65519
65516
65513
65519
65519
65516
65518
65502
65516
65519
65511
65519
65524
65519
65511
65510
65508
65519
65519
65512
65511
65524
65516
65519
65527
65511
65510
65527
65512
65520
65516
65516
65531
65535
65526
65508
65519
65508
65516
65527
65525
65519
65507
65516
65524
65510
65516
65511
65519
65505
65510
65524
65519
65519
65519
65519
65519
65527
65511
65532
65512
65524
65518
65518
65527
65524
65513
65535
65516
65525
65519
65516
65505
65516
65511
65518
65519
65527
65525
65516
65516
65525
65511
65535
65517
65519
65535
65509
65527
65519
65521
65527
65525
65519
65527
65519
65519
65517
65527
65518
65527
65535
65525
65511
65510
65511
65527
65514
65524
65525
65524
65508
65526
65516
65515
65518
65513
65519
65525
65517
65535
65524
65519
65519
65519
65511
65527
65524
65524
65510
65519
65518
65519
65517
65508
65504
65519
65518
65508
65511
65525
65527
65519
65502
65532
65516
65524
65518
65527
65516
65505
65508
65504
65527
65514
65516
65519
65512
65519
65516
65513
65511
65519
65518
65511
65519
65517
65511
65516
65508
65511
65519
65514
65511
65508
65516
65519
65535
65511
65527
65512
65508
65519
65519
65505
65519
65527
65533
65511
65519
65511
65512
65524
65517
65525
65527
65525
65511
65516
65532
65519
65516
65533
65519
65512
65519
65517
65518
65509
65516
65527
65521
65508
65527
65533
65514
65516
65516
65519
65527
65518
65511
65519
65519
65523
65519
65511
65524
65524
65508
65525
65516
65525
65519
65516
65519
65519
65511
65526
65519
65524
65527
65508
65511
65511
65519
65512
65527
65524
65517
65527
65527
65527
65527
65519
65525
65524
65516
65525
65511
65519
65526
65501
65535
65527
65535
65519
65519
65524
65527
65519
65519
65519
65524
65525
65521
65510
65508
65526
65519
65524
65519
65527
65535
65508
65516
65516
65525
65511
65516
65527
65511
65517
65508
65508
65516
65525
65511
65519
65519
65512
65510
65517
65535
65527
65519
65526
65524
65531
65519
65527
65519
65511
65500
65515
65510
65525
65518
65519
65527
65511
65518
65508
65509
65525
65519
65511
65519
65525
65514
65525
65511
65512
65515
65525
65519
65519
65527
65511
65525
65519
65519
65527
65524
65516
65508
65527
65511
65516
65527
65504
65508
65527
65519
65521
65517
65510
65523
65524
65527
65511
65519
65519
65512
65527
65511
65524
65519
65516
65527
65523
65516
65511
65517
65516
65516
65516
65522
65519
65519
65524
65524
65510
65527
65516
65525
65525
65526
65524
65524
65512
65519
65527
65516
65511
65519
65522
65511
65527
65511
65517
65511
65519
65525
65519
65516
65524
65525
65510
65524
65517
65511
65515
65527
65524
65534
65516
65511
65525
65517
65519
65526
65519
65516
65535
65521
65519
65527
65519
65516
65508
65511
65518
65519
65511
65511
65519
65519
65516
65514
65527
65511
65510
65511
65519
65516
65511
65533
65524
65519
65508
65511
65511
65511
65519
65516
65518
65535
65519
65519
65535
65508
65510
65519
65518
65510
65519
65511
65519
65519
65521
65518
65506
65535
65524
65524
65510
65524
65521
65516
65524
65506
65511
65512
65516
65519
65524
65518
65519
65511
65523
65519
65519
65516
65511
65518
65516
65516
65512
65524
65522
65522
65516
65519
65519
65519
65515
65525
65533
65527
65511
65518
65502
65525
65509
65515
65526
65519
65519
65510
65516
65527
65525
65511
65519
65525
65527
65516
65516
65516
65519
65519
65511
65511
65525
65535
65519
65516
65517
65533
65527
65527
65516
65510
65525
65527
65512
65518
65519
65519
65525
65511
65519
65519
65525
65527
65500
65525
65508
65519
65527
65511
65511
65519
65519
65525
65527
65516
65518
65518
65508
65511
65511
65527
65517
65511
65527
65508
65519
65527
65509
65515
65511
65514
65519
65525
65516
65521
65527
65519
65508
65524
65513
65519
65527
65518
65535
65514
65524
65519
65525
65509
65527
65519
65511
65517
65527
65519
65511
65516
65519
65510
65516
65508
65527
65519
65535
65515
65514
65524
65519
65521
65524
65524
65524
65527
65525
65516
65527
65519
65519
65519
65516
65519
65527
65512
65527
65531
65527
65511
65519
65526
65510
65516
65504
65525
65518
65521
65516
65524
65525
65525
65511
65527
65526
65511
65519
65519
65516
65524
65534
65519
65511
65527
65516
65517
65525
65527
65519
65518
65519
65511
65519
65518
65519
65524
65519
65526
65535
65508
65527
65516
65514
65533
65519
65516
65527
65518
65519
65524
65521
65518
65517
65518
65516
65524
65527
65508
65519
65511
65519
65527
65524
65511
65516
65535
65527
65517
65519
65512
65505
65519
65511
65511
65519
65511
65519
65516
65535
65509
65519
65519
65515
65517
65527
65519
65510
65511
65511
65525
65519
65510
65514
65516
65511
65518
65527
65527
65525
65527
65516
65524
65516
65519
65519
65519
65524
65527
65516
65519
65516
65518
65527
65509
65519
65519
65535
65519
65511
65519
65527
65535
65519
65518
65519
65516
65515
65519
65511
65531
65519
65506
65511
65513
65511
65524
65511
65510
65519
65527
65511
65517
65513
65511
65516
65511
65515
65527
65513
65519
65533
65519
65510
65525
65516
65510
65511
65519
65513
65519
65527
65509
65511
65519
65519
65524
65510
65524
65511
65524
65509
65526
65519
65508
65525
65527
65508
65509
65512
65519
65519
65523
65519
65526
65527
65508
65510
65527
65511
65513
65519
65524
65519
65535
65519
65514
65527
65525
65527
65524
65515
65517
65519
65519
65527
65527
65504
65527
65517
65508
65516
65512
65519
65518
65519
65516
65524
65535
65519
65531
65527
65525
65515
65519
65511
65519
65516
65512
65521
65511
65519
65527
65514
65518
65519
65524
65519
65518
65523
65516
65511
65524
65519
65525
65508
65508
65513
65519
65535
65535
65519
65519
65504
65511
65516
65518
65516
65510
65519
65508
65510
65508
65516
65527
65527
65524
65519
65511
65519
65518
65508
65510
65535
65513
65519
65514
65519
65512
65519
65508
65516
65519
65517
65525
65508
65512
65516
65519
65524
65508
65527
65525
65518
65516
65516
65518
65519
65513
65525
65519
65516
65524
65522
65519
65516
65517
65525
65512
65519
65527
65519
65516
65527
65519
65516
65516
65513
65519
65524
65518
65521
65526
65524
65519
65513
65519
65525
65519
65525
65516
65516
65519
65516
65519
65525
65508
65526
65519
65517
65518
65526
65526
65510
65506
65504
65513
65519
65516
65511
65511
65527
65513
65519
65521
65524
65517
65519
65519
65535
65527
65519
65519
65514
65519
65527
65511
65509
65508
65524
65510
65525
65515
65527
65500
65519
65516
65511
65517
65526
65508
65519
65527
65519
65516
65511
65511
65516
65513
65527
65519
65527
65519
65511
65519
65519
65519
65510
65527
65523
65519
65519
65508
65532
65519
65527
65504
65517
65516
65525
65519
65531
65517
65514
65515
65517
65525
65517
65518
65508
65526
65526
65524
65517
65512
65504
65527
65516
65519
65525
65527
65516
65519
65518
65519
65511
65519
65516
65524
65527
65511
65525
65511
65508
65511
65531
65519
65516
65516
65518
65519
65518
65519
65525
65517
65509
65527
65519
65517
65519
65512
65524
65519
65527
65516
65511
65524
65508
65510
65533
65519
65524
65513
65517
65512
65506
65519
65527
65524
65511
65519
65527
65516
65519
65517
65511
65516
65526
65513
65511
65511
65516
65524
65517
65518
65519
65511
65508
65525
65508
65518
65513
65516
65535
65524
65524
65517
65511
65519
65511
65511
65527
65519
65521
65516
65524
65527
65516
65519
65527
65516
65519
65519
65516
65500
65517
65514
65525
65527
65527
65525
65511
65511
65508
65508
65519
65518
65518
65524
65512
65519
65519
65511
65518
65519
65532
65516
65516
65519
65508
65527
65535
65516
65519
65514
65527
65535
65514
65527
65511
65525
65519
65527
65522
65517
65524
65513
65524
65524
65525
65525
65509
65525
65533
65511
65525
65519
65527
65519
65511
65524
65524
65527
65516
65519
65521
65516
65516
65519
65519
65510
65511
65533
65511
65527
65524
65514
65510
65527
65516
65515
65519
65510
65519
65516
65524
65510
65519
65510
65508
65511
65516
65508
65512
65527
65517
65519
65525
65517
65511
65508
65518
65516
65524
65510
65519
65511
65519
65527
65511
65519
65527
65511
65512
65525
65511
65519
65527
65511
65504
65516
65511
65535
65526
65516
65519
65519
65511
65516
65504
65519
65510
65516
65527
65519
65524
65517
65527
65516
65519
65519
65519
65519
65522
65517
65527
65516
65509
65511
65516
65526
65519
65525
65524
65512
65518
65519
65516
65525
65519
65527
65515
65519
65527
65510
65519
65519
65519
65510
65517
65510
65519
65510
65516
65510
65506
65516
65527
65511
65508
65532
65510
65524
65533
65516
65510
65527
65535
65506
65527
65519
65514
65511
65517
65519
65527
65525
65519
65509
65527
65511
65519
65519
65513
65527
65508
65526
65519
65509
65509
65525
65519
65519
65519
65519
65516
65527
65517
65508
65516
65527
65511
65527
65516
65525
65510
65535
65527
65516
65527
65519
65524
65527
65524
65508
65527
65510
65510
65516
65511
65535
65519
65532
65527
65508
65514
65516
65527
65524
65510
65527
65519
65516
65535
65509
65519
65532
65511
65519
65519
65526
65519
65511
65510
65519
65514
65508
65514
65527
65524
65525
65519
65527
65527
65527
65514
65516
65511
65521
65526
65527
65511
65519
65527
65527
65524
65517
65515
65527
65516
65508
65508
65519
65516
65512
65514
65511
65510
65527
65527
65510
65519
65527
65517
65533
65519
65527
65516
65517
65519
65514
65519
65519
65510
65519
65516
65519
65525
65519
65527
65524
65516
65527
65500
65519
65517
65508
65519
65519
65524
65527
65519
65511
65511
65515
65519
65512
65527
65518
65517
65522
65517
65511
65514
65527
65527
65519
65518
65535
65527
65511
65514
65532
65525
65508
65516
65524
65519
65519
65519
65525
65513
65511
65508
65527
65527
65511
65519
65525
65519
65527
65519
65511
65516
65535
65512
65519
65519
65513
65519
65510
65510
65508
65519
65524
65522
65511
65516
65516
65508
65524
65524
65514
65527
65517
65525
65527
65508
65519
65526
65511
65514
65531
65516
65511
65518
65519
65519
65521
65519
65524
65518
65516
65518
65519
65511
65519
65527
65510
65510
65511
65516
65524
65504
65511
65524
65511
65525
65535
65533
65532
65535
65516
65517
65524
65524
65514
65517
65527
65519
65527
65511
65519
65519
65519
65526
65514
65527
65508
65516
65511
65527
65518
65519
65519
65510
65516
65516
65516
65527
65526
65524
65524
65524
65527
65510
65510
65510
65522
65524
65516
65519
65518
65508
65516
65512
65519
65519
65524
65511
65525
65524
65527
65533
65527
65519
65517
65519
65519
65526
65518
65510
65511
65510
65524
65515
65519
65510
65511
65505
65519
65511
65524
65534
65514
65527
65519
65512
65511
65519
65516
65504
65519
65518
65517
65513
65519
65511
65527
65493
65511
65519
65517
65525
65527
65519
65512
65508
65510
65511
65527
65519
65513
65518
65526
65514
65518
65525
65512
65525
65518
65510
65535
65511
65518
65518
65525
65519
65525
65527
65518
65516
65527
65519
65516
65516
65516
65516
65510
65517
65519
65511
65511
65527
65510
65519
65506
65519
65519
65524
65525
65511
65516
65519
65516
65511
65527
65524
65510
65516
65519
65535
65534
65518
65527
65519
65516
65519
65519
65519
65519
65519
65527
65511
65527
65518
65516
65510
65511
65527
65511
65517
65517
65511
65516
65510
65524
65511
65517
65519
65524
65518
65511
65520
65511
65511
65507
65519
65516
65524
65516
65518
65513
65524
65514
65518
65516
65527
65525
65519
65527
65519
65511
65510
65518
65517
65517
65511
65524
65519
65516
65515
65519
65519
65516
65516
65535
65524
65516
65525
65527
65516
65527
65527
65514
65519
65532
65519
65519
65519
65516
65527
65511
65500
65519
65517
65516
65516
65519
65516
65516
65524
65526
65521
65510
65524
65527
65516
65527
65519
65524
65524
65516
65517
65517
65511
65511
65510
65511
65519
65527
65524
65527
65519
65519
65516
65524
65517
65517
65515
65511
65519
65527
65527
65527
65519
65519
65519
65517
65519
65516
65527
65525
65510
65519
65519
65518
65527
65517
65506
65511
65519
65527
65518
65511
65512
65527
65519
65511
65524
65514
65525
65511
65524
65524
65525
65533
65524
65519
65519
65510
65508
65513
65525
65519
65512
65519
65524
65511
65527
65526
65527
65508
65524
65518
65511
65512
65518
65511
65514
65519
65511
65519
65527
65519
65504
65526
65519
65519
65508
65525
65535
65519
65527
65533
65517
65516
65511
65511
65514
65519
65519
65527
65516
65519
65519
65511
65527
65519
65527
65522
65519
65518
65519
65525
65517
65516
65519
65518
65511
65519
65512
65511
65519
65517
65519
65516
65508
65524
65524
65527
65521
65516
65525
65519
65511
65511
65527
65519
65525
65527
65511
65510
65515
65527
65516
65518
65511
65511
65519
65524
65517
65511
65527
65519
65517
65511
65516
65517
65526
65513
65527
65519
65516
65508
65518
65519
65525
65527
65516
65506
65516
65527
65519
65519
65515
65524
65516
65524
65532
65524
65508
65511
65531
65508
65510
65516
65532
65524
65527
65533
65518
65511
65524
65518
65511
65533
65504
65514
65519
65519
65509
65519
65510
65519
65519
65535
65517
65524
65508
65519
65506
65518
65516
65516
65511
65504
65508
65519
65516
65535
65519
65508
65517
65519
65506
65525
65519
65516
65510
65511
65519
65504
65502
65511
65514
65511
65514
65527
65535
65524
65527
65519
65511
65518
65524
65519
65524
65510
65519
65511
65527
65524
65512
65524
65511
65508
65511
65511
65517
65511
65508
65527
65517
65527
65519
65510
65518
65515
65519
65519
65516
65519
65510
65524
65519
65526
65527
65516
65516
65517
65522
65510
65518
65519
65527
65516
65518
65517
65519
65524
65524
65510
65524
65519
65514
65511
65511
65523
65510
65508
65516
65508
65519
65510
65516
65516
65535
65512
65525
65516
65508
65521
65502
65511
65524
65525
65519
65524
65519
65511
65511
65517
65508
65519
65516
65527
65511
65527
65527
65525
65518
65511
65525
65516
65508
65527
65517
65527
65517
65532
65519
65524
65516
65517
65504
65535
65514
65527
65519
65519
65516
65516
65511
65516
65527
65511
65525
65524
65527
65519
65511
65535
65516
65525
65524
65508
65527
65511
65527
65516
65519
65515
65511
65524
65527
65535
65535
65519
65519
65524
65510
65511
65510
65527
65504
65519
65511
65524
65524
65533
65527
65517
65535
65527
65516
65523
65525
65517
65527
65511
65511
65524
65510
65516
65519
65519
65511
65519
65517
65519
65519
65524
65513
65524
65508
65511
65519
65514
65519
65517
65510
65519
65519
65533
65524
65518
65532
65511
65511
65533
65519
65519
65525
65519
65533
65508
65519
65516
65524
65516
65513
65516
65524
65535
65517
65519
65511
65521
65511
65511
65511
65516
65532
65519
65516
65516
65510
65509
65526
65511
65532
65516
65524
65519
65510
65525
65524
65522
65525
65516
65511
65519
65519
65519
65519
65519
65510
65517
65527
65519
65518
65519
65510
65516
65527
65508
65526
65527
65519
65510
65517
65515
65511
65511
65517
65511
65514
65516
65519
65527
65519
65527
65511
65527
65519
65511
65514
65527
65508
65513
65532
65511
65519
65508
65516
65519
65524
65511
65516
65517
65516
65516
65535
65525
65511
65516
65500
65508
65519
65516
65516
65500
65519
65524
65511
65519
65535
65519
65525
65509
65519
65518
65510
65512
65519
65510
65525
65525
65527
65525
65525
65519
65516
65519
65519
65519
65516
65527
65531
65519
65516
65511
65512
65516
65511
65527
65519
65519
65503
65519
65517
65511
65519
65524
65522
65518
65511
65513
65508
65524
65508
65514
65511
65516
65502
65525
65510
65516
65511
65519
65511
65514
65510
65516
65516
65519
65510
65505
65525
65527
65516
65519
65519
65500
65524
65516
65526
65535
65515
65502
65527
65518
65519
65511
65509
65519
65511
65527
65511
65527
65513
65524
65513
65519
65524
65516
65510
65525
65524
65516
65533
65516
65517
65517
65518
65516
65524
65513
65511
65533
65527
65519
65521
65511
65519
65524
65517
65514
65518
65517
65533
65519
65511
65527
65515
65519
65511
65511
65515
65508
65519
65508
65525
65509
65510
65525
65519
65516
65516
65511
65519
65511
65519
65527
65517
65527
65524
65527
65516
65519
65525
65517
65519
65519
65506
65517
65519
65510
65526
65519
65519
65527
65516
65516
65527
65511
65533
65526
65519
65516
65511
65527
65508
65519
65511
65511
65516
65513
65524
65514
65532
65517
65504
65519
65517
65511
65516
65511
65519
65510
65525
65511
65514
65512
65524
65500
65525
65515
65524
65524
65519
65508
65510
65512
65517
65535
65519
65516
65517
65527
65516
65513
65535
65508
65522
65519
65524
65516
65519
65511
65527
65527
65519
65531
65511
65508
65518
65519
65511
65524
65517
65510
65527
65504
65519
65511
65519
65527
65524
65522
65516
65518
65512
65513
65519
65507
65510
65516
65519
65510
65527
65519
65525
65513
65519
65527
65519
65519
65505
65513
65516
65527
65527
65519
65527
65511
65527
65519
65519
65519
65527
65511
65535
65524
65509
65513
65527
65526
65519
65519
65535
65511
65519
65525
65524
65518
65519
65521
65524
65511
65508
65527
65510
65515
65525
65519
65519
65502
65514
65517
65519
65514
65516
65519
65518
65518
65524
65508
65513
65511
65519
65508
65515
65519
65519
65511
65518
65511
65519
65527
65515
65511
65527
65527
65511
65525
65511
65516
65519
65524
65535
65519
65527
65516
65533
65527
65513
65516
65535
65524
65524
65527
65527
65524
65511
65516
65517
65518
65518
65508
65519
65525
65511
65517
65527
65511
65521
65527
65511
65526
65518
65527
65525
65516
65516
65518
65527
65519
65511
65519
65527
65511
65506
65510
65511
65519
65516
65508
65511
65525
65524
65508
65519
65516
65508
65519
65511
65524
65518
65517
65525
65508
65525
65508
65516
65510
65521
65519
65535
65526
65519
65511
65519
65524
65518
65524
65511
65511
65517
65519
65517
65519
65533
65519
65516
65519
65511
65511
65519
65516
65516
65508
65511
65527
65519
65508
65524
65511
65516
65519
65525
65519
65508
65517
65511
65506
65516
65524
65524
65508
65525
65519
65522
65519
65516
65509
65504
65516
65516
65509
65517
65515
65519
65527
65527
65527
65516
65518
65526
65535
65519
65510
65518
65519
65511
65517
65515
65511
65526
65502
65517
65524
65516
65509
65527
65517
65527
65527
65535
65527
65510
65516
65516
65513
65515
65519
65519
65510
65519
65525
65511
65527
65511
65511
65519
65516
65511
65527
65527
65519
65524
65527
65524
65509
65511
65521
65516
65527
65519
65524
65511
65511
65500
65502
65519
65510
65525
65518
65516
65524
65514
65527
65524
65519
65506
65524
65511
65516
65519
65519
65511
65525
65525
65511
65519
65527
65519
65525
65511
65518
65516
65516
65514
65525
65518
65511
65533
65514
65519
65511
65511
65526
65516
65511
65516
65510
65527
65535
65516
65518
65511
65525
65525
65511
65519
65508
65519
65516
65511
65511
65500
65519
65501
65535
65511
65514
65511
65516
65526
65511
65525
65511
65519
65518
65519
65510
65526
65524
65524
65527
65527
65511
65518
65515
65498
65535
65510
65527
65519
65519
65511
65518
65519
65519
65504
65510
65519
65509
65511
65527
65511
65527
65508
65525
65511
65504
65504
65516
65511
65511
65526
65508
65511
65511
65527
65519
65519
65508
65511
65526
65527
65511
65519
65519
65519
65519
65519
65519
65510
65511
65511
65519
65535
65524
65527
65517
65516
65535
65519
65516
65511
65517
65511
65516
65504
65504
65504
65505
65510
65519
65517
65508
65519
65518
65518
65509
65511
65519
65516
65527
65510
65511
65515
65517
65519
65508
65527
65518
65518
65527
65510
65517
65523
65508
65519
65519
65518
65516
65511
65519
65508
65519
65519
65511
65518
65518
65516
65511
65519
65517
65510
65508
65524
65514
65511
65527
65535
65511
65516
65524
65519
65517
65517
65511
65511
65524
65511
65527
65508
65508
65526
65534
65535
65524
65515
65524
65516
65527
65511
65519
65516
65525
65519
65527
65516
65511
65514
65527
65511
65524
65509
65525
65527
65510
65516
65517
65527
65511
65519
65525
65504
65511
65527
65514
65519
65526
65519
65512
65519
65516
65516
65527
65524
65527
65519
65511
65511
65518
65519
65527
65511
65519
65516
65508
65511
65519
65526
65519
65511
65527
65531
65527
65516
65516
65511
65512
65511
65527
65535
65525
65508
65513
65518
65526
65519
65509
65526
65516
65519
65510
65525
65517
65510
65510
65516
65527
65509
65515
65516
65510
65511
65508
65510
65517
65527
65511
65511
65518
65533
65511
65511
65517
65519
65526
65519
65518
65516
65526
65535
65510
65527
65525
65527
65513
65511
65519
65519
65516
65525
65519
65519
65519
65516
65510
65516
65517
65527
65526
65519
65524
65504
65527
65519
65511
65519
65525
65519
65508
65524
65510
65511
65519
65511
65519
65508
65508
65519
65519
65510
65511
65511
65510
65527
65511
65519
65519
65508
65527
65511
65517
65519
65526
65516
65519
65506
65519
65512
65535
65516
65519
65512
65511
65519
65511
65525
65518
65508
65516
65511
65502
65511
65526
65519
65518
65508
65510
65524
65527
65518
65513
65510
65511
65524
65524
65516
65527
65519
65514
65526
65516
65519
65513
65508
65509
65516
65526
65511
65526
65527
65533
65519
65519
65518
65527
65500
65519
65516
65519
65524
65519
65524
65508
65518
65511
65511
65516
65516
65511
65535
65515
65517
65508
65526
65516
65516
65519
65516
65510
65516
65510
65519
65527
65518
65519
65527
65515
65505
65514
65516
65524
65508
65516
65527
65533
65511
65518
65519
65516
65517
65510
65524
65525
65515
65517
65524
65502
65510
65519
65531
65519
65519
65510
65518
65516
65527
65503
65511
65519
65519
65518
65525
65511
65508
65511
65527
65504
65513
65516
65511
65508
65515
65533
65524
65527
65517
65517
65515
65508
65517
65516
65502
65525
65517
65535
65510
65526
65511
65527
65519
65516
65511
65527
65519
65526
65511
65511
65511
65535
65510
65518
65527
65519
65525
65527
65508
65524
65533
65516
65502
65506
65519
65519
65511
65519
65511
65510
65516
65524
65513
65511
65519
65516
65509
65519
65519
65519
65518
65516
65508
65535
65508
65519
65510
65511
65511
65516
65511
65510
65524
65509
65516
65519
65511
65511
65516
65523
65510
65519
65535
65527
65500
65516
65525
65519
65511
65515
65517
65526
65511
65516
65511
65496
65527
65519
65524
65519
65519
65527
65516
65524
65515
65519
65524
65511
65511
65519
65519
65511
65519
65525
65511
65519
65517
65524
65511
65519
65513
65535
65516
65508
65519
65508
65518
65527
65511
65524
65522
65519
65500
65535
65527
65519
65535
65527
65519
65508
65524
65510
65511
65527
65519
65527
65508
65519
65510
65527
65516
65535
65519
65519
65524
65535
65511
65519
65519
65527
65524
65506
65518
65511
65510
65504
65512
65521
65535
65516
65527
65507
65527
65519
65525
65519
65513
65516
65513
65518
65511
65519
65508
65510
65524
65511
65510
65519
65508
65510
65519
65511
65518
65504
65510
65519
65527
65525
65508
65516
65524
65510
65526
65519
65500
65511
65519
65516
65516
65524
65525
65516
65510
65525
65525
65518
65510
65519
65523
65516
65515
65516
65519
65518
65519
65527
65516
65511
65519
65527
65524
65510
65527
65511
65535
65518
65519
65510
65519
65524
65510
65510
65524
65503
65511
65519
65511
65519
65519
65515
65511
65510
65518
65519
65519
65527
65516
65510
65519
65527
65512
65519
65511
65519
65519
65511
65509
65511
65511
65527
65519
65525
65511
65507
65510
65524
65524
65508
65519
65519
65514
65527
65519
65512
65512
65516
65519
65527
65525
65518
65508
65516
65513
65511
65517
65508
65511
65519
65516
65519
65521
65519
65527
65527
65508
65519
65514
65512
65511
65508
65519
65519
65524
65519
65516
65527
65511
65533
65519
65513
65514
65515
65524
65525
65519
65516
65511
65510
65519
65510
65516
65518
65527
65504
65527
65518
65526
65527
65527
65517
65519
65516
65508
65519
65511
65508
65519
65511
65519
65525
65519
65518
65518
65527
65517
65511
65510
65527
65518
65511
65525
65500
65524
65503
65511
65526
65508
65514
65496
65510
65511
65516
65525
65511
65516
65516
65508
65511
65519
65517
65527
65508
65519
65533
65508
65514
65514
65524
65517
65518
65527
65527
65508
65527
65527
65519
65527
65504
65518
65516
65509
65519
65518
65518
65533
65503
65519
65519
65517
65519
65508
65511
65508
65519
65526
65516
65510
65508
65519
65517
65516
65511
65515
65510
65525
65519
65519
65521
65527
65519
65519
65511
65524
65527
65504
65510
65516
65532
65526
65504
65518
65508
65510
65516
65511
65509
65522
65508
65508
65518
65509
65511
65524
65511
65511
65533
65535
65519
65518
65519
65516
65519
65513
65527
65519
65519
65508
65511
65527
65512
65519
65516
65514
65519
65524
65518
65517
65511
65519
65527
65516
65519
65519
65511
65519
65505
65517
65511
65519
65525
65524
65524
65518
65516
65516
65524
65516
65511
65511
65519
65527
65511
65508
65524
65527
65519
65535
65511
65508
65527
65508
65504
65508
65527
65511
65519
65504
65510
65521
65519
65511
65519
65527
65516
65509
65524
65519
65511
65527
65524
65519
65508
65508
65508
65527
65516
65513
65511
65519
65523
65524
65516
65511
65510
65519
65511
65504
65505
65521
65519
65521
65511
65525
65527
65519
65511
65516
65527
65527
65519
65510
65519
65506
65511
65516
65511
65511
65514
65516
65502
65505
65508
65513
65518
65511
65510
65516
65511
65511
65518
65519
65510
65508
65513
65519
65535
65519
65527
65512
65515
65519
65517
65525
65509
65525
65508
65511
65518
65527
65526
65511
65519
65530
65511
65519
65511
65511
65505
65511
65519
65517
65511
65518
65510
65508
65517
65519
65511
65508
65516
65519
65519
65510
65511
65527
65515
65519
65526
65525
65517
65525
65519
65519
65510
65516
65511
65511
65511
65525
65518
65527
65524
65508
65519
65516
65517
65516
65519
65524
65519
65519
65524
65511
65516
65514
65527
65516
65516
65527
65519
65510
65525
65508
65527
65519
65519
65519
65516
65527
65518
65524
65519
65504
65509
65516
65511
65500
65511
65520
65511
65511
65517
65514
65510
65508
65519
65519
65519
65511
65515
65527
65524
65519
65535
65519
65527
65511
65518
65508
65511
65510
65517
65516
65511
65510
65505
65511
65524
65514
65508
65518
65519
65517
65525
65519
65508
65527
65524
65518
65514
65512
65518
65509
65527
65511
65530
65519
65517
65496
65524
65511
65516
65510
65519
65516
65519
65511
65516
65508
65516
65519
65519
65518
65519
65503
65519
65524
65516
65525
65526
65511
65508
65511
65511
65511
65516
65511
65519
65517
65519
65511
65516
65515
65504
65518
65517
65519
65511
65519
65511
65525
65511
65524
65514
65519
65519
65516
65517
65519
65513
65511
65519
65511
65517
65517
65503
65510
65525
65511
65519
65519
65510
65527
65517
65510
65511
65511
65524
65527
65511
65527
65510
65511
65511
65515
65527
65511
65524
65516
65524
65510
65513
65519
65535
65518
65514
65510
65519
65518
65515
65514
65508
65519
65511
65511
65527
65518
65525
65519
65519
65511
65519
65503
65508
65508
65508
65516
65516
65524
65510
65524
65519
65511
65511
65519
65506
65508
65527
65518
65511
65508
65511
65511
65516
65511
65527
65527
65511
65508
65516
65503
65513
65502
65519
65527
65527
65511
65516
65511
65511
65517
65506
65511
65533
65508
65521
65508
65525
65524
65535
65511
65509
65517
65500
65524
65502
65519
65525
65519
65518
65511
65519
65524
65525
65511
65511
65510
65509
65519
65519
65519
65511
65500
65511
65519
65519
65511
65508
65525
65527
65519
65508
65508
65519
65511
65512
65524
65510
65511
65511
65519
65519
65511
65510
65510
65511
65519
65527
65523
65515
65519
65527
65511
65510
65510
65509
65502
65514
65516
65516
65519
65511
65535
65511
65524
65524
65511
65519
65526
65519
65519
65516
65518
65525
65516
65517
65516
65527
65519
65508
65512
65519
65506
65525
65518
65516
65519
65514
65519
65508
65519
65516
65524
65511
65526
65508
65517
65511
65511
65517
65517
65519
65517
65527
65524
65511
65516
65519
65510
65532
65511
65525
65519
65519
65508
65516
65518
65527
65505
65516
65510
65519
65516
65526
65511
65508
65511
65519
65511
65511
65527
65519
65527
65511
65511
65525
65510
65511
65527
65519
65517
65519
65513
65518
65519
65516
65519
65511
65515
65520
65505
65508
65508
65508
65531
65514
65527
65535
65511
65516
65526
65516
65511
65519
65510
65504
65508
65508
65527
65527
65510
65511
65519
65511
65508
65519
65519
65527
65526
65517
65535
65527
65511
65502
65527
65511
65516
65519
65508
65519
65502
65527
65511
65513
65501
65511
65511
65508
65527
65518
65519
65524
65510
65503
65511
65514
65506
65525
65519
65511
65516
65516
65511
65507
65516
65527
65519
65517
65508
65525
65508
65519
65510
65527
65506
65517
65502
65519
65512
65519
65527
65508
65506
65504
65510
65504
65496
65525
65510
65519
65510
65510
65519
65518
65518
65506
65519
65517
65511
65511
65519
65525
65527
65508
65514
65517
65510
65519
65511
65508
65516
65516
65519
65519
65519
65516
65527
65511
65527
65519
65511
65519
65519
65508
65515
65519
65511
65511
65510
65518
65519
65517
65511
65519
65515
65517
65519
65511
65510
65524
65527
65511
65527
65511
65519
65519
65524
65509
65516
65518
65519
65527
65511
65516
65527
65504
65511
65510
65514
65516
65511
65510
65517
65524
65525
65515
65516
65511
65519
65510
65507
65519
65519
65511
65506
65507
65527
65519
65508
65519
65511
65519
65527
65511
65504
65527
65516
65511
65508
65511
65503
65510
65511
65525
65534
65510
65516
65511
65525
65519
65519
65500
65510
65519
65511
65516
65508
65527
65514
65519
65519
65511
65508
65519
65519
65511
65519
65535
65502
65510
65519
65519
65526
65500
65516
65518
65527
65511
65508
65503
65519
65527
65518
65518
65517
65511
65523
65527
65518
65510
65527
65527
65516
65524
65508
65511
65516
65519
65505
65519
65510
65519
65515
65511
65511
65519
65510
65511
65492
65519
65510
65519
65511
65508
65516
65519
65511
65519
65511
65527
65527
65516
65519
65527
65517
65511
65519
65526
65515
65527
65511
65512
65510
65534
65508
65527
65518
65519
65509
65511
65506
65508
65508
65514
65498
65500
65519
65513
65500
65516
65518
65511
65516
65508
65517
65511
65511
65524
65516
65511
65511
65510
65516
65508
65516
65519
65514
65511
65519
65511
65517
65516
65514
65508
65511
65508
65519
65514
65511
65519
65519
65516
65511
65518
65527
65511
65525
65514
65511
65508
65511
65511
65526
65527
65510
65514
65510
65519
65510
65519
65511
65508
65505
65511
65510
65509
65519
65527
65511
65503
65516
65527
65519
65513
65514
65517
65527
65510
65512
65508
65511
65524
65506
65519
65510
65516
65511
65504
65519
65503
65510
65510
65511
65519
65511
65511
65518
65519
65525
65504
65519
65524
65519
65511
65527
65511
65527
65516
65514
65517
65519
65511
65517
65511
65527
65508
65511
65511
65519
65511
65525
65500
65511
65516
65512
65516
65508
65516
65511
65515
65511
65511
65527
65519
65519
65519
65515
65516
65514
65524
65511
65519
65511
65516
65527
65535
65511
65502
65517
65525
65516
65510
65516
65516
65519
65511
65517
65511
65511
65519
65519
65510
65516
65524
65502
65519
65508
65519
65525
65519
65516
65516
65519
65511
65516
65508
65519
65511
65511
65519
65516
65516
65511
65508
65509
65511
65506
65519
65519
65516
65511
65516
65519
65511
65511
65526
65500
65504
65511
65502
65511
65518
65511
65510
65511
65500
65510
65502
65518
65511
65505
65527
65511
65511
65511
65511
65516
65519
65525
65502
65511
65508
65519
65508
65510
65500
65516
65514
65511
65509
65508
65511
65510
65511
65524
65517
65524
65511
65511
65527
65511
65511
65504
65519
65505
65511
65511
65519
65535
65511
65510
65511
65508
65527
65527
65511
65519
65518
65516
65508
65510
65511
65512
65511
65503
65519
65519
65525
65511
65511
65519
65511
65519
65511
65507
65511
65511
65527
65519
65525
65519
65503
65516
65508
65511
65511
65509
65505
65516
65519
65527
65511
65517
65519
65508
65519
65516
65509
65519
65510
65518
65516
65513
65525
65502
65511
65511
65519
65511
65511
65496
65511
65511
65508
65507
65517
65507
65519
65504
65506
65508
65507
65519
65519
65515
65511
65510
65508
65504
65515
65519
65517
65511
65535
65514
65519
65524
65519
65514
65511
65527
65504
65502
65519
65509
65511
65519
65511
65511
65511
65501
65516
65511
65511
65519
65519
65510
65511
65519
65504
65500
65525
65506
65511
65511
65511
65510
65519
65506
65508
65511
65505
65519
65508
65511
65516
65509
65508
65527
65509
65527
65500
65519
65510
65504
65511
65508
65511
65506
65519
65519
65511
65503
65500
65511
65519
65525
65508
65511
65527
65519
65514
65519
65516
65508
65506
65504
65516
65504
65518
65519
65519
65524
65524
65511
65527
65519
65524
65511
65508
65508
65510
65511
65508
65508
65505
65511
65509
65508
65511
65510
65495
65511
65511
65511
65511
65511
65519
65511
65500
65511
65511
65516
65518
65505
65517
65500
65504
65519
65516
65519
65519
65511
65519
65519
65511
65527
65511
65511
65506
65509
65527
65519
65503
65517
65500
65510
65511
65500
65511
65510
65524
65501
65527
65511
65511
65508
65516
65511
65511
65519
65510
65519
65511
65515
65508
65527
65511
65519
65516
65519
65519
65519
65511
65518
65519
65502
65527
65511
65519
65517
65510
65508
65511
65525
65510
65509
65508
65503
65511
65511
65525
65516
65509
65505
65511
65519
65511
65511
65500
65517
65511
65510
65524
65511
65511
65508
65500
65519
65511
65502
65519
65511
65496
65508
65527
65511
65519
65524
65511
65508
65518
65508
65506
65503
65504
65514
65517
65511
65508
65511
65525
65511
65506
65505
65527
65511
65506
65516
65511
65519
65508
65511
65511
65508
65508
65500
65519
65511
65500
65511
65511
65518
65518
65525
65502
65511
65511
65511
65511
65507
65506
65505
65516
65502
65511
65500
65519
65508
65508
65510
65519
65511
65511
65524
65511
65519
65516
65511
65511
65504
65503
65519
65519
65503
65510
65519
65511
65518
65511
65516
65519
65496
65511
65508
65509
65527
65511
65503
65511
65525
65510
65511
65511
65512
65511
65517
65511
65519
65525
65511
65511
65511
65511
65503
65510
65508
65510
65527
65502
65511
65511
65508
65505
65519
65527
65511
65519
65511
65519
65511
65519
65511
65519
65527
65511
65511
65517
65511
65511
65519
65519
65508
65492
65511
65508
65511
65519
65511
65516
65510
65500
65508
65511
65496
65511
65519
65511
65508
65503
65511
65511
65511
65511
65492
65519
65504
65511
65511
65504
65519
65511
65511
65519
65519
65508
65511
65511
65500
65525
65510
65519
65510
65510
65519
65503
65517
65508
65511
65511
65519
65506
65511
65503
65502
65500
65516
65511
65516
65516
65514
65508
65511
65500
65517
65519
65506
65511
65511
65509
65518
65511
65503
65503
65503
65506
65511
65519
65511
65511
65511
65511
65519
65509
65502
65535
65510
65519
65508
65511
65519
65516
65514
65519
65506
65508
65511
65504
65484
65508
65510
65502
65510
65516
65508
65502
65516
65508
65511
65502
65505
65501
65519
65511
65511
65519
65511
65511
65509
65508
65519
65492
65511
65508
65511
65519
65511
65511
65517
65517
65514
65502
65503
65505
65511
65508
65519
65517
65519
65511
65508
65508
65507
65500
65519
65511
65510
65510
65508
65519
65519
65511
65511
65511
65496
65518
65510
65508
65511
65504
65511
65511
65511
65510
65502
65511
65500
65517
65519
65515
65519
65511
65511
65511
65524
65511
65508
65508
65511
65503
65511
65508
65510
65508
65516
65519
65511
65502
65511
65511
65511
65518
65511
65535
65508
65511
65500
65519
65511
65503
65516
65502
65517
65511
65516
65524
65496
65502
65510
65525
65511
65508
65519
65505
65511
65518
65511
65519
65525
65505
65511
65511
65513
65511
65514
65527
65508
65516
65505
65511
65505
65511
65519
65511
65511
65492
65508
65527
65511
65511
65496
65535
65508
65511
65511
65506
65511
65511
65508
65510
65508
65504
65517
65510
65510
65511
65511
65511
65519
65519
65511
65518
65511
65500
65506
65527
65509
65511
65511
65519
65502
65500
65511
65511
65511
65503
65508
65519
65500
65499
65508
65508
65493
65519
65527
65508
65508
65511
65511
65511
65511
65519
65511
65506
65516
65519
65517
65519
65510
65516
65510
65519
65519
65525
65500
65519
65508
65510
65527
65511
65527
65524
65508
65526
65516
65511
65519
65511
65516
65519
65505
65514
65507
65519
65511
65525
65516
65511
65503
65511
65517
65511
65510
65508
65510
65511
65511
65507
65503
65511
65508
65504
65519
65505
65511
65517
65503
65509
65504
65510
65511
65508
65509
65502
65511
65511
65511
65516
65511
65510
65511
65511
65508
65519
65519
65510
65500
65509
65510
65506
65505
65511
65511
65511
65519
65497
65510
65510
65511
65511
65512
65511
65514
65527
65511
65508
65508
65510
65519
65510
65511
65510
65511
65527
65519
65519
65511
65510
65511
65519
65508
65504
65509
65503
65503
65511
65508
65511
65508
65503
65519
65511
65494
65519
65511
65504
65504
65508
65511
65510
65508
65509
65508
65501
65500
65519
65519
65511
65511
65524
65508
65519
65527
65511
65511
65505
65511
65510
65516
65511
65503
65511
65500
65511
65519
65501
65511
65519
65511
65511
65500
65509
65519
65502
65511
65509
65519
65511
65511
65511
65505
65509
65510
65508
65500
65500
65506
65519
65511
65527
65508
65492
65527
65508
65519
65508
65508
65511
65516
65510
65508
65519
65500
65511
65510
65500
65527
65511
65511
65510
65511
65500
65511
65502
65511
65508
65519
65519
65508
65519
65511
65518
65511
65519
65511
65502
65511
65517
65506
65519
65511
65511
65506
65511
65504
65508
65510
65508
65519
65492
65511
65511
65502
65524
65518
65519
65502
65509
65518
65508
65511
65511
65519
65511
65519
65507
65509
65511
65508
65511
65503
65519
65500
65508
65519
65500
65514
65500
65511
65511
65508
65500
65505
65511
65511
65511
65511
65502
65510
65510
65516
65514
65510
65510
65498
65502
65503
65511
65511
65511
65527
65508
65511
65502
65508
65511
65516
65506
65510
65509
65511
65518
65508
65519
65511
65517
65510
65518
65519
65519
65504
65512
65511
65511
65514
65493
65511
65511
65519
65504
65525
65492
65503
65510
65519
65519
65519
65511
65511
65511
65516
65511
65509
65511
65519
65508
65519
65519
65527
65496
65518
65511
65508
65511
65507
65519
65511
65511
65524
65511
65527
65510
65519
65511
65516
65511
65511
65508
65510
65508
65511
65511
65502
65509
65508
65519
65511
65511
65501
65511
65511
65501
65511
65500
65511
65511
65506
65511
65508
65502
65516
65510
65518
65511
65503
65527
65508
65519
65517
65511
65519
65511
65511
65509
65511
65527
65519
65519
65511
65516
65502
65519
65508
65511
65510
65519
65518
65519
65511
65518
65511
65511
65508
65511
65511
65508
65511
65525
65511
65518
65519
65527
65516
65502
65511
65496
65511
65502
65511
65511
65510
65519
65511
65519
65511
65503
65500
65511
65511
65511
65511
65511
65511
65511
65519
65511
65527
65519
65511
65511
65508
65502
65511
65519
65519
65525
65510
65511
65496
65511
65511
65517
65511
65519
65508
65509
65517
65510
65504
65510
65511
65511
65511
65504
65519
65519
65508
65511
65511
65503
65510
65508
65511
65511
65511
65513
65500
65503
65515
65527
65508
65517
65511
65492
65510
65516
65511
65503
65519
65503
65511
65511
65509
65519
65516
65514
65511
65511
65508
65516
65503
65510
65511
65504
65502
65504
65510
65524
65506
65517
65511
65510
65504
65514
65519
65516
65517
65496
65519
65511
65506
65511
65510
65511
65519
65511
65527
65527
65518
65519
65511
65511
65511
65503
65525
65519
65508
65508
65508
65516
65519
65519
65511
65511
65511
65511
65511
65519
65527
65508
65511
65509
65509
65511
65500
65511
65511
65511
65506
65511
65506
65504
65511
65510
65508
65502
65527
65510
65504
65511
65502
65495
65519
65502
65516
65506
65511
65519
65509
65511
65508
65506
65504
65505
65511
65508
65527
65511
65519
65510
65511
65506
65516
65511
65508
65511
65511
65509
65527
65505
65502
65496
65525
65510
65508
65511
65511
65519
65511
65511
65510
65519
65510
65506
65524
65503
65519
65505
65527
65511
65516
65505
65503
65527
65519
65511
65519
65508
65519
65508
65511
65498
65511
65519
65511
65505
65511
65511
65517
65506
65524
65519
65510
65519
65505
65516
65502
65508
65510
65511
65511
65519
65527
65508
65511
65525
65511
65508
65511
65511
65508
65524
65505
65519
65516
65519
65511
65510
65507
65511
65511
65511
65511
65511
65511
65527
65519
65524
65511
65519
65508
65527
65525
65526
65510
65503
65508
65511
65511
65519
65508
65511
65508
65508
65511
65508
65519
65511
65511
65511
65519
65516
65511
65527
65511
65498
65519
65519
65511
65527
65508
65511
65519
65511
65508
65501
65511
65519
65524
65511
65511
65500
65519
65511
65518
65511
65509
65508
65511
65511
65519
65519
65511
65519
65502
65518
65511
65511
65504
65511
65511
65516
65511
65519
65504
65511
65505
65519
65508
65527
65503
65508
65510
65511
65504
65509
65496
65511
65518
65519
65511
65511
65503
65511
65504
65511
65510
65511
65500
65510
65511
65519
65511
65511
65509
65524
65511
65508
65511
65519
65510
65508
65508
65510
65508
65504
65516
65517
65503
65511
65518
65517
65507
65527
65519
65516
65517
65511
65506
65511
65511
65509
65514
65519
65508
65511
65511
65516
65500
65511
65511
65518
65508
65511
65511
65516
65511
65503
65519
65510
65508
65511
65519
65496
65519
65511
65511
65511
65511
65519
65504
65510
65511
65511
65511
65518
65519
65511
65518
65519
65507
65511
65524
65508
65502
65503
65507
65517
65504
65511
65510
65519
65511
65516
65511
65519
65510
65510
65516
65508
65518
65510
65518
65500
65525
65506
65510
65518
65510
65510
65516
65508
65511
65511
65511
65519
65508
65508
65519
65511
65527
65506
65503
65508
65506
65510
65519
65509
65508
65509
65519
65510
65519
65511
65511
65511
65517
65508
65511
65519
65511
65510
65519
65508
65508
65525
65519
65502
65508
65511
65524
65511
65506
65506
65509
65519
65511
65502
65525
65519
65518
65510
65501
65509
65519
65511
65496
65511
65515
65525
65502
65510
65516
65502
65517
65514
65506
65511
65510
65511
65519
65509
65527
65511
65525
65511
65508
65511
65511
65509
65519
65516
65508
65511
65511
65508
65508
65511
65511
65504
65500
65511
65519
65504
65511
65517
65508
65511
65511
65504
65525
65519
65511
65519
65525
65510
65511
65510
65510
65511
65510
65508
65509
65511
65511
65509
65508
65511
65511
65527
65503
65504
65518
65511
65508
65508
65511
65516
65510
65508
65509
65511
65511
65511
65510
65509
65508
65511
65519
65510
65510
65500
65501
65511
65511
65500
65516
65511
65518
65511
65525
65511
65506
65519
65511
65509
65518
65511
65508
65511
65519
65527
65511
65502
65505
65508
65527
65511
65511
65507
65511
65525
65508
65508
65503
65511
65511
65516
65496
65508
65519
65507
65519
65527
65511
65518
65510
65511
65517
65517
65519
65519
65508
65511
65525
65511
65516
65510
65511
65519
65511
65511
65508
65511
65508
65511
65519
65500
65510
65511
65511
65511
65510
65518
65511
65510
65509
65503
65527
65501
65508
65511
65511
65508
65511
65511
65508
65525
65527
65518
65511
65508
65505
65517
65504
65508
65504
65532
65508
65511
65511
65519
65510
65527
65503
65502
65527
65519
65511
65527
65498
65519
65507
65506
65535
65511
65502
65500
65519
65511
65511
65516
65511
65511
65503
65511
65519
65505
65508
65503
65510
65511
65508
65510
65515
65506
65503
65519
65511
65511
65511
65525
65511
65511
65502
65519
65509
65511
65511
65510
65519
65516
65508
65500
65527
65511
65525
65519
65511
65518
65503
65496
65519
65512
65517
65525
65516
65503
65511
65508
65511
65527
65511
65511
65506
65511
65511
65503
65516
65506
65516
65516
65511
65511
65511
65524
65502
65500
65527
65510
65508
65511
65525
65511
65517
65508
65517
65516
65511
65511
65519
65511
65511
65504
65519
65508
65511
65511
65524
65519
65502
65508
65509
65527
65511
65510
65508
65503
65512
65525
65517
65525
65516
65516
65509
65517
65497
65510
65511
65511
65511
65511
65517
65510
65511
65510
65524
65511
65513
65519
65511
65511
65526
65516
65511
65508
65517
65510
65511
65511
65511
65504
65511
65519
65511
65510
65519
65525
65511
65517
65511
65510
65525
65509
65516
65511
65500
65518
65519
65508
65519
65510
65508
65502
65511
65519
65519
65519
65511
65519
65511
65505
65519
65511
65495
65508
65525
65500
65525
65506
65505
65512
65511
65511
65503
65519
65511
65525
65504
65511
65516
65508
65519
65517
65519
65510
65511
65511
65511
65511
65508
65498
65519
65508
65527
65508
65507
65519
65517
65507
65510
65500
65514
65508
65508
65508
65510
65511
65516
65506
65511
65511
65518
65508
65504
65516
65511
65517
65516
65534
65508
65511
65511
65508
65508
65519
65508
65496
65511
65510
65511
65509
65519
65500
65516
65501
65511
65517
65511
65518
65519
65511
65498
65511
65511
65519
65511
65527
65511
65514
65527
65508
65510
65508
65519
65510
65511
65525
65535
65511
65527
65511
65511
65504
65509
65508
65516
65519
65511
65502
65519
65527
65510
65508
65511
65519
65508
65508
65503
65511
65516
65518
65511
65502
65518
65511
65516
65511
65519
65503
65510
65511
65514
65508
65511
65511
65509
65519
65519
65527
65505
65502
65509
65511
65519
65502
65511
65519
65502
65510
65527
65511
65496
65511
65519
65519
65519
65508
65504
65519
65511
65519
65518
65502
65496
65524
65501
65511
65519
65527
65500
65511
65516
65503
65510
65511
65508
65500
65496
65519
65519
65503
65511
65519
65503
65511
65504
65511
65504
65511
65508
65518
65519
65511
65511
65511
65496
65511
65509
65511
65503
65509
65511
65516
65508
65509
65500
65511
65519
65502
65519
65498
65509
65507
65519
65511
65524
65519
65497
65508
65503
65516
65511
65516
65510
65511
65527
65511
65518
65505
65511
65511
65527
65510
65511
65527
65519
65517
65511
65516
65511
65519
65511
65503
65511
65527
65511
65511
65527
65511
65503
65503
65511
65511
65519
65511
65511
65511
65508
65510
65511
65504
65508
65504
65508
65519
65494
65511
65527
65511
65511
65502
65519
65519
65525
65508
65503
65519
65519
65497
65511
65509
65525
65511
65515
65510
65511
65502
65510
65527
65501
65511
65502
65511
65510
65511
65511
65503
65508
65511
65511
65519
65525
65508
65500
65508
65514
65510
65505
65504
65508
65511
65508
65511
65511
65519
65501
65503
65511
65524
65511
65500
65506
65511
65527
65508
65504
65505
65511
65511
65511
65518
65519
65511
65506
65510
65519
65508
65503
65517
65503
65525
65510
65508
65519
65510
65511
65504
65511
65511
65509
65511
65511
65525
65508
65525
65503
65505
65519
65519
65516
65524
65508
65516
65503
65518
65511
65525
65517
65519
65508
65505
65510
65511
65517
65508
65516
65505
65510
65511
65501
65525
65511
65517
65496
65508
65511
65508
65519
65518
65511
65519
65519
65503
65517
65525
65511
65511
65510
65519
65511
65510
65519
65524
65503
65500
65504
65504
65511
65519
65512
65511
65515
65508
65509
65524
65511
65511
65509
65508
65510
65511
65519
65510
65508
65506
65506
65511
65519
65498
65511
65508
65511
65519
65500
65517
65500
65516
65511
65511
65510
65519
65511
65508
65509
65510
65510
65497
65518
65504
65507
65510
65519
65511
65500
65508
65511
65508
65519
65513
65511
65511
65508
65516
65504
65517
65502
65510
65503
65511
65511
65511
65517
65525
65525
65525
65511
65510
65527
65526
65516
65508
65511
65511
65508
65527
65519
65519
65511
65510
65509
65508
65511
65519
65519
65519
65510
65519
65503
65508
65503
65503
65511
65508
65519
65511
65511
65511
65511
65524
65519
65511
65506
65506
65508
65519
65509
65525
65517
65503
65527
65508
65525
65509
65511
65519
65519
65511
65508
65518
65511
65511
65508
65511
65503
65511
65505
65507
65511
65511
65505
65510
65509
65511
65509
65513
65518
65513
65516
65510
65509
65519
65515
65519
65524
65511
65511
65506
65511
65503
65510
65519
65519
65515
65511
65509
65508
65501
65519
65511
65527
65497
65511
65511
65511
65519
65519
65508
65504
65506
65527
65509
65508
65505
65519
65505
65504
65511
65508
65516
65494
65509
65511
65508
65509
65508
65508
65511
65502
65510
65508
65492
65519
65511
65511
65503
65527
65508
65509
65511
65511
65494
65519
65511
65511
65519
65516
65511
65511
65503
65510
65503
65508
65500
65511
65500
65502
65509
65517
65517
65527
65503
65519
65507
65519
65511
65511
65517
65510
65502
65511
65500
65510
65516
65516
65500
65511
65508
65511
65513
65508
65500
65519
65500
65511
65509
65526
65519
65511
65506
65506
65511
65510
65500
65511
65508
65495
65503
65514
65517
65519
65498
65511
65510
65508
65511
65508
65511
65511
65511
65501
65500
65504
65508
65502
65519
65519
65511
65508
65502
65511
65508
65492
65510
65510
65505
65508
65508
65517
65519
65511
65511
65511
65508
65511
65511
65518
65511
65503
65511
65511
65519
65511
65510
65500
65492
65511
65492
65498
65492
65498
65494
65501
65511
65509
65500
65501
65495
65472
65486
65491
65502
65487
65487
65495
65478
65484
65479
65478
65487
65476
65479
65476
65479
65479
65464
65479
65479
65479
65468
65473
65471
65476
65461
65470
65463
65468
65463
65463
65463
65463
65462
65460
65461
65477
65452
65462
65462
65471
65460
65454
65446
65447
65450
65448
65463
65463
65439
65453
65455
65460
65460
65445
65439
65452
65439
65447
65446
65447
65452
65445
65447
65453
65436
65430
65444
65436
65439
65447
65429
65431
65447
65436
65446
65455
65436
65436
65439
65431
65415
65436
65428
65435
65430
65431
65428
65431
65415
65415
65420
65439
65431
65439
65415
65470
65415
65412
65412
65407
65415
65414
65412
65415
65412
65415
65415
65415
65388
65393
65399
65407
65406
65411
65405
65388
65399
65391
65404
65383
65405
65391
65382
65391
65407
65399
65383
65412
65396
65388
65374
65388
65383
65367
65386
65383
65383
65396
65438
65383
65377
65372
65382
65343
65361
65373
65383
65372
65383
65373
65390
65437
65370
65361
65358
65327
65357
65367
65364
65415
65365
65356
65359
65351
65340
65316
65333
65359
65353
65342
65351
65359
65351
65351
65349
65351
65447
65334
65351
65332
65349
65335
65311
65349
65351
65431
65340
65287
65343
65341
65327
65343
65335
65335
65367
65319
65335
65327
65316
65340
65324
65284
65312
65415
65313
65319
65326
65317
65311
65287
65317
65309
65310
65310
65308
65319
65313
65317
65303
65314
65302
65300
65301
65318
65439
65287
65287
65287
65287
65287
65277
65287
65284
65283
65274
65284
65271
65270
65256
65263
65268
65268
65271
65268
65271
65274
65257
65287
65269
65258
65260
65258
65271
65255
65223
65252
65271
65268
65257
65205
65252
65263
65287
65252
65241
65220
65252
65248
65287
65247
65245
65232
65252
65428
65246
65245
65227
65208
65244
65215
65254
65232
65230
65204
65220
65223
65223
65231
65239
65151
65215
65207
65383
65226
65212
65212
65196
65206
65191
65268
65263
65197
65204
65188
65151
65183
65176
65191
65222
65191
65183
65181
65183
65182
65172
65175
65152
65119
65159
65174
65159
65159
65181
65157
65110
65151
65149
65155
65151
65151
65148
65143
65140
65148
65287
65156
65148
65156
65132
65132
65028
65110
65126
65127
65383
65143
65133
65117
65108
65015
65111
65105
65111
65111
65207
65134
65108
65116
65102
65091
65095
65088
65087
65086
65087
65079
65079
64984
65030
65062
65063
65093
65079
65052
64954
65054
65054
65052
65381
65063
65070
65031
65031
65055
65031
65031
65029
64999
64909
64958
65012
65031
65015
65014
65056
65029
65025
65018
64983
64967
65015
65012
65158
65014
64998
64926
64926
64996
64986
64995
65031
64984
64997
64967
64924
64972
64980
65119
64972
64965
64959
64852
64948
65222
64983
64958
64951
64917
64877
64943
65095
64951
64949
64913
64946
64956
64935
64869
64903
64927
64927
64975
64935
64903
64902
64774
64903
64903
64903
64903
64807
64901
65105
64900
64892
64839
64879
64884
64959
64887
64884
64775
64855
64870
64871
65325
64919
64877
64871
64868
64860
64884
64871
64775
64871
64886
64858
64814
64848
64855
64887
64848
64844
64700
64839
65287
64841
64847
64839
64804
64831
64839
64828
64832
64834
64824
64810
64823
64878
64820
64655
64812
64943
64822
64660
64807
64807
65214
64807
64790
64657
64792
64804
64804
64775
64635
64791
65191
64799
64775
64775
64726
64730
64772
65231
64775
64773
64676
64758
64767
65159
64764
64767
64772
64751
64742
64756
64967
64743
64751
64660
64733
64748
64743
64760
64742
64743
64599
64739
64743
64738
64748
64724
64743
64628
64729
64720
64791
64728
64733
64724
64711
64559
64727
64743
65070
64716
64724
64615
64702
64700
64887
64703
64711
64702
64663
64703
64695
65127
64708
64703
64692
64567
64687
64703
64695
64684
64703
64686
64756
64679
64679
64676
64679
64735
64679
64671
64677
64679
64980
64678
64668
64551
64647
64678
64660
64679
64656
64660
64669
64663
64670
64511
64669
64663
65152
64671
64663
64647
64607
64652
64639
64652
64647
64663
64638
64511
64584
64647
64639
64964
64637
64647
64639
64495
64629
64631
64815
64639
64639
64646
64563
64621
64623
64630
64623
64604
64485
64628
64635
64621
64639
64615
64622
64469
64620
64615
64647
64623
64623
64501
64606
64615
64608
64615
64613
64558
64615
64604
64638
64605
64604
64602
64464
64582
64593
64591
64647
64607
64604
64599
64586
64591
64583
64583
64590
64583
64599
65053
64577
64583
64583
64581
64583
64710
64577
64591
64598
64583
64468
64581
64586
64591
64628
64583
64576
64564
64519
64535
64574
64571
64575
64580
64562
64500
64575
64762
64565
64575
64551
64476
64575
64569
64566
64563
64455
64559
64580
64567
64559
64565
64559
64408
64559
64559
64620
64548
64551
64516
64514
64543
64551
64836
64556
64551
64551
64551
64551
64549
64549
64423
64544
64551
64559
64543
64540
64421
64555
64548
64545
64544
64423
64542
65012
64550
64545
64519
64519
64375
64519
64519
64519
64543
64519
64383
64541
64519
64519
64548
64404
64519
64519
64519
64519
64375
64542
64648
64519
64484
64518
64519
64580
64519
64519
64517
64373
64519
64519
64519
64519
64513
64519
64367
64486
64519
64517
64511
64510
64510
64516
64407
64465
64509
64519
64903
64508
64519
64519
64357
64503
64519
64942
64518
64516
64356
64511
64511
64511
64511
64503
64495
64495
64511
64511
64519
64501
64351
64454
64500
64511
64519
64519
64903
64495
64516
64516
64372
64503
64506
64503
64517
64493
64519
64500
64495
64517
64503
64507
64516
64511
64375
64442
64519
64501
64511
64511
64519
64509
64367
64508
64511
64511
64506
64511
64515
64383
64510
64513
64479
64492
64508
64422
64394
64503
64575
64484
64494
64406
64508
64500
64487
64500
64494
64492
64350
64502
64500
64733
64487
64493
64350
64482
64512
64485
64487
64496
64480
64386
64496
64487
64479
64501
64495
64380
64484
64487
64485
64486
64500
64471
64357
64478
64493
64486
64495
64460
64404
64463
64486
64471
64507
64487
64486
64355
64484
64495
64487
64503
64615
64476
64476
64470
64492
64476
64462
64484
64476
64346
64476
64495
64484
64471
64482
64487
64328
64479
64495
64481
64487
64480
64484
64348
64471
64485
64486
64479
64476
64479
64479
64471
64332
64424
64484
64475
64487
64647
64468
64468
64487
64483
64472
64327
64471
64479
64468
64482
64471
64487
64486
64316
64484
64484
64455
64479
64481
64338
64479
64463
64474
64462
64451
64351
64477
64471
64647
64479
64463
64327
64471
64471
64511
64484
64454
64476
64324
64436
64471
64480
64567
64474
64444
64487
64484
64479
64452
64455
64478
64343
64377
64478
64476
64479
64639
64463
64468
64454
64468
64324
64471
64476
64495
64451
64468
64476
64423
64391
64469
64476
64935
64452
64470
64471
64310
64468
64460
64470
64463
64463
64391
64351
64462
64452
64463
64471
64463
64372
64466
64476
64420
64471
64470
64444
64292
64450
64455
64577
64452
64447
64455
64287
64391
64455
64444
64451
64446
64444
64440
64427
64412
64447
64495
64455
64437
64335
64453
64450
64451
64423
64455
64439
64432
64429
64463
64685
64422
64436
64407
64443
64439
64447
64442
64423
64383
64423
64412
64440
64412
64391
64428
64430
64424
64447
64423
64426
64409
64404
64420
64400
64326
64252
64389
64418
64404
64551
64407
64417
64415
64423
64333
64391
64391
64381
64391
64382
64252
64404
64403
64406
64388
64391
64316
64391
64391
64364
64391
64286
64391
64381
64407
64391
64334
64389
64343
64391
64255
64378
64348
64391
64389
64321
64383
64359
64359
64388
64388
64383
64239
64380
64391
64368
64359
64260
64373
64368
64332
64370
64373
64351
64380
64374
64359
64366
64231
64366
64370
64313
64369
64372
64213
64367
64375
64324
64367
64367
64367
64367
64359
64214
64320
64359
64351
64342
64308
64351
64373
64359
64359
64295
64334
64351
64359
64296
64353
64341
64240
64313
64334
64351
64351
64356
64359
64359
64356
64351
64353
64359
64332
64351
64359
64350
64300
64355
64353
64340
64295
64231
64180
64321
64340
64350
64354
64335
64519
64335
64372
64343
64348
64340
64336
64284
64196
64327
64327
64342
64348
64262
64438
64263
64318
64341
64343
64327
64340
64295
64182
64313
64340
64330
64350
64327
64324
64334
64308
64335
64343
64326
64245
64207
64159
64183
64292
64327
64332
64323
64263
64286
64343
64343
64220
64263
64328
64316
64255
64325
64327
64322
64176
64255
64324
64327
64294
64334
64324
64226
64327
64308
64294
64327
64327
64324
64324
64175
64263
64303
64324
64319
64318
64239
64332
64337
64322
64263
64220
64306
64327
64324
64239
64335
64324
64204
64308
64335
64321
64375
64326
64318
64317
64289
64325
64255
64342
64324
64326
64199
64244
64327
64327
64255
64252
64326
64327
64308
64237
64284
64216
64156
64157
64196
64320
64318
64331
64325
64166
64311
64308
64322
64625
64240
64284
64324
64327
64319
64325
64284
64196
64327
64325
64263
64326
64324
64157
64276
64319
64335
64327
64335
64239
64342
64324
64319
64156
64324
64327
64318
64314
64320
64340
64322
64156
64316
64323
64327
64324
64239
64327
64310
64306
64263
64324
64631
64309
64316
64177
64319
64318
64262
64325
64325
64187
64318
64327
64247
64319
64167
64319
64311
64327
64228
64322
64308
64327
64205
64316
64319
64308
64319
64311
64183
64287
64324
64327
64647
64303
64316
64332
64327
64327
64184
64295
64322
64252
64348
64311
64316
64326
64263
64326
64261
64312
64324
64324
64308
64327
64327
64214
64324
64316
64327
64308
64159
64332
64324
64287
64327
64318
64287
64185
64334
64321
64255
64326
64318
64210
64175
64263
64263
64308
64327
64319
64325
64263
64321
64324
64319
64158
64324
64327
64326
64663
64263
64343
64308
64175
64326
64631
64335
64327
64213
64327
64327
64323
64319
64327
64175
64327
64316
64327
64148
64304
64623
64327
64335
64159
64327
64319
64319
64294
64221
64327
64332
64263
64327
64309
64318
64196
64311
64320
64487
64322
64322
64223
64317
64412
64333
64318
64159
64320
64309
64317
64284
64324
64325
64294
64326
64319
64353
64334
64335
64166
64319
64245
64318
64308
64231
64302
64630
64326
64318
64300
64327
64317
64297
64285
64315
64318
64316
64239
64302
64295
64314
64151
64324
64263
64318
64197
64305
64614
64318
64327
64183
64316
64372
64326
64324
64308
64167
64322
64324
64327
64310
64260
64319
64324
64327
64167
64317
64591
64308
64165
64305
64639
64324
64310
64175
64323
64316
64239
64328
64315
64167
64311
64315
64327
64314
64319
64324
64263
64316
64263
64308
64308
64255
64332
64311
64263
64316
64244
64322
64310
64272
64196
64304
64318
64287
64303
64261
64285
64304
64263
64311
64162
64303
64588
64295
64295
64174
64311
64302
64263
64314
64279
64228
64295
64314
64254
64297
64196
64303
64300
64295
64299
64287
64272
64295
64292
64295
64175
64295
64199
64287
64164
64263
64519
64303
64300
64286
64400
64284
64151
64293
64215
64279
64119
64287
64245
64279
64198
64276
64294
64284
64278
64223
64285
64294
64263
64196
64263
64295
64250
64255
64263
64263
64290
64116
64263
64172
64277
64279
64119
64262
64263
64263
64263
64210
64263
64263
64260
64197
64263
64239
64262
64255
64372
64263
64183
64247
64263
64135
64254
64247
64135
64255
64212
64263
64158
64254
64135
64263
64238
64244
64245
64262
64247
64103
64253
64255
64244
64254
64079
64244
64198
64247
64239
64204
64245
64231
64252
64103
64231
64231
64135
64239
64247
64204
64231
64239
64228
64230
64225
64079
64220
64239
64227
64220
64222
64228
64184
64127
64231
64224
64092
64228
64212
64199
64215
64227
64180
64215
64206
64135
64219
64228
64054
64213
64092
64230
64206
64039
64196
64207
64124
64205
64196
64087
64199
64207
64103
64204
64196
64201
64199
64135
64135
64191
64183
64191
64199
64175
64196
64154
64173
64191
64007
64198
64166
64148
64172
64038
64188
64164
64055
64173
64159
64156
64007
64167
64173
64001
64175
64167
64154
64006
64090
64143
64248
64166
64158
64063
64135
64133
64135
64133
64092
64067
64127
64133
64116
64135
64127
64033
64111
64124
64092
64127
64103
64021
64111
64118
64111
63944
64098
64104
63959
64108
64103
64039
64115
64095
63951
64094
64087
64090
64111
63951
64095
64084
63871
64085
64087
64087
64087
63958
64062
64075
63901
64086
64055
63900
64057
64055
63919
64060
64070
64047
64058
64053
64054
64042
64052
64036
63869
64031
64028
64030
64031
63996
64007
63959
64026
64005
63959
64007
64007
63815
63988
64007
64007
63855
64007
63983
64007
64000
63935
63996
63988
63999
63933
63966
63964
64007
63975
63947
63991
63962
63796
63967
63975
63967
63884
63980
63953
63799
63943
63967
63876
63954
63951
63847
63959
63684
63943
63955
63950
63859
63863
63931
63927
63919
63908
63934
63933
63751
63911
63908
63835
63926
63903
63908
63783
63879
63905
63860
63911
63748
63911
63761
63898
63739
63887
63892
63917
63879
63866
63879
63912
63876
63870
63879
63843
63871
63716
63864
63535
63879
63839
63855
63487
63879
63741
63847
63815
63863
63766
63855
63487
63854
63863
63839
63799
63686
63815
63839
63447
63847
63842
63675
63835
63541
63855
63814
63668
63815
63812
63495
63821
63806
63751
63815
63575
63820
63804
63799
63814
63418
63823
63799
63751
63787
63463
63791
63803
63685
63783
63780
63343
63549
63797
63782
63774
63681
63708
63783
63599
63790
63598
63775
63775
63727
63775
63734
63621
63733
63751
63742
63751
63751
63582
63743
63745
63559
63751
63621
63711
63732
63738
63719
63687
63719
63745
63719
63668
63724
63287
63726
63719
63551
63722
63686
63375
63718
63703
63668
63671
63708
63471
63716
63551
63684
63700
63676
63670
63695
63573
63668
63668
63431
63701
63684
63524
63671
63684
63694
63677
63668
63521
63660
63674
63668
63687
63639
63639
63655
63631
63653
63543
63654
63281
63679
63575
63639
63645
63655
63654
63519
63623
63647
63623
63646
63542
63615
63623
63604
63639
63545
63591
63608
63079
63076
63398
63596
63623
63623
63588
63435
63599
63583
63583
63449
63567
63599
63598
63256
63543
63606
63590
63447
63583
63582
63586
63591
63580
63449
63476
63572
63563
63542
63591
63583
63583
63525
63566
63580
63556
63551
63580
63495
63541
63559
63553
63572
63567
63557
63375
63556
63556
62983
63542
63559
63381
63526
63351
63550
63531
63428
63524
63524
63304
63556
63544
63524
63463
63495
63519
63338
63524
63527
63439
63519
63495
63495
63473
63524
63504
63335
63495
63495
63111
63526
63495
63334
63495
63492
63494
63487
63316
63479
63492
63156
63495
63490
63407
63471
63335
63524
63474
63327
63462
63479
63495
63476
63383
63456
63458
62935
63471
63495
63474
63285
63455
63451
63253
63477
63327
63450
63423
63398
63476
63439
63271
63420
63434
63220
63461
63469
63420
63253
63432
63436
63350
63444
63446
63367
63391
63415
63412
63111
63455
63407
63319
63423
63415
63396
63420
63367
63345
63407
62845
63379
63428
63408
63263
63382
63388
63407
63311
63396
63438
63396
63381
63215
63350
63364
62749
63367
63412
63351
63316
63367
62719
63396
63380
63202
63365
62722
63365
63397
63335
63196
63334
63356
63351
63303
63367
63380
63349
63207
63340
62676
63367
63359
63292
63350
62694
63305
63367
63332
63311
63325
63303
63343
63351
63349
63349
63351
63364
63309
63284
63320
