EGG
53031
52986
52893
52919
52960
52956
52932
52287
52861
52931
52884
52815
52743
52813
52807
52143
52639
52796
52789
52789
52734
52679
52562
52652
52663
52646
51931
52365
52647
52615
52495
52471
52533
52524
52508
51854
52278
52487
52487
52436
52375
52282
52372
52383
52359
52343
52335
51591
52267
52340
52284
52132
52224
52231
52215
52212
52190
52167
51847
52103
52174
52156
52135
52058
52069
52069
52044
51999
52056
52020
51887
51910
51953
51951
51927
51567
51719
51847
51917
51886
51855
51833
51684
51775
51783
51780
51047
51680
51781
51719
51606
51687
51684
51663
51656
51636
51615
51207
51543
51605
51591
51605
51572
51540
51527
51382
51489
51463
51463
50910
51140
51397
51442
51439
51414
51399
51350
51324
51327
51319
51319
51304
51284
51268
51263
51246
50591
50695
50849
51111
51068
51183
51205
51184
51167
51159
51126
51123
51069
50790
51052
51054
50967
50983
50916
50959
50999
50996
50982
50751
50932
50919
50905
50799
50871
50888
50894
50553
50823
50823
50780
50718
50795
50804
50718
50279
50735
50735
50639
50711
50726
50527
50663
50631
50655
50658
50111
50599
50563
50616
50427
50558
50526
50535
50557
50435
50503
50487
50384
50492
50492
50391
49988
50427
50423
50319
50391
50383
50415
50389
50387
50358
50055
49751
50302
50287
50287
50209
50273
50279
50183
49909
49671
50215
50183
50159
50146
50183
50073
50141
50126
50063
50125
50119
50015
50069
50055
50039
50068
50063
49596
50020
50019
49943
50002
49716
49972
49949
49849
49943
49937
49783
49353
49887
49887
49863
49845
49751
49854
49860
49767
49797
49799
49707
49799
49669
49750
49695
49759
49709
49329
49699
49671
49709
49415
49671
49671
49671
49494
49623
49623
49588
49575
49614
49596
49450
49543
49542
49454
49543
49543
49457
49484
49487
49470
49460
49404
49460
49455
49351
48999
48903
49409
49399
49319
49380
49374
49351
49190
48854
49319
49318
49301
49287
49193
49275
49285
49228
48903
49021
49071
48647
49199
49191
49188
49175
49159
49142
49094
49140
49159
49151
48839
49083
49084
49063
48991
49077
49082
48873
49028
49014
49006
49012
48929
48948
48980
48993
48951
48676
48926
48927
48887
48878
48919
48927
48870
48742
48352
48834
48847
48835
48772
48816
48831
48788
48677
48775
48764
48749
48677
48676
48739
48727
48730
48711
48707
48711
48702
48693
48527
48192
48623
48634
48612
48607
48549
48540
48583
48594
48548
48287
47956
48540
48463
48500
48519
48402
47975
48470
48455
48347
48452
48455
48204
48412
48404
48380
48335
48316
48378
48372
48328
48031
48324
48327
48206
48299
48304
48294
48183
48244
48239
48164
48228
48221
47967
48183
48166
48135
48172
48170
48069
48124
48113
48007
48094
48109
48106
47639
48055
48025
47951
47958
48023
48029
47948
47527
47963
47948
47879
47908
47941
47935
47918
47804
47487
47870
47863
47767
47852
47848
47804
47367
47797
47780
47726
47662
47750
47751
47551
47724
47700
47591
47709
47580
47660
47623
47654
47655
47623
47439
47598
47585
47578
47527
47479
47563
47556
47391
47516
47501
47476
47380
47484
47479
47462
47271
47430
47435
47324
47392
47406
47399
47020
47351
47345
47239
47358
47330
47238
46838
47276
47263
47163
47238
47271
47252
47143
47198
47207
47188
47083
47196
47191
46983
47156
47111
47055
47135
47084
46716
47068
47037
47095
46526
47034
47039
47004
47007
46915
46983
47006
46979
46844
46535
46935
46927
46910
46822
46879
46897
46902
46855
46710
46532
46396
46823
46817
46791
46710
46687
46765
46773
46772
46767
46672
46375
46703
46711
46623
46599
46692
46671
46599
46271
46087
46620
46622
46527
46606
46599
46524
46477
46444
46023
46527
46495
46412
46505
46516
46471
45967
46452
46463
46414
46340
46426
46418
46371
46014
46383
46376
46343
46316
46255
46255
46302
46327
46327
46263
45767
46279
46255
46221
46169
46250
46246
46150
45854
46204
46167
46087
46182
46164
45623
46140
46141
46142
45716
46087
46029
46087
46087
46079
46045
45981
45572
46025
46014
45978
45964
45999
45991
45950
45542
45941
45895
45927
45951
45871
45893
45879
45862
45819
45877
45852
45677
45318
45807
45804
45813
45748
45782
45797
45770
45724
45455
45735
45717
45639
45717
45720
45471
45142
45671
45660
45599
45622
45657
45631
45436
45615
45606
45575
45506
45572
45575
45525
45535
45512
45461
45535
45519
45215
45485
45471
45382
45463
45470
45454
45447
45429
45317
45082
45384
45383
45334
45319
45380
45351
44884
45335
45255
45318
45330
45303
45108
45276
45270
45263
45191
45255
45258
45152
44743
45220
45191
45183
45115
45135
45183
45190
45054
44895
45141
45129
45119
45031
45118
44704
45060
45103
44995
44589
45051
45032
44964
45044
45012
44532
45002
44997
44911
44986
44969
44708
44945
44931
44870
44933
44925
44799
44438
44903
44876
44822
44887
44823
44855
44836
44836
44756
44831
44828
44407
44799
44791
44741
44791
44788
44655
44743
44746
44727
44668
44711
44735
44725
44615
44535
44679
44643
44669
44677
44543
44639
44632
44549
44636
44620
44141
44602
44583
44543
44597
44551
44551
44551
44469
44542
44535
44039
44516
44519
44351
44495
44447
44482
44475
44355
44451
44455
44439
44367
44354
44423
44423
44413
44317
44391
44381
44345
44375
44375
44055
44340
44305
44348
44226
43901
44295
44308
44285
44220
44271
44282
44237
43909
44255
44252
44229
44157
44233
44238
44230
44185
43927
44191
44177
44159
44111
44148
44167
44167
44151
44110
43858
44126
44110
44124
44120
44074
43767
44084
44067
43998
44077
44039
43593
44039
43964
43973
43583
44021
43999
43996
44012
43718
43974
43972
43919
43937
43971
43951
43839
43934
43919
43919
43931
43935
43822
43903
43895
43886
43815
43889
43823
43527
43836
43765
43857
43827
43553
43815
43812
43815
43724
43804
43775
43550
43759
43765
43695
43767
43751
43716
43645
43715
43735
43291
43673
43722
43691
43391
43693
43677
43627
43685
43673
43605
43308
43639
43607
43582
43638
43623
43399
43594
43590
43527
43604
43565
43151
43571
43581
43574
43334
43527
43495
43527
43516
43114
43518
43479
43495
43498
43175
43471
43478
43443
43478
43319
43452
43447
43369
43430
43439
43351
43420
43405
43399
43342
43399
43401
43327
43045
43374
43359
43332
43335
43366
43305
42979
43323
43287
43263
43317
43319
43308
43222
42942
43284
43281
43263
43204
43263
43250
43247
43175
42887
43220
43223
43220
43195
43180
43222
43186
43076
43174
43164
43139
43175
43172
43126
42844
43135
43138
43129
43111
43052
43119
43117
43072
42954
42731
43086
43079
43074
42996
43063
43073
43063
42949
42645
43038
43015
43015
43030
43007
42935
43004
42996
42983
42932
42924
42967
42973
42972
42945
42863
42590
42935
42925
42932
42928
42812
42908
42858
42900
42889
42791
42868
42853
42844
42799
42855
42838
42631
42816
42819
42790
42757
42806
42693
42775
42782
42699
42780
42758
42470
42748
42676
42711
42727
42700
42730
42679
42711
42664
42691
42686
42647
42602
42671
42631
42647
42596
42658
42604
42620
42608
42615
42550
42599
42591
42543
42588
42543
42591
42533
42566
42534
42202
42543
42503
42455
42519
42519
42503
42503
42330
42493
42421
42484
42427
42461
42459
42461
42447
42095
42431
42373
42418
42406
42399
42412
42384
42103
42366
42321
42361
42054
42356
42359
42247
42338
42279
42327
42319
42084
42303
42234
42294
42204
42271
42262
42271
42234
41991
42237
42173
42239
42189
41932
42205
42181
42213
42200
42051
42182
42164
42085
42175
42119
42155
42142
42078
42135
42119
42023
41727
42103
42051
42095
42031
41697
42054
42010
42054
41767
42031
42012
42035
41991
41639
42010
41935
41991
41963
41983
41967
41909
41964
41948
41791
41933
41929
41890
41916
41863
41569
41882
41876
41831
41880
41862
41661
41854
41844
41772
41831
41807
41425
41799
41759
41797
41761
41575
41775
41763
41684
41767
41735
41644
41728
41698
41632
41711
41695
41344
41669
41653
41591
41660
41495
41637
41573
41607
41301
41603
41552
41582
41578
41532
41575
41388
41557
41466
41534
41532
41511
41466
41507
41364
41477
41430
41476
41343
41453
41418
41447
41419
41167
41407
41403
41375
41368
41357
41380
41191
41351
41327
41324
41031
41325
41243
41316
41123
41293
41278
41262
41265
41186
41246
41218
41223
41162
41191
41195
41103
41191
41167
41071
41151
41141
41084
41137
40827
41084
41110
41082
41076
41077
41071
41001
40655
41036
41034
41013
40618
40999
40945
40999
40967
40967
40948
40941
40943
40695
40919
40919
40855
40907
40879
40517
40868
40791
40865
40807
40829
40820
40751
40815
40663
40783
40778
40700
40769
40711
40741
40757
40732
40658
40620
40693
40695
40350
40672
40583
40647
40506
40625
40623
40621
40609
40191
40583
40540
40567
40236
40547
40455
40535
40443
40534
40471
40487
40484
40372
40471
40444
40373
40448
40398
40003
40412
40351
40407
40368
40031
40359
40277
40363
40045
40330
40255
40319
39875
40291
40271
40286
40263
39850
40260
40219
40239
40151
40213
40199
40131
40199
40061
40167
40148
40163
40116
40135
40127
40035
40125
40007
40095
40084
40084
39980
40073
40031
39831
40025
39924
40024
39964
40003
39988
39971
39991
39823
39943
39860
39943
39943
39911
39479
39924
39900
39847
39796
39871
39873
39847
39809
39812
39823
39703
39829
39731
39587
39815
39775
39740
39655
39759
39755
39650
39732
39749
39678
39303
39713
39702
39655
39678
39671
39596
39654
39637
39431
39644
39544
39615
39590
39524
39581
39583
39477
39567
39559
39533
39359
39535
39527
39543
39511
39382
39503
39485
39463
39377
39463
39456
39388
39431
39447
39423
39333
39420
39413
39410
39380
39348
39260
38954
39367
39351
39348
39339
39303
39207
39311
39196
39310
39260
39276
39259
39287
39261
38914
39244
39132
39223
38959
39204
39100
39202
39115
39187
39187
39068
39155
39165
39044
38774
39147
39127
39127
39004
39102
39112
39080
39051
38675
39070
38964
39071
38759
39038
38969
39036
38906
39018
39006
38887
39011
38974
38991
38975
38877
38975
38959
38879
38807
38935
38909
38812
38919
38884
38479
38887
38783
38816
38886
38831
38753
38844
38831
38740
38838
38828
38519
38806
38791
38686
38765
38796
38735
38470
38773
38742
38727
38703
38750
38663
38331
38714
38694
38615
38704
38573
38676
38674
38571
38660
38572
38655
38575
38645
38633
38483
38620
38511
38623
38535
38607
38580
38598
38565
38567
38470
38565
38457
38556
38501
38558
38182
38525
38533
38481
38507
38455
38511
38375
38479
38383
38467
38084
38460
38460
38353
38434
38383
38439
38407
38100
38407
38293
38396
37988
38382
38369
38381
38305
38020
38356
38351
38251
38333
38340
38319
38127
38317
38268
38319
38301
38080
38293
38287
38175
38279
38148
38260
38151
38257
38151
38242
38240
38127
38233
38082
38209
38188
38119
38213
38087
38177
38083
38183
38087
38151
38087
38151
37951
38145
38126
38032
38124
38127
38068
37870
38103
38085
38023
38107
38077
37831
38083
38071
37975
38063
38040
37766
38036
38015
37959
38028
37937
37628
38005
37998
37895
37991
37943
37601
37963
37937
37914
37953
37906
37621
37925
37927
37854
37914
37916
37874
37884
37884
37791
37887
37868
37619
37866
37847
37780
37847
37812
37415
37831
37787
37780
37829
37823
37783
37696
37407
37775
37763
37783
37759
37533
37759
37735
37651
37740
37732
37667
37711
37708
37707
37607
37710
37684
37614
37439
37671
37669
37565
37671
37647
37434
37636
37599
37638
37580
37623
37612
37511
37625
37598
37449
37588
37573
37591
37564
37508
37556
37551
37527
37532
37543
37428
37541
37517
37510
37415
37511
37514
37430
37209
37503
37396
37506
37478
37255
37468
37383
37475
37459
37270
37439
37445
37398
37345
37439
37367
37407
37414
37351
37409
37407
37356
37372
37374
37343
37368
37271
37367
37351
37273
37342
37076
37343
37244
37343
37317
37138
37305
37315
37223
37306
37295
37255
36913
37285
37207
37228
37289
37271
37124
37252
37255
37178
37255
37219
36925
37217
37215
37139
37228
37103
37213
37213
37111
37209
37183
37030
36899
36909
37050
37151
37127
37127
37159
37135
37143
37149
37135
37146
37143
37108
37108
37050
37071
37031
37101
37095
37089
37091
37090
36796
36844
36924
37002
37047
37061
37060
37071
37030
36952
36996
37015
37030
37019
37022
37011
37007
37015
36823
36937
36971
36935
36951
36975
36982
36985
36983
36983
36975
36969
36975
36957
36959
36892
36871
36865
36854
36844
36859
36859
36895
36915
36908
36903
36897
36901
36893
36899
36884
36884
36888
36871
36866
36853
36863
36854
36852
36855
36839
36845
36839
36826
36826
36826
36573
36697
36804
36799
36803
36815
36820
36802
36815
36799
36783
36703
36711
36711
36735
36759
36719
36743
36743
36728
36737
36721
36719
36738
36725
36710
36719
36723
36707
36703
36347
36694
36693
36691
36678
36679
36679
36671
36676
36669
36657
36659
36655
36624
36564
36631
36655
36639
36639
36646
36607
36319
36615
36613
36589
36549
36605
36609
36597
36565
36568
36535
36521
36458
36350
36551
36549
36557
36540
36469
36543
36552
36535
36527
36519
36526
36519
36487
36454
36463
36399
36194
36501
36493
36503
36479
36436
36411
36433
36485
36471
36412
36191
36380
36335
36375
36380
36431
36432
36431
36438
36429
36431
36423
36423
36212
36359
36386
36399
36398
36385
36388
36390
36406
36139
36308
36354
36375
36311
36341
36359
36359
36340
36299
36343
36324
36327
36327
36327
36322
36327
36319
36311
36310
36301
36314
36303
36295
36287
36292
36279
36285
36271
36273
36271
36263
36263
36262
36260
36167
36263
36223
36239
36231
36231
36150
35899
36240
36223
36215
36215
36149
36212
36212
36212
36003
36165
36170
36191
36191
36181
36191
36186
36183
36179
36095
36071
36161
36143
36151
36077
36121
36143
36058
36140
36130
36129
36071
36079
36087
36066
36028
36027
36112
36087
35966
36095
36071
36094
36047
35815
36071
36071
36085
35780
36059
36001
36020
36051
35986
35935
36046
36033
35931
36034
36045
35866
36020
36023
36012
36007
36007
35991
35988
35998
35999
35988
35983
35620
35719
35677
35839
35902
35925
35935
35940
35925
35947
35943
35943
35950
35949
35943
35943
35948
35943
35943
35935
35926
35885
35899
35847
35847
35857
35876
35836
35876
35879
35878
35875
35877
35873
35866
35866
35863
35860
35847
35847
35843
35589
35488
35479
35834
35831
35828
35828
35554
35663
35762
35695
35761
35743
35762
35783
35797
35794
35804
35790
35804
35795
35798
35796
35775
35753
35716
35702
35772
35748
35780
35767
35764
35750
35754
35757
35750
35764
35700
35645
35644
35719
35724
35714
35703
35709
35335
35487
35575
35582
35663
35687
35708
35653
35605
35602
35607
35679
35676
35319
35458
35580
35657
35679
35681
35631
35568
35615
35655
35650
35655
35649
35636
35641
35636
35637
35627
35628
35623
35627
35615
35614
35617
35623
35615
35601
35607
35584
35591
35591
35233
35253
35326
35335
35447
35455
35543
35538
35533
35538
35541
35543
35537
35549
35567
35564
35538
35543
35524
35534
35542
35542
35537
35559
35471
35447
35477
35533
35538
35463
35455
35526
35518
35508
35429
35473
35502
35524
35517
35511
35475
35459
35491
35495
35495
35463
35405
35490
35498
35479
35462
35220
35380
35220
35479
35471
35482
35456
35368
35459
35447
35387
35455
35463
35463
35444
35383
35404
35439
35436
35438
35441
35073
35295
35391
35404
35395
35388
35407
35404
35415
35402
35422
35407
35413
35398
35396
35423
35413
35399
35353
35296
35324
35299
35279
35303
35294
35359
35372
35368
35359
35366
35074
35323
35353
35365
35279
35303
35335
35293
35306
35324
35335
35326
35335
35324
35329
35038
35295
35311
35314
35332
35311
35215
35207
35254
35303
35303
34933
35217
35271
35303
35307
35279
35206
35271
35282
35284
34927
34900
35047
35161
35222
35252
35274
35284
35218
35207
35269
35247
35215
35159
35166
35164
35175
35199
35150
35198
35231
35241
35223
35230
35212
35239
35231
35231
35237
35237
35228
34868
35119
35187
35207
35231
35231
35144
35124
35137
35182
35199
35207
35207
35207
34877
34999
35143
35169
35175
35166
35153
35167
35197
35215
35196
35199
35199
35207
35199
35195
35187
35189
35195
35178
35117
35119
35079
35108
35079
35114
35134
35170
35171
35169
35175
35165
35155
34896
34951
35071
35167
35173
35080
35084
35127
35159
35159
35151
35151
35146
34775
34767
34779
34874
34940
35013
34997
35006
35089
35111
35143
35143
35139
35140
35140
34995
35126
35135
35039
35041
35079
35106
35132
35079
35047
35037
35094
35117
35117
35121
35122
35093
35086
35092
35075
35046
35047
35028
35047
35111
35100
35110
35107
35116
35106
35117
35099
34719
34791
34878
34892
35037
35100
35113
35124
35072
35003
35026
35040
35021
35031
35109
35111
35115
35111
35115
35113
35070
35092
35077
35119
35087
35060
35007
35005
35045
35094
35087
35098
35089
35099
35103
34708
34971
35054
35079
35101
35071
35037
34998
35021
35063
35078
35087
35089
35079
35076
35067
35076
35079
35079
35079
35071
35086
35084
35075
35073
35079
35079
35070
34772
34852
34775
34791
34821
34902
34991
35022
35046
35073
35078
35087
35091
35095
35053
34993
35063
35071
35077
35061
35076
35076
35079
34744
34988
35029
35064
35086
34988
35041
35070
35077
34748
34840
34946
35015
35076
35085
34982
35074
35063
34733
34987
35071
35053
35079
35079
35029
34987
35052
35077
35076
35071
35067
35067
34769
34903
34956
34983
35049
35057
35071
35061
35067
35079
35092
35090
35079
34983
35063
35073
35059
34687
34869
35047
35077
35092
34983
35046
35079
35074
34766
35043
35069
35087
35096
34997
35000
35061
35047
35071
35095
35079
34879
34793
34935
35029
35068
35089
35095
35114
34999
35052
35095
35090
35079
35095
34711
34929
35039
35079
35079
35095
35102
35111
35124
35079
35003
35042
35087
35108
35109
35109
34967
35075
35111
35111
35111
35111
35063
35029
35076
35111
35111
35111
35114
35116
35108
35119
35111
35119
35110
34761
34906
35055
35079
35116
35145
35068
35107
35131
35140
35143
35130
34789
35022
35124
35151
35052
35134
35143
35135
34811
35087
35157
35156
35092
35116
35092
35105
35151
35157
35167
35167
35162
35022
35139
35180
35090
35163
35168
35035
35150
35110
34927
35170
35171
35138
35125
35202
35095
35148
35193
34907
35143
35191
35183
35110
35206
35199
34927
35157
35183
35167
35188
35207
35023
35178
35207
35221
35132
35188
35221
35207
34911
35150
35221
35239
35156
35230
35223
35228
34943
35119
35197
35221
35239
35252
35196
35169
35246
35252
34919
35191
35236
35247
35271
35188
35247
35263
34991
35204
35262
35279
35188
35231
35271
35268
35277
35035
35224
35269
35299
35206
35301
35294
35287
35280
34959
35238
35303
35279
35292
35299
35303
35223
35299
35305
35335
35231
35295
35316
35311
35197
35303
35335
35256
35308
35335
35334
35207
35353
35307
35295
35335
35332
34990
35278
35351
35375
35271
35309
35324
35335
35365
35375
35359
35011
35115
35014
35115
35036
35167
35374
35395
35207
35140
35311
35361
35394
35406
35420
35419
35390
35329
35347
35413
35414
35423
35107
35325
35406
35421
35437
35359
35411
35444
35436
35146
35276
35382
35404
35450
35463
35446
35411
35447
35458
35471
35463
35138
35319
35439
35486
35494
35503
35404
35477
35485
35183
35437
35487
35516
35423
35495
35510
35207
35454
35517
35436
35498
35525
35527
35262
35443
35519
35543
35556
35566
35490
35535
35548
35534
35390
35559
35569
35476
35570
35572
35575
35415
35524
35591
35591
35587
35510
35588
35591
35271
35479
35564
35591
35619
35545
35590
35614
35349
35591
35644
35564
35607
35620
35622
35310
35495
35637
35649
35624
35645
35652
35444
35634
35665
35621
35652
35675
35566
35665
35663
35680
35369
35652
35700
35686
35668
35695
35439
35681
35718
35663
35709
35478
35691
35725
35668
35719
35719
35515
35714
35754
35721
35748
35436
35700
35756
35770
35703
35756
35751
35759
35759
35540
35690
35775
35792
35767
35783
35790
35511
35701
35778
35820
35796
35754
35796
35812
35813
35599
35763
35803
35834
35829
35788
35845
35836
35845
35564
35742
35828
35870
35798
35860
35847
35557
35791
35878
35887
35807
35887
35884
35663
35801
35891
35887
35823
35615
35906
35902
35903
35906
35902
35895
35928
35919
35931
35919
35932
35927
35684
35903
35942
35948
35948
35966
35934
35971
35971
35966
35966
35903
35900
35904
35948
35963
35965
35719
35899
35941
35973
35989
35983
35943
35990
35989
35987
35999
35769
35894
35942
35966
35981
36005
36028
35983
35966
36015
36011
36017
36015
36027
36023
36021
35780
35884
35989
36028
36050
36059
36064
35991
36022
36055
36055
36067
36071
35774
35959
36037
36070
36091
36039
36070
36077
35807
36020
36094
36103
36055
36092
36079
36038
36050
36047
36091
36078
36101
36139
36131
36135
36118
36151
36141
36143
36156
36119
36103
36103
36156
36156
36149
36103
36143
36164
36167
36164
36137
36078
35964
36179
36174
36165
36147
36204
36189
36071
36193
36199
36206
36155
36221
36206
36156
36227
36215
36179
36241
36231
36212
36181
36115
35967
36239
36239
36244
36212
36271
36254
36266
36247
36231
36113
35991
36266
36279
36254
36272
36308
36309
36294
36271
36197
36044
36303
36310
36294
36263
36330
36327
36318
36317
36294
36192
36124
36326
36340
36308
36359
36347
36228
36351
36356
36351
36310
36373
36359
36353
36294
36113
36359
36386
36359
36356
36391
36340
36315
36158
36406
36399
36400
36359
36420
36420
36326
36183
36421
36439
36439
36439
36431
36411
36430
36443
36402
36199
36453
36469
36484
36462
36422
36484
36486
36468
36403
36351
36487
36487
36495
36492
36471
36479
36525
36508
36511
36479
36519
36527
36484
36547
36515
36415
36532
36532
36513
36545
36359
36556
36527
36553
36463
36318
36571
36565
36551
36595
36588
36526
36430
36599
36601
36574
36615
36583
36378
36606
36591
36615
36582
36615
36611
36603
36639
36607
36444
36653
36646
36647
36651
36649
36638
36671
36662
36576
36663
36660
36672
36645
36689
36687
36645
36517
36687
36705
36695
36699
36683
36703
36683
36687
36732
36727
36708
36615
36734
36735
36740
36730
36698
36731
36768
36751
36743
36735
36687
36604
36743
36769
36775
36753
36798
36756
36668
36560
36791
36796
36770
36788
36815
36775
36602
36811
36794
36831
36711
36822
36831
36799
36836
36807
36713
36827
36853
36852
36839
36845
36829
36868
36821
36858
36879
36844
36890
36871
36815
36655
36892
36901
36866
36920
36900
36763
36903
36916
36871
36926
36863
36663
36933
36943
36908
36943
36948
36948
36903
36831
36959
36960
36943
36934
36983
36950
36919
36889
36778
36975
36983
36969
36991
36965
36743
36999
36996
36999
37015
36935
37015
37026
36993
37038
37020
36846
37039
37035
37038
37059
36991
36807
37051
37045
37036
37062
37014
37067
37063
37090
37071
36967
37095
37094
37110
37087
37012
37095
37109
37086
37118
37086
36990
37114
37124
37108
37119
37149
37126
37103
36995
37135
37146
37119
37176
37156
37081
37156
37167
37143
37186
37135
37191
37175
37194
37167
37077
37196
37191
37197
37175
37167
37174
37204
37223
37215
37218
37196
37095
37223
37215
37237
37231
37204
37245
37253
37231
37223
37159
37050
37030
37255
37255
37265
37271
37269
37266
37261
37287
37274
37199
37063
37287
37292
37287
37269
37277
37308
37319
37309
37291
37254
37317
37316
37317
37324
37308
37343
37343
37255
37205
37159
37142
37343
37351
37350
37319
37359
37356
37300
37183
37351
37367
37365
37351
37383
37374
37316
37207
37379
37375
37383
37383
37383
37364
37413
37396
37382
37300
37399
37407
37399
37399
37438
37422
37397
37326
37420
37423
37439
37410
37447
37439
37443
37418
37399
37445
37453
37468
37383
37295
37462
37465
37475
37446
37487
37472
37445
37383
37333
37474
37484
37494
37487
37493
37493
37487
37484
37509
37493
37418
37340
37510
37524
37485
37501
37534
37487
37414
37527
37530
37527
37503
37551
37535
37511
37463
37415
37535
37555
37541
37533
37572
37574
37551
37503
37445
37428
37365
37567
37564
37566
37567
37564
37569
37599
37527
37579
37599
37426
37591
37573
37612
37580
37525
37452
37403
37620
37612
37604
37607
37589
37616
37626
37620
37615
37611
37477
37622
37629
37605
37611
37638
37639
37622
37603
37501
37639
37639
37629
37654
37638
37651
37639
37628
37630
37631
37677
37668
37633
37569
37655
37658
37663
37649
37679
37678
37683
37684
37674
37659
37639
37503
37681
37675
37678
37664
37690
37692
37678
37639
37575
37517
37703
37688
37693
37676
37704
37692
37669
37575
37703
37668
37704
37698
37660
37511
37703
37700
37686
37716
37700
37710
37673
37527
37695
37691
37709
37717
37715
37717
37716
37703
37575
37702
37683
37721
37699
37719
37723
37722
37727
37720
37655
37586
37558
37511
37727
37629
37701
37732
37742
37722
37701
37724
37725
37735
37598
37671
37711
37735
37735
37695
37726
37727
37725
37511
37623
37683
37732
37741
37693
37710
37721
37726
37538
37666
37703
37717
37728
37703
37712
37722
37666
37703
37729
37696
37703
37719
37721
37709
37618
37675
37719
37729
37702
37719
37594
37692
37701
37716
37678
37711
37701
37495
37635
37703
37678
37711
37701
37558
37699
37710
37662
37695
37687
37610
37669
37686
37700
37668
37679
37686
37441
37509
37599
37638
37671
37683
37637
37671
37671
37479
37543
37629
37663
37631
37636
37639
37662
37652
37593
37635
37663
37607
37639
37648
37639
37545
37610
37639
37626
37596
37615
37613
37619
37380
37565
37603
37614
37611
37608
37607
37617
37604
37605
37543
37573
37573
37591
37586
37303
37383
37447
37487
37550
37575
37562
37524
37524
37552
37551
37399
37527
37541
37549
37505
37527
37523
37513
37351
37491
37510
37478
37496
37491
37410
37476
37482
37494
37445
37471
37479
37461
37467
37223
37235
37359
37435
37449
37463
37437
37400
37399
37415
37407
37415
37163
37379
37408
37423
37399
37351
37383
37375
37383
37383
37205
37236
37335
37370
37375
37366
37310
37300
37340
37338
37326
37331
37167
37277
37311
37319
37323
37287
37303
37308
37287
37100
37047
37063
37126
37268
37286
37282
37249
37265
37253
37012
37170
37217
37246
37255
37252
37191
37191
37218
37211
37221
36927
37013
37153
37207
37212
37143
37191
37196
37190
37179
36931
37004
36887
36911
36859
36972
37021
37105
37118
37127
37127
37122
37125
37137
37135
37127
37127
37120
37094
37111
37095
37064
37038
37055
37064
37035
37039
37058
37071
37068
37068
37071
37067
37051
37063
37050
36778
36887
36919
36943
36959
36999
36999
37007
37010
36995
37009
37014
36989
36959
37007
36992
36991
36683
36863
36892
36975
36989
36975
36967
36917
36958
36961
36956
36959
36949
36647
36671
36751
36729
36829
36892
36916
36928
36918
36863
36895
36897
36916
36903
36615
36780
36871
36782
36588
36889
36887
36884
36582
36849
36871
36813
36871
36855
36667
36803
36843
36863
36807
36835
36839
36826
36828
36535
36730
36781
36798
36835
36807
36767
36733
36788
36785
36804
36679
36719
36767
36779
36775
36775
36779
36773
36705
36730
36757
36751
36738
36439
36650
36721
36756
36687
36717
36732
36740
36730
36447
36612
36715
36727
36649
36705
36703
36420
36690
36712
36674
36695
36683
36494
36652
36694
36636
36663
36663
36351
36539
36660
36652
36588
36647
36641
36647
36452
36630
36629
36638
36641
36614
36579
36555
36604
36612
36598
36321
36482
36548
36603
36598
36523
36597
36590
36425
36548
36545
36575
36583
36548
36516
36561
36548
36347
36471
36519
36548
36551
36550
36546
36495
36456
36516
36533
36527
36517
36525
36325
36397
36423
36396
36412
36446
36487
36487
36501
36487
36500
36492
36492
36470
36407
36406
36455
36468
36459
36460
36452
36164
36225
36188
36447
36450
36444
36441
36444
36431
36430
36415
36415
36427
36414
36418
36410
36406
36418
36413
36403
36402
36398
36409
36398
36372
36382
36392
36388
36375
36373
36375
36383
36385
36359
36333
36311
36340
36317
36302
36303
36303
36266
36308
36316
36303
36295
36351
36358
36349
36343
36347
36344
36355
36335
36335
36314
36279
36251
36231
36209
36159
35982
36303
36311
36309
36301
35966
36045
36127
36269
36287
36283
36287
36278
36287
36302
36295
36291
36295
36287
36276
36271
36263
36283
36286
36284
36279
36224
36196
36231
36255
36250
36239
36236
36255
36250
36251
36247
36231
36239
36231
36241
35898
36069
36195
36231
36231
36246
36247
36195
36154
36148
36147
36214
36228
36221
36229
36231
36227
36204
36015
36132
36135
36193
36199
36212
36223
36221
36196
36132
36124
36126
36116
36172
36196
36197
36191
36180
36175
35895
36060
36095
36147
36175
36174
36160
36157
36175
36188
36173
36199
36185
36188
36191
36179
36103
36103
36103
36174
36175
36173
36186
36180
36166
36164
36175
36167
36095
36071
36075
36095
36108
36148
36117
36135
36138
36142
36154
36157
36133
36094
36062
36066
36086
36092
36071
36103
36082
36087
36103
36133
36139
36142
35911
36039
36111
36127
35975
36134
36132
36129
36130
35783
35829
35879
36037
36120
36119
36127
36127
36147
36135
36123
36039
36116
36121
36117
35783
35927
36047
36092
36125
36135
36061
36047
36095
36092
36123
36119
36114
36118
35767
35815
35772
35814
35935
35948
36006
36071
36078
36119
36131
36071
36038
36021
36049
36106
36095
36087
36095
36103
36100
36102
36103
35903
35877
35975
36060
36087
36063
36054
36063
36067
36044
36036
36075
36100
36117
36103
36028
36095
36093
36103
36103
36103
35794
35940
36069
36095
36126
36122
36021
36100
36103
35738
35847
35822
35975
36084
36103
36127
36047
36023
36013
36049
36103
36116
36108
36111
35895
36066
36095
36111
36127
36127
36036
36063
36103
36100
36102
36103
36100
35812
35959
36074
36099
36113
36135
36047
36076
36117
36111
36103
36103
36007
36095
36103
36127
36074
36039
36074
36103
36118
36114
35814
35945
36033
36068
36116
36131
36066
36060
36103
36134
36133
36117
35791
35879
35879
35879
36029
36102
36122
36132
36126
36142
36149
36144
36140
36075
36085
36135
36132
36139
36132
36125
35943
36065
36028
36071
36126
36133
36147
36154
36157
36159
36095
36063
36148
36134
36148
35919
36095
36119
36163
36159
36165
36165
36159
36178
36175
36167
36175
36170
36167
36166
36171
36087
36087
36148
36148
36152
36159
35802
35974
36130
36142
36169
36172
36175
36119
36141
36082
36130
36167
36172
36172
36177
36174
36165
35895
36087
36151
36175
36191
36188
36113
36126
36164
36172
36167
36177
36179
35839
36060
36133
36167
36187
36175
36189
36196
36199
36103
36113
36183
36180
36187
35831
35835
36022
35951
36058
36135
35836
36191
36119
36199
36175
36158
36075
36116
35975
36210
36198
36151
36211
35893
36207
36132
36198
35957
36218
36198
35975
36206
36199
36199
36207
36207
36215
36228
36223
36217
36220
36222
36207
36135
36132
36180
36223
36231
36222
35847
36103
36196
36231
36230
36163
36199
36223
36209
36223
36057
35967
36111
36182
36198
36220
36213
36231
36231
36239
36142
36224
36215
35847
36071
36186
36228
36252
36239
36172
36143
36139
36143
36138
36135
36173
36216
36212
36221
36223
35847
36087
36185
36217
36231
36220
36122
36157
36215
36223
36221
35838
35903
35975
36127
36113
36095
36076
35892
36211
36227
36219
36223
36215
36228
35900
36220
36231
36126
36216
36226
36047
36215
36236
36006
36206
36131
36215
36223
36221
36231
35958
36029
36191
36218
36231
36236
36237
36231
36153
36126
36162
36126
36126
36149
36139
36134
36146
36131
36149
36207
36207
36219
36221
36224
36223
35866
36050
36173
36207
36212
36231
36126
36198
36223
36231
36219
35847
36213
35978
36135
36167
36230
36231
36220
36239
36228
36231
36241
36163
36132
36135
36191
36227
36226
35847
35854
35879
35867
35839
35871
36083
36196
36223
36199
36059
36227
36231
36226
36229
36230
36236
36228
36231
35844
35993
36095
36183
36202
36229
36239
36252
36231
36232
36236
36239
36243
36243
36255
36247
36255
36254
36263
36255
36245
36244
36257
36263
36265
36186
36159
36159
36151
36140
36199
36253
36250
36249
35895
35975
36036
36003
35847
35878
35861
35934
36071
36206
36253
36271
36159
36231
36262
36245
36260
36263
36263
36263
36263
36253
36244
36255
36261
36251
36241
36263
36277
35969
36273
36209
36162
36266
36284
36274
35889
36213
36272
36291
36292
36182
36276
36268
36271
35882
36122
36272
36291
36186
36245
36285
36040
35899
36167
36254
36302
36220
36237
36273
36279
35887
36055
36253
36289
36299
36223
36198
36292
36297
36287
36292
35926
36223
36295
36295
36307
36287
36310
35975
36302
36191
36303
36103
36303
36268
36304
35901
36293
36316
36276
36293
36252
36295
36323
36269
36199
36212
36277
36303
36309
36323
36103
36278
36327
36331
36335
36259
36200
36311
36316
36311
35947
36174
36296
36325
36335
36215
36263
36335
36321
35951
36284
36334
36330
36335
36327
36230
36340
36341
36071
36307
36343
36341
36271
36347
36346
36290
36351
36359
36231
36342
36348
36343
35943
36287
36347
36350
36359
36374
36271
36263
36326
36359
36355
35964
36230
36343
36359
36387
36255
36359
36370
36359
36359
36006
36297
36379
36383
36382
36376
36391
36391
36305
36327
36389
36390
36254
36391
36407
36326
36391
36391
35999
36287
36381
36409
36419
36416
36418
36324
36311
36318
36311
36305
36323
36327
36319
36346
36354
36423
36423
36439
36436
36063
36292
36383
36427
36453
36455
36351
36446
36445
36084
36359
36439
36469
36476
36380
36471
36468
36069
36295
36423
36421
36483
36482
36423
36469
36475
36479
36487
36092
36231
36335
36474
36500
36523
36436
36407
36468
36519
36510
36439
36471
36517
36533
36532
36535
36526
36161
36452
36497
36535
36539
36551
36559
36562
36514
36463
36553
36551
36407
36554
36581
36551
36481
36554
36575
36574
36579
36583
36583
36231
36422
36415
36403
36502
36591
36607
36615
36559
36557
36628
36615
36615
36615
36388
36599
36631
36658
36583
36620
36662
36647
36647
36663
36674
36674
36671
36460
36663
36322
36511
36535
36543
36470
36355
36695
36703
36699
36707
36708
36703
36658
36709
36703
36721
36726
36743
36735
36743
36735
36742
36741
36743
36755
36748
36478
36588
36535
36583
36734
36779
36783
36775
36730
36785
36789
36796
36685
36727
36782
36803
36819
36759
36804
36813
36831
36821
36836
36522
36782
36843
36847
36856
36843
36775
36783
36791
36799
36844
36847
36799
36804
36847
36871
36901
36892
36708
36899
36900
36909
36911
36903
36911
36927
36940
36942
36940
36936
36638
36629
36604
36639
36653
36756
36911
36975
36974
36914
36933
36975
36983
36996
36738
36871
36919
36969
37015
37023
37028
36956
36975
37031
37039
37036
37048
37046
36716
36871
36839
36924
36941
36996
37036
37068
37073
37086
37095
37108
37092
37100
37117
37116
37127
37107
37063
37071
37066
37095
37159
37127
37087
37095
37088
37107
37112
37121
37110
37117
37140
37124
37150
37207
37220
37180
37223
37215
37162
37165
37163
37153
37172
37208
37227
37241
37251
37239
37204
37199
37199
37223
37279
37282
37271
37244
37229
37265
37289
37319
37319
37324
37331
37333
37330
37323
37333
37319
37299
37327
37351
37356
37317
37279
37327
37359
37375
37396
37415
37397
37356
37348
37367
37351
37367
37375
37410
37423
37430
37431
37443
37155
37247
37371
37443
37478
37479
37446
37453
37478
37495
37490
37499
37503
37196
37287
37327
37452
37495
37535
37551
37553
37559
37559
37498
37553
37547
37557
37575
37295
37460
37535
37564
37581
37589
37586
37596
37595
37575
37577
37383
37627
37399
37435
37550
37591
37636
37639
37637
37631
37657
37639
37660
37671
37679
37695
37695
37692
37698
37685
37703
37683
37639
37540
37551
37548
37519
37484
37736
37755
37446
37558
37652
37668
37731
37735
37752
37767
37799
37775
37791
37796
37815
37805
37827
37762
37774
37766
37759
37798
37807
37799
37786
37804
37828
37855
37857
37860
37868
37876
37895
37602
37634
37596
37695
37767
37886
37909
37924
37916
37927
37951
37939
37927
37887
37895
37895
37931
37927
37926
37951
37932
37928
37951
37990
37987
37983
37999
37991
37750
37924
38005
38006
38036
38036
38012
37998
38023
38045
38059
37779
37914
38020
38063
38081
38052
38071
38090
38091
37895
37864
37965
38050
38099
38110
38119
38125
38138
38148
38124
38118
38140
38146
38158
38156
38160
38151
38122
38125
38199
38199
38184
38171
38151
38151
38175
38186
38136
38145
38167
38196
38228
38230
38205
38215
38224
38239
38247
38246
38243
38056
38189
38245
38261
38278
38244
38259
38271
38284
38285
38284
38295
38151
38287
38319
38311
38310
38309
38311
38332
38087
38134
38298
38324
38351
38364
38335
38354
38361
38365
38163
38269
38358
38388
38373
38357
38372
38394
38399
38403
38407
38201
38279
38200
38277
38263
38355
38375
38367
38351
38421
38455
38460
38471
38439
38470
38474
38477
38376
38407
38475
38471
38477
38511
38509
38511
38519
38492
38511
38517
38527
38519
38530
38356
38407
38517
38536
38559
38563
38575
38571
38551
38543
38554
38574
38580
38591
38582
38586
38595
38422
38519
38530
38510
38549
38578
38602
38598
38612
38612
38630
38654
38655
38660
38636
38631
38637
38644
38655
38663
38674
38671
38649
38685
38684
38692
38692
38692
38694
38699
38695
38703
38723
38709
38719
38716
38700
38702
38711
38739
38732
38703
38719
38725
38735
38743
38740
38739
38746
38654
38688
38742
38732
38735
38730
38750
38759
38762
38771
38781
38786
38782
38791
38788
38778
38783
38785
38788
38788
38791
38787
38791
38796
38682
38702
38732
38750
38771
38758
38767
38780
38788
38791
38794
38791
38774
38767
38748
38774
38769
38829
38822
38828
38828
38841
38836
38831
38842
38859
38855
38855
38853
38855
38854
38853
38836
38844
38839
38831
38853
38847
38859
38853
38857
38860
38870
38873
38850
38864
38885
38863
38879
38874
38875
38868
38870
38865
38855
38860
38869
38844
38862
38854
38885
38869
38886
38879
38868
38875
38877
38881
38871
38863
38863
38855
38895
38886
38879
38882
38878
38883
38879
38890
38874
38874
38875
38878
38875
38884
38867
38852
38854
38858
38860
38861
38863
38850
38846
38843
38837
38832
38844
38883
38868
38873
38876
38858
38876
38849
38846
38847
38838
38831
38821
38823
38874
38858
38849
38823
38820
38807
38799
38796
38804
38855
38847
38836
38815
38808
38791
38799
38791
38791
38767
38781
38774
38834
38823
38823
38807
38783
38782
38781
38767
38746
38748
38748
38737
38740
38739
38735
38791
38782
38758
38756
38732
38729
38723
38709
38695
38696
38685
38751
38733
38740
38708
38695
38691
38657
38659
38647
38639
38636
38694
38694
38701
38698
38690
38663
38656
38644
38628
38613
38599
38580
38602
38603
38620
38580
38550
38550
38548
38535
38516
38521
38508
38549
38598
38543
38524
38517
38481
38475
38478
38455
38452
38446
38447
38428
38407
38407
38407
38399
38400
38425
38479
38441
38407
38385
38378
38372
38356
38339
38335
38313
38310
38264
38399
38372
38355
38339
38302
38316
38279
38279
38255
38247
38266
38268
38250
38255
38228
38200
38188
38172
38166
38163
38145
38142
38122
38110
38108
38080
38079
38061
38127
38087
38055
38023
38028
38001
37996
38081
37999
37963
37953
37940
37927
38023
37972
37943
37895
37874
37863
37858
37949
37895
37860
37823
37820
37799
37788
37764
37767
37747
37738
37711
37818
37803
37693
37676
37677
37671
37717
37743
37620
37607
37604
37586
37590
37620
37615
37530
37543
37500
37538
37487
37490
37541
37433
37442
37439
37499
37399
37402
37487
37350
37351
37326
37418
37363
37378
37359
37342
37302
37290
37261
37239
37206
37175
37182
37153
37143
37127
37103
37095
37088
37079
37044
37036
37127
37082
37062
37034
36999
36985
36955
36916
36916
36895
36855
36851
36839
36807
36799
36783
36839
36869
36819
36807
36766
36770
36710
36674
36642
36628
36615
36589
36571
36549
36667
36599
36549
36501
36467
36462
36442
36428
36396
36381
36500
36422
36387
36335
36301
36284
36271
36239
36222
36342
36249
36191
36159
36135
36118
36084
36072
36139
36166
36128
36063
36023
36004
35956
35954
35911
35892
35874
35847
35839
35809
35788
35761
35742
35864
35811
35778
35748
35679
35623
35608
35586
35573
35551
35525
35647
35599
35540
35555
35566
35401
35385
35375
35355
35370
35413
35372
35375
35313
35259
35221
35177
35158
35135
35107
35095
35062
35202
35105
35045
35003
34967
34934
34920
34887
34868
34855
34823
34791
34772
34746
34647
34857
34773
34711
34677
34618
34597
34582
34552
34538
34511
34491
34479
34453
34418
34417
34389
34349
34311
34303
34265
34240
34213
34188
34174
34134
34119
34095
34055
34028
34015
33991
33964
33942
33908
33895
33883
33898
33940
33973
33927
33738
33695
33678
33654
33636
33599
33583
33539
33516
33503
33476
33645
33579
33541
33530
33551
33325
33283
33250
33234
33203
33175
33154
33126
33098
33071
33056
33199
33134
33095
33018
32951
32951
32924
32861
32815
32772
32759
32743
32708
32682
32655
32623
32587
32562
32527
32511
32471
32447
32407
32390
32359
32527
32487
32383
32319
32277
32245
32209
32143
32113
32092
32062
32020
31981
31963
32151
32062
31941
31862
31824
31788
31746
31735
31703
31662
31635
31845
31751
31647
31567
31495
31463
31431
31394
31374
31351
31322
31294
31269
31231
31198
31172
31118
31129
31145
31261
31011
30983
30956
30919
30877
30842
30807
30767
30751
30711
30732
30830
30617
30593
30556
30515
30498
30457
30429
30389
30364
30343
30318
30291
30258
30233
30207
30165
30135
30110
30083
30050
30007
29972
29927
29889
29863
29812
29783
29767
29742
29708
29671
29639
29603
29578
29534
29515
29447
29419
29403
29356
29327
29301
29259
29223
29186
29156
29109
29085
29041
29003
28970
28938
28897
28877
28839
28803
28791
28764
28732
28671
28628
28588
28547
28507
28468
28435
28394
28397
28358
28320
28266
28223
28180
28148
28112
28074
28030
27996
27970
27919
27898
27851
27827
27785
27750
27710
27678
27640
27597
27564
27533
27503
27473
27412
27381
27337
27301
27629
27588
27447
27320
27251
27172
27083
27051
26980
26938
26884
26855
26819
26779
26745
26703
26658
26630
26599
26556
26508
26463
26436
26702
26342
26303
26264
26223
26185
26149
26110
26076
26020
25993
25970
25917
25886
25839
25820
25770
25722
25675
25647
25607
25580
25566
25480
25532
25446
25359
25337
25286
25269
25194
25185
25350
25113
25077
25005
24967
25324
24919
24884
24796
24767
24985
24684
24653
24583
24596
24591
24478
24440
24794
24374
24421
24255
24239
24175
24616
24108
24063
24011
23961
23925
23885
23879
23797
23765
23727
23679
23628
23622
23632
23647
23835
23753
23378
23331
23303
23244
23211
23166
23131
23161
23230
22977
22957
23014
22855
22814
22837
22727
22674
22669
22598
22563
22484
22470
22863
22403
22420
22295
22250
22192
22162
22122
22116
22151
22483
21915
21881
21839
21826
21791
21739
21687
21649
21615
21549
21495
21466
21405
21349
21306
21290
21240
21202
21153
21103
21038
20975
20919
20876
20826
20773
20731
20682
20634
20590
20541
20503
20457
20416
20363
20311
20270
20219
20179
20639
20618
20555
19988
19942
19892
20339
20319
20246
20109
19973
19736
19642
19591
19517
19423
19386
19342
19278
19237
19189
19143
19081
19037
18986
18949
18897
18854
18821
18776
18725
18670
18619
18576
18518
18468
18418
18370
18305
18255
18191
18147
18097
18038
17995
17954
17898
17854
17798
17749
17706
17642
17604
17551
18097
17711
17548
17432
17311
17247
17208
17163
17111
17085
17029
16962
16887
16836
17319
16997
16756
16664
16589
16544
16490
16436
16389
16341
16311
16275
16221
16163
16100
16051
16009
15937
15887
15847
15788
15757
15695
15651
15574
15540
15487
15420
15375
15305
15257
15212
15152
15089
15030
14981
14916
14882
14823
14770
14715
14659
14707
14886
15164
14447
14407
14369
14333
14276
14214
14139
14090
14043
13987
13931
13885
13826
13749
13696
13648
13597
14119
13784
13444
13384
13313
13429
13249
13190
13104
13098
13132
13231
13137
12839
12784
12725
12679
12632
12580
12517
12471
12423
12371
12348
12262
12204
12140
12087
12042
11980
11923
11864
11800
11736
11683
11658
11630
11609
11658
11684
11659
11770
11250
11197
11147
11076
11020
10960
10939
10885
10835
10965
11367
10630
10577
10513
10458
10407
10370
10317
10269
10221
10179
10076
10031
9989
9924
9884
9841
9775
9714
9670
9599
9524
9458
9391
9353
9290
9221
9961
9439
9215
9126
8951
8902
8811
8751
8699
8645
8616
8551
8529
8485
8413
8333
8309
8243
8153
8085
8021
7985
7919
7865
7816
7773
7712
7650
7587
7551
7449
7384
7325
7268
7212
7923
7546
7385
7438
7509
7277
7200
6885
6732
6652
6566
6521
6459
6381
6329
6283
6218
6225
6278
6250
6076
6219
6462
5815
5776
5700
5687
5598
5508
5477
5502
5332
5317
5305
5156
5123
5749
5027
4911
4866
4822
4774
4712
4639
4564
4502
4444
4382
4326
4255
4204
4188
4172
4155
4031
3971
3879
3807
3721
3668
3616
3578
3555
3553
3625
3434
3265
3201
3142
3085
3855
3638
3580
3025
2796
2715
2665
2655
2597
2493
2425
2346
2290
2229
2170
2115
2060
2478
2031
1895
1823
1747
1706
1639
1590
1523
1489
1411
1318
1264
1204
1205
1095
1029
962
900
838
772
708
692
608
530
467
412
352
301
250
120
140
88
48
48
49
48
47
48
49
48
48
48
47
47
48
49
48
48
49
47
48
47
47
48
49
47
48
49
47
48
49
47
47
47
47
47
48
48
48
46
47
47
48
47
48
48
48
49
48
48
48
48
47
46
48
47
48
48
48
47
46
47
47
49
48
47
47
47
47
48
48
48
47
47
48
48
48
47
47
47
47
47
47
47
48
47
47
48
47
47
48
48
49
48
48
47
47
48
49
47
47
47
48
49
48
48
47
48
48
48
47
46
47
48
48
48
47
47
48
48
47
49
49
48
47
47
49
48
47
48
47
47
47
47
48
47
48
48
47
49
47
47
48
48
48
47
48
47
47
47
48
47
48
48
47
47
47
47
47
47
47
47
47
47
47
47
47
47
49
48
47
48
47
47
49
47
48
48
48
47
47
47
47
48
48
47
48
48
49
48
47
47
48
47
47
48
48
48
47
47
48
48
48
47
47
49
48
47
46
48
47
49
47
48
47
47
47
47
49
48
48
47
47
49
46
47
48
48
48
48
47
47
47
46
46
48
49
47
48
49
49
48
47
47
47
48
47
48
48
48
46
48
47
47
46
47
47
47
49
47
48
47
47
48
48
47
47
48
48
47
47
48
48
48
48
47
47
49
47
49
47
48
48
49
49
48
47
47
46
48
48
47
48
47
47
48
47
47
47
47
47
47
47
47
47
49
47
48
48
47
47
48
48
48
48
48
47
48
47
47
48
49
47
48
47
47
48
46
48
49
48
49
47
48
47
47
47
49
47
48
48
48
49
47
48
47
48
48
47
47
48
48
48
48
48
48
47
47
48
47
49
48
48
47
47
47
47
47
47
48
46
48
47
48
47
47
48
47
48
48
47
48
48
48
47
48
48
47
48
47
47
48
47
48
48
48
48
47
48
47
47
48
48
47
47
48
47
47
47
48
48
48
46
47
48
47
46
48
47
47
48
47
47
47
48
47
48
48
47
48
47
47
47
46
47
47
48
47
47
47
46
48
48
48
48
48
48
47
48
47
47
47
47
48
47
47
47
47
46
48
46
47
48
48
47
47
48
48
48
48
46
48
47
47
47
47
48
47
49
47
49
47
48
48
48
49
47
48
48
48
47
47
47
47
47
47
47
47
48
48
48
47
46
48
47
47
47
48
48
48
48
47
48
48
47
47
49
47
48
48
48
47
47
48
47
47
46
48
47
47
47
47
47
49
47
48
47
48
47
47
49
48
47
47
46
47
47
48
47
47
48
48
48
49
47
47
49
48
47
48
47
47
48
47
48
47
47
48
47
48
47
46
47
48
47
47
48
48
47
47
48
49
46
47
48
47
48
48
47
48
48
47
48
46
49
47
47
47
47
47
49
47
47
48
47
47
47
48
47
48
48
48
46
48
48
48
47
48
47
47
47
48
49
48
49
48
47
48
48
47
48
47
47
48
46
48
47
48
48
48
48
48
48
47
47
48
47
48
47
49
48
47
48
47
48
47
48
48
48
48
49
47
48
48
46
47
47
48
49
47
47
47
47
47
47
47
49
47
48
47
48
47
48
49
48
47
47
47
48
46
46
48
49
49
47
48
48
48
47
47
46
47
48
47
46
48
49
47
48
47
47
47
48
47
46
49
47
47
48
48
47
47
47
48
47
47
48
49
48
47
48
48
48
47
47
48
47
48
48
47
47
48
47
49
48
48
47
48
47
47
46
47
48
47
48
48
47
48
48
47
48
48
47
48
47
46
49
48
48
47
47
48
48
47
48
47
47
48
47
48
47
48
47
47
46
47
47
47
46
47
48
47
48
48
47
47
48
47
47
48
47
47
47
47
49
49
48
47
49
48
48
47
48
47
47
46
48
48
47
47
47
48
47
47
48
48
48
48
48
48
47
48
49
48
48
48
48
48
48
47
47
48
47
47
47
48
48
47
49
48
48
47
47
47
48
48
47
47
48
48
47
48
47
47
47
47
47
47
48
48
47
48
47
47
47
48
47
47
47
48
48
47
48
48
48
49
47
47
47
48
47
46
48
47
48
47
47
47
48
47
48
48
47
48
48
47
48
49
47
49
47
47
47
48
47
47
47
48
47
48
48
48
48
47
48
47
48
47
48
47
48
48
47
48
47
48
48
48
47
47
48
47
49
48
47
47
47
49
49
48
48
47
47
48
48
48
48
48
48
48
48
48
47
47
49
47
48
47
48
47
47
47
48
46
48
47
47
47
47
48
47
48
48
47
48
48
47
48
47
48
47
48
49
47
48
47
47
49
48
47
48
47
47
47
47
47
48
48
47
49
48
48
49
48
47
47
47
48
48
47
47
47
48
48
48
48
48
48
48
47
48
46
47
47
47
47
46
48
48
48
48
46
48
47
46
47
47
47
48
48
47
47
48
48
49
47
47
49
48
48
48
48
46
47
47
47
47
48
49
49
47
49
49
48
47
48
48
47
47
49
47
49
48
47
48
47
48
49
47
48
48
47
48
48
47
48
49
46
47
47
48
48
47
48
47
47
48
47
47
47
47
48
48
47
47
48
48
48
47
47
46
48
47
47
47
47
47
47
48
47
47
47
47
48
48
47
48
48
47
47
49
48
48
48
47
47
48
48
47
49
47
47
47
46
47
48
48
48
49
48
47
48
47
48
47
48
47
47
47
48
47
48
48
47
48
46
48
47
47
48
46
47
47
48
48
47
48
48
48
48
48
47
47
48
48
47
46
48
48
47
47
48
48
48
46
48
47
48
48
48
48
46
47
48
48
48
48
48
48
47
49
47
48
48
48
47
47
47
46
47
47
47
47
47
48
47
48
49
47
48
48
48
48
47
47
47
48
48
48
47
48
47
47
48
48
46
47
49
48
48
47
47
47
48
48
48
47
47
47
48
47
49
48
47
47
48
47
47
47
48
47
47
48
48
48
48
48
49
47
47
48
48
47
49
48
47
47
47
47
48
46
47
47
47
49
47
48
47
48
48
48
48
48
47
47
49
49
48
47
49
47
48
46
48
48
49
47
47
47
47
46
47
46
48
48
49
47
48
48
48
49
47
48
47
47
48
47
48
47
47
49
47
47
47
47
48
48
48
48
47
48
47
47
48
49
48
47
48
47
48
47
48
47
48
46
47
47
47
46
49
48
47
48
48
48
48
47
48
47
47
47
47
47
49
48
47
47
46
48
47
48
47
49
47
48
47
47
47
47
48
47
48
47
48
47
47
48
49
47
47
47
48
47
47
48
48
48
47
48
47
47
47
49
48
49
47
47
47
48
48
48
47
48
47
48
47
47
49
47
47
49
47
48
49
47
48
47
48
47
48
48
47
48
47
48
47
48
48
48
48
47
47
48
48
49
47
47
48
47
47
48
48
47
48
47
47
48
47
48
47
49
48
48
48
49
49
47
47
47
47
48
48
47
48
47
47
48
48
49
46
47
48
48
49
47
47
48
48
48
47
47
47
47
48
47
48
47
48
48
47
47
48
46
48
47
48
47
48
48
47
48
48
47
48
47
48
47
48
48
48
47
47
47
48
48
48
48
46
47
48
47
47
48
47
48
48
48
49
48
48
48
47
48
46
47
47
47
47
47
47
47
47
48
49
48
48
47
48
49
48
47
48
48
47
48
47
49
46
47
47
49
46
49
47
47
47
48
47
47
47
49
46
47
47
47
46
47
47
47
46
47
49
49
48
48
48
49
49
48
48
47
47
47
48
48
48
48
47
48
48
47
49
48
47
47
47
47
47
46
48
47
48
48
47
48
47
47
47
49
47
47
48
48
48
48
48
48
47
47
48
48
47
47
48
47
48
47
48
48
48
47
48
47
48
47
48
46
47
48
47
48
48
47
48
47
48
48
47
47
48
47
47
47
48
48
48
47
49
47
47
48
48
48
47
48
48
49
48
47
47
47
49
47
49
48
46
48
48
49
48
48
48
49
48
47
48
48
48
48
48
47
47
47
47
47
47
48
47
47
48
48
49
48
48
48
48
49
47
49
48
48
47
47
48
47
47
49
47
47
48
47
46
48
48
47
47
48
47
48
48
48
47
47
47
47
48
47
47
48
47
48
47
47
47
49
47
48
47
48
48
47
48
47
47
48
47
48
48
46
47
48
47
48
48
48
48
47
48
47
49
48
47
47
47
48
46
47
47
47
47
46
47
46
48
47
47
47
48
47
46
46
48
47
47
47
48
48
48
47
49
47
49
47
48
47
49
48
48
48
48
47
48
48
48
49
48
47
47
48
47
48
47
47
48
48
48
47
47
48
47
47
48
46
48
49
47
48
47
48
47
46
48
48
47
47
47
47
48
49
49
47
48
47
47
47
47
48
48
48
47
48
48
47
49
47
48
47
48
48
48
48
49
48
47
47
47
48
47
47
47
48
47
47
48
47
48
48
47
48
48
49
46
47
47
47
48
47
49
47
49
47
48
47
48
48
46
47
48
47
47
48
48
48
48
48
47
47
48
48
47
49
47
48
47
47
48
47
48
47
47
47
48
46
48
48
47
47
47
48
48
48
48
47
47
48
48
48
48
49
47
48
48
48
47
47
48
48
46
47
48
47
48
48
49
48
48
47
48
48
48
49
48
48
48
46
47
48
47
47
49
47
47
47
47
48
48
49
47
47
47
48
48
48
49
47
47
48
48
46
48
48
48
47
47
47
47
47
47
47
48
48
47
47
47
48
47
48
48
48
47
48
48
48
48
47
48
47
49
47
47
48
48
47
47
49
48
49
48
47
47
47
48
48
47
48
48
46
47
47
48
47
47
47
48
48
47
48
47
47
47
47
47
47
47
47
47
49
47
47
47
47
48
48
47
47
46
47
47
48
47
47
47
47
47
48
48
48
48
47
47
48
47
47
47
47
47
48
48
48
47
48
47
48
49
48
47
48
47
47
48
47
49
47
47
47
47
47
48
47
47
47
48
47
48
48
48
47
49
48
47
48
47
48
48
48
47
46
47
47
48
47
47
48
46
48
47
47
47
47
48
47
48
48
47
47
47
48
46
47
46
49
47
46
47
47
48
48
47
46
47
47
49
46
48
48
48
49
47
48
49
47
48
49
46
49
47
47
48
47
48
47
48
47
48
47
48
47
47
47
49
47
48
48
48
47
47
47
47
47
48
47
47
48
47
48
48
47
47
48
47
48
48
47
48
47
47
47
47
47
47
47
47
47
48
48
47
47
47
48
48
47
48
48
47
47
47
47
46
46
47
48
48
48
48
47
48
47
49
48
46
47
47
47
47
47
47
48
47
48
47
48
47
47
48
48
48
48
48
48
48
48
48
47
48
49
47
47
46
47
48
48
47
47
46
49
48
47
47
48
49
47
48
48
47
48
47
48
47
48
47
47
47
48
48
49
47
48
47
47
47
48
47
48
47
48
47
47
48
49
48
48
47
48
49
48
48
47
49
47
49
47
47
48
47
47
46
49
47
47
47
48
47
48
48
48
47
47
47
48
47
48
47
47
47
48
48
48
46
49
48
47
47
47
48
48
47
47
46
48
46
47
47
47
47
48
47
47
48
47
48
48
47
48
48
47
47
47
47
48
47
48
47
46
48
47
47
47
47
48
48
48
48
47
47
48
46
47
47
47
48
48
47
47
47
47
47
48
48
46
47
48
47
48
48
48
47
47
47
47
48
47
48
47
47
48
48
47
48
46
47
48
47
49
48
47
48
47
48
47
48
48
48
48
48
47
48
48
47
47
47
47
47
48
48
48
47
48
46
48
46
47
48
48
47
46
47
48
48
47
48
48
49
48
46
46
47
47
48
47
47
48
47
47
47
47
47
47
48
46
48
48
47
48
47
49
48
47
47
46
49
47
48
48
47
48
47
47
48
48
47
48
48
47
47
47
47
47
47
48
47
47
48
48
48
48
47
48
48
48
47
49
47
48
47
47
48
47
47
47
48
46
48
47
46
47
47
47
48
47
47
49
48
47
48
47
47
47
48
48
47
47
48
48
48
47
47
48
47
47
49
47
47
49
47
47
47
47
47
48
47
48
46
47
48
48
47
47
47
48
48
48
48
47
48
47
49
48
48
46
48
47
47
48
47
48
47
49
48
48
47
47
47
48
47
47
46
47
47
48
47
47
48
48
48
47
47
48
48
49
48
45
47
48
46
48
46
47
47
48
47
49
50
47
48
47
47
48
48
48
47
47
47
48
47
47
48
47
47
47
48
47
47
47
47
47
47
47
47
47
47
48
47
49
47
48
47
47
48
47
47
48
48
47
48
48
46
47
48
47
47
48
48
48
48
47
47
48
47
48
47
48
48
46
47
48
48
47
48
47
48
46
47
48
47
48
47
47
47
48
48
49
47
48
48
47
47
47
47
48
47
48
48
47
47
48
47
47
47
47
47
46
48
47
47
47
47
48
47
47
46
48
48
48
47
49
47
47
47
47
47
48
47
47
49
48
48
47
48
48
47
48
48
47
47
48
46
47
48
48
47
46
47
48
48
48
47
48
47
48
47
47
48
47
47
47
47
47
48
47
47
47
49
47
48
47
47
48
48
48
48
48
47
48
48
47
46
48
48
48
48
47
46
47
47
48
47
47
48
46
48
48
46
47
48
47
48
47
48
47
47
49
49
48
47
47
47
48
46
48
48
48
48
47
47
47
47
48
48
48
47
48
49
48
48
47
48
48
47
47
47
47
48
47
48
49
46
47
49
47
48
47
48
47
47
47
47
47
47
48
47
47
46
47
50
48
47
48
48
47
48
47
47
47
47
47
47
47
48
47
47
47
48
47
49
48
48
47
47
47
47
47
47
47
47
47
47
47
47
47
47
47
49
48
47
47
47
48
48
47
47
47
48
48
48
48
46
47
48
48
47
48
48
47
46
48
47
47
47
49
46
47
48
47
46
47
48
46
49
47
46
48
48
49
46
48
47
47
47
47
47
48
48
47
49
49
47
47
48
48
47
47
47
47
48
48
47
48
48
47
49
47
46
47
48
47
47
49
46
48
47
49
47
47
47
47
48
48
49
45
47
48
47
48
47
47
47
47
48
48
47
48
48
47
48
48
48
47
48
48
47
47
47
47
47
49
47
48
47
47
47
47
48
48
49
47
47
47
48
47
48
48
48
48
47
47
48
48
48
47
47
47
47
48
48
48
48
47
49
47
48
46
47
47
46
48
47
47
47
48
47
48
47
48
48
48
47
47
49
47
48
48
48
47
49
48
47
49
48
48
47
48
48
47
47
49
47
47
49
48
48
48
47
47
47
48
46
48
48
48
48
47
47
47
47
47
47
47
48
48
47
47
48
47
48
48
47
47
47
47
47
47
48
47
48
47
47
48
48
47
48
47
48
48
47
49
48
46
48
47
47
48
46
49
48
48
47
47
47
47
47
47
49
47
48
48
47
47
47
46
47
47
48
48
46
47
48
47
47
47
47
47
48
47
47
47
48
46
47
47
48
48
47
47
48
47
47
47
48
48
46
48
47
46
48
48
46
47
48
47
46
47
48
48
48
48
47
48
48
47
48
48
47
47
47
47
48
47
46
48
47
48
47
47
49
48
48
48
49
49
47
47
47
48
48
49
48
48
47
48
48
48
47
47
48
49
48
48
47
47
47
47
48
47
47
49
47
48
47
47
48
48
48
48
47
48
46
48
47
47
47
48
48
47
48
47
47
47
47
48
48
47
49
48
47
48
48
48
47
47
47
48
49
48
47
47
47
48
47
48
48
47
47
46
47
47
47
47
48
47
47
47
46
47
48
47
48
47
49
48
47
47
47
47
48
47
47
48
48
46
48
48
47
48
47
47
48
47
48
48
47
47
46
47
48
46
47
48
47
48
48
49
48
47
49
48
48
48
47
47
48
47
48
48
48
47
47
47
48
48
48
47
47
47
47
46
48
46
47
47
48
47
48
48
47
47
48
48
47
48
47
47
48
48
48
48
47
47
48
48
47
47
47
48
47
48
47
48
48
48
47
48
47
47
48
46
47
47
48
49
49
48
47
47
47
48
48
47
48
48
47
47
47
48
47
48
47
47
48
47
47
47
48
47
49
48
46
48
47
48
47
48
46
47
46
49
47
47
48
48
47
47
47
46
47
47
47
47
47
48
48
47
47
47
47
48
49
46
49
48
47
48
49
48
47
48
47
48
48
47
47
47
47
47
47
49
47
48
48
47
47
48
48
48
48
47
46
48
47
48
47
48
48
48
48
49
48
48
48
48
47
48
48
46
48
47
47
48
47
48
48
47
48
47
48
47
47
47
46
47
47
47
48
47
48
47
48
48
46
47
48
48
47
47
48
47
47
48
48
48
47
48
48
48
48
47
47
47
48
47
47
49
47
47
46
47
48
48
47
48
47
48
48
48
48
47
48
47
48
48
47
47
48
47
47
49
47
47
48
47
46
47
47
48
46
47
48
47
48
47
49
47
47
48
48
48
48
47
48
47
47
48
47
48
48
49
48
47
48
48
49
48
47
47
48
46
47
48
48
47
47
47
47
48
47
48
48
48
47
48
47
48
47
48
47
47
47
47
48
48
47
48
47
47
48
48
48
47
47
47
47
49
47
47
48
48
48
47
47
47
48
49
47
47
49
49
48
47
47
47
47
47
47
47
47
48
47
48
48
49
47
49
49
48
47
48
47
47
48
47
48
47
46
48
47
46
48
47
47
47
48
48
48
48
49
47
48
47
48
48
48
48
47
48
47
48
47
48
47
48
48
48
49
47
47
47
48
47
46
47
47
47
47
48
47
48
47
47
48
47
48
48
49
49
48
47
48
48
48
48
49
48
47
48
48
48
49
48
48
46
47
48
47
47
47
47
48
47
47
47
48
48
47
48
48
48
49
47
47
47
49
48
48
47
47
47
48
48
49
47
47
48
48
47
48
47
48
46
49
48
47
47
48
47
47
46
47
47
48
48
48
47
47
46
48
47
48
48
49
47
47
47
47
47
48
49
47
49
48
48
48
47
48
48
47
48
48
47
47
48
48
47
47
48
48
48
48
47
47
48
47
48
47
47
48
47
47
48
48
47
46
48
46
47
48
48
47
47
47
49
47
48
47
47
48
48
47
47
48
47
48
48
47
48
49
47
48
49
48
47
47
47
48
49
48
48
47
48
47
48
48
47
48
47
48
48
48
48
48
47
47
47
47
48
47
48
47
47
46
47
48
47
47
49
48
48
48
47
47
48
48
47
47
47
47
47
48
48
48
48
48
48
47
48
47
48
47
47
47
47
48
48
48
47
47
47
48
47
47
48
46
48
48
47
49
48
49
47
49
47
48
46
47
48
48
48
48
47
48
48
48
48
48
47
49
49
47
48
48
47
47
47
47
46
47
48
48
48
47
48
47
47
48
47
48
47
48
48
47
48
47
47
47
47
46
48
47
47
48
48
48
48
47
48
48
46
47
46
46
48
48
47
48
47
47
49
48
48
48
47
48
47
48
48
46
48
48
46
50
49
49
47
48
48
48
47
49
47
48
48
48
48
47
49
49
47
48
47
47
48
48
48
48
47
48
48
47
47
48
47
49
48
48
47
47
47
48
48
48
47
47
47
48
47
47
49
46
47
48
47
47
47
47
48
47
47
48
47
47
47
48
48
47
48
48
49
47
47
48
48
47
49
48
47
48
47
47
49
48
47
47
48
49
48
48
48
47
48
48
48
47
47
48
49
46
48
48
47
47
47
47
46
47
47
48
48
48
47
48
47
48
47
49
49
47
47
47
48
47
49
46
48
47
48
49
47
48
49
49
47
47
48
47
47
47
49
48
49
47
47
48
48
47
49
48
47
48
47
48
47
48
48
48
48
48
47
48
48
47
47
48
48
48
47
46
46
48
49
49
48
48
48
48
47
48
47
47
47
47
47
48
47
48
48
47
48
48
48
47
48
47
48
48
47
48
48
47
48
47
47
49
48
47
47
47
47
48
48
48
47
48
48
47
48
47
47
48
49
46
47
49
47
48
47
48
49
48
48
48
48
48
47
49
47
48
48
47
48
48
47
48
47
47
48
48
47
47
47
48
48
48
47
47
48
48
47
47
48
48
47
48
47
48
48
46
48
47
49
47
46
47
46
47
49
48
47
47
47
47
49
47
48
48
47
47
47
47
47
50
48
49
48
48
49
47
48
48
47
47
48
49
47
49
47
47
48
48
48
48
48
47
48
48
48
47
47
48
47
48
47
47
47
48
48
47
48
48
48
48
47
48
48
48
48
48
47
47
48
47
47
48
47
46
47
49
48
47
48
48
48
48
47
47
48
47
47
47
47
47
47
47
47
47
49
47
48
47
47
47
50
47
47
47
48
48
48
47
48
47
48
47
48
48
47
49
47
47
46
48
48
47
49
48
47
47
47
49
47
47
47
47
48
47
48
46
47
50
47
47
47
47
47
47
48
48
47
48
47
47
47
47
47
47
48
47
48
47
47
48
49
47
47
47
48
47
49
48
47
48
46
48
48
48
49
48
48
48
48
48
48
48
48
48
48
49
47
47
48
48
47
48
48
48
48
48
47
47
48
47
48
48
48
48
47
47
48
47
48
48
48
47
47
48
48
47
47
48
48
47
48
47
47
48
49
47
47
48
47
49
49
48
47
48
47
48
49
47
47
48
46
47
48
48
47
48
48
47
47
48
47
48
48
47
47
47
46
47
48
47
47
48
49
47
48
48
49
47
47
48
47
48
48
47
47
48
47
48
47
48
47
47
46
48
48
47
48
47
47
48
47
48
48
48
46
47
47
47
48
47
47
48
47
48
46
48
48
49
48
47
47
47
48
46
46
47
47
47
47
48
47
46
49
47
47
49
48
47
48
47
49
48
47
47
48
47
48
47
47
48
47
47
47
48
48
48
48
48
48
47
48
48
48
46
47
49
48
47
47
47
48
48
48
48
46
47
48
48
46
47
47
48
47
48
48
47
49
49
47
47
48
47
48
48
48
48
47
48
48
47
48
48
48
46
47
47
49
47
48
48
48
47
47
47
49
48
47
48
47
48
47
48
48
48
47
48
49
48
48
47
47
47
47
47
47
48
47
48
47
48
47
47
48
47
47
47
47
47
47
49
48
47
48
47
48
47
47
49
48
48
46
48
47
47
48
48
48
48
47
47
48
48
48
47
46
48
48
48
48
47
47
47
47
47
47
48
48
47
48
48
48
47
48
47
46
46
48
47
46
49
49
47
47
47
46
48
47
48
47
48
47
48
49
47
47
47
47
48
48
48
47
48
47
47
47
48
47
48
48
48
48
47
48
47
47
48
47
47
47
48
47
48
47
48
49
47
47
47
47
47
47
47
48
48
48
49
47
48
48
47
49
47
47
48
47
47
47
47
47
47
47
49
48
47
47
48
47
47
48
48
47
49
47
47
47
47
47
47
47
47
47
47
48
47
48
48
48
47
48
48
48
47
49
47
48
47
49
46
48
48
47
46
48
48
47
48
47
47
47
48
48
47
48
47
47
47
47
48
48
47
47
48
48
49
48
47
47
47
48
47
48
47
47
48
48
47
49
48
49
48
48
48
48
48
48
49
47
48
48
47
48
48
47
48
48
48
48
47
47
48
47
48
48
48
46
47
47
49
48
48
48
48
47
48
48
48
47
48
47
48
48
47
47
47
49
47
46
47
46
47
48
48
47
47
47
47
48
47
48
48
49
47
47
47
48
47
47
48
47
47
47
48
49
49
48
47
48
48
48
47
47
47
47
49
47
48
47
48
48
47
47
47
48
47
47
47
48
47
47
47
48
47
48
47
47
47
48
48
48
48
47
47
47
48
47
48
47
49
48
47
47
48
48
48
48
48
48
47
47
48
48
48
48
47
47
47
48
48
48
48
46
47
47
48
47
47
48
47
47
48
47
47
47
48
47
48
47
48
48
49
47
48
47
48
48
47
48
48
48
47
47
49
48
47
47
47
47
47
48
48
49
47
48
47
47
48
47
48
48
48
47
48
48
49
48
48
47
47
48
48
48
47
48
48
47
48
48
47
47
48
47
47
49
46
47
47
47
48
48
48
47
47
47
48
49
47
47
48
48
48
47
48
47
48
48
47
47
47
48
47
48
48
49
47
47
47
48
48
48
46
47
48
48
47
47
47
47
48
47
47
48
48
47
48
47
47
47
47
47
48
49
48
47
48
47
48
47
46
48
48
48
48
47
48
48
48
47
49
48
48
48
48
47
48
47
46
47
48
48
47
48
47
47
49
47
47
48
47
47
47
47
49
47
48
48
47
47
47
48
47
48
48
47
47
46
46
49
48
47
47
48
48
47
48
48
47
48
48
47
47
47
47
47
47
48
48
47
49
48
48
47
47
47
48
48
47
47
47
48
47
47
47
47
48
47
48
47
47
49
47
48
47
47
47
46
48
47
47
47
47
47
49
47
48
48
47
47
47
48
48
47
47
48
49
49
48
48
48
48
47
48
48
48
47
48
49
48
48
48
49
47
47
47
48
48
47
46
47
48
48
47
48
47
47
47
47
48
48
47
47
48
47
47
48
48
48
47
47
47
48
48
48
48
49
48
47
47
48
47
48
48
48
47
48
48
47
48
48
48
46
47
48
47
48
47
48
49
48
47
47
49
48
47
48
48
47
47
47
48
48
48
48
47
47
48
48
48
48
47
48
47
47
47
48
48
48
47
46
48
47
48
47
48
48
48
49
48
48
48
49
48
48
47
47
49
47
48
47
47
48
48
48
47
47
48
49
48
47
47
48
47
47
49
49
47
47
47
48
47
48
48
47
48
48
47
48
46
49
49
48
47
47
47
48
47
48
47
48
48
48
47
48
48
48
49
48
47
47
47
49
49
47
48
47
48
48
48
48
47
47
47
47
47
47
46
46
48
48
47
49
48
48
47
48
47
48
48
47
47
47
47
49
48
47
47
48
47
46
48
48
47
47
48
49
48
48
47
48
47
47
47
48
47
48
48
48
48
48
47
48
47
49
49
48
47
47
48
48
47
48
48
47
47
48
47
48
47
47
48
48
48
47
48
47
47
48
46
47
49
47
49
48
49
47
49
48
46
48
47
48
47
47
47
48
48
47
47
47
47
48
49
47
47
48
47
47
48
48
48
49
48
47
47
48
47
49
47
48
47
48
48
48
48
47
47
47
47
47
48
47
48
48
47
47
47
47
47
47
49
48
47
47
47
48
48
48
48
48
48
48
48
47
46
48
46
47
47
48
46
47
48
48
47
48
48
47
47
47
47
47
48
47
47
48
47
47
48
47
47
47
47
48
47
48
47
48
48
47
48
48
47
48
48
48
48
48
47
48
47
49
47
49
49
47
47
49
48
49
47
47
49
49
47
47
49
46
47
47
47
48
48
48
47
48
48
49
48
48
47
47
48
48
48
47
48
47
49
48
48
48
48
47
47
48
47
48
48
48
48
47
48
48
47
47
47
48
47
48
48
47
47
49
47
47
47
48
47
47
48
47
48
47
47
47
47
47
47
47
47
47
47
48
47
47
48
47
47
47
48
47
48
48
48
48
49
48
48
48
49
48
48
47
48
49
48
47
47
47
48
48
48
48
48
47
47
48
48
47
48
48
48
48
47
48
46
47
48
47
47
47
48
48
47
48
48
47
47
48
48
48
49
47
47
47
49
48
48
48
47
48
48
47
48
47
48
48
47
48
47
48
47
47
47
48
48
47
47
47
47
49
47
47
47
47
48
48
48
48
47
48
47
47
47
48
47
48
47
48
48
49
47
47
48
47
47
47
48
47
48
47
48
47
47
47
47
47
48
48
47
49
48
48
48
47
48
48
47
46
48
47
47
47
49
48
48
48
47
46
47
48
47
47
47
47
48
49
48
47
47
48
48
47
47
47
48
47
48
47
46
47
48
47
47
47
47
47
48
47
47
48
48
48
47
47
48
47
48
49
47
47
48
48
48
48
48
47
48
47
48
47
47
47
48
49
48
48
47
48
47
47
48
48
47
48
47
47
47
47
47
47
48
48
47
47
47
48
49
46
48
48
46
48
47
47
47
48
47
48
48
47
49
48
48
48
47
47
47
48
47
47
47
48
48
48
46
48
47
47
47
49
47
48
48
47
47
48
48
48
47
48
49
47
47
47
47
48
47
48
48
48
48
48
47
48
47
47
49
47
47
47
48
47
47
48
48
47
48
47
48
49
47
47
48
47
47
48
46
48
47
47
47
48
47
47
48
48
48
48
48
47
48
48
48
47
48
47
48
48
47
47
47
48
48
47
48
47
48
47
47
48
48
48
47
48
48
49
47
48
48
48
48
49
48
47
48
47
47
47
48
48
49
48
47
48
47
48
48
47
47
47
48
48
48
47
48
47
48
48
47
46
47
47
49
46
47
47
47
48
48
48
48
48
48
48
47
47
47
49
48
48
47
48
48
47
47
48
49
48
46
48
48
48
48
49
48
49
47
47
48
48
48
48
47
48
47
48
47
48
48
48
48
46
48
47
48
48
48
48
48
47
47
47
48
47
46
48
48
47
47
47
47
47
48
48
48
48
47
48
48
47
47
46
47
48
48
47
48
48
46
47
48
48
48
48
48
48
46
47
48
47
48
50
48
46
47
49
47
49
46
47
47
46
47
48
48
48
48
47
47
48
48
48
47
48
47
47
47
47
48
48
47
48
48
48
47
48
48
48
48
48
47
47
47
47
47
47
48
47
48
48
46
48
47
48
47
46
47
47
47
48
47
48
48
48
49
48
48
48
47
48
47
46
47
47
48
48
47
48
48
47
48
47
48
47
48
49
48
47
48
48
47
47
47
46
47
47
47
46
48
47
47
47
47
46
47
47
47
48
47
47
48
46
47
48
48
48
48
48
47
47
47
47
47
47
48
48
47
48
47
48
47
47
47
48
48
47
47
47
47
48
47
48
49
49
47
48
48
47
49
49
47
47
49
47
48
47
47
47
48
47
47
47
48
48
47
48
47
47
48
47
47
47
48
48
47
48
48
47
47
47
47
49
47
49
48
48
48
48
49
46
47
48
48
48
47
47
47
47
48
48
48
47
47
47
48
47
47
47
48
47
48
47
47
48
47
47
47
48
48
47
48
48
47
48
47
47
47
48
48
47
48
48
48
47
48
47
48
49
48
48
47
47
47
47
47
47
48
47
47
48
48
48
48
48
48
48
47
46
48
48
47
47
50
47
48
48
47
47
48
48
46
47
48
47
47
46
47
48
49
48
48
48
47
47
48
48
47
47
47
47
47
47
47
47
47
49
49
49
48
48
48
47
48
47
47
48
47
47
48
47
48
47
47
48
47
48
48
48
48
47
47
48
47
48
48
48
47
48
47
47
47
47
48
47
48
49
47
48
48
47
48
47
48
47
47
47
48
48
48
47
48
48
48
48
49
47
48
47
47
47
48
47
46
48
47
47
48
49
48
47
47
48
47
48
47
48
50
47
47
47
47
48
47
47
46
47
48
47
48
48
48
47
48
47
48
47
47
47
48
47
47
49
48
48
48
47
47
47
47
48
47
48
48
47
47
48
48
48
48
48
48
47
46
47
46
48
47
47
48
46
48
47
47
48
48
47
47
47
47
48
48
48
47
49
47
47
48
48
47
48
48
49
48
47
47
47
47
49
48
48
47
48
48
47
47
48
47
47
48
47
47
46
47
48
47
47
49
48
47
48
48
48
47
47
48
47
47
48
48
47
49
47
47
49
47
48
46
48
49
47
47
48
49
46
48
48
47
49
48
48
47
49
48
48
48
49
47
48
47
47
48
48
47
47
47
48
48
48
47
47
47
47
48
48
48
49
48
50
48
46
47
48
48
47
48
47
48
48
49
47
47
50
47
48
47
49
48
48
48
47
48
47
47
48
49
48
47
48
47
48
47
47
47
48
48
48
47
47
47
48
48
48
46
47
48
47
47
47
48
48
48
47
47
48
47
47
48
47
47
47
48
48
48
48
47
47
47
48
47
47
48
48
48
46
48
47
48
48
47
47
47
48
48
48
48
48
47
48
48
47
47
47
47
48
48
47
47
48
47
47
47
47
48
48
48
48
47
47
47
49
47
48
48
47
49
47
47
47
47
48
47
49
49
49
47
47
48
48
48
47
48
47
48
48
47
47
49
48
47
47
47
47
47
47
47
48
48
47
48
47
47
47
48
47
48
47
47
48
49
47
48
46
48
49
47
49
47
48
48
47
47
47
48
48
48
47
47
48
47
47
47
47
48
48
48
47
49
49
48
48
48
47
48
47
47
48
48
48
47
46
46
47
48
47
48
48
48
47
48
47
48
47
48
47
47
48
48
47
48
47
49
47
49
47
47
47
48
47
47
47
47
48
47
47
46
48
47
47
48
48
48
48
47
47
48
47
47
47
45
48
49
47
48
48
47
47
47
48
49
47
47
47
48
47
48
48
47
47
48
47
48
47
48
48
49
48
47
47
48
47
49
48
48
47
47
47
47
48
47
47
47
47
48
47
48
48
47
49
47
47
48
47
47
48
48
47
47
48
49
47
48
48
47
47
49
48
46
47
47
47
47
47
47
47
47
47
47
47
47
47
48
48
47
47
47
47
48
47
48
48
47
49
48
47
48
48
47
47
47
47
48
47
48
48
47
48
48
48
48
47
48
47
47
47
48
48
47
47
48
47
48
47
48
47
47
47
48
47
48
47
47
47
48
47
48
47
47
48
48
47
48
46
47
48
48
48
47
47
47
47
47
48
48
48
48
47
47
47
48
48
47
48
46
48
48
46
48
48
49
48
48
46
47
47
48
48
48
47
47
48
47
47
48
49
48
48
48
47
48
47
48
47
49
46
47
49
47
47
48
47
48
47
46
47
47
48
48
47
47
47
47
49
47
47
48
47
48
48
47
47
48
48
46
48
48
47
47
49
49
47
47
48
48
48
47
47
48
49
48
48
47
48
48
47
47
47
47
47
48
48
47
47
48
46
47
48
48
48
48
47
48
47
48
48
48
47
49
48
47
48
48
48
48
49
47
48
47
47
48
47
46
48
48
47
47
47
47
47
48
48
48
49
47
48
47
48
48
48
48
48
49
48
47
48
47
47
48
48
48
49
47
47
47
48
47
48
47
48
48
48
48
48
48
48
48
47
47
47
49
48
46
47
48
48
46
47
48
48
47
47
47
48
48
48
48
47
47
47
48
49
48
48
47
48
48
47
47
47
49
47
47
47
47
48
47
48
48
47
48
47
48
46
47
47
48
47
49
47
47
47
47
48
48
47
47
48
48
47
47
47
48
47
48
48
47
47
48
48
47
48
48
47
48
47
47
47
46
47
47
47
47
47
47
47
48
47
48
47
47
49
47
48
47
47
46
47
48
48
47
47
48
47
47
47
48
48
47
48
48
48
48
48
47
47
47
47
47
47
48
47
47
48
47
47
49
47
47
47
47
48
47
48
47
46
47
49
48
48
48
48
47
48
48
47
47
48
47
48
46
48
47
47
49
47
48
47
47
48
47
48
47
48
48
47
47
46
47
47
47
48
46
48
47
48
47
46
49
47
48
48
47
48
48
48
48
48
48
47
48
48
47
48
47
48
48
48
47
47
48
48
47
47
47
47
47
48
48
48
49
48
48
48
47
48
47
47
47
49
48
48
47
47
48
47
48
47
47
47
47
48
47
47
47
47
49
47
47
48
48
47
47
49
48
48
49
48
47
48
47
47
48
47
47
48
47
48
48
48
48
48
47
48
46
47
47
49
48
47
48
47
49
47
47
48
47
47
47
48
47
47
49
48
47
48
47
47
48
47
47
46
48
47
47
47
46
48
47
47
47
47
47
49
47
48
48
48
48
47
47
50
48
46
48
48
47
48
47
47
48
48
47
47
47
47
47
48
47
47
48
47
47
49
48
47
47
48
47
48
48
47
48
49
47
49
49
48
47
48
48
49
48
48
46
49
48
48
48
48
47
46
46
47
48
47
48
46
47
48
47
47
47
48
46
47
48
48
48
47
47
47
47
48
48
48
48
48
48
48
49
47
48
49
48
48
47
47
48
49
48
48
46
46
48
48
47
47
49
48
47
47
47
47
49
47
47
48
49
47
47
47
49
48
47
48
47
47
48
49
48
47
47
47
48
48
47
48
47
48
48
48
47
48
48
48
47
47
48
48
47
47
49
48
47
48
48
47
47
47
48
47
49
48
47
49
48
47
47
47
48
47
47
47
47
48
47
47
48
48
47
47
48
47
47
46
49
47
48
47
47
48
47
47
48
49
47
48
47
49
47
48
48
48
46
47
47
48
48
47
47
48
47
47
47
48
47
47
48
47
48
47
48
47
47
47
48
48
48
49
48
47
47
48
47
47
47
48
50
48
49
48
47
48
48
48
48
48
47
48
48
49
48
47
47
48
47
48
47
48
48
48
49
49
47
47
47
48
47
49
48
47
47
47
47
47
48
47
48
47
47
48
47
48
48
47
48
49
48
48
47
48
48
47
47
49
48
48
48
47
48
48
47
47
47
48
47
48
47
48
48
47
48
49
48
48
46
47
49
48
48
48
48
48
47
47
47
48
48
48
47
47
47
47
47
47
47
47
49
47
47
47
47
48
47
47
48
47
48
48
49
47
48
48
48
48
47
48
47
47
48
47
48
48
47
46
47
48
48
48
47
47
48
47
47
48
47
48
47
48
49
47
47
47
48
47
46
47
48
48
49
47
47
47
47
48
48
47
47
48
48
48
48
48
47
48
48
47
48
49
47
48
46
48
48
47
47
47
48
47
47
47
48
48
48
48
47
48
47
47
50
48
47
48
48
49
47
48
48
48
48
48
47
49
48
47
47
48
47
48
47
47
48
47
48
48
49
48
46
47
47
47
48
47
47
48
47
47
47
47
48
48
47
47
47
47
47
47
48
48
47
46
47
47
47
47
48
48
47
47
47
48
48
48
47
47
48
47
47
48
48
47
48
47
47
47
48
47
48
47
48
49
47
47
48
48
48
48
47
48
48
47
49
47
47
47
49
48
47
47
47
48
48
48
48
48
47
48
48
46
47
48
47
48
48
48
47
46
48
49
48
47
48
47
47
47
48
47
49
49
47
48
48
48
47
47
48
47
47
47
49
47
48
47
47
47
47
47
47
48
47
48
49
47
46
49
47
47
47
48
47
47
48
48
48
47
48
47
47
48
47
48
47
46
47
47
47
48
47
48
48
47
47
47
47
47
48
48
47
48
48
47
48
49
48
48
48
47
48
48
48
48
48
48
48
48
47
47
48
47
47
48
49
46
48
47
46
48
48
47
48
48
47
47
47
47
48
48
46
48
48
47
46
47
47
47
48
49
48
47
48
49
49
49
48
47
47
48
48
46
48
48
46
49
47
48
49
48
48
47
48
48
49
49
47
48
48
47
49
48
48
47
47
47
47
47
47
48
48
47
48
49
48
46
49
48
47
49
48
47
47
47
47
48
47
48
48
48
48
47
47
47
48
47
48
48
47
47
48
49
47
48
48
48
47
47
48
48
48
48
48
49
47
46
49
48
48
47
47
48
47
48
48
49
49
48
48
47
48
47
48
48
47
48
48
47
49
47
48
47
48
48
47
48
48
48
48
48
48
49
47
48
49
47
48
47
47
48
47
47
48
48
48
47
47
47
48
47
48
47
47
48
47
47
47
48
48
48
46
49
48
48
48
47
48
49
47
47
48
47
48
48
47
48
47
47
48
48
48
47
48
47
48
48
49
48
47
48
47
47
47
47
48
47
47
48
47
48
47
49
48
48
48
47
49
49
47
47
49
48
48
47
49
47
48
47
48
47
48
48
47
48
48
47
47
49
47
48
48
46
47
48
47
48
48
48
47
47
48
47
48
49
48
48
48
48
48
47
48
47
47
47
47
47
47
48
48
47
48
47
48
48
49
49
48
47
49
48
47
49
47
47
48
47
48
48
47
48
48
47
49
48
47
48
49
48
47
48
49
49
48
47
47
47
47
48
48
46
48
48
49
48
49
48
47
48
48
48
49
49
47
48
47
48
48
48
47
46
47
47
48
49
47
49
48
49
48
47
47
48
48
48
47
49
47
48
48
47
49
48
48
47
48
47
48
47
47
47
47
47
48
47
47
47
49
49
80
98
107
117
126
135
147
150
162
172
179
188
196
208
218
229
236
245
254
258
270
282
289
297
303
315
323
333
343
350
278
214
309
308
356
392
409
426
429
437
447
460
467
489
525
516
523
556
561
572
576
582
574
581
592
600
612
623
638
639
657
677
720
693
702
713
726
733
742
752
797
796
830
831
819
825
836
837
895
888
881
874
892
904
929
937
948
958
974
981
1013
1009
1004
1009
1028
1042
1059
1070
1076
1128
1096
1097
1095
1159
1140
1157
1175
1182
1184
1188
1269
1227
1234
1253
1256
1258
1268
1329
1307
1322
1319
1364
1361
1347
1366
1373
1389
1394
1622
1441
1446
1445
1452
1480
1479
1481
1497
1732
1553
1539
1551
1572
1601
1594
1589
1596
1628
1627
1832
1701
1695
1682
1719
1722
1729
1727
1735
1737
1750
1776
1819
1808
1782
1797
1818
1822
1949
1866
1872
1879
1905
1921
1940
1948
1946
1942
1957
2421
1991
1995
2029
2058
2042
2038
2041
2063
2078
2265
2126
2099
2121
2128
2154
2170
2179
2189
2231
2220
2217
2224
2247
2775
2453
2311
2283
2309
2312
2344
2352
2363
2377
2418
2441
2441
2452
2449
2432
2440
2446
2455
2460
2484
2502
2510
2515
2537
3157
2801
2651
2581
2597
2617
2661
2676
2670
2668
2666
2674
2695
3280
2822
2796
2742
2753
2765
2765
2782
2797
2812
2835
2855
2896
2884
2877
2882
2889
2907
3295
3016
2933
2972
2986
3029
3000
3005
3018
3026
3549
3258
3142
3151
3086
3112
3108
3115
3152
3168
3204
3176
3181
3802
3318
3226
3249
3287
3293
3284
3284
3309
3663
3473
3330
3369
3423
3395
3379
3392
3406
3834
3493
3444
3446
3478
3499
3539
3541
3526
3531
3773
3578
3559
3592
3607
3648
3633
3632
3644
3657
3748
3684
3719
3733
3715
3734
4414
3802
3755
3771
3806
3828
3848
3868
3845
3866
3872
3882
4024
3907
3917
3940
3973
3991
3967
3985
4003
4668
4180
4023
4044
4052
4066
4084
4105
4143
4118
4130
4710
4149
4186
4216
4220
4208
4224
4343
4310
4276
4301
4276
4285
4300
4310
4315
4337
4345
4390
4398
4453
4439
4431
4438
4442
4459
4482
4886
4644
4514
4531
4564
4587
4599
4585
4591
4600
4615
4777
4627
4641
4673
4695
4742
4725
4722
4738
4731
4743
4764
4778
5311
5011
4970
4854
4851
4850
4871
4896
4937
4932
4926
4930
4939
4957
4967
4993
5451
5057
5010
5022
5045
5062
5081
5100
5108
5134
5160
5171
5175
5216
5198
5212
5247
5261
5250
5239
5247
5252
5271
5925
5846
5310
5645
5396
5374
5766
5370
5397
5860
5430
5472
5462
5446
5471
5541
5476
5512
5568
5543
5538
5541
5561
5581
5604
5608
5838
6084
6142
6004
5797
5688
5683
5707
5753
5751
5745
5754
5755
5775
6221
5851
5797
5831
5845
5889
5900
5893
5879
5886
5899
5922
6466
6152
5977
5957
5962
5999
6024
6023
6046
6070
6062
6062
6704
6438
6191
6149
6102
6142
6163
6201
6191
6182
6190
6203
6214
6240
6418
6271
6249
6284
6302
6317
6322
6339
6374
6365
6364
6371
6381
6745
6423
6416
6418
6435
6445
6467
6484
6500
6518
6559
6543
6543
6547
6556
6561
6573
6597
6604
6610
6654
6658
6653
6664
6671
6695
7279
6802
6745
6736
6758
6784
6805
6825
6814
6816
6823
6840
7206
6999
6900
6876
6894
6911
6931
6929
7005
7195
6994
7004
7038
7026
7024
7028
7059
7167
7209
7351
7301
7236
7205
7272
7330
7206
7181
7174
7214
7203
7220
7272
7237
7397
7265
7468
7287
7295
7325
7335
7365
7382
7391
7378
7391
7393
7414
7421
7433
7450
7457
7478
7475
7494
7513
7525
8119
7897
7815
7690
7575
7575
7607
7617
7626
7652
7661
7683
7725
7727
7736
7748
7742
7737
7759
7760
7771
7784
7795
7808
7813
7837
7853
7856
8247
8044
7938
7910
7909
7930
7948
7973
7985
7993
8007
8015
8033
8039
8046
8065
8085
8107
8123
8116
8130
8118
8132
8143
8159
8203
8212
8199
8282
8228
8672
8258
8262
8262
8278
8303
8682
8327
8337
8763
8354
8366
8874
8401
8399
8955
8407
8425
8433
8457
8484
8521
8533
8525
8540
8554
8542
8551
8565
8581
9006
8875
8637
8626
8628
8639
8675
8679
8715
8729
8716
8718
8724
8745
8745
8761
8781
8782
9304
9051
8956
8840
8864
8847
8862
8887
8895
8937
8931
8916
8930
8945
8947
9158
8961
8996
9017
9033
9035
9029
9044
9588
9179
9174
9172
9124
9118
9111
9128
9157
9159
9185
9196
9195
9216
9208
9205
9226
9252
9252
9269
9290
9298
9318
9347
9356
9350
9338
9367
9634
9433
9408
9389
9421
9444
9471
9474
9473
9469
9482
9484
9792
9504
9540
9561
9573
9578
9584
9569
9578
9594
9606
9631
9638
9641
9664
10086
9973
9807
9711
9705
9733
9756
9774
9789
9785
9794
9791
9816
9823
9820
9832
9841
10011
10072
9958
9922
9891
9914
9941
9975
9975
9983
9984
9990
9975
9999
10000
10013
10029
10044
10053
10060
10077
10590
10364
10137
10098
10124
10159
10155
10178
10183
10215
10219
10220
10231
10222
10234
10257
10681
10393
10279
10283
10317
10331
10365
10375
10358
10347
10364
10373
10822
10823
10637
10607
10514
10440
10452
10467
10485
10513
10487
10511
10505
10905
10650
10578
10541
10570
10610
10631
10615
10600
10603
10620
10629
10644
10841
10671
10988
11023
10703
10919
10819
10903
11070
11044
10823
10815
10789
10831
10818
10813
10829
10834
10854
10865
10903
10909
10912
10922
10918
10919
10927
10947
10949
10956
10968
10984
11455
11197
11039
11029
11040
11047
11065
11076
11091
11112
11093
11105
11118
11119
11142
11494
11455
11354
11331
11201
11190
11205
11221
11253
11260
11246
11259
11271
11593
11486
11365
11319
11308
11312
11340
11353
11396
11368
11373
11378
11391
11679
11506
11421
11442
11460
11487
11480
11471
11482
11500
11626
11504
11535
11540
11587
11567
11557
11576
11591
11990
11685
11633
11619
11634
11644
11653
11671
11679
11714
11721
11732
11741
11740
11761
11776
11768
11760
11761
11776
11775
11791
12059
11842
11817
11826
11848
11844
11871
11878
11903
11921
11903
11908
11918
11928
11924
11947
11951
11973
11968
11982
11995
12005
12154
12461
12293
12077
12044
12071
12102
12108
12118
12116
12101
12118
12123
12127
12483
12274
12193
12172
12181
12195
12213
12256
12252
12249
12268
12262
12258
12261
12266
12290
12707
12681
12401
12384
12349
12340
12348
12355
12371
12382
12392
12418
12425
12439
12431
12426
12436
12442
12462
12627
12615
12494
12486
12504
12515
12519
12544
12556
12564
12586
12577
12570
12581
12595
12780
12647
12629
12644
12644
12668
12674
12655
12665
12676
12681
13106
12960
12871
12762
12743
12741
12757
12773
12781
12813
12795
12790
13173
12849
12822
12841
12869
12863
12854
12869
13239
12938
12888
12905
12936
12923
12918
12933
12935
12943
13221
13024
12988
12979
12996
13028
13030
13023
13029
13423
13067
13061
13059
13081
13076
13087
13114
13142
13142
13138
13130
13129
13137
13154
13261
13215
13198
13189
13198
13212
13228
13247
13259
13246
13248
13259
13262
13270
13283
13280
13279
13288
13294
13295
13316
13327
13740
13452
13695
13349
13361
13375
13382
13390
13392
13404
13397
13396
13409
13419
13419
13680
13648
13477
13456
13475
13510
13492
13476
13489
13501
13911
13611
13574
13578
13595
13544
13557
13558
13555
13571
13573
13583
13598
13614
13632
13638
13654
13663
13673
13661
13652
13658
13660
13668
13676
14020
14069
14103
14110
13890
13825
13858
13795
13782
13783
13855
13840
14047
14177
14199
14189
13994
14049
14030
13932
13852
13829
13839
13853
13871
13894
13884
13884
13884
13884
13890
14231
14092
14013
13969
14001
13993
13948
13955
13957
13970
13989
13985
13995
14001
14018
14021
14031
14049
14056
14064
14063
14049
14055
14078
14068
14074
14091
14111
14127
14131
14121
14132
14135
14160
14167
14170
14188
14185
14179
14200
14198
14215
14225
14221
14218
14222
14244
14260
14257
14257
14275
14279
14293
14267
14268
14270
14286
14293
14295
14300
14500
14689
14614
14424
14364
14351
14348
14357
14374
14407
14394
14399
14406
14395
14406
14409
14417
14430
14424
14439
14443
14452
14452
14463
14461
14471
14480
14487
14480
14501
14513
14508
14524
14524
14537
14545
14554
14548
14559
14569
14575
14572
14585
14596
14596
14797
14775
14717
14671
14640
14633
14646
14735
14724
14722
14692
14719
14718
14703
14700
14704
14720
14720
14737
14761
14767
14766
14759
14768
14766
14771
14772
14779
14791
14802
14823
14830
14838
14833
14830
14830
14833
14863
14921
14917
14916
14927
14899
14943
15080
15093
15170
15161
15283
14911
14917
15223
15226
15118
15087
15197
15058
14983
14978
14974
14979
15011
15013
15015
15011
15011
15010
15013
15028
15351
15204
15153
15129
15117
15088
15087
15069
15073
15089
15099
15123
15121
15119
15103
15120
15118
15123
15405
15225
15151
15161
15174
15183
15163
15543
15236
15203
15218
15191
15210
15218
15252
15222
15222
15570
15298
15245
15252
15262
15292
15279
15272
15279
15500
15309
15300
15303
15324
15324
15343
15351
15351
15341
15335
15330
15347
15615
15468
15398
15400
15377
15395
15391
15402
15420
15456
15455
15467
15430
15433
15430
15436
15444
15451
15476
15491
15484
15494
15508
15506
15505
15499
15502
15502
15506
15519
15515
15524
15529
15536
15870
15663
15607
15611
15604
15604
15585
15578
15576
15603
15634
15633
15643
15630
15627
15622
15623
15636
15815
15689
15667
15663
15675
15678
15679
15697
15714
15718
15718
15704
15709
15713
15717
15729
15721
15959
15959
15855
15759
15751
15780
15768
15804
15787
15786
15781
15789
16083
15996
15910
15875
15844
15836
15843
15847
15837
15855
15864
15860
15884
15879
15885
15889
15896
15895
15908
15898
15916
15912
15926
15938
15941
15953
15948
15959
15977
15983
15993
15973
15973
15983
15980
15983
16037
15998
16318
16191
16063
16049
16044
16031
16044
16040
16052
16060
16063
16071
16079
16083
16087
16095
16103
16097
16114
16301
16118
16108
16237
16126
16150
16139
16391
16165
16165
16345
16155
16183
16167
16171
16186
16187
16189
16200
16204
16526
16527
16471
16351
16270
16242
16258
16252
16254
16263
16266
16274
16281
16290
16301
16327
16309
16311
16302
16539
16481
16364
16332
16330
16351
16355
16380
16372
16363
16357
16363
16374
16368
16377
16658
16500
16432
16412
16423
16432
16453
16453
16436
16430
16407
16554
16472
16463
16474
16471
16482
16513
16503
16517
16504
16527
16529
16527
16505
16510
16521
16532
16545
16549
16551
16566
16572
16574
16583
16590
16606
16591
16599
16590
16591
16873
16831
16743
16761
16827
16801
16775
16874
16924
16956
16659
16654
16662
16681
16673
16681
16684
16692
16698
16715
16711
16720
16731
16722
16734
16732
16732
16742
16742
16745
16754
16764
16764
16767
16775
17055
16851
16879
16922
16901
16821
16827
16823
16837
16840
16841
16879
16883
16973
17089
16857
17148
16966
16912
16892
16900
16896
16918
16926
16938
16924
16926
16920
16930
16919
17141
17029
16999
16965
16959
16954
16988
16980
16993
17009
17018
17023
17009
16999
17001
17007
17306
17143
17085
17046
17048
17045
17048
17060
17066
17080
17102
17101
17104
17094
17111
17098
17102
17095
17109
17423
17420
17414
17236
17191
17153
17153
17160
17167
17186
17188
17173
17165
17177
17436
17318
17221
17203
17206
17222
17244
17236
17218
17243
17240
17252
17258
17277
17273
17260
17255
17263
17261
17266
17271
17274
17273
17285
17294
17291
17303
17303
17302
17575
17415
17348
17327
17343
17339
17363
17371
17357
17339
17356
17356
17660
17567
17506
17423
17387
17379
17398
17398
17412
17428
17406
17412
17407
17690
17497
17455
17441
17444
17444
17470
17474
17473
17462
17463
17461
17470
17691
17569
17540
17526
17516
17512
17522
17537
17583
17609
17609
17687
17657
17593
17566
17587
17570
17548
17565
17567
17568
17577
17606
17605
17610
17606
17591
17597
17596
17609
17884
17729
17685
17667
17653
17670
17659
17651
17649
17652
17663
17663
17667
17669
17691
17703
17959
17695
17720
17703
17716
17759
17708
17724
17830
17727
17741
17737
17769
17745
17739
17760
17812
17762
17778
17770
17770
17779
17782
17783
17794
18072
18092
18006
17857
17828
17829
17856
17857
17841
17831
17854
18102
17912
17879
17870
17878
17903
17893
17877
17880
18151
18017
17995
17916
17917
17926
17950
17942
17933
17941
17938
17945
18178
18006
17983
17961
17980
17980
17986
17980
18008
18014
18015
18023
18024
18036
18043
18050
18052
18039
18031
18023
18035
18319
18119
18065
18062
18070
18083
18094
18103
18108
18108
18109
18126
18113
18120
18125
18134
18136
18154
18159
18149
18144
18151
18159
18149
18155
18449
18170
18173
18181
18183
18202
18199
18199
18202
18437
18371
18381
18349
18255
18260
18281
18330
18510
18247
18254
18265
18277
18275
18285
18287
18297
18315
18314
18323
18322
18330
18337
18338
18345
18359
18357
18362
18342
18350
18356
18361
18367
18367
18380
18377
18388
18389
18392
18396
18408
18406
18408
18426
18431
18438
18433
18431
18431
18436
18619
18669
18553
18551
18479
18478
18471
18510
18530
18514
18534
18500
18503
18528
18533
18516
18526
18511
18535
18514
18525
18776
18755
18544
18545
18550
18550
18553
18561
18569
18577
18579
18573
18793
18656
18632
18627
18615
18615
18613
18637
18644
18658
18644
18644
18891
18719
18661
18670
18684
18699
18700
18681
18693
18686
18687
18698
18705
18702
18858
18839
18788
18728
18743
18757
18756
18762
18759
18757
18754
18762
18970
18993
18937
18910
18862
18813
18812
18807
18815
18842
18821
18821
18823
19067
18972
18903
18895
18863
18860
18866
18868
18887
18890
18875
18893
18964
18904
18905
18914
18925
18927
18959
18951
18947
18932
18935
18941
18973
19086
18983
18967
18982
18985
18993
18994
19010
19021
19005
19004
19012
19022
19019
19012
19190
19098
19043
19050
19089
19079
19068
19066
19067
19166
19097
19108
19119
19106
19102
19119
19127
19223
19119
19349
19238
19175
19156
19158
19157
19161
19183
19196
19194
19204
19207
19220
19213
19218
19201
19215
19218
19229
19217
19463
19308
19271
19267
19260
19263
19271
19289
19292
19286
19280
19286
19301
19297
19298
19306
19304
19317
19318
19328
19326
19477
19409
19369
19364
19381
19374
19383
19404
19404
19403
19396
19401
19404
19407
19412
19652
19559
19535
19527
19478
19488
19487
19463
19476
19485
19490
19483
19495
19499
19527
19527
19527
19523
19543
19533
19533
19543
19550
19556
19577
19565
19579
19570
19576
19580
19589
19595
19594
19610
19617
19643
19647
19634
19631
19629
19643
19862
19665
19799
19719
19702
19688
19682
19689
19690
19714
19719
19722
19716
19722
19719
19897
19856
19779
19750
19754
19780
19783
19763
19770
19870
19795
19796
19797
19812
19825
19811
19807
19815
20036
20041
20007
19968
19966
19908
19887
19874
19873
19882
19892
19903
19892
19895
19895
19900
19986
20093
20043
20003
19948
19940
19959
19965
19961
19959
20164
20047
20007
19992
19998
20026
20019
20006
20013
20198
20091
20039
20046
20056
20042
20052
20174
20116
20074
20085
20095
20103
20087
20091
20309
20172
20127
20122
20140
20134
20139
20346
20199
20169
20167
20177
20194
20198
20209
20199
20199
20202
20255
20211
20234
20231
20224
20397
20266
20253
20279
20273
20259
20401
20290
20283
20286
20298
20313
20311
20326
20339
20337
20343
20343
20338
20348
20357
20361
20370
20372
20381
20383
20390
20394
20405
20406
20430
20427
20423
20431
20427
20434
20443
20441
20457
20452
20466
20476
20478
20474
20647
20551
20516
20521
20525
20523
20540
20551
20551
20535
20544
20550
20551
20740
20626
20591
20586
20598
20591
20603
20602
20608
20614
20631
20621
20624
20633
20751
20709
20685
20676
20676
20684
20686
20692
20712
20715
20711
20716
20716
20716
20726
20735
20723
20739
20730
20743
20750
20756
20765
20758
20770
20774
20898
20971
20934
20871
20863
20816
20821
20831
20839
20851
20846
20853
20850
20851
20851
21031
20990
20966
20950
20956
20982
20959
20942
20926
20918
20935
20927
20947
20947
20930
20950
20949
20959
20952
21108
21059
21048
21031
21029
21006
21015
21023
21019
21021
21028
21034
21042
21046
21058
21060
21076
21078
21084
21095
21092
21100
21099
21102
21099
21119
21298
21255
21197
21159
21154
21154
21157
21159
21182
21173
21189
21188
21192
21189
21191
21199
21207
21370
21282
21258
21241
21242
21249
21261
21275
21279
21287
21297
21287
21290
21294
21329
21452
21297
21325
21325
21350
21410
21340
21339
21354
21359
21367
21365
21390
21390
21401
21413
21417
21418
21414
21405
21423
21428
21446
21438
21453
21454
21491
21591
21462
21462
21479
21502
21492
21526
21642
21494
21511
21540
21532
21532
21564
21616
21548
21555
21578
21590
21585
21588
21603
21703
21577
21596
21615
21627
21626
21629
21639
21695
21642
21644
21674
21671
21672
21720
21670
21687
21707
21700
21741
21814
21698
21718
21733
21755
21894
21748
21763
21767
21873
21777
21779
21854
21783
21793
21814
21806
21822
21884
21826
21835
21849
21855
21854
21956
21855
21866
21886
21882
21905
21935
22010
21896
21905
21926
21926
21935
21985
21924
21947
21946
21962
22077
21961
21982
21980
21989
22023
21980
21997
22006
22036
22014
22026
22054
22124
22042
22049
22058
22077
22076
22073
22119
22221
22080
22092
22098
22114
22108
22153
22224
22127
22130
22142
22143
22194
22147
22171
22164
22222
22171
22183
22184
22246
22195
22209
22215
22226
22267
22223
22242
22236
22327
22241
22268
22257
22338
22260
22268
22291
22291
22295
22373
22287
22318
22319
22324
22439
22310
22342
22343
22465
22431
22365
22471
22382
22367
22381
22534
22394
22395
22399
22405
22412
22412
22431
22425
22461
22567
22434
22454
22457
22456
22474
22527
22462
22470
22493
22498
22546
22494
22529
22516
22571
22511
22535
22551
22546
22603
22549
22559
22572
22608
22565
22581
22597
22614
22591
22607
22619
22618
22673
22613
22638
22628
22647
22703
22639
22662
22684
22660
22677
22681
22667
22697
22699
22796
22706
22719
22724
22765
22722
22735
22745
22758
22748
22813
22807
22767
22777
22775
22778
22836
22784
22799
22812
22813
22941
22815
22830
22834
22850
22914
22831
22854
22862
22868
22907
23000
22863
22878
22903
22903
22916
23016
22916
22911
22921
22938
22940
22949
22957
23003
23079
22962
22979
22980
22976
23006
23079
23004
22988
23012
23017
23026
23055
23143
23018
23040
23045
23070
23095
23057
23068
23078
23080
23119
23185
23091
23102
23108
23119
23129
23238
23127
23134
23142
23155
23181
23238
23141
23171
23182
23187
23199
23302
23186
23203
23205
23219
23236
23314
23212
23230
23238
23260
23375
23253
23270
23261
23289
23359
23259
23283
23294
23300
23327
23406
23310
23310
23327
23333
23364
23335
23343
23356
23366
23362
23391
23474
23367
23379
23397
23407
23404
23421
23489
23407
23423
23431
23471
23438
23439
23457
23458
23466
23474
23511
23567
23475
23495
23495
23526
23531
23507
23527
23532
23558
23526
23543
23551
23550
23593
23559
23564
23576
23578
23615
23652
23590
23607
23617
23621
23636
23678
23624
23643
23637
23655
23661
23677
23647
23657
23684
23685
23755
23687
23691
23694
23738
23694
23707
23735
23732
23729
23733
23739
23766
23743
23755
23768
23791
23863
23778
23783
23813
23890
23798
23809
23819
23844
23938
23819
23846
23840
23855
23903
23850
23873
23863
23893
23975
23887
23901
23903
23913
23965
23903
23918
23933
23927
23967
24025
23942
23962
23965
24012
23957
23983
23979
23994
24010
24038
23998
24022
24028
24036
24046
24063
24127
24031
24048
24050
24060
24054
24070
24069
24078
24095
24094
24094
24112
24124
24157
24183
24119
24116
24141
24151
24154
24158
24167
24204
24159
24175
24175
24177
24196
24212
24211
24214
24229
24252
24274
24222
24226
24250
24251
24263
24279
24313
24263
24271
24273
24297
24295
24319
24391
24295
24316
24324
24341
24322
24340
24347
24352
24380
24439
24359
24374
24377
24420
24378
24384
24396
24414
24412
24423
24490
24428
24422
24435
24449
24460
24471
24503
24461
24471
24479
24491
24486
24489
24506
24495
24521
24566
24517
24526
24534
24542
24567
24618
24542
24554
24559
24564
24594
24614
24663
24579
24582
24597
24609
24614
24639
24596
24619
24629
24623
24638
24653
24631
24643
24653
24654
24677
24711
24658
24665
24678
24687
24693
24725
24687
24695
24709
24718
24714
24732
24783
24735
24735
24742
24735
24773
24739
24749
24763
24751
24775
24758
24773
24781
24812
24841
24779
24791
24806
24812
24839
24883
24821
24824
24844
24845
24844
24871
24886
24900
24868
24872
24876
24878
24874
24928
24927
24914
24905
24911
24904
24910
24911
24919
24917
24922
24926
24939
24886
24940
24940
25016
24957
24950
24968
24959
25039
25049
25032
25026
25031
25039
25038
25028
25039
25031
25026
25038
25047
25053
25052
25062
25063
25079
25066
25073
25076
25076
25082
25095
25095
25108
25123
25124
25124
25129
25135
25143
25140
25139
25150
25149
25157
25166
25156
25167
25173
25231
25223
25215
25210
25207
25212
25207
25204
25211
25223
25293
25277
25279
25271
25258
25259
25251
25276
25269
25267
25340
25324
25293
25287
25290
25295
25317
25306
25324
25321
25327
25335
25343
25343
25348
25364
25351
25375
25371
25376
25370
25380
25389
25395
25394
25396
25399
25410
25419
25415
25428
25431
25430
25435
25447
25447
25455
25471
25463
25479
25479
25478
25484
25492
25482
25495
25496
25515
25508
25518
25532
25514
25541
25556
25565
25569
25572
25583
25575
25575
25572
25579
25589
25581
25590
25603
25595
25597
25607
25628
25620
25626
25629
25640
25633
25636
25644
25656
25660
25662
25669
25671
25671
25670
25681
25690
25689
25700
25691
25701
25705
25703
25711
25641
25719
25735
25751
25745
25775
25751
25767
25766
25765
25775
25771
25782
25796
25793
25794
25802
25805
25813
25812
25803
25811
25812
25828
25818
25882
25895
25895
25892
25869
25875
25871
25869
25880
25884
25883
25895
25889
25892
25896
25899
25903
25901
25919
25918
25914
25990
25994
25996
25983
25967
25981
25975
25964
25979
25988
25988
25994
25990
25996
25999
26004
26006
26016
26012
26010
26025
26087
26080
26063
26055
26056
26068
26055
26065
26069
26058
26078
26079
26084
26078
26095
26097
26103
26110
26106
26113
26118
26119
26134
26133
26119
26141
26136
26142
26148
26147
26156
26195
26215
26214
26217
26238
26215
26205
26204
26208
26220
26228
26217
26229
26223
26233
26238
26244
26247
26247
26247
26254
26263
26271
26271
26284
26284
26289
26279
26295
26281
26294
26296
26302
26309
26311
26315
26318
26324
26332
26340
26338
26341
26362
26362
26367
26375
26381
26383
26386
26397
26399
26399
26404
26404
26409
26465
26445
26464
26420
26436
26433
26442
26463
26467
26473
26477
26485
26495
26478
26487
26492
26496
26495
26503
26518
26513
26514
26519
26532
26522
26525
26533
26551
26550
26550
26565
26581
26563
26570
26567
26602
26588
26588
26605
26620
26627
26599
26607
26619
26639
26622
26631
26647
26668
26649
26642
26663
26671
26693
26663
26670
26684
26692
26709
26686
26696
26706
26703
26725
26751
26714
26718
26740
26751
26765
26751
26743
26745
26759
26774
26765
26772
26775
26790
26786
26789
26790
26812
26798
26812
26817
26820
26815
26834
26847
26839
26855
26829
26855
26858
26868
26884
26873
26863
26879
26885
26897
26918
26893
26902
26929
26924
26927
26918
26932
26928
26937
26947
26951
26964
26949
26957
26964
26982
26978
26992
26975
26982
27003
26994
27015
27023
27012
27014
27029
27037
27040
27047
27039
27051
27055
27065
27059
27054
27076
27084
26967
27081
27088
27100
27115
27103
27110
27110
27127
27111
27126
27132
27143
27142
27143
27156
27165
27143
27164
27172
27183
27182
27180
27188
27204
27220
27207
27211
27222
27225
27231
27217
27238
27247
27255
27259
27244
27245
27270
27197
27266
27267
27292
27300
27288
27295
27295
27318
27317
27316
27321
27324
27330
27349
27351
27329
27343
27351
27351
27367
27375
27362
27383
27389
27399
27404
27391
27403
27412
27410
27422
27430
27415
27431
27436
27437
27455
27452
27453
27458
27458
27463
27472
27485
27482
27495
27495
27503
27511
27523
27517
27511
27524
27524
27541
27544
27547
27538
27558
27556
27569
27566
27569
27577
27591
27589
27580
27591
27606
27607
27607
27609
27627
27627
27620
27632
27638
27646
27641
27655
27673
27676
27665
27679
27692
27686
27687
27690
27691
27712
27687
27703
27710
27730
27716
27728
27733
27749
27759
27757
27759
27764
27780
27776
27783
27752
27783
27781
27796
27805
27812
27827
27807
27823
27833
27831
27846
27831
27834
27849
27860
27863
27880
27879
27879
27874
27878
27895
27898
27911
27904
27901
27919
27919
27920
27945
27938
27901
27933
27945
27956
27961
27968
27951
27967
27972
27983
27996
27999
27998
27983
27993
27999
28015
28009
28007
28008
28022
28026
28040
28030
28039
28021
28047
28057
28051
28054
28066
28071
28071
28071
28086
28077
28109
28098
28079
28095
28108
28106
28116
28107
28114
28121
28124
28145
28141
28119
28138
28143
28157
28164
28167
28167
28159
28167
28183
28191
28189
28195
28193
28199
28200
28206
28204
28225
28230
28215
28212
28236
28231
28239
28244
28256
28255
28246
28246
28264
28269
28268
28292
28293
28305
28292
28285
28299
28301
28316
28314
28327
28303
28316
28322
28328
28335
28343
28348
28356
28358
28367
28365
28371
28381
28372
28372
28376
28391
28404
28399
28410
28414
28415
28413
28418
28430
28423
28389
28415
28451
28454
28454
28470
28464
28471
28468
28468
28468
28465
28484
28481
28495
28502
28508
28513
28519
28519
28527
28519
28527
28535
28533
28535
28543
28532
28559
28561
28564
28570
28568
28579
28575
28585
28577
28559
28591
28599
28612
28617
28604
28615
28622
28622
28617
28633
28645
28617
28648
28650
28662
28671
28669
28679
28675
28679
28691
28684
28700
28694
28707
28706
28711
28708
28711
28711
28713
28714
28743
28739
28748
28743
28753
28763
28775
28779
28775
28777
28783
28783
28791
28786
28804
28805
28812
28807
28807
28808
28834
28778
28812
28823
28851
28851
28855
28852
28867
28858
28858
28873
28882
28878
28878
28881
28885
28850
28887
28903
28917
28902
28919
28918
28927
28913
28921
28935
28947
28959
28959
28964
28949
28959
28972
28983
28975
28971
28993
28991
28975
28993
29001
28999
29018
29004
29003
29010
29031
29029
29041
29038
29044
29042
29042
29053
29060
28996
29034
29047
29077
29078
29085
29095
29095
29117
29103
29103
29110
29116
29126
29127
29121
29129
29135
29139
29137
29151
29159
29151
29154
29159
29167
29173
29163
29167
29172
29165
29183
29164
29171
29183
29188
29191
29209
29215
29205
29188
29201
29227
29191
29191
29235
29239
29244
29254
29259
29263
29261
29271
29290
29283
29294
29299
29302
29303
29313
29316
29308
29310
29317
29311
29325
29321
29339
29335
29343
29323
29340
29363
29361
29365
29335
29327
29335
29380
29333
29342
29383
29394
29399
29399
29407
29413
29406
29428
29434
29416
29412
29413
29399
29397
29351
29372
29412
29422
29419
29430
29445
29428
29447
29454
29447
29455
29420
29359
29501
29511
29508
29514
29511
29527
29519
29531
29494
29436
29543
29556
29549
29548
29571
29575
29570
29594
29591
29598
29598
29602
29607
29604
29604
29608
29612
29620
29642
29639
29646
29649
29655
29656
29660
29671
29670
29662
29663
29675
29686
29678
29686
29689
29703
29690
29703
29716
29702
29715
29669
29701
29701
29717
29735
29743
29740
29759
29761
29775
29777
29785
29783
29799
29791
29807
29794
29800
29805
29810
29812
29815
29821
29829
29830
29839
29844
29809
29836
29860
29860
29859
29871
29861
29867
29893
29875
29885
29895
29903
29908
29902
29909
29908
29932
29927
29935
29927
29933
29949
29947
29953
29973
29963
29955
29965
29974
29987
29991
29990
29986
30003
30007
29998
30007
30015
30021
30017
30023
30030
30043
30039
30046
30055
30055
30055
30062
30069
30068
30087
30087
30071
30087
30093
30069
30103
30098
30108
30119
30119
30126
30127
30117
30132
30135
30087
30142
30141
30139
30132
30134
30138
30143
30142
30149
30123
30181
30196
30203
30201
30199
30202
30203
30215
30229
30180
30183
30183
30231
30238
30243
30252
30268
30268
30263
30267
30272
30279
30268
30281
30295
30292
30294
30298
30296
30306
30210
30271
30270
30287
30303
30321
30325
30343
30353
30353
30348
30357
30358
30350
30370
30374
30377
30395
30340
30371
30367
30386
30406
30407
30415
30419
30410
30421
30420
30421
30447
30439
30436
30445
30438
30450
30453
30466
30462
30431
30447
30460
30479
30500
30494
30495
30502
30511
30495
30506
30521
30511
30516
30488
30510
30531
30543
30540
30536
30549
30565
30565
30573
30563
30567
30559
30561
30575
30576
30586
30596
30596
30590
30599
30599
30607
30599
30610
30554
30607
30625
30639
30643
30635
30641
30655
30644
30645
30644
30642
30630
30659
30664
30676
30684
30703
30693
30697
30693
30690
30704
30706
30698
30703
30707
30722
30727
30693
30724
30727
30740
30746
30752
30756
30763
30757
30766
30764
30765
30770
30772
30783
30781
30791
30714
30764
30777
30788
30790
30801
30823
30819
30822
30819
30826
30823
30831
30844
30846
30844
30847
30836
30796
30815
30831
30865
30870
30882
30892
30886
30885
30888
30900
30901
30895
30892
30833
30876
30908
30895
30920
30935
30939
30930
30935
30947
30936
30945
30955
30950
30966
30951
30927
30937
30951
30964
30975
30986
30995
30992
30980
30994
30989
30997
30998
31009
31006
31008
31010
31015
31015
31027
31023
31023
31042
31039
31003
31021
31047
31047
31047
31047
31075
31045
31063
31059
31054
31022
31047
31038
31026
31079
31078
31087
31091
31084
31105
31097
31083
31061
31100
31111
31108
31111
31134
31124
31106
31071
31131
31132
31137
31141
31137
31127
31094
31079
31151
31167
31158
31172
31183
31191
31175
31159
31165
31159
31151
31127
31191
31198
31193
31193
31205
31202
31207
31210
31213
31223
31233
31213
31167
31231
31239
31236
31257
31250
31239
31239
31193
31196
31257
31271
31276
31268
31259
31215
31292
31295
31293
31311
31285
31265
31174
31307
31319
31319
31335
31306
31288
31271
31332
31335
31341
31327
31365
31327
31239
31356
31361
31357
31295
31361
31378
31380
31374
31333
31388
31397
31383
31397
31370
31287
31408
31411
31428
31412
31423
31428
31431
31436
31419
31367
31441
31452
31462
31463
31462
31438
31423
31471
31468
31476
31495
31443
31490
31486
31500
31495
31463
31515
31495
31519
31495
31521
31535
31535
31528
31461
31532
31452
31551
31550
31429
31559
31571
31560
31573
31574
31575
31565
31519
31591
31586
31591
31610
31605
31581
31541
31591
31615
31623
31623
31640
31630
31607
31570
31647
31649
31647
31655
31663
31678
31655
31623
31678
31662
31681
31678
31678
31693
31711
31703
31715
31700
31640
31717
31725
31634
31717
31732
31735
31751
31727
31717
31690
31745
31767
31764
31751
31751
31719
31765
31779
31767
31789
31767
31716
31799
31796
31783
31799
31804
31783
31746
31811
31812
31823
31819
31786
31839
31839
31836
31836
31855
31818
31855
31850
31855
31869
31810
31871
31876
31879
31862
31886
31887
31862
31897
31887
31917
31889
31898
31895
31901
31930
31900
31854
31911
31926
31927
31946
31930
31875
31937
31948
31951
31948
31967
31942
31925
31911
31870
31971
31985
31974
31980
31978
31932
31991
31996
31983
32006
32029
32003
31991
31934
32020
32022
32022
32036
32007
31959
32033
32034
32043
32045
32061
32028
31972
32049
32068
32060
32063
32072
32069
32031
31966
32083
32084
32083
32079
32111
32086
32079
31999
31983
32103
32116
32109
32113
32131
32124
32092
32071
32125
32135
32135
32127
32149
32143
32131
32076
32148
32154
32171
32150
32085
32164
32172
32173
32167
32127
32074
32180
32183
32181
32191
32199
32214
32218
32196
32156
32101
32211
32210
32198
32200
32223
32230
32216
32231
32236
32191
32234
32236
32238
32239
32231
32164
32247
32261
32263
32231
32161
32263
32270
32278
32247
32180
32277
32263
32277
32231
32287
32292
32292
32299
32291
32261
32291
32302
32293
32327
32300
32255
32199
32311
32323
32324
32327
32279
32326
32314
32228
32335
32326
32333
32253
32335
32342
32346
32287
32349
32343
32358
32285
32353
32361
32374
32351
32367
32359
32375
32308
32375
32374
32385
32327
32394
32376
32391
32335
32388
32388
32402
32359
32399
32401
32423
32367
32400
32407
32405
32412
32378
32404
32410
32404
32423
32386
32316
32426
32423
32442
32395
32420
32431
32438
32412
32283
32442
32423
32443
32426
32372
32439
32442
32436
32439
32361
32444
32454
32439
32468
32442
32388
32455
32446
32458
32431
32455
32452
32459
32485
32451
32362
32455
32459
32476
32415
32342
32474
32471
32464
32447
32466
32473
32476
32423
32467
32479
32487
32447
32477
32482
32468
32466
32393
32487
32475
32503
32479
32439
32342
32473
32483
32502
32479
32431
32483
32490
32487
32479
32477
32503
32471
32419
32490
32483
32484
32477
32485
32487
32474
32450
32406
32399
32354
32484
32487
32484
32487
32485
32487
32483
32395
32487
32484
32499
32469
32357
32481
32479
32481
32468
32487
32469
32461
32473
32478
32479
32471
32479
32471
32478
32481
32476
32470
32475
32482
32477
32487
32474
32458
32469
32458
32463
32456
32460
32447
32453
32466
32471
32471
32462
32445
32455
32444
32446
32434
32439
32445
32445
32429
32451
32459
32451
32451
32451
32424
32444
32437
32410
32383
32347
32302
32308
32301
32263
32279
32280
32284
32300
32272
32251
32391
32395
32390
32259
32299
32291
32309
32303
32338
32364
32347
32339
32306
32247
32220
32214
32359
32359
32359
32353
32338
32333
32330
32335
32327
32191
32149
32327
32324
32319
32303
32315
32292
32301
32287
32279
32311
32295
32271
32278
32263
32251
32238
32153
32258
32263
32251
32246
32143
32247
32229
32247
32219
32145
32212
32215
32210
32221
32167
32028
32202
32191
32176
32167
32101
32174
32164
32167
32159
32167
32150
32084
32135
32134
32133
32105
32110
32004
32109
32100
32113
32095
32084
32083
32042
31939
32068
32066
32047
32052
32045
32034
31987
31900
32014
32004
32001
31991
31975
31997
31975
31949
31892
31815
31940
31932
31914
31919
31900
31916
31876
31827
31774
31878
31877
31855
31846
31868
31836
31839
31822
31780
31705
31647
31799
31791
31783
31758
31771
31708
31639
31734
31723
31711
31718
31711
31677
31667
31646
31639
31581
31492
31635
31638
31643
31577
31445
31591
31583
31574
31575
31508
31555
31548
31533
31519
31533
31518
31468
31438
31351
31446
31460
31449
31437
31430
31367
31239
31399
31399
31374
31367
31380
31268
31338
31340
31311
31318
31277
31291
31285
31260
31271
31207
31119
31231
31223
31215
31116
31189
31164
31156
31077
31135
31142
31124
31111
30983
31101
31087
31079
31052
30939
31047
31036
31024
30990
30852
30978
30963
30966
30894
30931
30914
30907
30918
30902
30861
30828
30786
30703
30827
30821
30810
30787
30773
30775
30748
30711
30727
30717
30697
30670
30596
30677
30663
30645
30636
30627
30596
30599
30561
30494
30556
30545
30432
30487
30511
30503
30471
30471
30458
30447
30439
30305
30276
30263
30311
30333
30336
30343
30338
30309
30297
30284
30258
30270
30238
30235
30203
30196
30183
30169
30154
30146
30119
30115
30087
30076
30073
30062
30047
30045
30020
29959
29892
29912
29956
29879
29917
29915
29911
29890
29879
29863
29831
29825
29801
29790
29798
29727
29747
29726
29729
29711
29695
29682
29667
29661
29627
29620
29601
29583
29570
29565
29532
29524
29506
29485
29473
29453
29431
29423
29419
29391
29263
29287
29295
29295
29303
29296
29287
29257
29252
29239
29220
29213
29190
29159
29135
29119
29116
29085
29070
29063
29044
29026
29005
28987
28973
28955
28937
28930
28904
28892
28862
28855
28839
28815
28729
28722
28743
28724
28721
28717
28701
28695
28677
28643
28623
28608
28585
28571
28546
28423
28473
28484
28457
28460
28448
28434
28418
28407
28359
28350
28341
28312
28295
28285
28252
28239
28220
28210
28081
28118
28135
28119
28106
28095
28071
28055
28036
28039
28015
27975
27958
27942
27923
27909
27879
27863
27850
27830
27803
27790
27777
27691
27655
27645
27627
27664
27650
27628
27620
27537
27583
27558
27535
27474
27502
27478
27468
27440
27429
27399
27375
27366
27348
27327
27279
27294
27271
27263
27214
27199
27185
27166
27071
27128
27110
27046
27069
27056
27039
26998
26926
26966
26951
26922
26903
26839
26870
26849
26835
26807
26708
26758
26749
26733
26699
26644
26658
26646
26637
26607
26571
26514
26541
26525
26505
26493
26457
26440
26414
26400
26372
26317
26316
26316
26300
26270
26253
26234
26215
26190
26174
26159
26132
26116
26094
26067
26051
26016
26002
25991
25961
25940
25916
25901
25879
25860
25839
25810
25789
25756
25718
25704
25700
25678
25658
25644
25623
25603
25572
25564
25535
25516
25501
25471
25444
25424
25397
25383
25276
25330
25308
25287
25253
25196
25236
25210
25196
25187
25149
25132
25111
25086
25071
25050
25023
25001
24981
24966
24947
24911
24880
24871
24846
24823
24805
24787
24762
24743
24716
24692
24676
24653
24620
24612
24583
24561
24545
24519
24503
24482
24453
24430
24411
24382
24365
24336
24317
24295
24279
24262
24231
24215
24193
24163
24149
24121
24087
24071
24046
24021
24007
23972
23954
23940
23911
23905
23884
23847
23828
23811
23779
23758
23735
23716
23684
23655
23644
23632
23612
23593
23568
23541
23517
23495
23474
23436
23430
23407
23383
23356
23335
23320
23290
23269
23247
23228
23197
23180
23153
23138
23107
23087
23071
23046
23021
22991
22974
22957
22926
22903
22887
22856
22838
22805
22788
22764
22743
22722
22702
22667
22636
22615
22599
22580
22549
22420
22548
22527
22487
22465
22437
22421
22396
22379
22369
22355
22338
22294
22263
22228
22215
22194
22198
22151
22091
22071
22045
22022
21996
21974
21943
21990
21958
21913
21888
21852
21828
21802
21797
21805
21726
21764
21727
21684
21647
21625
21613
21574
21539
21532
21498
21479
21450
21429
21405
21386
21367
21350
21321
21291
21263
21228
21199
21194
21161
21225
21175
21132
21095
21064
21039
21017
20998
20970
20951
20921
20886
20948
20886
20852
20836
20795
20772
20748
20719
20679
20674
20647
20634
20603
20573
20547
20524
20582
20572
20526
20487
20423
20407
20370
20354
20324
20296
20268
20253
20237
20208
20190
20164
20133
20126
20075
20067
20136
20110
20074
20007
19967
19941
19908
19877
19855
19835
19812
19796
19768
19744
19723
19701
19672
19656
19636
19615
19588
19554
19545
19510
19500
19473
19451
19428
19406
19384
19353
19319
19312
19273
19261
19223
19211
19185
19153
19149
19116
19095
19103
19128
19112
19089
18959
18938
18926
18894
18869
18847
18823
18803
18877
18818
18787
18763
18725
18663
18643
18618
18594
18569
18535
18514
18490
18463
18431
18516
18379
18356
18455
18401
18319
18284
18248
18234
18211
18193
18164
18137
18114
18088
18078
18051
18020
17983
17951
17927
17907
17888
17863
17838
17812
17788
17767
17736
17719
17857
17756
17727
17743
17672
17657
17603
17562
17524
17492
17469
17446
17433
17393
17382
17479
17334
17295
17291
17257
17241
17209
17191
17153
17151
17126
17117
17071
17059
17028
17014
16988
16951
16939
16991
16926
16861
16845
16815
16797
16773
16750
16736
16699
16675
16644
16618
16660
16591
16558
16558
16520
16486
16601
16478
16429
16391
16367
16374
16335
16301
16280
16251
16237
16228
16212
16174
16145
16130
16150
16244
16043
16036
16012
15996
15973
15942
15908
15890
15865
16019
15948
15888
15815
15759
15742
15720
15702
15687
15657
15647
15613
15588
15551
15522
15517
15660
15536
15463
15412
15398
15375
15351
15324
15319
15285
15269
15257
15213
15188
15167
15141
15129
15276
15131
15063
15036
15025
14999
14982
14961
14935
14913
14883
14851
14834
14980
14830
14781
14741
14729
14711
14713
14683
14655
14600
14588
14777
14755
14668
14561
14492
14460
14437
14433
14388
14372
14544
14358
14308
14280
14271
14254
14241
14214
14181
14140
14116
14103
14086
14061
14043
14015
13993
13975
13945
13926
13909
13879
14060
13882
13817
13791
13775
13765
13752
13729
13706
13685
13649
13632
13609
13569
13540
13542
13638
13638
13559
13555
13631
13476
13402
13381
13343
13313
13286
13277
13264
13236
13231
13208
13187
13156
13134
13102
13079
13047
13032
13014
12979
12965
12956
12922
12902
12874
12861
12837
12809
12789
12775
12744
12726
12697
12686
12663
12647
12633
12597
12815
12558
12569
12541
12619
12474
12447
12551
12415
12395
12541
12370
12383
12324
12271
12260
12256
12215
12219
12321
12140
12143
12242
12090
12070
12313
12029
12009
11977
11986
11939
11913
11924
11885
11862
11831
11815
11796
11769
11749
11728
11712
11688
11671
11639
11626
11871
11860
11813
11686
11593
11526
11475
11463
11445
11447
11419
11410
11439
11487
11443
11456
11333
11255
11231
11212
11200
11177
11149
11137
11112
11097
11076
11056
11046
11019
11003
10984
10957
10951
10929
11185
11153
11131
10970
11062
10937
10857
10884
10937
10982
10935
10967
10948
10792
10668
10634
10622
10597
10567
10528
10494
10475
10464
10443
10434
10412
10391
10369
10353
10328
10313
10302
10274
10262
10260
10217
10194
10169
10154
10118
10113
10100
10373
10231
10134
10059
10001
9974
9953
9943
9930
9910
9892
9887
9879
9847
9827
9809
9796
9776
9766
9743
9707
9686
9659
9634
9675
9926
9574
9557
9540
9526
9502
9477
9468
9459
9429
9406
9391
9369
9353
9338
9317
9299
9286
9274
9258
9232
9218
9207
9207
9186
9157
9145
9109
9102
9082
9079
9053
9021
8994
8981
8960
8935
8924
9094
8959
8867
8845
8833
8809
8793
8774
8754
8746
8719
8704
8683
8674
8663
8641
8628
8595
8584
8559
8546
8533
8531
8537
8533
8494
8461
8421
8396
8385
8369
8371
8382
8354
8332
8323
8305
8289
8263
8247
8203
8175
8183
8148
8133
8107
8099
8080
8075
8066
8067
8043
8028
8007
7979
7958
7946
7912
7910
7880
7876
7846
7825
7818
7802
7784
7777
7782
7746
7722
7706
7675
7664
7814
7632
7610
7606
7594
7599
7557
7539
7511
7493
7478
7791
7475
7433
7430
7432
7407
7373
7352
7333
7324
7707
7312
7269
7247
7258
7256
7234
7192
7165
7162
7147
7127
7161
7503
7264
7187
7135
7074
7028
6999
6981
6955
6950
6959
6913
6913
6890
6877
6861
6852
6835
6829
6819
6806
6773
6754
6743
6737
6719
6724
6701
6692
6678
6655
6637
6635
6615
6598
6564
6539
6567
6511
6491
6485
6480
6475
6623
6438
6415
6677
6377
6373
6336
6326
6325
6313
6290
6276
6270
6256
6265
6235
6207
6186
6166
6172
6448
6201
6144
6095
6095
6069
6062
6056
6026
6012
5992
5986
5962
5946
5942
5934
5915
5892
5881
5914
6032
6007
5897
5867
5815
5892
5788
5787
5837
5894
5868
6021
6123
6131
5892
5858
5876
5812
5652
5628
5579
5565
5541
5536
5524
5506
5489
5478
5471
5465
5435
5422
5643
5578
5423
5386
5363
5345
5342
5361
5333
5296
5281
5578
5281
5239
5230
5222
5225
5224
5193
5166
5156
5145
5327
5143
5094
5101
5121
5096
5067
5038
5016
5013
5443
5228
5001
4976
4937
4931
4929
4921
4915
4893
4884
4880
4867
4860
4844
4856
4832
4813
4787
4768
4751
4741
5138
4819
4746
4691
4678
4655
4664
4645
4645
4659
4649
4631
4601
4580
4550
4541
4522
4519
4512
4502
4484
4472
4461
4456
4676
4459
4412
4411
4413
4398
4407
4393
4382
4352
4323
4316
4517
4317
4271
4256
4259
4249
4257
4246
4220
4220
4214
4210
4206
4191
4158
4142
4110
4119
4105
4084
4079
4554
4378
4140
4079
4020
4006
4004
4006
3989
3974
3975
3983
3960
3945
3932
3916
3908
3893
3880
3860
3852
3831
3812
4207
3828
3774
3769
3759
3757
3771
3763
3739
3710
3694
3681
3665
3654
3641
3993
3681
3604
3596
3579
3581
3580
3561
3559
3559
3548
3527
3500
3505
3504
3496
3498
3462
3444
3441
3435
3434
3421
3405
3407
3387
3367
3359
3326
3308
3304
3293
3696
3310
3247
3253
3244
3231
3234
3245
3215
3198
3180
3170
3148
3143
3373
3138
3110
3093
3090
3071
3067
3056
3080
3244
3290
3214
3225
3144
3093
3121
3035
2978
2965
2946
2930
2907
2915
2907
2901
2989
3044
2854
2853
2837
2826
2825
2810
2827
2836
2807
2780
2808
2787
2784
2753
2765
2739
2743
2724
2695
2692
2671
2666
2666
2651
2644
2646
2655
2634
2600
2588
2569
2555
2541
2535
2523
2522
2930
2547
2516
2488
2667
2974
2450
2451
2435
2847
2702
2602
2676
2645
2691
2786
2445
2374
2411
2712
2330
2325
2318
2306
2293
2279
2277
2285
2274
2246
2300
2231
2231
2243
2206
2207
2338
2185
2170
2172
2374
2156
2319
2147
2112
2115
2134
2199
2093
2073
2060
2096
2059
2037
2053
2026
2046
2006
2001
2029
2003
1976
1979
1959
1950
1970
1973
1927
1933
2024
1904
2248
1895
2299
2290
1867
2238
2007
1893
1863
1890
1834
1815
1792
1796
1788
1778
1769
1762
1766
1754
1739
1747
1719
1721
1717
1727
1715
1677
1666
1667
1710
1690
1685
1643
1630
1616
1618
1604
1600
1599
1597
1602
1596
1566
1547
1533
1531
1516
1510
1508
1500
1649
1689
1557
1509
1491
1484
1465
1469
1591
1589
1637
1500
1423
1412
1405
1384
1377
1361
1363
1356
1355
1348
1331
1329
1317
1313
1340
1320
1278
1272
1259
1254
1252
1233
1314
1243
1235
1226
1212
1216
1200
1199
1189
1179
1171
1163
1156
1155
1147
1135
1142
1143
1136
1126
1125
1118
1114
1092
1076
1060
1053
1045
1043
1031
1026
1030
1031
1004
997
987
981
978
971
962
962
951
863
954
945
941
933
922
913
902
936
935
901
923
907
892
873
870
851
876
869
860
852
865
841
806
804
802
799
783
783
783
779
796
777
765
751
744
736
730
738
728
715
727
726
726
722
683
671
689
660
693
654
641
639
636
625
623
618
612
610
604
593
591
583
583
579
573
569
359
567
508
534
538
536
527
525
519
482
432
436
502
496
489
485
489
481
473
469
463
460
478
461
454
442
444
419
432
428
424
421
414
433
414
406
400
398
399
282
352
377
374
376
368
367
360
357
366
366
353
352
346
227
329
328
328
324
320
332
328
311
312
309
307
229
292
290
286
284
281
275
284
271
278
275
265
266
263
254
249
250
243
234
239
240
235
239
233
229
228
222
221
215
213
211
210
182
202
197
196
193
194
190
190
184
184
183
176
175
178
125
164
164
165
164
133
155
118
151
149
150
143
132
136
138
132
133
129
124
125
122
124
119
121
113
96
111
111
106
104
101
100
99
97
97
92
89
85
88
86
80
82
77
78
76
68
68
69
68
66
67
62
59
57
57
56
55
51
50
50
50
49
49
48
48
49
48
49
48
48
48
47
48
47
47
48
47
47
47
48
49
49
48
47
48
47
48
48
48
47
48
47
47
48
48
48
47
48
47
48
49
47
48
47
48
47
47
47
49
48
48
48
48
48
48
48
48
47
48
47
48
47
47
47
49
48
48
48
47
48
48
48
47
48
48
48
48
48
48
48
48
47
47
50
48
48
48
48
48
48
48
47
49
48
48
48
48
47
48
48
47
48
47
47
48
47
49
48
48
47
47
47
47
49
48
47
48
49
47
47
47
47
47
48
49
49
47
48
47
48
49
46
47
48
48
48
47
47
47
47
48
48
48
47
47
48
48
48
48
48
49
48
48
47
47
48
49
48
49
49
51
56
61
60
59
61
63
64
66
68
69
73
68
75
78
75
77
79
78
80
84
89
89
91
93
91
96
98
98
97
99
101
106
106
109
111
115
115
117
119
116
121
119
122
121
127
129
129
130
132
130
132
132
132
109
137
132
137
138
137
140
140
146
145
148
146
146
152
148
149
153
155
155
158
160
162
164
149
159
161
165
168
169
171
171
174
175
176
180
168
182
183
187
191
196
194
195
195
186
195
198
199
203
209
205
211
216
213
215
155
215
222
221
226
228
231
233
231
239
239
242
178
240
241
247
249
263
256
257
262
214
257
263
265
271
289
278
278
286
287
224
282
287
291
294
308
300
309
310
311
315
321
310
315
317
321
326
326
333
334
339
354
356
348
352
357
356
341
354
360
368
370
371
388
392
382
389
396
255
383
385
400
406
407
410
410
415
422
419
436
431
434
440
441
447
454
453
431
455
396
470
474
477
473
479
427
487
495
497
503
502
510
511
519
518
520
533
531
357
417
404
526
494
504
549
554
558
568
576
582
584
587
588
593
612
630
631
638
633
622
628
626
632
632
650
643
647
658
654
664
669
671
678
680
686
688
692
697
704
708
712
710
719
725
724
732
736
737
740
749
757
764
763
769
795
808
806
812
832
836
823
830
847
850
861
860
858
844
868
869
850
852
860
864
868
803
877
880
896
892
913
913
909
908
916
932
923
928
945
943
973
955
949
960
980
970
971
980
990
1013
985
996
998
1009
1034
1015
1028
1042
1031
1039
1050
1060
1082
1072
1052
1069
1115
1107
1086
1095
1102
1126
1114
1100
1107
1172
1144
1131
1136
1146
1147
1174
1162
1173
1185
1177
1180
1176
1186
1191
1197
1204
1254
1230
1230
1229
1237
1242
1247
1250
1281
1287
1302
1307
1311
1288
1285
1294
1293
1471
1380
1345
1323
1343
1341
1367
1359
1364
1351
1367
1551
1411
1385
1395
1432
1435
1425
1436
1422
1422
1429
1430
1440
1593
1683
1583
1519
1497
1505
1514
1504
1503
1509
1524
1526
1550
1554
1542
1546
1549
1563
1567
1868
1739
1607
1593
1600
1626
1629
1663
1662
1636
1638
1650
1802
1673
1674
1687
1717
1716
1717
1705
1701
1714
1729
1821
1764
1753
1749
1772
1778
1782
1796
1802
1843
1845
1843
1829
1823
1837
1834
1846
1845
1853
1882
1878
1891
1893
1898
1909
1916
2282
2130
2125
2205
2295
2327
2107
2175
2378
2274
2370
2170
2171
2165
2091
2081
2112
2106
2082
2072
2089
2103
2116
2131
2136
2126
2121
2125
2145
2561
2391
2309
2221
2195
2188
2205
2217
2228
2241
2262
2275
2280
2274
2283
2294
2298
2296
2302
2309
2321
2435
2457
2362
2351
2371
2385
2396
2432
2439
2438
2436
2427
2438
2453
2872
2560
2479
2476
2496
2519
2545
2540
2544
2530
2540
2551
2565
2576
2585
3066
2790
2628
2617
2637
2666
2682
2676
2669
2663
2681
2693
2706
2707
2729
2738
2781
2776
2759
2764
2783
2787
2961
2845
2828
2822
2850
2863
2893
2879
2871
2883
2894
2907
2918
2924
2929
2954
2952
2972
3206
3027
2987
3006
3028
3041
3073
3071
3061
3066
3083
3093
3367
3370
3197
3123
3136
3148
3167
3172
3203
3215
3231
3215
3229
3241
3252
3537
3413
3298
3289
3297
3322
3324
3338
3377
3390
3385
3389
3396
3407
3421
3457
3467
3463
3455
3458
3469
3479
3492
3503
3510
3518
3541
3558
3569
3573
3600
3629
3625
3663
3668
3680
3706
3703
3711
3725
3745
3731
3744
3731
3744
3763
3771
3773
3794
3797
3808
3857
3893
3919
3945
3876
4003
4360
3913
4348
3938
3953
3968
3972
3978
4005
4020
4031
4051
4068
4084
4075
4093
4099
4101
4104
4118
4134
4186
4246
4263
4419
4670
4641
4234
4238
4238
4279
4311
4307
4296
4347
4347
4333
4352
4379
4787
4423
4399
4413
4467
4463
4454
4479
4593
4493
4514
4533
4560
4583
4593
4600
4628
4625
4648
4668
4677
4678
4703
4705
4708
4727
4752
4757
4759
4776
4778
4783
4780
4809
4832
4827
4846
4871
4876
4887
4925
4943
4961
4976
4994
5008
5001
5013
5028
5033
5047
5064
5074
5557
5348
5149
5124
5135
5156
5200
5221
5226
5249
5257
5256
5263
5265
5282
5298
5314
5318
5337
5517
5410
5394
5422
5394
5425
5452
5461
5505
5511
5497
5505
5516
5539
5541
5559
5905
5630
5599
5614
5625
5630
5649
5661
5693
5715
5737
5762
5777
5785
5790
5795
5820
5816
5838
5860
5853
5872
5893
5906
5922
5927
5924
5955
5962
6279
6213
6139
6055
6038
6046
6088
6098
6110
6102
6131
6324
6167
6161
6172
6217
6245
6228
6241
6254
6268
6288
6728
6583
6441
6353
6359
6374
6402
6436
6451
6452
6464
6487
6488
6509
6508
6525
6542
6559
6567
6581
6949
6843
6714
6657
6653
6678
6693
6706
6726
6752
6790
6773
6788
6802
6813
6832
7157
6929
6871
6893
6913
6968
6967
6968
6981
6988
7004
7270
7033
7051
7079
7087
7111
7147
7142
7147
7166
7177
7428
7271
7208
7232
7261
7282
7320
7310
7324
7333
7352
7362
7683
7418
7409
7433
7452
7468
7500
7523
7518
7527
7542
7557
7686
7621
7609
7630
7654
7694
7706
7717
7723
7726
7741
7767
8021
7830
7814
7827
7852
7871
7910
7903
7909
7925
8109
8015
7968
8005
8015
8036
8051
8055
8089
8126
8134
8154
8142
8155
8175
8196
8567
8473
8332
8270
8303
8340
8373
8430
8561
8401
8409
8391
8414
8446
8483
8489
8508
8537
8542
8551
8557
8571
8582
8597
8618
8636
8905
8783
8782
8753
8731
8742
8756
8782
8801
8828
8839
8869
8865
8877
8916
8903
8924
9306
9115
9009
8997
9003
9039
9083
9094
9095
9108
9118
9129
9150
9526
9272
9209
9226
9269
9289
9290
9295
9306
9329
9338
9365
9728
9667
9709
9549
9463
9473
9476
9507
9526
9558
9564
9571
9595
9628
9632
9661
9671
9700
9727
9736
9745
9747
9764
10119
10061
10098
9961
9924
9904
9894
9908
9930
9953
9959
9990
9993
10021
10043
10054
10080
10100
10108
10123
10141
10154
10177
10184
10212
10226
10254
10266
10308
10325
10330
10351
10358
10366
10378
10400
10415
10480
10761
10697
10595
10540
10535
10544
10570
10583
10609
10630
10641
10666
10709
10696
10710
10724
10740
10760
10775
10793
10801
10827
10854
11108
10911
10906
10921
10943
10972
10985
10997
11029
11036
11078
11083
11103
11116
11123
11142
11146
11165
11189
11487
11319
11252
11255
11283
11322
11350
11350
11377
11382
11382
11399
11421
11742
11655
11568
11520
11523
11551
11561
11572
11594
11604
11643
11648
11670
11686
11704
11700
11726
11781
11920
12011
12093
11815
11847
11856
11870
11887
11905
11933
11943
11963
11967
11996
12015
12035
12050
12359
12236
12151
12150
12146
12154
12183
12200
12401
12357
12270
12272
12282
12314
12331
12350
12368
12383
12404
12427
12459
12471
12494
12510
12527
12549
12557
12556
12570
12589
12598
12625
12639
12657
12673
12966
12916
12844
12938
12983
13034
12997
13089
13095
12855
13022
12935
12940
12937
12985
12992
13009
13008
13023
13022
13053
13066
13086
13127
13137
13151
13173
13173
13186
13205
13229
13238
13260
13263
13281
13295
13321
13333
13348
13367
13634
13573
13500
13457
13467
13474
13493
13512
13532
13556
13581
13577
13594
13616
13623
13641
13652
13916
13949
13805
13762
13783
13776
13937
13792
13803
13821
13834
13864
13873
13890
13894
13916
13938
13958
13987
13985
14010
14022
14051
14046
14090
14239
14118
14118
14130
14159
14248
14190
14197
14206
14247
14271
14271
14279
14293
14312
14342
14360
14378
14375
14407
14403
14399
14423
14435
14460
14470
14489
14500
14513
14535
14563
14565
14578
14596
14608
14621
14639
14883
14896
14845
14927
14949
14961
14925
14924
14950
14837
14886
14857
14836
14854
14860
14882
14895
14913
14939
14950
14951
14963
14985
14999
15007
15029
15045
15069
15076
15095
15094
15098
15108
15119
15140
15141
15176
15182
15196
15206
15238
15364
15306
15300
15303
15349
15319
15319
15328
15339
15343
15356
15385
15397
15402
15428
15434
15452
15453
15471
15498
15502
15509
15519
15527
15745
15676
15638
15592
15610
15607
15620
15640
15663
15680
15668
15679
15690
15684
15907
15891
15835
15771
15761
15770
15793
15805
15819
15821
15844
15863
15879
15873
15887
15882
15902
16055
16015
15956
15947
15959
15973
15988
15999
16002
16007
16090
16070
16049
16053
16068
16084
16105
16119
16121
16114
16127
16134
16151
16287
16191
16188
16196
16213
16222
16221
16404
16336
16270
16257
16276
16314
16293
16298
16469
16340
16331
