EGG
38519
38391
38518
38532
38506
38478
38535
38525
38527
38383
38559
38541
38547
38559
38460
38518
38543
38564
38579
38487
38519
38373
38590
38568
38598
38564
38589
38577
38295
38599
38588
38567
38556
38364
38577
38611
38612
38599
38607
38604
38625
38622
38637
38625
38639
38628
38645
38631
38653
38651
38598
38619
38385
38625
38654
38663
38648
38663
38663
38686
38678
38663
38675
38654
38653
38398
38701
38697
38701
38692
38701
38695
38703
38703
38689
38671
38720
38724
38726
38527
38735
38734
38719
38726
38527
38759
38756
38756
38754
38629
38772
38771
38719
38749
38540
38781
38775
38779
38772
38663
38759
38796
38791
38783
38747
38759
38535
38831
38810
38724
38791
38816
38821
38799
38831
38799
38831
38831
38683
38805
38836
38839
38839
38812
38791
38586
38858
38852
38854
38854
38767
38812
38695
38820
38694
38822
38628
38868
38607
38873
38875
38879
38879
38868
38852
38790
38838
38743
38853
38900
38916
38903
38900
38903
38789
38919
38908
38855
38881
38919
38900
38876
38919
38933
38918
38898
38883
38940
38936
38948
38919
38919
38718
38959
38951
38901
38918
38775
38964
38967
38983
38974
38937
38919
38663
38979
38990
38935
38947
38991
39002
38989
38983
38979
38895
38966
39012
39013
39007
38971
38975
38727
39041
39017
38930
39002
39033
39031
39028
38982
38996
39034
39062
39047
39043
39042
38831
39068
39060
39061
39079
39063
39061
38887
39087
39082
39084
39076
39031
39047
39087
39092
39087
38919
39116
39098
39084
39053
39109
39075
39108
39111
39015
39124
39121
38878
39133
39126
39134
39129
39130
38877
39147
39150
39020
39141
39154
39150
39135
38917
39175
39154
38997
39174
39174
39156
39135
39172
39175
39143
39191
39175
39163
38943
39207
39188
39046
39211
39196
39095
39212
39195
39023
39223
39207
39145
39215
39222
39055
39228
39231
39114
39246
39233
39115
39251
39232
39159
39245
39236
39241
39215
39013
39265
39252
39116
39269
39266
39239
39231
39263
39269
39239
39007
39276
39263
39263
39252
39055
39279
39271
39175
39276
39287
39196
39303
39300
39207
39302
39303
39261
39259
39303
39300
39268
39303
39271
39287
39303
39317
39303
39195
39252
39311
39324
39303
39317
39292
39119
39317
39314
39301
39294
39322
39219
39308
39317
39301
39276
39325
39327
39319
39039
39327
39303
39103
39329
39333
39295
39287
39331
39331
39323
39112
39343
39335
39325
39293
39034
39343
39340
39285
39270
39335
39333
39295
39032
39342
39335
39255
39309
39343
39350
39332
39290
39294
39345
39351
39319
39028
39345
39348
39303
39284
39334
39349
39341
39140
39362
39355
39340
39278
39343
39351
39286
39343
39335
39287
39351
39333
39303
39339
39335
39301
39039
39364
39343
39277
39367
39345
39268
39356
39356
39303
39366
39350
39303
39295
39345
39340
39327
39220
39326
39355
39349
39348
39298
39367
39341
39236
39359
39338
39196
39365
39355
39191
39303
39357
39356
39302
39362
39359
39334
39029
39351
39359
39327
39295
39356
39367
39335
39039
39351
39303
39366
39319
39308
39115
39381
39365
39325
39313
39083
39375
39375
39345
39319
39071
39372
39367
39335
39349
39381
39253
39378
39354
39379
39390
39375
39196
39399
39395
39383
39349
39125
39413
39396
39388
39358
39397
39394
39355
39389
39399
39341
39393
39395
39351
39400
39364
39404
39415
39325
39388
39415
39391
39431
39413
39412
39419
39415
39391
39419
39414
39371
39431
39431
39421
39228
39450
39431
39263
39454
39431
39422
39392
39440
39446
39422
39454
39151
39463
39412
39452
39463
39413
39471
39431
39487
39477
39391
39468
39486
39285
39498
39444
39482
39431
39493
39464
39497
39431
39519
39504
39287
39519
39519
39240
39519
39479
39514
39463
39535
39518
39273
39543
39516
39540
39530
39471
39551
39532
39479
39550
39526
39549
39543
39221
39570
39495
39568
39541
39525
39567
39551
39535
39236
39588
39590
39400
39589
39602
39512
39615
39618
39505
39623
39603
39321
39612
39620
39514
39631
39630
39586
39634
39631
39574
39607
39642
39615
39669
39654
39622
39609
39663
39635
39666
39666
39428
39687
39681
39571
39693
39687
39600
39703
39711
39638
39715
39707
39700
39676
39419
39731
39716
39580
39719
39721
39724
39679
39735
39759
39757
39695
39762
39767
39657
39757
39775
39599
39787
39783
39633
39803
39798
39767
39800
39799
39783
39754
39812
39815
39806
39631
39847
39831
39814
39863
39844
39718
39858
39853
39756
39812
39868
39829
39871
39884
39739
39839
39893
39866
39856
39591
39915
39919
39719
39883
39917
39902
39878
39642
39959
39935
39937
39935
39673
39966
39972
39969
39967
39785
39988
39959
39991
39991
39935
40000
39998
39953
40006
39972
39974
40014
40020
39983
40037
40039
39990
40052
40063
40052
39970
40094
40058
40084
40079
40037
40078
40097
40101
39966
40103
40116
40122
40124
40100
40087
40135
40142
40097
40159
40157
40103
40172
40180
40122
40188
40146
40198
40186
39943
40219
40215
39964
40231
40222
39886
40239
40197
40240
40261
40231
40253
40287
40229
40269
40276
40229
40284
40301
40286
40029
40327
40309
40082
40329
40303
40335
40295
40364
40351
40207
40376
40367
40063
40391
40396
40363
40358
40404
40415
40420
40276
40431
40428
40379
40406
40439
40452
40429
40164
40495
40471
40391
40415
40494
40500
40431
40513
40516
40476
40167
40542
40538
40441
40563
40551
40575
40566
40551
40508
40583
40599
40612
40607
40606
40276
40529
40647
40588
40644
40604
40661
40668
40451
40679
40679
40583
40674
40703
40710
40655
40730
40733
40735
40663
40741
40759
40769
40762
40661
40727
40787
40796
40775
40524
40825
40812
40769
40766
40852
40855
40854
40759
40870
40852
40879
40887
40884
40676
40905
40907
40679
40954
40932
40793
40955
40942
40731
40967
40974
40660
41011
40967
40711
41012
41015
40775
41045
41038
40711
41069
41063
41060
41036
40879
41100
41107
41115
41087
40940
41140
41135
41114
41083
41155
41031
41175
41183
41191
41157
40833
41215
41198
40839
41234
41186
41245
41263
41269
40961
41266
41285
41223
41302
40911
41323
41309
41139
41325
41340
41348
41293
41367
41344
41364
41389
41375
41341
41389
41415
41373
41426
41390
41452
41396
41455
41479
41244
41479
41427
41116
41519
41516
41390
41546
41551
41509
41498
41575
41570
41541
41250
41598
41596
41606
41583
41507
41581
41631
41647
41595
41279
41677
41671
41695
41693
41684
41695
41446
41721
41692
41735
41735
41719
41756
41635
41782
41702
41787
41557
41823
41804
41767
41780
41746
41767
41838
41857
41853
41524
41887
41884
41876
41829
41680
41889
41910
41921
41882
41735
41948
41948
41914
41885
41966
41981
41980
41982
41966
41702
42006
41999
41954
41948
41733
42054
42036
41980
42047
42052
42076
41990
42086
42063
42088
42106
42110
42105
42031
42116
42119
42143
42139
42156
42147
42025
42095
41838
42204
42189
42164
42173
41885
42212
42215
42215
42189
41847
42247
42243
42212
42260
42258
42183
42237
42273
42287
42247
42295
42310
42255
42311
42333
42300
41948
42349
42342
42212
42375
42360
42080
42404
42375
42326
42311
42404
42403
42366
42148
42415
42431
42439
42446
42359
42460
42447
42463
42471
42459
42172
42494
42492
42473
42440
42502
42532
42503
42476
42547
42535
42496
42534
42549
42513
42503
42404
42567
42583
42564
42540
42270
42607
42604
42603
42583
42407
42630
42629
42647
42604
42255
42662
42660
42644
42620
42667
42659
42636
42433
42707
42697
42654
42644
42726
42732
42712
42420
42740
42759
42738
42717
42462
42779
42775
42389
42773
42788
42759
42791
42406
42766
42759
42815
42823
42812
42614
42836
42824
42847
42844
42831
42839
42811
42799
42871
42881
42807
42876
42875
42835
42893
42895
42895
42817
42887
42900
42925
42903
42867
42879
42927
42933
42943
42951
42933
42723
42964
42566
42965
42975
42933
42919
42969
42975
42971
42794
42991
42980
42982
42951
42991
43014
43007
42820
43009
43015
43015
43031
42908
42983
43039
43043
43042
42964
43036
43052
43044
43007
43067
43075
43070
43015
43015
42870
43054
42702
43087
43077
43096
43095
43089
43100
43015
43045
42925
43118
43095
43118
43111
43111
43108
43085
43095
42878
43134
43135
43143
43135
43140
43135
43092
43135
43143
42979
43157
43143
42993
43161
43157
43162
43166
42847
43175
43175
42959
43172
43163
42821
43176
43185
42830
43207
43183
43170
43119
42819
43199
43191
43150
43154
43199
43217
43207
43191
43153
42847
43220
43207
43205
43211
43119
43164
43042
43186
43213
43230
43215
43244
43175
43215
43117
43238
43233
43116
43207
43230
43246
43214
43189
43202
43247
43236
43231
43231
43242
43210
43215
43006
43263
43239
43255
43239
43175
43237
43260
43259
43231
43260
43271
43247
43158
43263
43271
43271
43269
43005
43295
43265
43116
43285
43268
43232
43239
43271
43295
43243
43287
43303
43301
43111
43303
43293
43304
43298
43302
43255
43296
43316
43292
43084
43318
43303
43270
43271
43303
43316
43316
43239
43271
43318
43319
43316
43196
43287
43324
43332
43324
43332
43292
43328
43333
43319
43078
43347
43326
43294
43291
43044
43356
43339
43350
43341
43339
43319
43142
43355
43351
43359
43335
43271
43351
43351
43365
43355
43228
43348
43356
43367
43367
43293
43318
43055
43375
43351
43367
43367
43369
43363
43359
43343
43216
43359
43374
43371
43375
43302
43367
43375
43375
43349
43063
43399
43383
43367
43367
43265
43367
43389
43398
43375
43391
43380
43395
43383
43170
43415
43399
43263
43413
43402
43399
43397
43388
43359
43399
43390
43399
43259
43374
43407
43415
43411
43325
43420
43407
43331
43396
43391
43399
43372
43407
43413
43431
43415
43399
43292
43429
43407
43355
43396
43238
43407
43377
43419
43406
43399
43413
43399
43380
43422
43413
43382
43256
43423
43422
43381
43391
43403
43415
43423
43263
43431
43415
43287
43428
43423
43428
43396
43391
43427
43429
43418
43431
43409
43334
43404
43420
43426
43428
43383
43407
43247
43384
43423
43431
43437
43413
43430
43399
43401
43335
43389
43431
43439
43426
43367
43382
43420
43432
43416
43330
43396
43428
43431
43423
43137
43444
43431
43423
43412
43143
43428
43423
43387
43425
43422
43423
43423
43206
43428
43420
43399
43399
43423
43399
43391
43417
43423
43428
43137
43431
43415
43397
43396
43132
43420
43411
43431
43413
43398
43383
43412
43349
43412
43399
43398
43399
43407
43338
43423
43404
43410
43415
43335
43412
43407
43406
43413
43271
43404
43405
43384
43399
43191
43399
43415
43413
43399
43372
43395
43396
43380
43397
43388
43375
43391
43393
43267
43383
43399
43391
43396
43303
43395
43397
43379
43375
43393
43301
43380
43391
43383
43372
43347
43386
43365
43371
43204
43391
43359
43363
43371
43362
43334
43371
43359
43365
43357
43183
43348
43370
43351
43343
43183
43349
43365
43363
43364
43317
43367
43324
43335
43340
43124
43349
43304
43335
43199
43341
43319
43327
43175
43331
43343
43324
43326
43204
43327
43348
43310
43317
43111
43300
43327
43327
43311
43118
43259
43324
43287
43311
43308
43196
43298
43319
43321
43271
43298
43298
43295
43124
43227
43271
43298
43292
43303
43264
43253
43263
43283
43271
43204
43271
43268
43250
43263
43263
43263
43066
43250
43268
43239
43239
43238
43258
43165
43244
43252
43215
43236
43235
43231
43119
43227
43237
43215
43219
43230
43218
43211
43127
43207
43215
43207
43189
43196
43199
43204
43198
43095
43203
43199
43183
43184
43079
43183
43191
43156
43173
43169
43079
43175
43148
43159
43158
42948
43134
43156
43135
43142
43137
43101
43148
43132
43134
43125
43127
42983
43111
43125
43139
43094
43106
43116
43103
43111
43032
43098
43102
43069
43081
43084
42904
43015
43078
43085
43076
43067
43061
43015
43055
43063
43038
43044
43033
42919
43015
43044
43006
43015
43031
42950
43030
42991
42997
43015
42997
42799
42919
42967
43004
42989
42959
42974
42978
42887
42960
42951
42951
42949
42943
42844
42941
42935
42806
42939
42929
42863
42893
42908
42887
42895
42911
42905
42887
42820
42877
42879
42901
42878
42853
42855
42871
42876
42856
42683
42850
42842
42814
42812
42823
42836
42815
42711
42812
42822
42814
42797
42797
42807
42788
42788
42767
42676
42772
42771
42748
42756
42582
42747
42748
42623
42740
42732
42647
42726
42715
42695
42691
42706
42683
42694
42687
42631
42693
42676
42551
42673
42662
42535
42660
42647
42471
42639
42631
42618
42600
42602
42599
42592
42591
42588
42580
42567
42572
42554
42564
42550
42546
42538
42535
42532
42526
42361
42509
42489
42503
42492
42469
42375
42476
42468
42455
42458
42318
42412
42438
42447
42421
42375
42394
42407
42375
42393
42388
42383
42375
42236
42363
42341
42259
42341
42341
42285
42336
42305
42318
42306
42244
42303
42293
42228
42266
42262
42262
42247
42179
42247
42232
42182
42223
42219
42219
42214
42206
42185
42151
42169
42047
42167
42159
42117
42140
42134
42135
42133
42087
42116
42015
42107
42095
42063
42071
41935
42071
42055
42021
42052
42031
42038
42011
42006
42001
42006
42007
41991
41933
41991
41967
41959
41951
41951
41951
41934
41855
41927
41916
41876
41911
41903
41889
41884
41877
41869
41783
41861
41847
41847
41839
41831
41815
41790
41812
41803
41794
41782
41607
41782
41768
41727
41754
41735
41734
41718
41668
41710
41708
41679
41676
41685
41647
41679
41662
41607
41650
41492
41632
41607
41607
41593
41477
41605
41579
41511
41573
41559
41479
41559
41543
41530
41527
41519
41508
41513
41479
41388
41479
41474
41431
41468
41447
41414
41431
41420
41287
41427
41407
41396
41388
41391
41314
41367
41348
41332
41335
41335
41319
41307
41244
41305
41289
41283
41274
41253
41249
41236
41252
41221
41151
41236
41205
41199
41196
41189
41127
41170
41159
41141
41154
41131
41119
41111
41119
41113
41098
41079
41065
41076
41061
41047
41035
40935
41035
41015
40967
41007
40988
40989
40967
40849
40967
40951
40900
40934
40927
40901
40895
40899
40901
40880
40837
40863
40847
40861
40839
40791
40829
40815
40821
40794
40703
40782
40767
40748
40742
40653
40751
40711
40691
40695
40695
40685
40673
40582
40666
40647
40532
40639
40629
40583
40605
40598
40583
40581
40572
40572
40559
40487
40543
40527
40471
40521
40493
40450
40500
40478
40455
40455
40444
40439
40419
40422
40397
40402
40388
40391
40359
40353
40351
40327
40327
40325
40311
40299
40290
40290
40278
40269
40272
40255
40236
40231
40102
40226
40204
40138
40167
40173
40156
40165
40103
40141
39991
40130
40127
40071
40114
40086
40084
40071
40000
40063
40049
40038
40023
40035
40019
40007
39927
39995
39991
39909
39983
39943
39924
39933
39902
39910
39833
39879
39765
39891
39866
39871
39855
39815
39823
39714
39831
39804
39783
39783
39663
39797
39757
39671
39751
39743
39661
39738
39707
39638
39709
39684
39652
39678
39655
39519
39655
39626
39631
39607
39596
39602
39582
39578
39583
39572
39555
39546
39529
39520
39391
39535
39505
39487
39495
39391
39495
39473
39382
39463
39431
39425
39421
39245
39415
39391
39303
39396
39367
39287
39365
39337
39329
39335
39322
39193
39303
39303
39188
39293
39270
39242
39232
39239
39231
39207
39217
39207
39191
39204
39195
39191
39151
39148
39152
39138
39130
38941
39135
39111
39093
39082
38993
39060
39063
39076
39057
39030
39024
38942
39037
39006
39013
39004
38996
38986
38956
38959
38910
38940
38847
38916
38855
38900
38916
38898
38894
38750
38885
38870
38863
38855
38791
38831
38836
38815
38810
38761
38791
38734
38768
38711
38748
38685
38726
38648
38729
38723
38718
38710
38686
38695
38665
38663
38506
38663
38653
38617
38639
38543
38606
38439
38603
38589
38581
38588
38513
38554
38543
38551
38535
38508
38522
38509
38501
38476
38492
38476
38465
38470
38455
38449
38444
38439
38427
38433
38405
38407
38393
38390
38390
38364
38371
38356
38359
38351
38335
38335
38315
38319
38301
38311
38279
38280
38277
38254
38262
38169
38213
38094
38215
38226
38211
38200
38165
38183
38146
38174
38095
38137
38039
38127
38059
38112
38060
38094
38018
38079
37983
38071
37993
38055
37991
38055
38014
38023
37969
38015
37980
38006
38005
37993
37979
37943
37975
37961
37959
37927
37941
37927
37927
37924
37895
37925
37717
37869
37759
37847
37684
37867
37697
37819
37759
37822
37706
37799
37797
37807
37799
37784
37779
37691
37745
37604
37751
37741
37740
37724
37703
37719
37697
37693
37668
37679
37677
37681
37651
37668
37638
37651
37591
37607
37583
37605
37607
37605
37605
37575
37580
37567
37559
37559
37556
37543
37509
37524
37409
37483
37500
37508
37494
37499
37485
37484
37481
37474
37455
37451
37445
37428
37439
37406
37418
37367
37404
37350
37383
37261
37373
37359
37359
37351
37351
37347
37327
37322
37271
37305
37239
37295
37221
37268
37114
37272
37255
37270
37252
37261
37237
37239
37212
37196
37207
37097
37212
37199
37172
37167
37167
37150
37171
37125
37141
37061
37116
36979
37143
37115
37095
37106
37017
37077
36871
37086
37077
37067
37071
37031
37047
36967
37029
36942
37006
37013
37023
37015
36983
36991
36937
36983
36943
36966
36917
36949
36844
36925
36940
36937
36924
36920
36908
36879
36887
36737
36909
36871
36880
36871
36828
36828
36733
36823
36756
36834
36764
36803
36669
36812
36809
36803
36804
36758
36775
36711
36757
36645
36743
36626
36727
36644
36719
36554
36710
36723
36734
36724
36688
36711
36699
36696
36684
36682
36661
36679
36615
36670
36625
36631
36558
36623
36556
36615
36533
36613
36469
36579
36409
36577
36479
36559
36485
36563
36428
36562
36393
36570
36543
36551
36550
36551
36524
36512
36319
36503
36507
36517
36499
36500
36313
36496
36275
36463
36471
36479
36470
36455
36455
36459
36450
36465
36220
36415
36239
36397
36302
36391
36245
36388
36263
36359
36279
36359
36227
36356
36372
36375
36359
36355
36343
36332
36319
36253
36311
36215
36307
36268
36308
36198
36297
36101
36295
36296
36287
36285
36268
36286
36277
36259
36242
36252
36231
36245
36231
36228
36223
36226
36231
36226
36206
36038
36204
36198
36183
36193
36143
36178
36116
36161
36071
36136
36013
36129
36020
36138
36137
36092
36095
35915
36117
36103
36110
36100
36100
36092
36020
36068
36047
36064
36039
36044
35927
36065
36044
35988
36003
36012
36031
36012
35970
35991
35877
35964
35975
35975
35971
35975
35964
35964
35950
35792
35951
35943
35943
35927
35931
35916
35847
35895
35703
35923
35901
35899
35887
35873
35879
35847
35879
35786
35831
35724
35837
35639
35832
35829
35821
35816
35815
35812
35796
35804
35766
35789
35773
35794
35770
35769
35735
35749
35659
35719
35644
35733
35631
35707
35524
35732
35711
35636
35717
35701
35658
35662
35692
35674
35681
35645
35668
35674
35649
35655
35606
35627
35649
35628
35640
35572
35605
35444
35621
35622
35567
35589
35418
35604
35586
35543
35590
35563
35535
35566
35479
35543
35349
35564
35555
35534
35546
35489
35515
35359
35509
35333
35525
35509
35495
35499
35471
35493
35402
35468
35475
35456
35463
35423
35452
35383
35436
35365
35431
35366
35415
35294
35431
35417
35429
35410
35410
35407
35399
35399
35335
35378
35287
35363
35242
35380
35366
35375
35365
35374
35351
35372
35335
35351
35135
35350
35317
35334
35132
35300
35207
35300
35227
35290
35189
35284
35129
35300
35290
35295
35070
35263
35085
35284
35263
35252
35243
35269
35151
35231
35228
35235
35239
35040
35242
35047
35198
35089
35202
35007
35207
35063
35179
35139
35191
35159
35188
35167
35174
35180
35167
35174
35154
35150
35015
35127
35014
35127
35033
35113
35014
35117
34966
35100
34927
35117
35087
34997
35094
35010
35095
35087
35092
35089
34887
35053
34996
35066
35054
35061
35071
35044
35027
34916
35039
35035
35039
35047
34909
35006
34919
35015
34972
35012
34919
34990
34925
35004
34954
34991
34973
34987
34967
34876
34966
34917
34967
34951
34966
34959
34956
34967
34951
34943
34946
34940
34926
34947
34922
34935
34912
34941
34743
34895
34774
34887
34783
34887
34823
34889
34837
34894
34823
34879
34711
34895
34871
34884
34863
34877
34857
34871
34853
34868
34859
34823
34849
34738
34823
34687
34855
34834
34844
34823
34814
34747
34815
34771
34823
34752
34819
34765
34814
34775
34811
34743
34787
34702
34790
34742
34783
34747
34799
34753
34786
34724
34787
34661
34791
34779
34686
34764
34774
34784
34789
34767
34758
34759
34759
34749
34764
34727
34751
34618
34737
34747
34757
34751
34751
34741
34747
34669
34722
34548
34757
34741
34741
34743
34739
34745
34748
34532
34732
34636
34724
34695
34735
34702
34741
34719
34739
34741
34737
34736
34731
34741
34719
34731
34732
34689
34711
34620
34713
34589
34735
34724
34729
34727
34741
34530
34732
34735
34729
34623
34729
34695
34728
34700
34727
34718
34735
34695
34743
34719
34732
34747
34727
34736
34748
34708
34733
34715
34731
34686
34735
34733
34734
34751
34535
34735
34596
34719
34617
34731
34693
34751
34695
34739
34719
34738
34741
34733
34567
34773
34596
34759
34593
34756
34562
34777
34775
34770
34763
34779
34764
34791
34775
34783
34783
34781
34782
34772
34783
34745
34792
34732
34772
34759
34812
34802
34799
34809
34766
34798
34650
34797
34678
34823
34815
34823
34830
34806
34823
34842
34667
34811
34705
34812
34686
34852
34679
34834
34765
34846
34719
34875
34863
34884
34662
34863
34726
34877
34705
34860
34711
34881
34717
34896
34894
34909
34901
34913
34911
34906
34908
34861
34895
34782
34916
34818
34919
34903
34943
34894
34938
34929
34950
34970
34764
34939
34813
34972
34773
34958
34823
35007
34987
34993
34996
34985
35001
35004
35007
35019
35015
35015
35022
34997
35033
34951
35028
35039
35063
35046
35049
35062
34919
35071
35079
34943
35106
35079
35073
35088
35023
35092
35003
35095
34910
35120
35127
35123
35141
35133
35147
35104
35135
34965
35175
35174
35123
35175
35180
35135
35170
35195
35215
35198
35219
35213
35191
35221
35023
35245
35250
35231
35233
35047
35274
35262
35271
35271
35269
35278
35263
35291
35293
35303
35272
35319
35287
35327
35287
35335
35292
35351
35306
35355
35314
35335
35197
35373
35388
35397
35401
35407
35415
35399
35427
35303
35447
35443
35410
35429
35271
35477
35471
35431
35461
35490
35497
35500
35417
35529
35514
35456
35506
35529
35545
35556
35455
35564
35567
35543
35559
35383
35591
35603
35493
35596
35621
35577
35591
35649
35601
35623
35445
35644
35566
35673
35639
35678
35668
35688
35654
35695
35652
35716
35607
35733
35745
35764
35754
35781
35778
35767
35783
35740
35791
35618
35818
35828
35823
35839
35810
35845
35831
35866
35847
35879
35847
35885
35799
35887
35823
35900
35861
35936
35898
35942
35908
35951
35919
35972
35914
35963
35836
35999
35815
36028
36026
36045
36033
36038
36060
36011
36052
35981
36055
35919
36113
36103
36098
36093
36134
36133
36127
36017
36167
36167
36140
36169
36199
36199
36209
36091
36212
36230
36225
36239
36087
36270
36275
36263
36263
36302
36245
36295
36311
36263
36316
36339
36301
36359
36367
36245
36403
36391
36359
36389
36180
36436
36437
36331
36436
36249
36473
36469
36404
36477
36375
36517
36516
36516
36516
36517
36549
36507
36533
36575
36572
36582
36461
36628
36599
36634
36621
36637
36646
36632
36663
36493
36701
36676
36701
36710
36705
36660
36711
36732
36763
36548
36735
36591
36763
36606
36789
36807
36810
36834
36837
36839
36817
36854
36743
36891
36887
36869
36923
36927
36935
36943
36954
36951
36927
36967
36906
36958
36820
37013
37009
37012
37043
37015
37032
36935
37046
36929
37063
36972
37110
37079
37126
37027
37135
37156
37180
37169
37191
37196
37204
37190
37230
37223
37236
37244
37181
37247
37113
37260
37074
37305
37060
37293
37189
37311
37140
37331
37132
37389
37372
37382
37407
37367
37406
37350
37406
37237
37460
37462
37477
37470
37488
37486
37463
37497
37484
37519
37446
37530
37333
37543
37383
37582
37383
37604
37599
37586
37607
37572
37631
37565
37620
37460
37664
37675
37703
37688
37678
37721
37697
37732
37595
37740
37727
37770
37653
37788
37795
37792
37818
37727
37812
37759
37821
37623
37850
37703
37853
37662
37917
37679
37925
37918
37950
37940
37959
37957
37983
37973
37999
37999
38015
38012
38031
38031
38047
38055
38060
38062
38075
38087
38093
38101
38119
38121
38140
38141
38164
38149
38183
38167
38197
38190
38193
38215
38204
38230
38220
38245
38236
38268
38278
38279
38290
38295
38260
38286
38207
38303
38083
38374
38125
38372
38167
38361
38343
38402
38402
38431
38447
38444
38458
38199
38471
38342
38452
38447
38476
38365
38495
38508
38538
38535
38554
38554
38311
38566
38345
38575
38443
38580
38594
38636
38619
38631
38614
38649
38631
38684
38670
38700
38597
38684
38497
38750
38757
38766
38772
38754
38766
38687
38773
38815
38820
38829
38607
38853
38823
38863
38834
38900
38889
38864
38860
38727
38926
38944
38955
38952
38938
38919
38859
38941
38846
38964
38735
39039
39044
39039
39047
38997
39049
38967
39047
39085
39002
39095
39132
39085
39145
39148
39133
39175
39164
39174
38991
39174
39207
39214
39223
39127
39207
39257
39223
39262
38995
39271
39292
39292
39298
39279
39335
39327
39335
39151
39356
39336
39379
39375
39303
39397
39367
39402
39407
39423
39431
39447
39460
39240
39459
39491
39441
39476
39501
39351
39508
39482
39535
39278
39503
39558
39518
39575
39571
39495
39604
39575
39603
39615
39412
39583
39653
39643
39618
39660
39359
39646
39686
39671
39717
39711
39407
39564
39721
39751
39706
39759
39511
39783
39738
39794
39799
39807
39815
39559
39837
39807
39855
39836
39815
39866
39847
39844
39900
39839
39912
39911
39882
39937
39935
39798
39965
39903
39966
39885
39999
39990
39684
40007
39969
40020
40031
39887
40053
40004
40060
39823
40049
40099
40097
39821
40111
40071
40125
40069
40151
40137
39846
40163
40119
40183
40095
40184
40131
40199
40103
40229
40207
40238
40220
40210
40263
40249
40287
40252
40298
40301
40292
40332
40270
40340
40125
40357
40327
40358
40292
40391
40342
40390
40262
40415
40363
40415
40404
40455
40426
40455
40263
40468
40486
40494
40492
40484
40516
40502
40521
40538
40505
40559
40541
40573
40564
40371
40589
40591
40590
40557
40639
40566
40631
40556
40663
40599
40678
40668
40599
40698
40693
40414
40711
40690
40733
40735
40687
40748
40737
40731
40775
40759
40746
40788
40700
40821
40815
40839
40807
40847
40852
40861
40871
40823
40895
40803
40908
40901
40718
40934
40897
40949
40924
40930
40964
40959
40953
40996
40863
40999
40999
41023
40901
41055
41028
40852
41049
41007
41079
41019
41107
41087
41028
41119
41111
41119
41119
41127
41148
41023
41169
41127
41183
41095
41207
41177
41211
41183
41187
41238
41029
41246
41257
41268
41125
41299
41285
41140
41302
41311
41312
41310
41284
41337
41287
41371
41350
41127
41369
41335
41389
41212
41415
41397
41415
41247
41428
41444
41447
41320
41479
41479
41344
41479
41469
41497
41446
41524
41470
41535
41452
41551
41543
41399
41564
41575
41479
41597
41591
41516
41631
41607
41394
41617
41631
41647
41607
41663
41662
41583
41690
41679
41693
41671
41710
41694
41708
41711
41689
41733
41735
41700
41755
41758
41758
41767
41788
41751
41799
41797
41770
41821
41801
41794
41829
41839
41847
41857
41863
41847
41615
41892
41892
41719
41916
41907
41699
41935
41929
41920
41923
41909
41947
41973
41973
41802
41967
41991
41991
41844
42015
41991
41892
42031
41991
42038
41913
42055
42055
41917
42071
42029
42070
42055
42061
42094
41839
42105
42079
42109
42108
42090
42150
42133
42141
42079
42143
42155
41895
42175
42128
42184
42181
42164
42201
42165
42228
42215
41927
42241
42212
42236
42055
42254
42231
42255
42050
42271
42230
42279
42031
42278
42285
42311
42023
42291
42292
42313
42343
42319
42335
42331
42309
42358
42309
42356
42071
42375
42383
42373
42375
42101
42343
42396
42372
42407
42247
42422
42388
42412
42247
42402
42440
42415
42438
42381
42460
42447
42463
42466
42428
42479
42444
42477
42484
42471
42503
42489
42500
42399
42525
42485
42525
42524
42422
42527
42535
42503
42543
42541
42308
42540
42567
42524
42567
42439
42578
42558
42585
42445
42592
42559
42581
42449
42596
42575
42599
42607
42460
42618
42591
42625
42389
42623
42639
42615
42631
42463
42655
42619
42639
42631
42671
42629
42668
42453
42664
42663
42663
42402
42663
42682
42671
42677
42684
42557
42687
42703
42679
42692
42700
42668
42716
42679
42696
42476
42711
42719
42720
42455
42727
42698
42720
42710
42711
42727
42605
42743
42716
42727
42741
42700
42743
42492
42749
42735
42751
42727
42735
42743
42742
42732
42756
42705
42759
42748
42757
42679
42773
42759
42759
42611
42738
42775
42751
42759
42759
42727
42775
42742
42780
42620
42786
42756
42759
42787
42673
42783
42791
42779
42790
42783
42741
42795
42787
42778
42775
42796
42783
42783
42607
42796
42788
42784
42766
42778
42804
42788
42781
42741
42790
42759
42783
42628
42791
42751
42786
42631
42803
42756
42784
42644
42789
42774
42783
42567
42788
42794
42772
42783
42727
42803
42756
42772
42625
42738
42775
42759
42778
42652
42780
42756
42783
42772
42742
42781
42750
42759
42621
42759
42772
42775
42759
42679
42759
42741
42753
42751
42698
42759
42750
42741
42651
42734
42756
42741
42727
42727
42735
42743
42530
42708
42720
42694
42705
42708
42695
42704
42701
42695
42620
42689
42675
42673
42519
42631
42692
42669
42660
42623
42662
42639
42644
42551
42643
42628
42639
42487
42631
42605
42604
42583
42609
42607
42586
42562
42604
42583
42575
42547
42575
42558
42557
42543
42535
42532
42543
42526
42537
42503
42530
42501
42503
42503
42395
42503
42471
42480
42433
42491
42469
42456
42423
42463
42446
42308
42436
42412
42409
42357
42411
42395
42399
42240
42346
42383
42355
42364
42211
42342
42356
42343
42337
42311
42330
42320
42299
42303
42295
42279
42223
42284
42267
42259
42217
42258
42247
42239
42231
42210
42212
42132
42209
42190
42095
42175
42173
42156
42135
42161
42143
42111
42127
42130
42039
42118
42095
42073
42063
42069
41991
42065
42054
42043
42018
41991
42012
41988
42010
41991
41908
41990
41968
41917
41956
41927
41890
41926
41902
41902
41886
41892
41876
41709
41860
41844
41840
41831
41805
41823
41796
41798
41788
41748
41767
41767
41745
41749
41694
41735
41701
41690
41660
41670
41683
41658
41652
41631
41636
41623
41493
41615
41600
41589
41567
41566
41554
41527
41533
41536
41510
41500
41503
41449
41498
41461
41379
41445
41428
41418
41393
41399
41383
41372
41365
41348
41318
41335
41322
41287
41306
41286
41279
41202
41260
41242
41234
41215
41189
41196
41188
41181
41108
41153
41157
41127
41125
41108
41122
41087
41053
40999
41026
41031
41031
41013
40996
40936
40967
40967
40951
40942
40927
40915
40839
40881
40875
40868
40855
40793
40829
40821
40807
40783
40759
40772
40748
40730
40698
40725
40711
40679
40543
40657
40637
40631
40605
40607
40588
40580
40539
40559
40535
40535
40501
40514
40493
40422
40455
40439
40441
40407
40388
40403
40374
40355
40356
40335
40320
40295
40295
40271
40271
40247
40239
40222
40191
40199
40199
40172
40143
40134
40127
40108
40087
40063
40071
40047
40028
40020
40003
40007
39979
39955
39961
39927
39914
39909
39908
39884
39860
39830
39854
39822
39808
39789
39780
39755
39708
39740
39716
39700
39695
39685
39662
39635
39630
39623
39603
39575
39575
39559
39532
39455
39506
39506
39487
39363
39455
39446
39402
39399
39383
39372
39345
39328
39337
39315
39299
39283
39271
39255
39231
39231
39207
39191
39167
39146
39153
39146
39108
39099
39079
39079
39060
39039
39021
39009
38980
38970
38961
38955
38929
38917
38874
38886
38863
38853
38844
38828
38803
38775
38785
38766
38748
38730
38703
38686
38692
38663
38647
38636
38631
38593
38580
38583
38575
38531
38533
38516
38499
38460
38455
38439
38435
38407
38407
38381
38383
38358
38335
38316
38309
38279
38265
38263
38247
38215
38206
38198
38172
38150
38148
38125
38105
38103
38076
38071
38041
38037
38023
37984
37972
37989
37950
37934
37927
37908
37886
37863
37862
37833
37812
37823
37791
37767
37762
37759
37725
37695
37703
37679
37654
37639
37647
37596
37581
37598
37567
37549
37519
37511
37499
37471
37459
37469
37417
37396
37399
37383
37356
37331
37335
37319
37298
37263
37268
37252
37223
37210
37204
37182
37143
37105
37135
37115
37095
37077
37081
37037
37029
36991
37011
36990
36949
36927
36938
36912
36900
36871
36853
36861
36833
36806
36789
36783
36743
36734
36700
36710
36697
36666
36644
36647
36612
36595
36583
36567
36541
36542
36516
36492
36481
36466
36446
36420
36417
36398
36373
36359
36336
36323
36300
36295
36265
36247
36255
36213
36195
36191
36169
36137
36133
36119
36088
36052
36048
36038
36020
36021
35982
35963
35967
35933
35911
35900
35887
35861
35837
35838
35806
35783
35775
35759
35735
35715
35686
35687
35663
35635
35631
35609
35590
35570
35548
35543
35518
35495
35477
35410
35462
35427
35399
35371
35380
35352
35335
35327
35311
35274
35259
35244
35212
35207
35203
35171
35141
35135
35124
35092
35067
35063
35040
35015
34991
34988
34964
34941
34940
34908
34887
34864
34860
34836
34804
34794
34765
34751
34735
34708
34708
34684
34663
34655
34628
34605
34583
34556
34557
34524
34496
34486
34487
34446
34410
34417
34395
34311
34375
34338
34324
34307
34287
34257
34245
34217
34194
34175
34175
34147
34103
34113
34086
34068
34030
34031
34013
33988
33953
33953
33932
33900
33895
33879
33844
33820
33815
33796
33769
33751
33703
33716
33701
33671
33651
33605
33614
33604
33581
33559
33518
33526
33515
33476
33466
33439
33421
33391
33383
33356
33337
33322
33308
33286
33261
33239
33233
33197
33157
33173
33159
33127
33101
33101
33063
33047
33025
33007
32983
32956
32940
32926
32924
32893
32802
32852
32835
32805
32787
32775
32740
32721
32711
32695
32667
32647
32623
32613
32551
32579
32553
32503
32519
32487
32468
32428
32444
32415
32386
32333
32359
32327
32300
32279
32281
32250
32234
32220
32202
32196
32158
32127
32116
32114
32087
32055
32037
32007
31999
31949
31975
31939
31897
31911
31887
31852
31818
31831
31806
31773
31735
31750
31727
31692
31661
31668
31639
31623
31587
31583
31560
31515
31530
31511
31442
31471
31451
31367
31420
31386
31335
31351
31324
31303
31267
31279
31239
31230
31186
31201
31172
31119
31140
31103
31023
31077
31046
31031
30946
30983
30973
30957
30925
30913
30890
30863
30855
30836
30818
30793
30780
30727
30747
30712
30690
30668
30664
30630
30599
30597
30573
30549
30538
30518
30480
30462
30452
30428
30405
30349
30361
30348
30326
30303
30292
30266
30242
30225
30212
30183
30158
30136
30117
30095
30075
30055
30036
30020
29991
29991
29965
29926
29927
29899
29876
29855
29841
29812
29803
29764
29764
29743
29717
29697
29670
29661
29636
29613
29580
29589
29556
29529
29495
29507
29480
29450
29407
29418
29388
29372
29327
29337
29307
29309
29233
29256
29237
29222
29191
29159
29183
29134
29111
29082
29084
29048
29030
29012
28998
28980
28959
28927
28924
28895
28875
28844
28849
28823
28743
28782
28769
28735
28707
28699
28676
28655
28631
28583
28606
28580
28563
28510
28535
28491
28473
28451
28447
28423
28407
28364
28363
28339
28305
28295
28279
28253
28247
28222
28174
28181
28160
28145
28117
28123
28078
28057
28056
28031
28007
27986
27983
27954
27908
27919
27891
27871
27853
27830
27814
27785
27783
27756
27740
27723
27706
27677
27642
27647
27624
27600
27575
27567
27541
27539
27509
27483
27479
27449
27421
27421
27388
27359
27356
27323
27308
27284
27287
27269
27228
27227
27207
27174
27157
27156
27119
27091
27086
27071
27027
27030
27011
26987
26972
26948
26937
26900
26903
26870
26815
26843
26814
26780
26775
26758
26733
26721
26703
26679
26673
26646
26626
26612
26590
26572
26553
26543
26513
26452
26480
26473
26444
26420
26404
26370
26357
26334
26327
26300
26284
26274
26255
26223
26219
26192
26180
26145
26148
26111
26087
26091
26058
26047
26043
26004
25991
25974
25950
25935
25915
25895
25890
25862
25831
25805
25813
25780
25767
25745
25735
25702
25692
25674
25658
25643
25617
25589
25589
25561
25546
25514
25514
25486
25454
25455
25439
25422
25405
25380
25356
25348
25319
25304
25304
25279
25250
25223
25211
25204
25156
25157
25150
25116
25095
25086
25061
25055
25031
25004
24998
24977
24955
24945
24935
24911
24876
24876
24854
24834
24780
24807
24792
24773
24766
24735
24731
24705
24676
24670
24649
24628
24583
24601
24572
24557
24539
24519
24507
24473
24472
24450
24431
24431
24404
24372
24372
24348
24325
24327
24305
24268
24283
24256
24231
24229
24218
24185
24165
24156
24141
24118
24112
24092
24077
24045
24039
24015
24005
23989
23975
23962
23942
23943
23913
23887
23876
23859
23796
23834
23813
23809
23785
23767
23773
23742
23719
23709
23692
23669
23663
23647
23628
23629
23596
23580
23567
23559
23535
23511
23527
23495
23486
23460
23455
23432
23411
23402
23398
23376
23366
23332
23347
23314
23295
23303
23268
23259
23263
23231
23207
23210
23180
23167
23171
23149
23143
23127
23102
23101
23079
23093
23059
23028
23031
23011
23015
22984
22974
22980
22944
22925
22930
22897
22895
22870
22868
22850
22849
22831
22807
22821
22783
22771
22773
22748
22732
22709
22713
22697
22678
22679
22651
22626
22634
22631
22596
22597
22574
22581
22559
22543
22534
22516
22514
22486
22475
22474
22455
22498
22436
22423
22393
22397
22390
22372
22375
22349
22324
22353
22311
22311
22284
22292
22270
22247
22279
22243
22222
22204
22233
22183
22172
22155
22139
22165
22137
22118
22092
22109
22079
22066
22057
22044
22029
22028
22015
22034
21988
21969
21989
21965
21950
21959
21933
21920
21898
21892
21892
21878
21906
21845
21839
21877
21822
21799
21855
21782
21769
21791
21754
21735
21771
21740
21721
21703
21699
21687
21661
21651
21689
21644
21636
21631
21614
21629
21601
21580
21626
21559
21538
21554
21530
21511
21529
21500
21479
21501
21471
21460
21495
21455
21437
21422
21438
21407
21388
21425
21376
21366
21395
21354
21335
21367
21333
21304
21296
21309
21286
21277
21303
21261
21241
21225
21251
21218
21212
21220
21193
21177
21222
21163
21158
21141
21165
21141
21135
21105
21161
21113
21093
21078
21105
21073
21065
21051
21047
21041
21015
21055
21014
20991
20998
20981
21021
20967
20955
21002
20948
20940
20923
20942
20916
20911
20897
20903
20877
20863
20924
20857
20849
20831
20851
20821
20820
20881
20812
20799
20862
20794
20779
20811
20770
20748
20808
20732
20739
20721
20741
20710
20702
20754
20698
20695
20678
20660
20692
20658
20660
20627
20623
20646
20634
20626
20602
20650
20601
20607
20584
20559
20586
20562
20570
20550
20585
20548
20537
20525
20545
20514
20511
20532
20501
20484
20506
20479
20468
20477
20463
20445
20479
20450
20435
20439
20426
20417
20423
20420
20434
20399
20388
20435
20383
20366
20366
20405
20359
20378
20353
20355
20330
20337
20393
20321
20316
20314
20351
20305
20378
20305
20369
20292
20332
20287
20337
20266
20295
20264
20295
20253
20288
20241
20271
20235
20243
20219
20223
20205
20205
20198
20197
20199
20196
20180
20193
20176
20189
20167
20176
20163
20160
20160
20161
20141
20146
20135
20150
20171
20131
20137
20119
20129
20111
20124
20112
20155
20120
20140
20103
20180
20098
20172
20093
20109
20079
20095
20068
20079
20063
20069
20125
20063
20077
20049
20058
20032
20052
20039
20041
20031
20046
20095
20041
20057
20025
20029
20022
20027
20012
20033
20012
20004
20001
20011
20007
20020
20002
20007
19999
20039
20001
20071
20005
20009
19988
20005
20002
20015
19978
20020
19998
20014
19994
20044
19984
20057
19986
19967
19982
19955
19973
19957
19969
19961
19967
19957
19963
19951
19964
20062
19958
20032
19957
19999
19957
19967
19953
19969
19945
19954
19935
19947
20033
19944
19983
19942
19948
19925
19940
19913
19937
19932
19943
19927
19944
19922
19935
19924
19926
19914
19924
19919
19922
19986
19924
19943
19908
19911
19907
19918
19902
19919
19907
19910
19948
19922
19981
19973
19918
19972
19919
19913
19911
19910
19910
19911
19895
19908
19905
19905
19909
19916
19901
19909
19972
19911
19900
19906
19979
19930
19995
19926
19959
19924
19959
19915
19939
19914
19928
19906
19924
19909
19914
19911
19919
19975
19930
19975
19927
19916
19911
19933
19959
19913
19922
19916
19919
19925
19929
19931
19924
19927
19937
19939
19935
19945
19985
20007
19925
19982
19939
19963
19942
19957
19943
19943
19933
19943
19935
19954
19949
19953
19936
19967
20018
19965
19973
19943
19954
19955
19956
20063
19969
19959
19970
19955
19972
19975
19975
19970
19980
20051
19987
19991
19975
19995
19970
19996
19975
19997
19975
19999
19987
20007
19999
20023
20013
20091
20012
20003
20006
20012
20023
20017
20033
20015
20027
20017
20033
20089
20041
20084
20047
20063
20044
20045
20033
20050
20047
20064
20052
20062
20045
20070
20124
20068
20155
20083
20183
20081
20073
20084
20163
20095
20185
20098
20086
20093
20145
20103
20047
20121
20208
20109
20186
20124
20207
20139
20193
20130
20165
20127
20145
20132
20142
20136
20156
20141
20148
20250
20157
20184
20156
20162
20103
20179
20228
20175
20180
20165
20177
20172
20181
20269
20207
20282
20205
20228
20197
20201
20199
20215
20213
20229
20309
20231
20250
20225
20247
20234
20250
20237
20269
20259
20279
20262
20267
20253
20268
20252
20278
20360
20274
20169
20284
20370
20295
20390
20303
20326
20291
20310
20375
20317
20317
20303
20335
20405
20343
20365
20338
20364
20343
20359
20340
20355
20349
20362
20441
20363
20439
20387
20410
20382
20396
20390
20405
20389
20402
20405
20412
20407
20421
20410
20413
20415
20433
20424
20437
20433
20448
20452
20454
20458
20469
20463
20469
20473
20497
20473
20487
20482
20502
20512
20533
20514
20551
20516
20578
20530
20609
20541
20611
20553
20602
20567
20631
20563
20564
20579
20583
20623
20599
20677
20607
20606
20620
20615
20648
20630
20660
20638
20683
20647
20681
20663
20663
20656
20671
20670
20679
20758
20703
20788
20713
20766
20711
20732
20730
20722
20738
20752
20755
20761
20759
20842
20784
20777
20797
20788
20798
20700
20815
20813
20839
20918
20839
20891
20855
20932
20874
20921
20883
20888
20889
20902
20898
20911
20906
20919
20924
20936
20937
20941
20959
20962
21052
20980
21020
20992
21052
21007
21028
21012
21045
21030
21050
21039
21063
21043
21076
21070
21091
21172
21113
21135
21111
21127
21126
21149
21142
21151
21145
21172
21182
21224
21198
21273
21210
21291
21233
21222
21245
21237
21290
21267
21312
21287
21324
21300
21367
21310
21308
21330
21325
21349
21347
21375
21361
21444
21385
21399
21408
21415
21423
21428
21448
21453
21489
21471
21543
21482
21479
21497
21462
21521
21527
21546
21626
21564
21559
21580
21590
21605
21603
21631
21625
21633
21632
21655
21659
21670
21728
21700
21709
21692
21717
21717
21741
21735
21764
21790
21762
21789
21790
21815
21815
21849
21823
21849
21847
21867
21857
21886
21885
21899
21940
21927
21957
21943
22005
21970
21999
21972
22001
21999
22009
22005
22032
22035
22052
22057
22075
22076
22095
22091
22118
22119
22149
22151
22180
22169
22185
22194
22209
22205
22227
22223
22243
22247
22269
22307
22290
22332
22311
22345
22327
22399
22354
22415
22373
22444
22406
22430
22423
22438
22434
22463
22454
22490
22478
22514
22502
22554
22524
22580
22553
22571
22575
22566
22589
22595
22648
22624
22639
22627
22656
22663
22678
22678
22695
22695
22722
22721
22744
22745
22783
22763
22795
22791
22819
22891
22834
22868
22854
22892
22885
22902
22911
22930
22925
22974
22949
22979
22967
22991
22996
23019
23020
23055
23040
23058
23071
23092
23079
23116
23113
23129
23130
23154
23148
23164
23239
23203
23232
23218
23253
23233
23260
23260
23284
23281
23303
23309
23330
23324
23350
23349
23375
23448
23389
23446
23431
23460
23429
23467
23458
23484
23479
23519
23511
23557
23526
23580
23557
23580
23587
23645
23603
23599
23623
23623
23652
23717
23670
23747
23691
23756
23718
23757
23741
23773
23765
23779
23780
23793
23798
23821
23910
23846
23919
23863
23911
23879
23903
23897
23917
23926
23947
23991
23964
23994
23991
24034
24015
24052
24029
24079
24062
24083
24071
24099
24105
24146
24122
24149
24135
24154
24149
24178
24262
24199
24246
24221
24239
24235
24249
24337
24274
24319
24295
24309
24308
24327
24334
24357
24346
24383
24383
24401
24399
24427
24457
24440
24525
24456
24557
24493
24569
24513
24574
24523
24606
24563
24622
24580
24662
24597
24597
24629
24628
24646
24652
24674
24668
24690
24679
24733
24716
24772
24740
24802
24759
24805
24770
24828
24801
24835
24821
24847
24823
24852
24847
24876
24878
24894
24898
24924
24916
24945
24945
24955
25038
24986
25044
24996
25079
25013
25095
25038
25111
25058
25146
25087
25146
25095
25061
25107
25119
25133
25143
25190
25175
25213
25194
25287
25211
25218
25245
25233
25251
25183
25278
25345
25288
25347
25306
25362
25328
25367
25346
25374
25356
25380
25384
25408
25414
25463
25431
25497
25455
25542
25469
25455
25500
25492
25539
25519
25586
25542
25535
25558
25560
25603
25580
25629
25596
25614
25624
25671
25651
25739
25657
25661
25688
25683
25729
25710
25806
25709
25721
25743
25751
25771
25772
25842
25786
25787
25806
25814
25844
25830
25900
25848
25842
25855
25859
25875
25966
25895
25955
25917
25992
25927
26021
25947
26007
25955
26001
25968
25981
26017
25987
26103
26023
26103
26033
26087
26044
26103
26063
26079
26068
26098
26082
26092
26095
26106
26234
26140
26201
26156
26181
26161
26215
26175
26247
26186
26247
26208
26273
26228
26298
26237
26325
26247
26292
26266
26335
26279
26329
26284
26334
26310
26343
26331
26391
26341
26337
26349
26345
26396
26363
26420
26391
26471
26398
26486
26415
26495
26430
26434
26461
26455
26535
26469
26529
26479
26473
26483
26488
26503
26503
26556
26533
26609
26537
26653
26557
26678
26564
26554
26575
26578
26639
26602
26692
26615
26700
26623
26613
26648
26629
26710
26654
26777
26666
26663
26682
26679
26718
26700
26766
26711
26859
26721
26725
26760
26742
26853
26759
26749
26772
26759
26787
26788
26880
26805
26807
26799
26820
26828
26934
26844
26917
26850
26900
26853
26991
26860
26863
26879
27009
26887
27011
26901
26916
27059
26931
26930
26910
26914
26933
26933
26949
26951
27015
26969
27086
26981
26983
27127
26991
26975
27023
27005
27130
27017
27017
27023
27015
27028
27029
27047
27046
27044
27041
27075
27055
27077
27070
27079
27068
27100
27087
27103
27090
27109
27102
27117
27255
27127
27195
27141
27156
27135
27143
27140
27151
27143
27169
27295
27156
27306
27188
27332
27180
27180
27197
27183
27207
27191
27207
27199
27218
27196
27227
27330
27233
27302
27237
27271
27238
27255
27251
27311
27255
27364
27271
27415
27271
27263
27271
27265
27280
27387
27295
27444
27303
27433
27303
27429
27299
27293
27307
27306
27324
27309
27340
27311
27325
27319
27348
27332
27360
27338
27367
27346
27412
27358
27441
27365
27351
27375
27365
27500
27375
27370
27381
27367
27413
27383
27470
27399
27363
27392
27386
27398
27390
27407
27396
27450
27423
27541
27415
27410
27427
27427
27489
27432
27513
27436
27481
27447
27458
27434
27439
27430
27444
27437
27461
27620
27455
27538
27465
27631
27470
27452
27467
27445
27478
27467
27479
27469
27500
27465
27506
27484
27495
27466
27488
27557
27485
27495
27484
27503
27655
27500
27489
27503
27503
27526
27506
27526
27514
27534
27509
27521
27509
27530
27530
27527
27522
27547
27643
27546
27545
27525
27541
27527
27550
27558
27534
27597
27541
27548
27719
27579
27561
27580
27563
27625
27580
27751
27579
27695
27581
27747
27580
27740
27573
27740
27588
27671
27587
27616
27589
27670
27592
27629
27600
27604
27578
27595
27589
27596
27595
27601
27593
27620
27604
27628
27601
27647
27618
27690
27622
27687
27610
27647
27613
27642
27615
27677
27626
27695
27635
27719
27636
27675
27619
27647
27625
27631
27620
27638
27629
27644
27619
27644
27623
27644
27628
27646
27694
27637
27646
27623
27642
27821
27663
27828
27646
27651
27655
27643
27668
27653
27679
27646
27676
27647
27711
27671
27863
27676
27862
27666
27863
27670
27746
27672
27739
27667
27695
27655
27687
27655
27669
27655
27684
27669
27682
27665
27683
27655
27676
27661
27673
27668
27671
27671
27666
27889
27679
27774
27687
27716
27682
27726
27674
27704
27676
27695
27678
27677
27673
27677
27841
27695
27828
27693
27858
27694
27744
27679
27685
27671
27680
27871
27701
27732
27694
27674
27702
27695
27795
27684
27758
27691
27724
27676
27698
27678
27691
27671
27690
27862
27697
27732
27671
27681
27676
27702
27735
27676
27681
27622
27701
27719
27683
27689
27675
27711
27680
27702
27677
27803
27679
27655
27684
27671
27751
27683
27671
27676
27668
27753
27694
27855
27687
27655
27708
27685
27836
27671
27655
27677
27668
27730
27669
27802
27679
27663
27663
27660
27730
27681
27663
27672
27655
27719
27673
27842
27654
27648
27699
27668
27779
27675
27650
27655
27649
27650
27634
27670
27631
27695
27650
27748
27655
27632
27655
27637
27665
27639
27719
27652
27783
27632
27701
27647
27825
27644
27868
27639
27868
27643
27770
27640
27725
27636
27722
27638
27777
27647
27719
27631
27735
27628
27679
27618
27651
27621
27692
27614
27628
27597
27633
27595
27609
27586
27597
27808
27608
27667
27582
27599
27584
27587
27703
27595
27719
27601
27719
27594
27706
27581
27617
27567
27588
27567
27623
27563
27646
27570
27692
27570
27580
27546
27557
27532
27550
27540
27555
27532
27535
27758
27539
27775
27533
27531
27535
27525
27524
27511
27533
27511
27517
27505
27513
27495
27510
27498
27498
27493
27520
27501
27552
27492
27571
27507
27607
27499
27645
27498
27700
27495
27695
27488
27720
27473
27655
27477
27702
27464
27639
27471
27711
27447
27435
27450
27695
27447
27583
27449
27446
27427
27431
27395
27422
27580
27418
27588
27416
27556
27418
27466
27404
27458
27393
27466
27391
27435
27367
27399
27367
27374
27361
27380
27356
27374
27343
27375
27347
27503
27356
27557
27354
27584
27327
27319
27324
27308
27317
27302
27316
27310
27303
27287
27314
27297
27377
27291
27295
27279
27526
27292
27263
27271
27502
27271
27248
27261
27237
27259
27238
27268
27242
27323
27236
27255
27220
27223
27200
27215
27200
27215
27444
27199
27191
27195
27173
27180
27421
27191
27253
27164
27177
27154
27158
27135
27143
27137
27127
27363
27143
27186
27130
27233
27121
27327
27113
27228
27108
27253
27076
27281
27069
27130
27070
27098
27043
27051
27039
27045
27012
27028
26998
27026
26996
27098
26996
27190
26975
26961
26963
26951
26976
26951
26998
26933
26965
26935
26988
26913
26911
26884
26881
27132
26871
26853
26856
27063
26876
26887
26841
26837
26815
26822
26801
26792
26790
26799
27020
26790
26868
26779
26847
26766
26790
26756
26797
26732
26775
26718
26748
26695
26725
26688
26689
26660
26667
26650
26664
26843
26623
26610
26629
26620
26702
26610
26737
26584
26572
26567
26556
26553
26543
26561
26531
26548
26503
26556
26503
26575
26503
26462
26479
26474
26599
26442
26435
26559
26431
26409
26459
26407
26593
26379
26367
26369
26350
26399
26358
26453
26339
26302
26311
26289
26303
26273
26285
26258
26292
26257
26305
26250
26396
26219
26199
26206
26189
26182
26166
26171
26158
26148
26129
26134
26110
26103
26286
26103
26220
26087
26119
26071
26118
26043
26044
26023
26010
25998
25999
25975
25983
26119
25975
26068
25947
25979
25930
25951
25908
25975
25887
25950
25882
25943
25857
25975
25839
25921
25827
25937
25808
25910
25779
25753
25759
25734
25735
25893
25723
25834
25705
25759
25669
25671
25655
25662
25633
25624
25612
25614
25580
25593
25565
25575
25557
25546
25660
25532
25547
25521
25551
25492
25507
25463
25466
25459
25453
25429
25446
25415
25454
25414
25382
25499
25368
25375
25329
25433
25336
25308
25313
25296
25298
25278
25293
25253
25254
25223
25230
25216
25217
25190
25196
25167
25167
25254
25152
25158
25119
25120
25108
25088
25199
25084
25150
25066
25161
25046
25127
25028
25076
25002
25039
24985
25076
24963
25044
24945
24991
24927
24928
24900
24903
24880
24883
24855
24864
24826
24821
24806
24810
24791
24788
24773
24776
24806
24743
24746
24711
24718
24705
24700
24671
24684
24668
24668
24642
24630
24615
24615
24599
24604
24570
24571
24620
24553
24628
24524
24510
24514
24485
24489
24467
24462
24453
24456
24441
24511
24416
24397
24398
24372
24370
24357
24356
24326
24338
24319
24352
24303
24251
24281
24263
24263
24231
24242
24221
24226
24210
24237
24187
24221
24166
24138
24138
24130
24125
24108
24117
24087
24116
24071
24071
24048
24047
24027
24027
24011
24006
23983
23992
23967
23964
23939
23940
23918
23927
23972
23894
23896
23870
23869
23863
23851
23836
23829
23888
23812
23836
23790
23818
23764
23758
23748
23734
23723
23717
23702
23687
23677
23685
23659
23661
23628
23639
23622
23622
23595
23613
23588
23630
23559
23613
23559
23607
23519
23496
23506
23479
23492
23458
23499
23450
23498
23444
23423
23398
23415
23394
23379
23367
23345
23351
23331
23341
23313
23311
23284
23292
23270
23267
23252
23243
23230
23236
23210
23217
23196
23191
23166
23174
23151
23156
23129
23132
23185
23105
23157
23092
23157
23071
23127
23054
23103
23031
23015
23002
22984
22997
22970
22974
22947
22956
22941
22965
22919
22948
22903
22887
22873
22859
22861
22847
22839
22830
22842
22807
22821
22791
22815
22767
22741
22751
22726
22721
22706
22707
22685
22685
22655
22676
22637
22647
22630
22627
22602
22609
22596
22610
22569
22590
22562
22610
22533
22517
22515
22488
22501
22478
22535
22465
22439
22458
22428
22460
22414
22404
22387
22365
22375
22389
22361
22348
22319
22322
22299
22316
22290
22310
22270
22255
22271
22240
22250
22219
22246
22193
22216
22181
22198
22157
22206
22137
22113
22116
22099
22123
22084
22069
22059
22047
22087
22029
22012
22013
21980
21989
21968
21981
21950
21950
21929
21927
21975
21910
21949
21884
21908
21868
21905
21840
21881
21831
21803
21799
21772
21788
21773
21772
21746
21794
21727
21788
21704
21690
21689
21676
21663
21647
21639
21621
21623
21597
21604
21645
21592
21608
21557
21575
21543
21547
21517
21518
21492
21484
21467
21468
21489
21449
21425
21425
21390
21407
21379
21374
21393
21357
21381
21343
21335
21307
21311
21281
21298
21266
21266
21289
21237
21245
21204
21209
21227
21188
21195
21159
21166
21140
21130
21166
21119
21103
21085
21082
21063
21070
21102
21044
21058
21015
21007
20986
20994
20966
20959
20943
20942
20922
20922
20903
20905
20887
20877
20859
20857
20836
20834
20815
20818
20799
20795
20774
20775
20751
20740
20730
20720
20704
20706
20728
20682
20690
20663
20661
20651
20644
20619
20609
20591
20584
20569
20574
20556
20557
20531
20519
20503
20496
20485
20477
20453
20466
20431
20445
20412
20415
20393
20397
20415
20374
20369
20349
20357
20321
20319
20302
20310
20288
20332
20263
20243
20239
20214
20225
20188
20185
20173
20167
20087
20152
20196
20130
20105
20111
20092
20077
20057
20070
20039
20030
20021
20023
19985
19996
19969
19972
19953
19953
19947
19964
19913
19969
19904
19870
19865
19855
19878
19845
19894
19815
19846
19795
19807
19770
19787
19751
19761
19724
19757
19699
19735
19670
19657
19657
19634
19633
19609
19611
19583
19583
19564
19563
19535
19536
19494
19510
19500
19481
19462
19468
19447
19439
19423
19417
19446
19397
19420
19377
19423
19351
19399
19327
19353
19301
19295
19260
19257
19319
19243
19267
19212
19220
19193
19181
19158
19148
19144
19134
19108
19110
19089
19093
19063
19063
19041
19033
19017
19017
19041
18987
18995
18960
18959
18932
18941
18962
18915
18901
18879
18868
18852
18857
18829
18831
18866
18810
18804
18785
18775
18744
18747
18759
18716
18757
18703
18692
18671
18730
18639
18631
18703
18607
18596
18609
18570
18553
18570
18535
18514
18524
18498
18481
18473
18456
18468
18436
18439
18410
18407
18383
18411
18370
18335
18343
18313
18310
18293
18293
18263
18267
18250
18267
18239
18201
18204
18178
18173
18155
18159
18134
18125
18117
18109
18081
18079
18055
18058
18101
18039
18053
18009
18003
17975
17974
17953
17942
17965
17936
17943
17901
17902
17875
17861
17845
17840
17815
17829
17810
17790
17767
17777
17749
17745
17727
17727
17711
17708
17682
17678
17669
17658
17640
17635
17613
17619
17588
17584
17622
17570
17631
17553
17577
17521
17549
17500
17558
17476
17457
17455
17439
17430
17510
17421
17437
17391
17385
17356
17352
17343
17351
17328
17356
17303
17318
17280
17294
17260
17254
17239
17235
17212
17204
17189
17186
17162
17165
17137
17132
17115
17116
17113
17102
17084
17067
17059
17059
17109
17044
17055
17011
16999
16989
16986
17049
16974
17038
16945
16934
16927
16905
16903
16880
16881
16967
16869
16849
16845
16930
16827
16918
16821
16874
16801
16764
16773
16751
16755
16731
16726
16711
16709
16701
16694
16692
16711
16673
16746
16641
16742
16633
16601
16615
16623
16583
16581
16559
16563
16542
16543
16630
16527
16597
16515
16589
16493
16544
16479
16519
16448
16440
16532
16423
16421
16397
16477
16386
16373
16372
16354
16388
16359
16453
16326
16317
16335
16311
16377
16282
16275
16262
16253
16254
16232
16233
16214
16223
16201
16208
16307
16196
16277
16174
16195
16146
16136
16121
16134
16204
16111
16191
16099
16189
16080
16055
16063
16159
16063
16121
16029
16053
16017
16006
15993
15996
15967
15968
15961
15953
16063
15955
15986
15935
15950
15913
15918
15886
15884
15876
15885
15920
15855
15845
15826
15846
15927
15831
15905
15810
15855
15781
15784
15769
15780
15754
15765
15858
15735
15735
15732
15702
15719
15702
15705
15686
15694
15678
15678
15591
15663
15693
15653
15656
15629
15637
15612
15613
15602
15607
15591
15588
15569
15580
15690
15581
15649
15559
15589
15533
15528
15524
15519
15512
15514
15618
15518
15606
15499
15527
15482
15495
15465
15463
15566
15463
15506
15442
15448
15434
15441
15541
15425
15463
15408
15414
15399
15415
15453
15405
15418
15390
15388
15387
15367
15364
15373
15356
15375
15364
15380
15356
15372
15348
15391
15337
15332
15327
15341
15323
15334
15303
15403
15322
15308
15324
15303
15433
15306
15326
15300
15348
15303
15277
15302
15291
15346
15292
15415
15281
15271
15281
15264
15271
15269
15269
15258
15282
15357
15276
15285
15255
15266
15254
15265
15318
15257
15265
15231
15271
15279
15262
15259
15251
15252
15241
15257
15245
15262
15319
15255
15279
15255
15266
15257
15258
15254
15266
15255
15271
15261
15309
15278
15317
15271
15333
15274
15334
15277
15354
15276
15375
15276
15398
15276
15289
15275
15289
15273
15270
15270
15279
15268
15293
15399
15286
15396
15290
15305
15282
15285
15283
15294
15284
15300
15287
15313
15418
15318
15375
15318
15378
15321
15355
15319
15356
15327
15340
15315
15313
15311
15338
15326
15334
15335
15337
15335
15349
15340
15345
15337
15350
15344
15359
15354
15363
15359
15371
15363
15391
15477
15396
15413
15393
15415
15398
15401
15403
15438
15410
15469
15418
15407
15422
15420
15430
15417
15445
15429
15443
15565
15460
15492
15447
15462
15450
15458
15464
15465
15466
15485
15615
15484
15597
15500
15563
15505
15516
15505
15511
15511
15521
15516
15524
15674
15543
15549
15537
15545
15537
15557
15587
15568
15568
15556
15573
15569
15574
15577
15600
15619
15590
15600
15586
15615
15653
15615
15615
15626
15623
15626
15639
15745
15653
15647
15653
15662
15654
15665
15661
15682
15675
15698
15725
15687
15703
15691
15709
15716
15717
15714
15726
15817
15741
15751
15723
15743
15744
15766
15847
15774
15815
15782
15808
15787
15782
15789
15793
15800
15811
15797
15828
15951
15836
15829
15824
15846
15974
15868
15889
15853
15903
15917
15946
16007
15873
15885
15887
15902
15925
15907
15910
15911
15915
15923
15931
15941
15956
15962
15990
16089
15955
15957
15965
15994
15983
15991
16080
15990
16002
16039
16007
16019
16106
16028
16023
16039
16036
16052
16047
16058
16210
16072
16211
16084
16091
16079
16089
16198
16096
16110
16262
16130
16119
16118
16150
16155
16148
16167
16184
16152
16172
16166
16327
16290
16305
16286
16332
16203
16209
16214
16230
16245
16241
16230
16259
16260
16256
16258
16278
16263
16285
16416
16307
16363
16311
16348
16318
16325
16304
16338
16364
16331
16352
16340
16351
16371
16454
16377
16368
16385
16373
16390
16391
16430
16420
16536
16439
16468
16445
16465
16447
16448
16453
16463
16618
16484
16482
16493
16486
16495
16660
16521
16634
16540
16535
16518
16539
16543
16550
16551
16567
16564
16583
16568
16619
16606
16664
16611
16620
16609
16631
16625
16645
16640
16655
16655
16687
16727
16679
16681
16613
16710
16828
16719
16739
16740
16749
16743
16761
16743
16758
16767
16767
16760
16794
16892
16814
16815
16799
16820
16899
16836
16851
16845
16852
16858
16875
16922
16875
16885
16899
16911
16908
16923
17041
16953
16984
16951
16956
16965
16985
17067
16996
17001
16999
17029
17102
17041
17055
17050
17041
17052
17070
17228
17085
17099
17093
17120
17245
17137
17175
17143
17150
17150
17172
17270
17183
17191
17197
17220
17288
17237
17252
17232
17252
17347
17275
17273
17280
17301
17389
17318
17348
17317
17335
17319
17343
17450
17358
17375
17369
17389
17394
17413
17399
17424
17542
17444
17482
17460
17460
17462
17484
17606
17492
17577
17520
17553
17522
17533
17538
17545
17556
17581
17600
17593
17589
17603
17624
17745
17633
17638
17738
17655
17727
17672
17702
17685
17719
17711
17716
17710
17727
17735
17743
17757
17769
17772
17794
17909
17807
17826
17815
17828
17833
17847
17854
17879
17940
17900
17905
17903
17923
18028
17936
17963
17955
17972
17970
17991
18042
18010
18012
18015
18040
18076
18042
18057
18110
18077
18092
18233
18119
18190
18138
18182
18164
18204
18178
18263
18191
18191
18215
18221
18237
18350
18253
18375
18282
18278
18298
18299
18318
18311
18340
18449
18365
18423
18391
18447
18408
18474
18429
18511
18446
18468
18463
18475
18495
18502
18502
18514
18522
18545
18543
18571
18712
18586
18613
18609
18621
18625
18651
18642
18663
18804
18690
18746
18707
18785
18745
18757
18746
18766
18767
18783
18797
18815
18943
18846
18897
18868
18879
18871
18894
18888
18925
18989
18940
19009
18971
19091
18980
19094
19017
19125
19029
19127
19061
19135
19083
19123
19107
19204
19129
19245
19153
19196
19172
19211
19191
19213
19222
19263
19248
19330
19273
19350
19292
19430
19316
19361
19341
19358
19359
19385
19376
19435
19412
19482
19435
19468
19460
19487
19487
19493
19509
19565
19543
19657
19551
19546
19576
19574
19603
19607
19649
19630
19680
19668
19745
19680
19791
19703
19695
19735
19732
19765
19761
19777
19777
19794
19799
19821
19817
19839
19841
19870
19860
19886
19890
19911
19911
19926
19941
19943
19962
19975
19994
19994
20004
20022
20014
20043
20044
20070
20071
20082
20095
20116
20127
20162
20150
20191
20186
20270
20199
20191
20217
20306
20248
20280
20257
20275
20268
20298
20287
20316
20325
20335
20435
20366
20380
20374
20389
20392
20422
20426
20439
20436
20454
20461
20474
20608
20507
20586
20535
20584
20552
20561
20551
20580
20583
20601
20672
20637
20658
20644
20655
20655
20682
20678
20708
20778
20731
20727
20740
20752
20881
20782
20794
20792
20815
20818
20839
20830
20854
20855
20874
20878
20897
20902
20919
20914
20931
21046
20963
21011
20991
20990
20997
21011
21145
21055
21070
21052
21067
21194
21086
21101
21106
21122
21248
21162
21196
21169
21215
21193
21229
21197
21220
21228
21240
21239
21258
21260
21291
21353
21311
21393
21332
21394
21356
21421
21375
21415
21391
21414
21398
21412
21558
21445
21489
21458
21473
21621
21494
21516
21509
21511
21511
21543
21614
21566
21572
21574
21601
21633
21613
21620
21619
21654
21766
21674
21753
21692
21737
21702
21715
21726
21734
21740
21771
21773
21788
21796
21873
21823
21913
21846
21908
21862
21879
21863
21885
21893
21908
21903
21934
21929
21948
21949
21978
21969
22033
21998
22038
22023
22042
22033
22049
22045
22062
22074
22084
22177
22106
22126
22115
22133
22282
22161
22214
22170
22225
22190
22223
22214
22223
22231
22247
22359
22271
22293
22284
22342
22314
22365
22327
22370
22338
22359
22342
22374
22369
22393
22438
22410
22416
22410
22444
22511
22460
22472
22468
22472
22474
22517
22658
22535
22631
22534
22564
22551
22568
22575
22603
22591
22605
22609
22628
22796
22656
22742
22674
22716
22679
22692
22685
22716
22736
22726
22743
22737
22756
22754
22776
22780
22804
22794
22813
22808
22823
22826
22851
22847
22869
22860
22899
22896
22930
22905
22923
23023
22948
22988
22947
22970
22965
22979
22991
22994
22993
23015
23175
23046
23132
23067
23094
23058
23075
23074
23097
23239
23119
23164
23125
23139
23127
23162
23155
23175
23172
23207
23378
23204
23213
23227
23372
23232
23246
23249
23276
23308
23271
23285
23372
23309
23310
23497
23350
23367
23340
23364
23350
23364
23373
23387
23559
23414
23515
23415
23452
23433
23439
23438
23474
23549
23484
23527
23495
23532
23515
23527
23529
23556
23543
23614
23559
23583
23559
23578
23571
23586
23582
23601
23603
23612
23604
23644
23703
23660
23719
23674
23775
23693
23808
23695
23844
23709
23847
23733
23818
23748
23831
23761
23866
23771
23951
23780
23932
23792
23982
23828
23799
23824
23809
23833
23845
23855
24031
23881
23954
23891
23989
23903
23886
23907
23900
23914
24095
23948
24034
23949
23950
23941
23958
23953
23975
23982
23991
23980
23999
24180
24031
24198
24030
24188
24043
24034
24121
24059
24078
24132
24079
24103
24076
24113
24103
24113
24117
24124
24118
24133
24129
24140
24315
24164
24202
24162
24180
24174
24180
24364
24199
24253
24205
24218
24219
24239
24228
24255
24249
24294
24259
24300
24267
24309
24280
24301
24281
24319
24289
24351
24309
24385
24319
24364
24347
24471
24351
24466
24356
24375
24359
24382
24356
24380
24374
24391
24375
24399
24388
24425
24423
24487
24415
24494
24447
24519
24447
24536
24460
24561
24466
24455
24463
24474
24481
24478
24489
24638
24511
24677
24515
24505
24505
24678
24531
24566
24534
24555
24544
24557
24551
24561
24723
24578
24633
24582
24613
24583
24600
24583
24583
24742
24627
24719
24623
24638
24618
24633
24623
24636
24635
24651
24639
24657
24647
24679
24668
24705
24693
24749
24686
24725
24701
24860
24707
24820
24719
24767
24719
24731
24717
24725
24925
24745
24821
24751
24773
24749
24758
24925
24786
24898
24783
24879
24806
24922
24802
24807
24791
24797
24794
24812
24797
24821
24981
24834
24935
24845
24954
24849
24885
24839
24857
24847
24858
24847
24845
25039
24859
25047
24875
24909
24877
24879
24871
24880
24872
24905
24957
24900
24934
24900
24918
24887
24911
24895
24908
24903
24912
24907
24921
24916
24926
24923
24933
24911
24931
25115
24948
25007
24942
24939
24942
24967
25092
24967
24998
24951
24967
25138
24975
25050
24973
24997
24966
24996
24970
24982
25183
24994
25159
24996
25003
24995
24998
24985
25013
25076
24997
25012
25005
25014
25210
25031
25069
25023
25051
25023
25029
25017
25030
25012
25044
25132
25047
25113
25042
25060
25045
25045
25261
25061
25117
25057
25223
25068
25194
25068
25170
25073
25126
25067
25091
25068
25073
25079
25078
25085
25103
25164
25234
25065
25073
25093
25095
25095
25086
25135
25196
25274
25183
25092
25143
25105
25113
25089
25102
25088
25105
25311
25116
25174
25114
25100
25119
25324
25135
25311
25124
25245
25129
25149
25112
25124
25108
25125
25325
25140
25174
25127
25131
25114
25135
25117
25134
25121
25127
25319
25130
25253
25129
25142
25126
25138
25121
25133
25288
25130
25159
25135
25134
25334
25143
25254
25152
25166
25135
25143
25149
25135
25147
25127
25143
25125
25135
25127
25144
25357
25152
25348
25162
25359
25143
25119
25135
25146
25149
25149
25239
25158
25295
25159
25339
25148
25118
25159
25351
25140
25121
25141
25127
25143
25125
25140
25131
25135
25119
25143
25127
25156
25129
25149
25131
25150
25117
25142
25124
25136
25119
25143
25124
25135
25110
25135
25116
25148
25127
25234
25124
25226
25121
25239
25111
25133
25094
25119
25095
25102
25086
25109
25076
25093
25079
25095
25079
25084
25080
25071
25071
25090
25052
25087
25050
25067
25058
25073
25055
25071
25133
25071
25108
25055
25062
25044
25047
25037
25041
25034
25036
24949
25045
25123
25033
25138
25026
25210
25014
25001
25021
24998
25006
25003
25036
24996
25036
24993
25095
24999
25150
24972
24958
24975
24980
25095
24967
24951
24990
24970
25135
24944
24939
24946
24947
24984
24942
24919
24921
24919
24980
24930
24994
24919
24900
24901
24878
24899
24886
24895
24890
24924
24879
24974
24889
25024
24866
24985
24866
24913
24859
24891
24852
24888
24834
24836
24809
24819
24808
24822
24797
24809
24799
24799
24783
24798
24775
24782
24935
24788
24871
24778
24940
24768
24937
24762
24839
24759
24780
24746
24742
24719
24727
24711
24711
24710
24783
24727
24856
24700
24686
24683
24661
24685
24677
24775
24684
24647
24660
24645
24719
24662
24821
24642
24783
24629
24613
24622
24611
24618
24692
24604
24616
24588
24596
24570
24579
24559
24565
24559
24557
24702
24559
24540
24540
24527
24532
24516
24518
24503
24513
24493
24505
24487
24494
24479
24483
24467
24481
24455
24462
24461
24450
24436
24449
24422
24439
24418
24423
24412
24415
24405
24412
24382
24399
24386
24379
24369
24382
24516
24372
24367
24340
24359
24448
24335
24343
24309
24322
24350
24309
24304
24286
24294
24327
24271
24279
24263
24279
24245
24276
24251
24247
24229
24234
24220
24217
24207
24216
24205
24198
24183
24188
24309
24179
24194
24166
24180
24157
24153
24240
24153
24175
24124
24129
24247
24127
24124
24107
24105
24187
24102
24191
24077
24123
24071
24147
24063
24071
24039
24049
24029
24025
24103
24020
24041
24007
24020
23983
23996
23984
24018
23974
23989
23961
23963
23955
23949
24024
23955
23975
23928
23934
23931
23943
23912
23910
23897
23907
23889
23899
23879
23883
23862
23869
23862
23865
23851
23861
23834
23859
23841
23855
23825
23827
23819
23833
23804
23828
23795
23807
23783
23790
23767
23775
23759
23775
23759
23756
23746
23744
23737
23764
23735
23775
23735
23744
23713
23742
23711
23709
23692
23685
23682
23692
23678
23678
23661
23666
23663
23677
23652
23687
23639
23674
23645
23713
23620
23698
23634
23701
23613
23657
23605
23639
23604
23583
23586
23575
23597
23559
23606
23567
23603
23555
23594
23552
23645
23543
23535
23516
23513
23529
23513
23525
23508
23538
23516
23569
23505
23567
23494
23552
23487
23527
23480
23511
23471
23549
23466
23519
23457
23511
23445
23519
23444
23420
23432
23428
23419
23489
23413
23444
23406
23411
23396
23411
23380
23403
23388
23391
23381
23398
23377
23380
23367
23423
23364
23343
23369
23356
23398
23342
23371
23337
23371
23332
23394
23321
23309
23329
23314
23357
23307
23292
23309
23279
23295
23283
23300
23291
23277
23272
23281
23271
23279
23263
23265
23250
23260
23249
23263
23242
23258
23252
23267
23244
23256
23228
23251
23230
23240
23220
23271
23223
23261
23209
23193
23210
23197
23206
23189
23194
23185
23203
23178
23183
23177
23183
23161
23179
23160
23175
23170
23196
23158
23203
23159
23188
23151
23175
23156
23185
23135
23183
23135
23191
23142
23183
23132
23175
23122
23150
23114
23133
23103
23126
23095
23105
23092
23107
23143
23105
23132
23091
23100
23079
23082
22954
23076
23118
23068
23076
23118
23071
23084
23052
23061
23047
23057
23069
23045
23053
23052
23087
23039
23063
23033
23044
23032
23045
23024
23053
23013
23047
23020
23022
23002
23010
23004
23009
23002
23011
22992
23013
22991
23026
22980
23033
22987
22910
22973
22956
22967
22952
22965
22948
22960
22956
22949
22926
22946
22944
22919
22955
22933
22916
22927
22929
22924
22925
22916
22895
22943
22911
22903
22885
22909
22890
22879
22909
22892
22887
22861
22873
22869
22852
22900
22873
22865
22855
22863
22855
22843
22852
22844
22836
22854
22842
22823
22844
22831
22821
22834
22819
22811
22818
22815
22844
22813
22806
22829
22807
22788
22830
22784
22785
22801
22780
22762
22788
22767
22748
22758
22749
22725
22727
22715
22756
22688
22691
22680
22695
22662
22646
22651
22612
22598
22609
22581
22566
22562
22542
22558
22519
22491
22513
22457
22429
22439
22420
22394
22388
22363
22383
22325
22293
22322
22268
22230
22246
22206
22170
22206
22135
22123
22147
22081
22051
22059
22012
21983
21969
21942
21911
21903
21875
21843
21853
21799
21775
21784
21727
21693
21687
21645
21612
21628
21583
21543
21529
21490
21460
21452
21415
21387
21351
21335
21303
21315
21255
21221
21218
21179
21119
21126
21092
21051
21042
21007
20969
21002
20908
20879
20909
20826
20802
20758
20762
20704
20669
20684
20631
20582
20559
20527
20571
20476
20437
20460
20384
20351
20327
20298
20262
20241
20204
20220
20151
20103
20079
20038
20023
19995
19999
19930
19895
19867
19831
19892
19771
19722
19723
19682
19743
19614
19571
19561
19518
19522
19459
19506
19391
19347
19368
19303
19257
19233
19179
19226
19121
19100
19053
19046
19079
18942
18929
18901
18867
18913
18789
18763
18735
18702
18699
18723
18590
18577
18530
18503
18477
18509
18387
18357
18327
18295
18361
18215
18191
18153
18139
18188
18039
18012
17994
17948
17914
17953
17939
17797
17770
17740
17719
17671
17630
17588
17579
17633
17490
17467
17438
17399
17357
17346
17337
17377
17209
17197
17149
17117
17147
17043
17012
16975
16950
17012
16873
16849
16810
16775
16748
16754
16654
16627
16599
16571
16531
16503
16575
16421
16391
16351
16325
16294
16263
16310
16180
16153
16127
16073
16071
16151
15974
15949
15906
15875
15870
15788
15770
15748
15707
15697
15620
15604
15561
15669
15487
15465
15425
15443
15339
15310
15286
15252
15211
15252
15140
15108
15079
15032
15133
14956
14949
14894
14875
14821
14788
14759
14719
14793
14647
14624
14583
14709
14500
14483
14428
14416
14354
14312
14292
14247
14405
14178
14155
14113
14073
14161
13988
13957
13944
13882
13844
13908
13759
13737
13717
13663
13662
13582
13558
13518
13477
13550
13389
13380
13324
13324
13236
13203
13187
13135
13101
13143
13015
12980
12953
12923
12869
12836
12855
12749
12711
12687
12663
12607
12556
12560
12732
12445
12422
12379
12330
12338
12512
12215
12185
12162
12108
12291
12028
12013
11949
11988
11878
11872
11806
12038
11740
11701
11746
11617
11610
11541
11734
11463
11458
11398
11460
11314
11303
11246
11279
11167
11141
11101
11338
11041
10995
10982
10907
10897
10851
11039
10790
10734
10762
10686
10617
10586
10564
10801
10501
10443
10409
10401
10634
10315
10276
10244
10197
10180
10155
10235
10071
10028
9993
9972
10069
9902
9861
9835
9795
9754
9751
9693
9659
9642
9841
9566
9526
9501
9488
9422
9386
9385
9329
9285
9282
9577
9191
9167
9296
9111
9067
9049
9034
8973
8931
8940
8893
8851
8856
8791
8766
8769
8696
8708
8665
8615
8575
8563
8836
8495
8468
8752
8388
8389
8469
8320
8304
8260
8240
8223
8169
8204
8155
8094
8142
8060
8019
8144
7973
7944
7996
7896
7867
8003
7803
7814
7765
7730
7725
7690
7654
7679
7617
7573
7600
7542
7511
7508
7647
7462
7432
7509
7392
7367
7536
7327
7306
7428
7273
7241
7255
7227
7179
7163
7168
7114
7250
7089
7074
7244
7037
7011
6979
6978
7101
6973
6927
6908
6890
6916
6870
6831
6841
6821
7195
6789
6783
7080
6732
6746
6700
6689
6708
6661
6687
6639
6628
6606
6632
6585
6571
6583
6543
6556
6548
6507
6507
6521
6487
6460
6495
6864
6456
6423
6409
6439
6407
6372
6397
6383
6360
6377
6347
6327
6347
6321
6310
6341
6301
6286
6315
6278
6257
6274
6439
6259
6276
6248
6238
6260
6217
6513
6223
6244
6207
6196
6241
6197
6239
6189
6198
6477
6167
6187
6175
6159
6197
6166
6153
6169
6410
6153
6139
6148
6182
6138
6125
6143
6328
6135
6130
6198
6137
6123
6213
6123
6116
6129
6148
6112
6098
6137
6101
6106
6189
6087
6103
6135
6100
6096
6121
6097
6122
6506
6092
6084
6303
6076
6123
6085
6143
6086
6108
6085
6073
6095
6074
6050
6085
6431
6056
6080
6061
6049
6088
6057
6047
6083
6054
6484
6056
6084
6048
6081
6079
6044
6049
6054
6455
6032
6043
6039
6030
6051
6023
6021
6037
6019
6013
6044
6014
6029
6013
6010
6319
6003
6023
5996
5998
6013
5974
5987
5995
5965
6058
5973
5979
5952
6046
5954
5947
6000
5949
5928
6057
5922
5911
6065
5910
5902
6183
5884
5883
6222
5862
5861
6037
5856
5830
5855
5852
5808
5805
5807
5818
5795
5775
5754
5768
5764
5735
6124
5756
5709
5733
5691
5886
5676
5687
5654
5748
5645
5628
6006
5601
5615
5572
5566
5580
5544
5539
5569
5522
5497
5527
5486
5466
5496
5460
5440
5475
5428
5437
5418
5406
5790
5371
5375
5612
5356
5335
5588
5340
5319
5304
5294
5302
5306
5263
5273
5261
5235
5409
5237
5217
5379
5189
5200
5172
5410
5144
5173
5147
5133
5138
5132
5107
5144
5104
5141
5097
5086
5111
5111
5058
5051
5055
5252
5046
5029
5217
5028
5028
5313
5001
5036
4997
4980
5014
4981
4965
5003
4970
5016
4996
4964
4983
4962
4946
5147
4932
4978
4940
5000
4946
4926
5208
4916
4937
4936
4926
4934
4932
4921
5295
4914
4916
5012
4925
4907
5028
4930
4918
5246
4908
4920
4916
4906
4926
4926
4906
5308
4910
4955
4924
5015
4952
4921
4929
4929
4938
4963
5039
4954
4953
4953
4958
4957
4966
4965
4954
4973
4965
4983
4990
4987
4978
4982
4989
4998
5005
5001
5021
5447
5027
5021
5039
5042
5041
5042
5043
5054
5075
5263
5103
5473
5108
5336
5112
5452
5130
5533
5164
5251
5169
5194
5157
5169
5170
5181
5182
5231
5325
5215
5205
5231
5225
5247
5245
5270
5263
5277
5284
5288
5316
5573
5348
5482
5364
5459
5387
5499
5409
5463
5406
5461
5439
5429
5433
5445
5457
5473
5482
5506
5910
5541
5712
5558
5590
5585
5910
5586
5587
5613
5613
5626
5640
5655
5662
5685
5988
5715
5701
5718
5745
5753
5781
5780
5786
5811
5832
6060
5884
5971
5895
5874
5908
5924
6340
5972
5954
5972
6000
6244
6021
6025
6047
6072
6378
6116
6108
6129
6129
6161
6168
6195
6215
6396
6258
6233
6265
6292
6294
6334
6632
6376
6403
6392
6396
6423
6439
6455
6479
6827
6530
6520
6548
6559
6579
6602
6612
6630
6646
6683
6809
6740
6815
6759
6770
6795
6802
6826
6851
6959
6899
7114
6949
7093
6987
7185
7014
7003
7042
7069
7078
7093
7114
7145
7415
7198
7212
7223
7234
7257
7273
7308
7330
7350
7381
7383
7433
7672
7477
7489
7505
7512
7542
7584
7688
7612
7621
7647
7672
7697
7726
7738
7786
7986
7833
7882
7858
7880
7896
7936
7945
7982
8342
8046
8353
8097
8429
8145
8246
8184
8180
8214
8240
8263
8383
8321
8401
8369
8381
8401
8775
8441
8484
8491
8825
8538
8602
8591
8738
8638
8677
8693
8715
8768
8769
8783
8842
8849
8875
8911
8917
8941
9001
8990
9087
9044
9082
9101
9142
9156
9186
9193
9222
9273
9282
9284
9351
9645
9377
9421
9430
9456
9521
9509
9582
9585
9586
9646
9672
9671
9861
9729
9794
9779
9817
9857
9863
9898
9932
9941
9975
10005
10060
10065
10085
10279
10145
10145
10225
10214
10252
10578
10302
10357
10352
10441
10417
10440
10600
10499
10532
10703
10585
10607
10652
10690
10684
10725
10767
10765
10795
10853
10861
10887
10929
10935
11099
11002
11045
11057
11083
11134
11141
11249
11211
11227
11503
11286
11323
11335
11367
11415
11701
11471
11499
11530
11550
11593
11723
11640
11655
11726
11731
11754
11805
11839
11842
11871
11911
12076
11956
12004
12242
12059
12084
12236
12143
12162
12274
12224
12266
12282
12321
12359
12368
12503
12435
12478
12657
12527
12574
12578
12636
12655
12675
12913
12737
12772
13015
12828
12845
13027
12910
12968
12975
13033
13031
13056
13210
13125
13160
13182
13298
13240
13285
13303
13356
13367
13410
13581
13465
13505
13511
13554
13605
13613
13802
13665
13732
13732
13794
13801
13816
14030
13895
13935
13949
14020
14012
14054
14239
14118
14150
14164
14274
14246
14263
14406
14330
14348
14375
14420
14460
14471
14548
14553
14574
14630
14635
14679
14710
14721
14754
14899
14823
14860
14959
14946
14951
14981
15020
15226
15055
15124
15130
15166
15228
15238
15260
15418
15495
15415
15404
15431
15498
15488
15531
15551
15621
15630
15652
15718
15719
15743
15870
15810
15849
16001
15902
15945
15961
16038
16037
16071
16089
16132
16174
16183
16223
16262
16390
16316
16354
16425
16429
16449
16483
16496
16586
16585
16601
16631
16675
16736
16756
16771
16805
16845
16861
16959
16935
16965
16993
17021
17063
17228
17126
17162
17326
17213
17265
17279
17351
17359
17383
17505
17447
17482
17653
17551
17590
17599
17647
17682
17699
17735
17775
17794
17895
17865
17902
18036
17975
18007
18017
18082
18102
18122
18151
18206
18240
18250
18297
18330
18343
18422
18419
18452
18560
18514
18532
18670
18617
18652
18678
18716
18743
18770
18924
18841
18896
18897
19073
18968
19003
19044
19055
19169
19135
19175
19189
19236
19263
19292
19307
19377
19399
19427
19447
19619
19524
19564
19585
19735
19661
19687
19706
19789
19789
19809
19923
19881
19917
20039
19980
20015
20150
20079
20117
20212
20170
20207
20381
20268
20295
20455
20370
20391
20535
20458
20499
20509
20582
20594
20615
20735
20687
20715
20869
20785
20807
20879
20879
20911
20978
20989
21013
21046
21087
21094
21158
21175
21199
21327
21267
21305
21462
21366
21394
21420
21510
21489
21517
21541
21642
21610
21642
21668
21740
21771
21774
21802
21821
21849
21937
21921
21964
21978
22137
22048
22080
22104
22160
22179
22196
22317
22259
22286
22411
22352
22384
22476
22455
22471
22612
22543
22580
22591
22663
22663
22686
22799
22764
22778
22881
22863
22892
22911
22939
22985
23004
23033
23136
23103
23119
23147
23207
23227
23247
23371
23319
23343
23370
23487
23444
23465
23483
23605
23553
23591
23607
23724
23674
23701
23726
23776
23799
23828
23910
23896
23926
23942
23988
23999
24028
24095
24095
24117
24188
24181
24212
24305
24278
24308
24407
24367
24392
24463
24458
24479
24561
24551
24575
24609
24639
24663
24687
24711
24759
24788
24796
24857
24880
24907
24934
24958
24974
25029
25041
25079
25143
25135
25155
25213
25223
25245
25286
25317
25397
25370
25393
25454
25459
25485
25527
25539
25587
25607
25687
25660
25679
25726
25751
25767
25812
25831
25846
25910
25926
25945
26028
26007
26026
26094
26095
26116
26199
26174
26194
26229
26268
26282
26310
26355
26365
26455
26430
26450
26478
26533
26542
26567
26655
26631
26652
26670
26735
26739
26759
26777
26835
26849
26865
26925
26927
26945
27035
27007
27031
27124
27097
27127
27143
27186
27203
27229
27266
27281
27372
27343
27368
27383
27455
27450
27475
27546
27535
27558
27583
27638
27629
27653
27720
27718
27743
27820
27800
27823
27845
27919
27909
27930
27956
28019
28015
28030
28054
28101
28115
28127
28197
28205
28225
28237
28311
28302
28319
28391
28387
28411
28421
28494
28483
28511
28519
28574
28583
28599
28676
28671
28691
28712
28743
28756
28778
28806
28829
28871
28911
28906
28930
28943
29001
29018
29037
29053
29108
29113
29126
29149
29204
29217
29228
29271
29311
29319
29327
29352
29399
29407
29423
29507
29494
29515
29519
29603
29599
29612
29631
29655
29699
29699
29719
29749
29778
29845
29822
29831
29892
29901
29913
29949
29959
30019
30015
30033
30085
30087
30159
30132
30158
30227
30198
30215
30273
30279
30279
30354
30345
30367
30434
30425
30439
30514
30485
30503
30567
30569
30588
30599
30655
30660
30670
30703
30754
30737
30767
30846
30818
30845
30852
30940
30943
30938
30963
30975
31019
31023
31063
31087
31095
31118
31175
31167
31170
31258
31239
31255
31279
31317
31325
31337
31388
31396
31407
31450
31463
31532
31508
31531
31577
31575
31595
31646
31642
31655
31727
31705
31731
31815
31787
31799
31822
31892
31869
31897
31900
31951
31961
32044
32025
32039
32037
32123
32099
32118
32141
32194
32186
32206
32281
32259
32275
32295
32380
32344
32364
32375
32458
32426
32439
32532
32501
32510
32529
32605
32583
32599
32663
32667
32664
32684
32759
32732
32751
32819
32802
32812
32831
32926
32911
32903
32915
32981
32967
32977
33051
33031
33067
33071
33120
33115
33138
33191
33222
33194
33223
33243
33263
33351
33319
33319
33357
33359
33458
33449
33454
33455
33473
33490
33570
33551
33558
33583
33631
33627
33642
33663
33753
33735
33734
33755
33774
33791
33874
33852
33852
33877
33971
33935
33935
34020
33991
33999
34017
34068
34063
34063
34153
34119
34134
34214
34191
34204
34231
34300
34269
34286
34372
34356
34365
34375
34399
34404
34426
34519
34509
34495
34513
34590
34567
34577
34595
34675
34643
34639
34738
34709
34711
34727
34779
34785
34791
34811
34846
34863
34877
34954
34924
34937
34951
35007
34999
35009
35085
35073
35076
35091
35142
35143
35164
35174
35233
35220
35227
35298
35263
35272
35335
35330
35345
35381
35391
35471
35431
35438
35518
35484
35500
35554
35549
35565
35621
35590
35617
35665
35669
35679
35719
35708
35731
35793
35785
35787
35806
35875
35842
35870
35925
35908
35919
35977
35960
35975
36046
36042
36052
36050
36119
36097
36107
36175
36166
36182
36231
36223
36227
36301
36284
36289
36300
36351
36343
36350
36418
36407
36409
36467
36447
36467
36527
36502
36564
36553
36559
36631
36599
36607
36695
36647
36679
36743
36727
36723
36790
36775
36791
36863
36828
36839
36895
36871
36891
36935
36935
36938
37007
36983
36999
37061
37052
37041
37127
37097
37111
37173
37149
37229
37191
37215
37251
37247
37317
37287
37300
37319
37364
37358
37367
37411
37412
37423
37471
37467
37469
37540
37505
37522
37562
37565
37577
37620
37614
37671
37639
37675
37727
37711
37724
37767
37757
37836
37804
37804
37887
37855
37875
37945
37911
37917
37932
37964
37981
37977
38019
38027
38032
38091
38074
38092
38104
38162
38147
38151
38214
38222
38219
38229
38279
38257
38292
38341
38324
38323
38391
38366
38383
38433
38428
38427
38487
38479
38477
38499
38543
38524
38548
38599
38583
38588
38638
38639
38644
38695
38690
38701
38747
38740
38742
38807
38788
38799
38823
38863
38861
38858
38943
38911
38918
38933
38983
38974
38977
39037
39014
39030
39065
39068
39077
39115
39110
39121
39175
39172
39171
39217
39210
39217
39271
39267
39260
39326
39303
39319
39371
39367
39373
39383
39417
39413
39423
39490
39479
39483
39495
39528
39530
39547
39596
39588
39591
39652
39652
39628
39642
39700
39686
39692
39742
39719
39788
39755
39762
39834
39813
39815
39807
39874
39866
39876
39941
39932
39910
39927
39984
39978
39969
40017
40039
40030
40032
40055
40093
40087
40093
40081
40144
40148
40151
40199
40181
40199
40260
40228
40247
40286
40284
40292
40327
40319
40327
40385
40367
40372
40386
40439
40427
40429
40503
40473
40493
40547
40535
40522
40539
40607
40583
40582
40596
40641
40629
40638
40689
40679
40684
40739
40711
40735
40795
40762
40764
40823
40823
40817
40831
40871
40875
40875
40917
40908
40919
40967
40967
40966
40967
41031
41034
41028
41023
41071
41071
41069
41132
41123
41121
41167
41149
41168
41203
41194
41215
41250
41239
41255
41287
41287
41302
41327
41327
41333
41375
41364
41382
41412
41419
41437
41470
41453
41460
41469
41503
41521
41514
41567
41554
41559
41591
41592
41597
41639
41636
41677
41682
41685
41679
41725
41716
41717
41773
41768
41788
41815
41813
41819
41857
41852
41863
41868
41908
41910
41932
41929
41943
41967
41983
41988
41927
42031
42036
42055
42063
42063
42091
42102
42115
42127
42151
42151
42183
42180
42183
42231
42223
42228
42247
42260
42276
42294
42305
42317
42327
42354
42359
42374
42287
42399
42415
42433
42443
42446
42475
42471
42500
42495
42535
42496
42546
42561
42580
42592
42551
42607
42616
42638
42656
42650
42667
42705
42649
42719
42730
42733
42759
42759
42796
42790
42822
42806
42841
42852
42863
42863
42899
42895
42910
42932
42941
42945
42962
42971
42983
43006
43012
43029
43051
43055
43069
43084
43096
43103
43090
43143
43148
43153
43174
43191
43191
43223
43223
43223
43244
43252
43271
43295
43303
43307
43340
43343
43356
43382
43372
43390
43412
43421
43423
43430
43476
43471
43447
43501
43500
43520
43540
43551
43559
43583
43582
43598
43589
43639
43630
43652
43671
43674
43691
43668
43708
43730
43741
43750
43767
43775
43783
43828
43823
43820
43861
43852
43832
43891
43903
43880
43932
43943
43919
43983
43988
43867
44012
44023
44036
44039
44071
44091
44010
44117
44127
44135
44154
44164
44033
44198
44199
44231
44235
44244
44251
44286
44284
44293
44316
44319
44342
44362
44365
44330
44405
44407
44391
44438
44454
44441
44485
44420
44521
44519
44522
44549
44548
44575
44586
44596
44591
44639
44663
44632
44690
44694
44699
44711
44743
44748
44702
44777
44794
44812
44830
44836
44787
44869
44864
44802
44916
44927
44929
44895
44966
44978
44970
44999
45014
45044
45053
45018
45063
45087
45063
45119
45123
45135
45175
45173
45163
45223
45220
45205
45259
45254
45266
45301
45305
45315
45349
45342
45356
45396
45382
45404
45419
45439
45447
45463
45469
45491
45519
45519
45527
45549
45567
45574
45597
45603
45608
45633
45644
45662
45679
45685
45714
45703
45727
45751
45761
45771
45764
45809
45815
45814
45855
45853
45862
45892
45893
45933
45924
45927
45959
45975
45946
46004
46012
46031
46037
46038
46077
46087
46087
46114
46119
46147
46159
46133
46180
46199
46205
46228
46237
46223
46269
46270
46297
46316
46175
46343
46349
46359
46352
46383
46359
46410
46428
46453
46447
46319
46479
46494
46519
46533
46534
46543
46569
46583
46591
46599
46599
46630
46561
46667
46679
46684
46702
46703
46727
46680
46767
46764
46754
46791
46795
46790
46836
46847
46865
46791
46880
46882
46897
46927
46926
46953
46956
46935
46983
46999
47012
47021
47029
47027
47055
47067
47089
47094
47095
47111
47135
47143
47165
47022
47196
47198
47127
47227
47225
47183
47271
47247
47236
47303
47300
47247
47340
47343
47223
47367
47367
47343
47391
47416
47412
47429
47436
47455
47453
47396
47494
47495
47486
47525
47540
47566
47554
47577
47588
47591
47607
47618
47622
47623
47655
47663
47679
47658
47703
47711
47679
47745
47738
47730
47751
47766
47782
47804
47815
47787
47820
47823
47851
47854
47879
47879
47879
47811
47918
47917
47927
47934
47953
47966
47962
47991
47991
48007
48006
48029
48037
48041
48031
48070
48068
48079
48102
48110
48119
48127
48120
48135
48157
48159
48175
48135
48213
48207
48212
48151
48239
48234
48255
48268
48259
48277
48307
48300
48323
48303
48340
48354
48334
48357
48363
48359
48409
48391
48391
48428
48428
48391
48455
48461
48426
48480
48484
48430
48511
48515
48470
48551
48542
48360
48559
48562
48575
48591
48582
48606
48615
48634
48526
48647
48647
48615
48664
48661
48693
48687
48707
48718
48711
48737
48737
48743
48747
48775
48775
48628
48799
48804
48775
48822
48834
48758
48856
48851
48694
48884
48861
48876
48893
48913
48700
48936
48935
48943
48892
48981
48975
48943
48999
48984
49020
48948
49031
49028
49015
48975
49058
49047
49063
49060
49082
49095
49079
49101
49127
49119
49127
49135
49145
49157
49159
49159
49175
49180
49199
49172
49217
49210
49205
49212
49228
49220
49254
49255
49284
49150
49263
49298
49279
49301
49303
49300
49103
49327
49321
49251
49359
49342
49317
49340
49366
49373
49359
49364
49403
49391
49341
49415
49412
49399
49413
49429
49442
49442
49372
49455
49446
49460
49454
49471
49473
49478
49447
49494
49487
49471
49503
49516
49534
49518
49510
49503
49543
49549
49543
49437
49572
49567
49559
49565
49576
49583
49567
49595
49590
49612
49607
49617
49647
49602
49624
49653
49636
49454
49653
49645
49550
49671
49637
49661
49687
49663
49532
49700
49693
49708
49708
49653
49719
49710
49703
49703
49516
49743
49735
49719
49748
49725
49751
49532
49781
49763
49702
49791
49765
49716
49799
49791
49717
49819
49796
49634
49808
49799
49623
49829
49815
49671
49841
49838
49671
49855
49839
49620
49860
49853
49823
49836
49846
49863
49869
49831
49855
49694
49879
49876
49890
49863
49879
49884
49866
49885
49894
49869
49895
49895
49870
49901
49927
49897
49642
49933
49878
49652
49919
49911
49663
49924
49911
49927
49942
49908
49927
49921
49926
49925
49913
49927
49927
49869
49951
49947
49743
49975
49951
49887
49956
49938
49895
49958
49951
49814
49959
49957
49839
49956
49934
49945
49927
49950
49884
49951
49938
49927
49924
49944
49959
49946
49951
49951
49927
49949
49684
49967
49919
49927
49927
49911
49927
49927
49927
49927
49776
49935
49925
49926
49919
49924
49926
49807
49920
49927
49774
49914
49903
49863
49895
49911
49921
49895
49684
49903
49892
49743
49898
49892
49799
49894
49860
49875
49639
49870
49836
49860
49865
49831
49831
49863
49844
49839
49655
49835
49822
49823
49563
49767
49837
49822
49781
49799
49671
49799
49781
49562
49791
49772
49707
49761
49756
49759
49716
49741
49756
49704
49742
49564
49732
49695
49709
49564
49719
49671
49694
49452
49711
49671
49671
49671
49659
49670
49619
49655
49647
49362
49652
49615
49612
49572
49620
49612
49335
49611
49572
49585
49455
49595
49567
49519
49562
49567
49566
49531
49543
49543
49492
49524
49511
49486
49503
49507
49457
49482
49492
49461
49463
49446
49455
49458
49420
49444
49415
49399
49415
49428
49383
49400
49398
49338
49388
49395
49375
49390
49364
49103
49365
49341
49278
49343
49316
49230
49324
49311
49309
49098
49236
49287
49303
49302
49271
49276
49171
49268
49228
49088
49242
49230
49138
49247
49204
49141
49222
49183
49199
49204
49158
49183
49183
49173
49118
49151
48966
49125
49124
49135
49119
49120
49092
48823
49124
49095
49093
49075
48956
49047
48924
49047
49047
49064
49036
48903
49037
49021
49004
49025
48967
49010
48999
48976
48996
49012
48950
48758
48966
48934
48975
48965
48711
48935
48927
48923
48941
48836
48917
48903
48916
48775
48892
48892
48875
48881
48807
48860
48855
48861
48844
48844
48850
48535
48798
48823
48820
48823
48769
48580
48791
48777
48772
48757
48775
48766
48671
48751
48743
48741
48743
48512
48724
48698
48711
48700
48519
48687
48669
48679
48684
48535
48647
48628
48660
48588
48637
48621
48610
48622
48621
48535
48605
48592
48559
48583
48566
48355
48564
48565
48533
48555
48518
48524
48518
48509
48526
48503
48477
48272
48495
48485
48454
48479
48389
48461
48439
48423
48446
48415
48236
48412
48407
48415
48405
48261
48383
48383
48367
48385
48327
48348
48350
48336
48320
48340
48329
48208
48295
48287
48291
48295
48071
48260
48079
48263
48239
48263
48244
48254
48217
48229
48205
48164
48164
48119
48172
48169
48135
48135
47991
48135
48135
48126
48135
48108
48103
48100
47981
48068
48064
48055
48063
47991
48039
48023
48000
48023
47983
47991
47988
47983
47946
47971
47975
47933
47812
47935
47916
47899
47908
47895
47836
47676
47876
47854
47845
47844
47843
47827
47772
47623
47798
47787
47773
47751
47770
47746
47583
47742
47719
47714
47700
47717
47663
47687
47669
47647
47668
47652
47559
47616
47615
47591
47619
47606
47590
47543
47446
47335
47541
47516
47527
47525
47452
47488
47478
47477
47445
47462
47411
47424
47412
47395
47404
47388
47367
47260
47351
47342
47332
47330
47327
47283
47213
47284
47270
47261
47255
47244
47223
47111
47204
47198
47194
47164
47173
47122
46916
47137
47124
47095
47111
47083
46997
47058
47050
47031
47036
47012
46894
46999
46977
46973
46983
46964
46847
46939
46903
46912
46879
46873
46876
46855
46854
46836
46719
46815
46805
46789
46670
46775
46770
46727
46727
46722
46703
46599
46689
46687
46599
46657
46647
46639
46599
46599
46592
46566
46398
46572
46546
46493
46528
46508
46503
46483
46299
46463
46446
46335
46430
46415
46302
46389
46376
46362
46339
46289
46333
46319
46285
46302
46265
46129
46255
46220
46148
46212
46188
46064
46170
46134
46132
46120
46077
46106
46079
46054
46028
46055
46022
46004
45990
45975
45964
45955
45937
45844
45916
45890
45860
45844
45846
45835
45815
45805
45780
45763
45748
45709
45740
45703
45655
45702
45678
45508
45659
45623
45584
45575
45575
45526
45548
45524
45508
45502
45487
45467
45461
45311
45425
45410
45380
45381
45364
45342
45319
45311
45292
45266
45191
45255
45238
45172
45207
45191
45143
45167
45148
45106
45089
45086
45079
45061
45000
45039
44994
44903
44975
44964
44933
44933
44900
44772
44870
44862
44807
44842
44807
44800
44789
44767
44732
44740
44711
44676
44679
44657
44637
44639
44620
44591
44586
44561
44510
44537
44519
44487
44453
44460
44452
44356
44413
44396
44373
44349
44350
44314
44252
44295
44270
44260
44223
44231
44198
44154
44167
44148
44039
44116
44087
44062
44070
44036
44014
44010
43983
43974
43949
43935
43911
43892
43879
43867
43811
43828
43799
43783
43774
43751
43724
43710
43695
43663
43655
43644
43617
43613
43594
43582
43527
43513
43525
43503
43469
43438
43429
43399
43383
43367
43359
43334
43313
43296
43278
43259
43245
43222
43207
43181
43175
43152
43124
43105
43103
43057
43048
43027
43008
42993
42959
42949
42922
42908
42887
42869
42842
42830
42804
42783
42759
42751
42743
42715
42687
42655
42649
42620
42599
42583
42564
42547
42519
42503
42492
42463
42428
42427
42398
42391
42367
42326
42312
42287
42247
42247
42236
42204
42202
42166
42127
42130
42087
42068
42067
42044
42015
41991
41983
41940
41921
41914
41880
41863
41719
41835
41796
41774
41783
41735
41687
41704
41671
41639
41645
41607
41567
41574
41532
41500
41476
41455
41431
41428
41395
41402
41351
41312
41313
41264
41266
41235
41216
41221
41170
41126
41132
41087
41111
41063
40998
41053
40988
40951
40947
40935
40879
40861
40869
40823
40798
40773
40767
40719
40695
40694
40649
40615
40635
40583
40542
40547
40511
40471
40485
40433
40468
40404
40357
40399
40343
40289
40259
40279
40223
40180
40180
40154
40116
40120
40070
40119
40039
39999
39967
39972
39930
39911
39917
39855
39822
39855
39775
39751
39791
39703
39668
39687
39639
39687
39596
39555
39567
39515
39566
39459
39431
39483
39389
39364
39375
39319
39287
39289
39237
39290
39199
39151
39187
39119
39079
39146
39046
38999
39087
39001
38947
38903
38943
38856
38829
38898
38804
38759
38726
38759
38695
38647
38663
38612
38687
38567
38543
38503
38503
38455
38421
38461
38387
38350
38405
38309
38276
38374
38231
38199
38309
38157
38127
38216
38087
38047
38127
38016
37964
37931
37919
37949
37870
37831
37919
37796
37767
37735
37820
37686
37653
37615
37708
37607
37546
37511
37559
37484
37437
37404
37492
37374
37337
37310
37402
37268
37223
37334
37207
37174
37116
37252
37116
37055
36999
37127
36974
36940
37019
36871
36849
36900
36814
36783
36783
36727
36831
36677
36654
36695
36597
36565
36571
36515
36548
36471
36423
36407
36380
36451
36319
36301
36291
36398
36220
36197
36183
36135
36135
36079
36084
36018
36007
35967
36066
35947
35902
35863
35979
35823
35788
35750
35771
35719
35660
35701
35633
35590
35591
35540
35495
35558
35461
35437
35400
35391
35343
35500
35280
35261
35295
35223
35333
35163
35132
35122
35071
35114
35034
34988
35020
34945
34903
34930
34859
34820
34926
34767
34747
34935
34708
34679
34623
34667
34598
34549
34575
34515
34471
34489
34439
34383
34420
34343
34503
34279
34251
34311
34201
34162
34238
34115
34066
34066
34039
34238
33999
33955
34170
33903
33877
34069
33823
33793
34006
33757
33714
33669
33717
33629
33851
33570
33535
33745
33503
33455
33685
33390
33359
33511
33318
33280
33493
33229
33188
33237
33164
33097
33098
33045
33133
32997
32959
33015
32920
32879
32975
32839
32796
32829
32748
32700
32743
32681
32621
32685
32589
32533
32564
32509
32455
32460
32432
32659
32349
32323
32397
32282
32466
32220
32487
32156
32126
32119
32082
32346
32028
31983
32247
31923
31896
31879
31834
32007
31783
31751
31855
31701
31674
31831
31612
31591
31882
31536
31516
31463
31490
31423
31727
31363
31327
31623
31284
31246
31207
31271
31167
31119
31137
31079
31387
31021
30996
31125
30943
30884
30892
30852
30804
30812
30763
30846
30710
30649
30657
30623
30862
30540
30527
30615
30455
30426
30519
30391
30346
30351
30295
30257
30246
30215
30167
30159
30118
30235
30061
30006
29993
29959
30002
29933
30278
29863
29815
29878
29783
29714
29804
29671
29631
29672
29605
29542
29539
29511
29861
29438
29415
29682
29349
29332
29495
29260
29221
29306
29159
29128
29304
29076
29031
29088
29006
28934
28934
28904
29145
28822
28775
28769
28724
28713
28670
28743
28630
28758
28575
28511
28486
28445
28418
28406
28355
28377
28698
28255
28231
28239
28561
28127
28132
28103
28480
28020
27975
27948
27903
28058
27852
27803
27817
27774
27702
27701
27655
27666
27622
27554
27557
27519
27454
27453
27431
27360
27431
27335
27262
27236
27204
27396
27153
27098
27156
27061
26996
27065
26964
26908
26975
26877
26798
26784
26759
27057
26683
26643
26847
26591
26567
26695
26486
26476
26404
26390
26378
26298
26470
26267
26244
26170
26190
26153
26087
26354
26022
26001
25940
25945
25911
25836
25863
25801
25754
26024
25694
25686
25628
25879
25546
25532
25986
25460
25407
25502
25361
25303
25302
25277
25204
25219
25173
25104
25116
25071
25484
24972
24941
25005
24879
24826
24823
24785
25014
24695
24667
24647
24600
24625
24551
25045
24463
24439
24604
24363
24316
24439
24252
24220
24202
24168
24463
24084
24070
24001
23987
23969
23889
23881
23849
24061
23772
23725
23723
23700
24128
23599
23567
23643
23527
23449
23486
23427
23299
23328
23307
23251
23242
23213
23141
23138
23110
23041
23052
23007
22941
22927
22895
23276
22807
22762
22796
22732
22663
22632
22604
22849
22524
22479
22470
22466
22385
22533
22324
22279
22607
22219
22195
22577
22116
22103
22580
22012
21989
21932
21918
21908
21827
21808
21796
21721
21699
21672
21887
21590
21575
21511
21511
21469
21404
21410
21391
21303
21285
21282
21198
21183
21183
21100
21093
21051
20996
21149
20950
20925
20868
20845
20829
20770
20756
20743
20652
20659
20636
20555
20529
20526
20452
20439
20423
20348
20349
20327
20247
20243
20230
20700
20124
20095
20190
20047
19974
20009
19966
19879
19882
19861
19782
19761
19747
19799
19695
19601
19590
19572
19909
19491
19456
19888
19395
19354
19468
19322
19245
19215
19194
19444
19131
19085
19060
19063
18982
18965
18971
18884
18861
18847
19443
18761
18751
18700
18690
18647
18599
18603
18542
18502
18759
18439
18400
18394
18373
18297
18270
18239
18239
18217
18142
18118
18071
18062
18021
18084
17999
18541
17894
17847
17833
17777
17775
17746
17807
17721
18197
17622
17572
17550
17535
18142
17441
17439
17719
17359
17325
17363
17309
17229
17198
17199
17790
17109
17086
17093
17047
17325
16995
16916
16899
16860
16839
16787
16765
16735
16707
16692
16807
16655
16748
16550
16517
16519
16507
16422
16405
16373
16382
16365
16280
16249
16229
16413
16177
16129
16134
16121
16039
16001
16016
15946
15938
15902
15961
15876
15795
15784
15756
15819
15737
15663
15645
15600
15585
15565
15800
15525
15453
15428
15441
15363
15348
15341
15282
15256
15226
15399
15196
15137
15111
15103
15524
15047
14993
14967
14932
14908
14894
14999
14877
15484
14775
14743
14830
14731
14660
14621
14604
14939
14559
14498
14506
14508
14422
14403
14421
14337
14312
14327
14916
14236
14211
14368
14146
14119
14147
14116
14040
14016
14030
14662
13940
13887
13875
13839
13818
13797
13911
13781
13700
13683
13645
13623
13605
13647
13588
13843
13539
13766
13445
13382
13378
13352
13435
13350
13264
13259
13268
13180
13143
13162
13101
13079
13063
13300
13007
12965
12937
12930
12995
12911
12835
12817
12778
12751
12751
13344
12680
12645
12684
12633
12565
12539
12518
12759
12478
12428
12409
12392
12361
12376
12297
12278
12246
12543
12213
12159
12151
12161
12084
12062
12079
12007
11981
12013
11929
11898
11901
11855
11831
11831
11777
11751
11761
12500
11668
11676
11617
11601
11580
11670
11535
11498
12073
11443
11436
11962
11358
11361
11985
11297
11271
11574
11241
11182
11146
11153
11482
11129
11047
11017
11039
11415
10964
10929
11061
10889
10846
10882
10851
11513
10762
10717
10691
10667
10662
10634
11003
10597
10535
10512
10521
11199
10441
10418
10369
10366
10356
10357
10287
10251
10289
10213
10181
10206
10566
10131
10077
10191
10056
10004
10070
9981
9939
10003
9905
9850
10120
9829
9787
9764
9769
9716
9687
9659
9945
9623
9584
9852
9541
9504
9489
9509
10110
9415
9395
9479
9349
9346
9277
9263
9279
9215
9189
9220
9134
9124
9116
9062
9049
9004
9034
8971
8932
8977
8897
8864
8895
8820
8798
8828
8754
8800
8719
8678
8675
8684
8600
8600
8612
8530
8489
8525
8462
8421
8466
8382
8415
8349
8313
8311
8327
8236
8201
8213
8938
8160
8106
8148
8103
8041
8015
8031
8273
7961
7940
7926
7924
7863
7817
7836
7794
7757
7836
7720
7670
7674
7676
7892
7619
7565
7525
7561
7487
7460
7465
8162
7387
7370
8060
7314
7278
7375
7258
7206
7294
7178
7127
7115
7152
7063
7028
7056
6995
6955
7001
6927
6883
6917
7360
6826
6808
6980
6757
6717
6709
6745
6649
6612
6642
6583
6537
6561
6504
6470
6444
6427
6446
6383
6369
6345
6421
6311
6271
6291
6232
6194
6516
6154
6130
6463
6079
6086
6018
5978
6022
6858
5932
5926
5872
5847
5894
5794
5893
5774
5757
5724
5675
5698
5666
5623
5570
5632
5538
5498
5550
5468
5463
5447
5403
6097
5353
5374
5312
5332
5285
5252
5224
5175
5225
5143
5128
5122
5066
5357
5036
5040
4982
4953
4964
4904
4892
4908
4843
5383
4804
4816
4756
4735
4708
4721
4655
5028
4596
4642
4563
4549
4519
4507
4493
4463
4437
4498
4394
4391
4345
4313
4345
4266
4259
4214
4207
4240
4165
4143
4107
4065
4074
4174
4069
3998
3982
4000
3932
3909
3927
3862
3828
3848
3787
3756
3781
3718
3685
3693
4233
3654
3614
3592
3557
3536
3540
3487
3576
3471
3416
3393
3431
3351
3335
3365
3293
3249
3298
3210
3388
3196
3175
3145
3104
3109
3076
3093
3051
3007
2985
3014
2942
2916
2913
2989
2897
3380
2825
2785
2771
2725
2699
2725
2664
2661
2629
2858
2605
2572
2555
2529
2490
2479
2495
2434
2423
2373
2397
2358
2309
2543
2297
2239
2239
2249
2190
2172
2143
2738
2119
2105
2057
2028
2027
1983
2102
1966
1915
2163
1904
1854
1833
1844
1806
1766
1766
1736
1747
1930
1707
1759
1668
1699
1626
1592
1560
1536
1479
1482
1452
1439
1399
1401
1365
1373
1332
1295
1290
1268
1294
1236
1206
1178
1151
1131
1109
1101
1095
1078
1077
1038
1024
959
966
921
943
819
863
836
808
786
773
748
731
722
676
685
643
627
603
592
559
570
499
534
443
473
434
438
397
404
364
357
330
325
299
288
266
255
242
220
200
185
166
153
135
116
100
83
62
49
48
47
47
47
48
49
49
48
48
48
47
49
47
47
46
47
47
47
47
47
49
47
48
48
47
48
48
49
48
47
47
47
47
48
47
47
46
48
48
47
47
48
48
47
48
47
47
47
47
48
47
47
48
48
47
47
47
49
46
48
48
47
47
47
48
48
47
48
48
48
48
48
48
46
47
47
48
47
48
48
48
47
48
47
47
48
46
47
47
48
48
47
46
48
49
48
48
47
47
48
49
48
47
47
47
48
47
48
48
47
47
47
48
47
47
48
48
48
47
47
47
47
46
48
48
46
46
46
47
48
48
47
47
48
47
47
49
47
48
47
47
47
47
47
47
47
47
46
49
47
47
47
48
47
48
48
47
47
47
48
47
47
48
47
48
48
47
47
47
48
46
48
48
47
47
47
48
47
47
48
48
47
48
47
47
48
47
47
47
47
48
47
47
48
47
48
47
49
47
47
47
47
47
47
47
48
47
47
48
48
47
47
48
47
47
47
48
47
47
48
48
47
47
47
48
47
46
48
48
46
47
48
47
46
48
48
47
47
47
48
47
47
47
47
48
48
48
47
47
48
47
48
47
45
48
47
47
46
47
47
47
47
47
47
48
47
46
47
47
47
48
47
47
47
48
47
47
47
47
47
47
46
47
46
47
47
47
47
48
48
48
47
47
46
48
48
47
47
47
47
47
47
47
47
47
48
47
47
47
47
47
48
47
47
47
48
47
48
46
48
48
49
47
47
48
47
47
48
47
48
47
48
47
46
47
47
46
47
47
47
48
47
48
48
47
47
46
47
47
47
47
47
48
48
47
47
47
47
48
47
47
46
47
48
48
47
47
47
47
48
47
47
47
47
47
49
48
47
47
48
47
47
47
48
47
47
46
47
47
48
47
47
48
47
47
47
47
46
47
46
48
48
46
48
48
47
48
47
47
47
47
46
47
47
47
47
47
48
48
47
47
48
47
47
47
47
48
47
47
47
48
46
48
48
47
48
46
48
46
48
48
47
48
47
47
47
48
46
47
47
48
47
47
47
48
47
47
47
47
48
46
47
48
48
47
47
46
47
47
47
47
47
46
48
48
46
47
47
48
47
47
46
47
47
48
47
47
47
48
47
48
47
48
47
47
46
47
47
48
47
46
48
48
47
47
47
47
47
48
48
47
48
48
47
46
48
47
48
47
47
47
48
48
47
47
47
48
48
47
48
48
47
47
47
47
46
47
47
49
47
46
47
47
47
48
48
47
47
47
47
47
48
48
47
47
47
47
47
47
47
47
46
47
47
48
47
47
47
47
47
47
48
47
47
47
47
47
47
47
48
47
47
47
49
48
47
47
48
47
48
49
48
48
48
46
47
47
47
47
48
47
47
47
47
46
47
47
47
47
46
48
48
47
48
48
48
48
47
46
47
48
47
47
47
48
47
47
47
47
47
47
48
47
47
46
47
47
47
49
47
48
47
47
48
48
48
47
48
48
47
46
48
47
48
47
48
47
48
48
48
48
48
48
48
47
47
47
48
48
48
48
47
47
47
48
48
48
47
47
48
47
47
48
47
47
47
47
48
48
46
46
48
48
46
47
48
47
48
48
48
47
48
47
48
47
48
48
46
49
48
47
47
47
46
47
48
48
47
48
47
47
47
48
46
48
48
47
47
48
47
47
47
46
48
47
47
45
46
47
46
47
48
48
46
47
47
47
49
46
47
47
48
47
48
48
46
49
47
47
47
48
47
48
47
47
47
48
48
47
48
47
47
48
48
48
47
47
48
47
48
47
46
48
48
47
47
47
46
47
47
48
49
48
47
47
46
47
47
48
48
47
47
46
48
47
48
48
48
47
47
48
48
47
48
47
47
47
47
47
47
48
49
46
47
48
46
47
48
47
47
48
47
47
47
48
47
46
47
47
49
47
47
48
47
45
48
47
47
46
47
47
47
48
48
47
47
47
47
47
48
47
47
48
49
47
47
48
47
48
47
47
47
47
47
47
48
47
48
46
47
47
46
48
48
46
47
47
47
48
47
47
47
47
47
48
48
47
48
47
47
47
47
47
47
47
46
46
48
48
48
47
47
47
47
46
48
47
47
47
48
47
48
48
47
46
49
48
47
47
47
47
48
47
48
48
47
48
48
46
46
47
47
48
48
48
48
47
48
48
48
47
47
47
47
48
47
47
47
47
47
47
45
49
48
45
47
48
47
47
48
48
47
46
48
48
46
47
47
47
47
47
47
47
47
47
48
49
47
47
47
48
46
48
47
47
47
46
47
47
47
47
47
46
47
47
47
47
47
47
48
48
48
46
47
47
47
47
47
46
46
48
48
49
47
46
48
47
47
47
47
48
47
47
47
47
47
47
47
48
48
48
46
47
47
47
47
47
46
48
47
47
48
49
47
47
47
49
47
47
47
47
48
48
48
47
46
47
48
47
47
48
47
48
48
47
47
47
47
47
46
47
46
48
47
47
48
47
47
47
48
46
47
47
47
48
47
47
48
48
47
47
47
47
47
46
47
48
47
47
48
47
47
47
47
47
46
47
47
47
46
48
47
47
47
47
48
48
46
47
48
47
47
48
47
47
47
46
47
46
47
46
47
48
48
48
46
47
46
47
46
47
47
47
47
48
48
47
46
49
47
47
47
48
48
47
47
46
48
47
47
47
47
47
47
48
47
48
47
47
46
47
47
48
47
46
47
47
47
46
48
47
48
47
49
47
47
47
48
48
47
47
48
48
47
47
46
48
47
48
47
48
47
47
47
47
47
47
47
47
48
46
48
48
47
47
48
47
47
48
46
48
47
47
48
49
48
48
48
48
49
48
47
46
46
47
47
47
47
47
47
48
48
48
46
47
48
47
47
48
47
47
47
48
47
47
47
48
47
47
47
47
48
47
48
48
48
49
48
46
47
47
48
47
48
48
48
48
47
47
47
48
46
48
48
47
47
47
47
47
47
47
47
48
48
48
48
48
47
48
48
47
47
48
47
49
47
47
49
46
47
48
47
47
48
46
47
48
48
47
48
47
47
47
48
46
47
47
48
46
48
49
47
47
48
49
47
48
47
47
47
47
47
47
47
48
47
47
48
47
47
49
46
48
47
46
48
48
47
47
48
47
48
47
46
48
47
47
48
48
48
47
47
45
47
47
48
47
48
47
48
47
48
48
47
48
47
47
48
47
46
48
48
47
47
47
47
46
47
47
47
47
48
47
47
47
49
47
46
47
47
47
47
47
47
47
46
47
47
46
47
49
47
48
48
47
47
47
47
49
48
47
48
47
47
47
47
47
47
47
47
48
47
48
47
47
47
47
47
48
47
48
47
47
48
48
48
48
48
47
48
48
47
46
48
47
47
47
47
47
47
47
47
47
47
47
47
47
47
47
47
48
47
48
47
48
48
48
47
47
47
49
47
47
48
47
48
48
47
47
48
48
47
48
47
46
47
47
48
47
48
48
47
47
47
47
48
47
46
46
48
47
47
47
46
47
47
47
47
47
47
47
48
47
47
47
47
47
47
47
47
47
47
47
48
46
46
46
48
46
48
47
47
47
47
48
48
47
48
47
47
47
48
47
48
48
46
47
47
47
47
47
46
47
48
48
47
47
48
48
47
47
46
47
49
47
47
47
47
48
47
47
47
47
49
47
47
47
47
46
47
48
48
48
48
47
46
47
48
48
48
48
49
48
48
46
47
47
48
47
48
47
47
47
48
47
47
47
48
47
48
48
46
47
47
48
47
47
47
47
49
47
47
47
48
47
48
48
47
47
47
46
48
47
48
47
48
47
47
47
47
47
47
48
48
47
47
48
48
48
48
46
47
48
48
48
47
46
47
47
48
47
48
46
48
48
48
47
47
47
46
48
48
46
47
47
47
47
47
47
48
47
48
47
48
48
46
47
49
47
46
47
47
48
47
47
47
46
47
47
47
47
48
47
48
48
47
47
48
47
48
48
47
47
47
47
47
47
48
48
48
63
91
103
113
125
133
143
151
162
176
184
191
202
213
216
229
237
243
258
182
272
288
296
299
336
325
329
347
357
358
374
389
390
415
312
423
439
457
458
476
483
497
493
514
535
533
552
569
571
622
596
614
647
638
644
679
676
682
737
709
716
742
740
754
799
778
801
804
810
834
853
849
873
901
885
914
941
925
952
997
961
1001
1002
1014
1022
1038
1066
1051
1076
1124
1093
1116
1127
1121
1179
1166
1163
1186
1206
1259
1215
1238
1255
1385
1280
1282
1448
1312
1320
1335
1359
1368
1536
1405
1387
1498
1421
1432
1528
1474
1472
1574
1510
1532
1525
1542
1582
1573
1579
1632
1605
1620
1679
1638
1685
1684
1673
1692
1712
1732
1724
1739
1761
1813
1783
2130
1811
1866
1831
1871
1869
1873
1913
1913
1906
1918
1942
2026
1965
1979
2296
1994
2020
2019
2028
2084
2048
2149
2081
2117
2102
2115
2143
2139
2394
2165
2191
2817
2210
2225
2381
2226
2290
2246
2274
2313
2287
2306
2357
2321
2331
2398
2362
2365
2437
2399
2403
2472
2430
2425
2499
2464
2463
2518
2510
2496
2585
2533
2550
2612
2563
2580
2627
2607
2619
2644
2881
2667
2685
2941
2709
2707
3167
2742
2743
2739
2810
2783
2793
2801
3423
2822
2888
2852
2873
2919
2883
2889
2931
2928
2915
2973
2951
2970
2974
3399
3018
3002
3031
3079
3053
3063
3089
3087
3071
3161
3108
3135
3152
3172
3509
3167
3229
3200
3206
3289
3237
3269
3272
3273
3365
3318
3308
3731
3332
3370
3357
3346
3417
3387
3373
3446
3411
3629
3465
3459
3755
3481
3497
4239
3519
3580
3536
3537
3607
3575
3779
3587
3634
3620
3754
3648
3711
3685
3681
3807
3712
3735
3729
3723
3775
3775
3780
3771
3813
3824
3848
3863
3869
3906
3894
3880
3878
3917
3930
3939
3954
3966
3971
4124
3999
4001
4036
4037
4032
4274
4060
4085
4423
4091
4145
4107
4167
4156
4137
4264
4186
4208
4207
4317
4232
4271
4243
4275
4281
4278
4298
4288
4332
4335
4339
4364
4388
4388
4389
4381
4431
4426
4428
4505
4462
4500
4497
4494
4506
4515
4548
4749
4563
4586
4579
4583
4626
4614
4594
4652
4643
4979
4661
4695
4691
4702
4736
4736
4734
4773
5122
4792
4790
4803
4804
4875
4828
4905
4881
4872
4884
4892
4903
4912
4948
4934
4993
5129
5010
5064
5024
5080
5060
5134
5049
5053
5076
5135
5142
5304
5170
5701
5192
5428
5205
5447
5236
5286
5236
5202
5219
5239
5247
5263
5276
5278
5302
5304
5319
5328
5358
5350
5369
5373
5398
5398
5445
5477
5467
5450
5478
5471
5520
5521
5537
5548
5550
5544
5558
5588
5590
5605
5608
5612
5645
5678
5716
6125
5708
5702
5719
5733
5734
5749
5759
5776
5774
5829
5927
5858
5906
5885
6141
5905
5889
5907
5889
5932
5933
5949
5982
6240
6021
6009
6014
6021
6041
6052
6056
6092
6097
6143
6753
6182
6419
6196
6276
6200
6181
6217
6212
6225
6238
6259
6278
6277
6295
6301
6319
6335
6397
6628
6412
6450
6424
6446
6466
6514
6460
6458
6477
6508
6505
6540
6544
6577
7198
6632
7069
6658
7196
6679
6659
6651
6671
6677
6696
6722
6724
6719
6761
6756
6775
6794
6807
6812
6836
6874
7498
6913
6896
6907
6908
6933
6966
6966
7020
7241
7046
7647
7050
7046
7098
7366
7126
7134
7126
7123
7143
7156
7168
7231
7196
7216
7226
7908
7298
7270
7283
7303
7317
7370
7363
7365
7357
7382
7409
7406
7436
7446
7496
7515
7503
7569
7538
7535
7539
7545
7566
7566
7591
7600
7635
7653
7648
7676
7686
7689
7706
7736
7745
7768
7769
7785
7795
7812
7824
7841
7854
7866
7877
7903
7909
7929
7943
7964
7965
8003
8275
8070
8212
8095
8097
8081
8087
8106
8132
8128
8141
8178
8170
8188
8206
8228
8236
8246
8286
8766
8335
8309
8328
8353
8358
8419
8514
8440
8479
8461
8485
8458
8466
8494
8510
8519
8582
8564
8564
8603
8598
8663
9106
8681
9182
8725
8719
8735
8717
8722
8758
9253
8805
8797
8814
8835
8855
8869
8888
8879
8904
8911
8925
8957
8973
9019
8998
9039
9378
9062
9055
9065
9084
9101
9129
9133
9198
9369
9201
9267
9219
9213
9237
9266
9394
9302
9313
9325
9318
9343
9362
9383
9410
9668
9449
9449
9471
9465
9486
9495
9527
9538
9548
9582
9577
9625
10081
9668
9669
9669
9666
9681
9701
9716
9753
10336
9811
10214
9846
10237
9875
9861
9863
9877
9892
9915
10579
9982
9995
9980
9988
10013
10020
10052
10089
10083
10075
10095
10126
10131
10181
10564
10209
10208
10230
10214
10240
10241
10274
10282
10310
10308
10329
10337
10360
10369
10391
10415
10420
10436
10462
10466
10495
10567
10565
11081
10578
10572
10601
10596
10633
10643
10671
11245
10718
11101
10749
11246
10786
10829
10798
10808
10817
10855
10860
10863
10877
10881
10898
10911
10934
10947
10996
11055
11046
11022
11040
11044
11069
11098
11108
11130
11143
11164
11217
11196
11200
11220
11226
11234
11259
11262
11297
11301
11327
11339
11351
11358
11383
11396
11439
11665
11492
11463
11479
11503
11511
11530
11546
11573
12152
11620
11616
11621
11668
11700
11668
11693
11713
11735
12196
11791
11804
11793
11804
11814
11839
11853
11865
11886
11898
11914
11932
11951
11964
11972
11997
12010
12029
12054
12064
12074
12093
12111
12129
12151
12171
12185
12195
12228
12290
12259
12306
12295
12293
12291
12325
12342
12402
12668
12428
12404
12410
12451
12517
12503
12905
12527
12823
12540
13044
12593
12687
12601
12697
12637
12632
12648
12668
12686
12709
13268
12767
13228
12789
12848
12828
12970
12853
12916
12868
12869
12879
12914
12909
12979
13074
12985
12977
12988
13013
13028
13042
13067
13396
13096
13093
13127
13135
13157
13166
13204
13221
13306
13259
13414
13307
13775
13299
13311
13333
13347
13366
13384
13401
13406
13439
13439
13484
13485
13511
13511
13542
13591
14076
13583
13594
13647
13653
13830
13705
14164
13732
13711
13748
13743
13780
13770
13806
13810
13816
13865
13907
13924
14230
13954
13951
13957
13964
13978
13989
14014
14031
14054
14058
14076
14106
14110
14133
14157
14170
14181
14204
14222
14223
14248
14276
14286
14295
14319
14336
14347
14378
14388
14416
14423
14470
14875
14513
14614
14546
14634
14563
14659
14604
14636
14635
14651
14670
14738
14727
15179
14731
14743
14756
14795
14854
14852
15321
14855
14854
14886
14903
14932
14960
15057
15009
14983
15485
15019
15030
15071
15074
15089
15104
15139
15165
15324
15231
15566
15260
15238
15262
15273
15287
15319
15511
15372
15501
15418
15768
15427
15430
15451
15483
15622
15511
15512
15542
15585
15737
15620
15606
15639
15647
15664
15680
15732
15743
15890
15793
15983
15834
16187
15844
15848
15892
16253
15935
16335
15974
16069
16003
16223
16028
16023
16055
16071
16098
16106
16131
16155
16208
16215
16524
16217
16229
16260
16265
16292
16323
16480
16379
16363
16390
16395
16426
16428
16482
16640
16519
16539
16526
16551
16564
16588
16610
16641
16645
16676
16966
16720
16756
16767
16740
16787
16788
16812
16818
16852
17284
16913
17038
16931
16924
16955
16999
17074
17020
17041
17063
17093
17099
17190
17163
17225
17185
17207
17215
17303
17249
17269
17277
17310
17718
17356
17647
17403
17632
17445
17695
17482
17546
17492
17506
17527
17556
17564
17607
17886
17644
17729
17679
17680
17703
17731
17740
17804
17953
17831
17885
17853
17869
17886
17908
17927
17962
17958
17994
17995
18025
18036
18081
18082
18103
18538
18167
18392
18207
18525
18246
18234
18268
18287
18324
18341
18474
18390
18670
18409
18423
18451
18468
18506
18503
18538
18539
18577
18849
18633
18710
18678
18741
18701
18753
18749
18756
18781
18805
18815
18840
19253
18911
19010
18934
18956
18965
18997
19367
19048
19262
19102
19298
19148
19239
19183
19205
19198
19233
19629
19278
19660
19335
19538
19378
19557
19419
19615
19455
19512
19477
19503
19526
19541
19556
19591
19601
19634
19649
19676
19689
19715
19735
19782
20064
19832
19871
19863
19888
19893
19938
19932
20015
19999
20035
20045
20063
20069
20090
20110
20143
20153
20193
20191
20223
20245
20275
20286
20319
20337
20375
20376
20414
20428
20478
20474
20539
20527
20555
20557
20580
20597
20630
20665
20742
20722
20789
20754
20787
20780
20826
20811
20866
20875
20912
20918
20943
20959
20992
20998
21055
21340
21103
21255
21153
21266
21195
21300
21245
21325
21268
21292
21306
21354
21447
21378
21410
21720
21479
21635
21521
21669
21553
21579
21585
21620
21629
21667
21677
21710
22017
21777
22053
21820
21948
21866
21921
21913
21941
21940
21988
21997
22058
22066
22222
22092
22097
22130
22151
22186
22195
22231
22255
22338
22310
22463
22366
22599
22407
22415
22447
22457
22501
22785
22561
22774
22605
22842
22658
22788
22698
22791
22733
22781
22786
22809
22815
22853
22860
22916
22918
22956
22969
22993
23015
23061
23067
23132
23130
23167
23168
23199
23214
23241
23251
23285
23506
23359
23532
23414
23477
23445
23470
23479
23559
23543
23607
23591
23687
23651
23890
23687
23708
23748
23759
23889
23838
24055
23868
23887
23929
23933
24001
24003
24123
24041
24044
24087
24107
24145
24164
24189
24197
24247
24263
24303
24304
24372
24375
24487
24430
24431
24473
24486
24599
24558
24698
24604
24679
24652
24735
24703
24870
24750
24909
24799
25007
24847
25007
24902
25049
24958
25151
24995
25175
25047
25159
25106
25163
25155
25258
25207
25279
25254
25429
25303
25318
25349
25354
25399
25415
25469
25466
25510
25523
25549
25577
25604
25628
25659
25679
25711
25721
25764
25884
25814
25823
25863
25887
25921
25930
25991
25997
26070
26042
26112
26095
26153
26151
26279
26211
26356
26253
26263
26292
26231
26351
26370
26407
26422
26462
26588
26514
26598
26567
26724
26599
26624
26665
26683
26724
26735
26815
26788
26836
26831
26900
26900
26965
26940
27007
26997
27041
27045
27092
27090
27140
27152
27199
27195
27252
27252
27311
27316
27375
27363
27431
27419
27490
27465
27596
27517
27638
27573
27684
27627
27641
27671
27684
27719
27747
27784
27794
27854
27854
27911
27905
27959
27959
28012
28007
28055
28061
28095
28109
28163
28163
28222
28217
28273
28262
28324
28323
28378
28359
28427
28421
28489
28460
28557
28516
28618
28566
28644
28628
28670
28666
28708
28713
28753
28763
28814
28807
28855
28859
28903
28905
28954
28960
28999
29012
29052
29068
29114
29113
29142
29159
29196
29201
29228
29311
29277
29343
29325
29350
29384
29401
29431
29479
29476
29511
29525
29557
29521
29591
29647
29643
29681
29687
29713
29765
29759
29791
29810
29846
29901
29898
29946
29945
29959
29997
30011
30044
30095
30085
30111
30126
30150
30187
30206
30245
30263
30299
30303
30347
30349
30388
30400
30444
30452
30498
30503
30531
30554
30570
30598
30636
30652
30663
30699
30710
30743
30777
30796
30819
30846
30873
30900
30921
30935
30969
30991
31004
31032
31055
31087
31111
31141
31143
31188
31204
31211
31256
31269
31323
31325
31341
31390
31399
31429
31454
31447
31501
31508
31555
31567
31599
31617
31621
31666
31671
31711
31714
31751
31763
31803
31811
31851
31855
31907
31914
31950
31956
31999
32007
32049
32043
32087
32081
32141
32165
32199
32212
32246
32254
32287
32316
32298
32359
32332
32413
32399
32452
32443
32508
32519
32535
32548
32598
32601
32645
32631
32679
32622
32743
32752
32791
32767
32823
32847
32876
32903
32929
32957
32967
33004
32943
33041
33028
33091
33089
33140
33153
33188
33207
33223
33234
33273
33303
33318
33348
33359
33399
33416
33458
33396
33480
33489
33535
33540
33581
33585
33621
33651
33666
33711
33719
33755
33662
33780
33746
33832
33831
33879
33871
33927
33936
33972
33995
34015
34045
34052
34092
34100
34138
34159
34175
34196
34221
34155
34252
34236
34303
34223
34362
34327
34381
34391
34447
34463
34480
34511
34537
34535
34583
34567
34615
34645
34679
34689
34711
34735
34770
34788
34802
34738
34836
34813
34890
34875
34943
34943
34984
35012
34933
35036
35047
35087
35127
35148
35162
35117
35204
35217
35260
35271
35287
35333
35272
35365
35375
35415
35431
35422
35468
35499
35538
35419
35551
35517
35607
35621
35645
35679
35703
35732
35631
35752
35718
35793
35784
35859
35847
35892
35903
35935
35960
35985
36009
36027
36055
36069
36084
36116
36103
36141
36170
36207
36215
36255
36263
36295
36303
36341
36199
36373
36228
36429
36295
36463
36300
36495
36436
36543
36503
36583
36461
36637
36503
36693
36705
36739
36743
36780
36631
36820
36828
36863
36866
36911
36925
36955
36971
36999
37010
37039
37055
37085
37084
37065
37112
37039
37162
37203
37247
37252
37227
37287
37307
37350
37367
37364
37402
37356
37431
37465
37495
37511
37535
37557
37575
37594
37623
37639
37639
37689
37692
37730
37714
37767
37671
37796
37714
37836
37696
37919
37927
37965
37964
37999
38015
38023
38052
38015
38085
37911
38140
38162
38212
38214
38245
38242
38279
38287
38305
38339
38270
38360
38285
38407
38378
38455
38407
38510
38493
38564
38558
38599
38571
38628
38598
38663
38613
38714
38748
38782
38787
38823
38831
38862
38874
38904
38911
38951
38959
38981
39012
39031
39047
39085
39099
39095
39125
39151
39175
39195
39207
39071
39231
39071
39277
39229
39338
39345
39388
39400
39412
39452
39479
39492
39518
39535
39556
39596
39595
39636
39642
39670
39679
39717
39727
39748
39765
39807
39815
39846
39863
39888
39908
39926
39940
39967
39988
40006
40023
40052
40071
40097
40103
40103
39959
40133
40070
40183
40145
40231
40282
40298
40322
40178
40332
40280
40393
40404
40437
40472
40495
40511
40300
40511
40436
40563
40519
40642
40647
40686
40703
40726
40758
40775
40807
40815
40836
40852
40884
40900
40914
40928
40967
40991
41004
41025
41055
41071
41095
41095
41135
41149
41167
41103
41173
41223
41279
41284
41295
41319
41173
41367
41388
41391
41399
41319
41434
41493
41527
41534
41493
41535
41615
41625
41639
41636
41642
41434
41735
41751
41759
41734
41501
41845
41855
41863
41889
41751
41953
41961
41973
41985
42037
42048
42071
42063
42071
42119
42153
42164
41915
42217
42229
42261
42283
42205
42303
42339
42373
42388
42359
42372
42446
42484
42485
42298
42552
42558
42475
42609
42609
42639
42612
42684
42715
42709
42754
42773
42733
42751
42826
42851
42862
42899
42900
42900
42940
42855
42946
43015
43055
43062
43047
43096
43111
43105
43161
43198
43206
43132
43202
43271
43295
43310
43223
43332
43364
43399
43420
43391
43429
43493
43502
43503
43287
43574
43567
43519
43567
43644
43677
43681
43686
43665
43549
43764
43783
43815
43829
43723
43812
43895
43935
43919
43909
43931
43809
43983
44037
44039
44064
43893
44087
43727
44161
44167
44208
44223
44231
44253
44276
44287
44305
44319
44318
44343
44284
44377
44039
44422
44484
44505
44516
44543
44551
44590
44591
44637
44647
44679
44676
44719
44718
44730
44431
44772
44798
44818
44835
44869
44878
44895
44894
44948
44948
44980
44988
44991
44825
44983
44965
45031
44868
45058
44901
45063
45063
45161
45212
45209
45262
45260
45287
45300
45292
45333
45364
45370
45413
45412
45452
45436
45461
45476
45508
45519
45551
45551
45575
45584
45600
45628
45648
45639
45671
45678
45719
45716
45762
45693
