EDA
25081
25080
25073
25083
25093
25081
25082
25079
25083
25085
25079
25082
25076
25082
25082
25077
25082
25077
25091
25088
25076
25079
25086
25073
25083
25087
25074
25079
25078
25078
25087
25073
25079
25079
25090
25073
25081
25082
25078
25085
25089
25079
25081
25075
25077
25086
25081
25084
25081
25077
25079
25073
25082
25071
25079
25071
25085
25085
25076
25073
25082
25076
25079
25081
25072
25083
25082
25071
25075
25077
25071
25079
25081
25071
25077
25081
25071
25079
25085
25075
25078
25071
25076
25073
25081
25085
25073
25085
25077
25076
25079
25083
25076
25083
25073
25073
25081
25073
25076
25073
25082
25082
25076
25074
25081
25073
25076
25074
25079
25074
25076
25079
25074
25079
25070
25077
25072
25069
25072
25076
25070
25074
25067
25075
25068
25077
25071
25071
25074
25068
25079
25070
25076
25067
25068
25047
25082
25081
25063
25079
25063
25078
25065
25071
25069
25078
25068
25077
25063
25077
25124
25087
25092
25082
25095
25071
25095
25071
25087
25077
25106
25101
25085
25095
25073
25095
25072
25087
25119
25093
25095
25076
25087
25095
25073
25081
25085
25079
25079
25071
25087
25084
25073
25083
25079
25076
25076
25081
25073
25079
25079
25071
25078
25078
25076
25074
25082
25076
25077
25079
25077
25073
25077
25076
25083
25083
25077
25076
25073
25074
25076
25072
25076
25072
25069
25073
25079
25067
25077
25074
25069
25072
25079
25073
25078
25070
25071
25071
25076
25071
25074
25065
25079
25074
25072
25076
25068
25061
25070
25070
25078
25066
25065
25071
25069
25071
25063
25070
25063
25065
25070
25064
25071
25061
25063
25066
25069
25076
25069
25066
25071
25066
25071
25068
25070
25071
25061
25066
25062
25067
25069
25053
25064
25065
25067
25061
25071
25064
25063
25062
25065
25068
25069
25063
25065
25069
25058
25063
25060
25060
25063
25062
25063
25065
25058
25068
25069
25058
25059
25054
25057
25063
25060
25061
25064
25060
25062
25067
25058
25059
25063
25060
25054
25061
25054
25063
25063
25058
25067
25063
25067
25055
25068
25062
25056
25063
25069
25061
25062
25057
25063
25057
25060
25058
25063
25063
25053
25065
25058
25063
25054
25060
25061
25054
25063
25063
25062
25062
25058
25063
25065
25060
25056
25063
25061
25062
25058
25066
25057
25062
25065
25057
25061
25055
25068
25062
25055
25057
25068
25053
25063
25071
25061
25063
25054
25061
25060
25055
25063
25061
25055
25061
25070
25062
25063
25067
25057
25060
25055
25055
25061
25069
25052
25058
25063
25059
25059
25060
25059
25063
25064
25055
25063
25065
25053
25061
25063
25050
25068
25065
25052
25060
25066
25055
25062
25055
25063
25063
25057
25059
25060
25055
25055
25061
25052
25057
25054
25062
25053
25058
25051
25057
25057
25052
25055
25046
25060
25055
25052
25054
25044
25054
25060
25059
25052
25053
25055
25052
25054
25048
25047
25046
25057
25047
25057
25053
25047
25055
25048
25048
25051
25054
25049
25054
25045
25048
25047
25046
25047
25049
25045
25042
25046
25045
25054
25049
25041
25050
25044
25043
25043
25045
25047
25048
25047
25047
25047
25039
25039
25051
25036
25044
25063
25041
25045
25043
25046
25044
25038
25045
25029
25043
25038
25038
25044
25051
25041
25043
25051
25039
25039
25044
25042
25040
25039
25044
25046
25037
25043
25037
25039
25039
25047
25039
25044
25039
25035
25037
25028
25037
25039
25025
25041
25041
25032
25041
25035
25037
25039
25041
25039
25032
25035
25042
25030
25037
25030
25041
25038
25029
25034
25033
25033
25039
25028
25043
25031
25039
25030
25038
25036
25028
25033
25039
25031
25036
25038
25033
25035
25033
25028
25031
25036
25029
25031
25031
25030
25035
25023
25032
25039
25029
25028
25023
25026
25031
25025
25037
25034
25028
25034
25034
25029
25031
25020
25027
25033
25021
25031
25022
25033
25030
25033
25035
25031
25031
25030
25031
25027
25027
25037
25030
25031
25023
25030
25025
25028
25022
25031
25030
25029
25031
25031
25031
25033
25031
25028
25027
25024
25031
25022
25026
25030
25025
25028
25014
25025
25031
25023
25027
25031
25021
25031
25031
25023
25028
25025
25019
25034
25030
25021
25031
25031
25017
25026
25021
25028
25031
25018
25027
25030
25020
25029
25029
25016
25021
25026
25029
25019
25025
25022
25017
25021
25023
25018
25019
25023
25028
25018
25031
25023
25023
25023
25023
25017
25028
25027
25021
25017
25025
25015
25022
25014
25027
25017
25022
25026
25017
25020
25020
25019
25022
25028
25018
25023
25012
25023
25027
25021
25017
25023
25017
25021
25022
25015
25027
25017
25028
25020
25026
25027
25020
25023
25018
25014
25015
25025
25023
25019
25023
25013
25021
25031
25016
25022
25015
25023
25027
25015
25021
25013
25021
25026
25009
25021
25022
25015
25019
25013
25020
25017
25015
25021
25023
25014
25023
25021
25012
25015
25023
25015
25017
25011
25017
25015
25015
25017
25005
25028
25021
25010
25020
25019
25008
25022
25019
25012
25015
25023
25015
25023
25013
25023
25014
25012
25015
25018
25010
25020
25014
25011
25019
25021
25013
25021
25012
25023
25020
25011
25022
25027
25008
25020
25013
25013
25013
25013
25014
25016
25012
25015
25013
25015
25012
25015
25012
25010
25011
25017
25013
25009
25010
25005
25015
25013
25005
25015
25015
25013
25011
25004
25012
25015
25009
25007
25013
25023
25009
25017
25007
25011
25023
25012
25013
25013
25009
25017
25008
25012
25011
25017
25007
25007
25018
25012
25013
25006
25008
25022
25011
25013
25005
25012
25013
25005
25005
25006
25012
25022
25013
25015
25005
25012
25019
25005
25012
25001
25012
25010
25002
25007
25007
25000
25012
24998
25012
25007
25002
25013
25012
25003
25007
25017
25000
25007
25013
25003
25008
25004
25009
25000
25010
25010
25004
25011
25001
24998
25007
25009
25001
25003
25007
24998
25005
25012
25001
25007
25009
25001
25010
24999
25003
24999
25005
25007
25005
25005
25000
25007
25001
24996
24999
24996
25009
25004
25009
24999
25007
25003
25009
25011
25003
25007
24999
25007
25001
25001
24999
25007
25002
24999
25005
24999
24997
25002
25001
25009
24997
25004
24999
25004
25005
24998
25001
24997
25006
25007
24997
25006
25003
24998
25001
24999
24999
24993
25001
25000
25004
24996
25000
24997
25001
24999
25005
25007
25004
24999
24996
25001
24997
24998
25001
24999
24997
24999
24996
25003
25006
24997
25005
25006
24996
25001
24993
24997
24996
25003
24994
24999
25000
24996
24999
24997
24999
25004
24999
25001
25002
25007
24994
24999
24999
24992
25001
24994
25004
25004
24996
25001
24994
24998
24996
24999
24991
24996
24999
24992
24996
24997
24995
24999
24993
24998
24991
24998
24999
24995
24995
24989
24999
24986
24999
25001
24997
24997
24991
25015
25012
24997
25013
24996
25011
24990
25015
25023
24999
25015
24988
25004
25034
24998
25021
24991
25023
25021
25003
25013
25029
25007
25017
24999
25006
25001
25020
25014
25005
25012
25003
25011
25012
25005
25000
25006
24999
25000
25002
25000
25007
25013
25004
25009
25000
25001
24999
25005
25002
24999
25007
25005
25004
25002
25000
25001
24999
24997
25007
25004
25001
25004
25002
24999
25007
24998
24997
24996
24999
24997
24996
24999
24999
24999
24998
24998
24999
24999
24993
24997
25003
24996
24995
24996
25000
25001
24996
24999
24995
24999
25001
24993
24998
24997
24993
24999
24996
25005
24997
24991
24997
24993
24996
24993
24988
24999
25004
24998
24994
24999
24991
24988
24994
24994
24993
24994
24991
24998
24991
24993
25001
24997
24999
24995
24993
24996
24997
24999
24994
24997
24991
24993
24992
24996
24998
24998
24997
24989
24995
24991
24990
24991
24992
24995
24991
24993
24999
24986
24994
24996
24993
24999
24993
25003
24996
24998
24990
24998
24990
24997
24991
24992
24988
24994
24994
24987
24993
24985
24994
24989
24988
24991
24991
25001
24999
24999
24994
24996
24989
24994
24991
24996
24989
24997
24986
24993
24991
24998
24999
24991
24999
24991
24992
24986
24996
24989
24988
24996
24989
24997
24983
24995
24990
24999
24996
24992
24992
24992
24986
24991
24988
24995
24989
24994
24994
24999
24999
25007
24998
24999
25002
24998
24992
24988
25001
24988
24998
24990
24993
24994
24997
24993
24997
24987
24999
24999
24991
24993
24988
24997
24989
24991
25003
24989
25000
24988
24995
25007
24999
24996
24991
24995
24986
24997
24991
24999
24993
24987
24997
24991
24993
24989
24999
24997
24991
24991
24996
24989
24992
24986
24993
24992
24988
24990
24996
24986
24991
24990
24999
24994
24986
24991
24991
24991
24985
24991
24988
24993
24987
24995
24983
24998
24993
24991
24983
24990
24986
24991
24990
24993
24986
24991
24980
24991
24986
24988
24983
24987
24983
24988
24998
24992
24994
24986
24996
24985
24989
24977
24989
24989
24986
24991
24988
24987
24983
24991
24983
24985
24983
24982
24981
24987
24983
24987
24981
24980
24983
24980
24983
24977
24985
24986
24975
24985
24980
24975
24980
24980
24981
24985
24980
24980
24981
24988
24982
24981
24977
24975
24981
24975
24985
24982
24979
24981
24974
24977
24988
24975
24978
24975
24979
24978
24972
24978
24978
24980
24980
24975
24983
24972
24979
24983
24975
24978
24978
24980
24971
24977
24982
24977
24980
24973
24977
24971
24980
24983
24979
24983
24967
24975
24967
24974
24975
24978
24974
24974
24973
24975
24973
24973
24975
24966
24975
24975
24964
24980
24973
24975
24972
24972
24977
24973
24978
24971
24971
24975
24971
24979
24967
24976
24978
24969
24971
24970
24967
24973
24969
24970
24981
24966
24972
24967
24971
24962
24972
24980
24966
24971
24965
24980
24970
24967
24967
24965
24972
24967
24968
24961
24969
24959
24973
24967
24966
24970
24961
24967
24972
24965
24971
24969
24964
24969
24974
24975
24967
24960
24967
24959
24964
24967
24961
24967
24953
24973
24967
24962
24967
24967
24967
24967
24964
24963
24974
24970
24966
24959
24964
24956
24967
24958
24964
24963
24960
24961
24967
24975
24966
24971
24961
24966
24959
24964
24959
24960
24967
24959
24963
24958
24966
24966
24959
24965
24955
24962
24957
24956
24969
24962
24967
24960
24959
24961
24956
24963
24949
24962
24963
24956
24963
24972
24959
24967
24958
24964
24964
24967
24966
24963
24966
24963
24964
24961
24961
24953
24959
24963
24967
24957
24961
24959
24964
24965
24964
24959
24956
24962
24957
24963
24950
24962
24971
24959
24964
24952
24963
24955
24957
24964
24955
24956
24958
24962
24951
24956
24964
24955
24960
24956
24964
24959
24961
24955
24956
24951
24954
24951
24959
24959
24963
24967
24958
24953
24956
24966
24956
24957
24950
24961
24947
24958
24955
24960
24957
24954
24958
24953
24956
24951
24957
24963
24954
24958
24951
24957
24951
24961
24963
24959
24956
24948
24951
24948
24958
24949
24951
24959
24952
24957
24948
24953
24960
24948
24962
24945
24948
24951
24948
24959
24950
24957
24945
24956
24957
24951
24956
24943
24953
24949
24951
24943
24957
24959
24955
24956
24943
24944
24955
24949
24948
24962
24953
24951
24940
24951
24959
24947
24954
24945
24953
24946
24959
24951
24949
24957
24948
24957
24954
24943
24959
24947
24959
24957
24950
24959
24953
24954
24950
24948
24945
24948
24954
24945
24948
24942
24956
24953
24943
24955
24949
24943
24946
24951
24942
24949
24944
24946
24951
24951
24942
24962
24955
24964
24946
24951
24947
24949
24953
24942
24947
24958
24944
24948
24940
24952
24951
24959
24951
24954
24942
24943
24955
24942
24951
24957
24943
24952
24936
24951
24943
24951
24940
24946
24942
24945
24940
24955
24951
24940
24944
24941
24943
24950
24938
24944
24950
24946
24949
24939
24943
24942
24944
24948
24935
24947
24936
24954
24948
24940
24949
24939
24943
24948
24938
24949
24941
24945
24945
24942
24950
24938
24949
24947
24934
24944
24953
24936
24949
24943
24946
24935
24940
24952
24940
24951
24940
24945
24940
24940
24949
24935
24950
24950
24950
24941
24943
24937
24946
24935
24942
24940
24943
24943
24939
24943
24938
24939
24945
24939
24945
24935
24942
24942
24937
24937
24946
24943
24946
24936
24951
24937
24939
24930
24941
24939
24945
24937
24941
24935
24942
24943
24935
24935
24935
24942
24936
24937
24943
24935
24941
24940
24935
24938
24935
24935
24938
24939
24937
24934
24935
24942
24941
24934
24934
24933
24941
24940
24934
24938
24935
24932
24941
24929
24940
24935
24932
24935
24933
24932
24939
24933
24937
24935
24933
24939
24931
24935
24940
24931
24934
24929
24937
24940
24928
24935
24927
24934
24943
24926
24951
24945
24930
24949
24949
24935
24938
24934
24953
24949
24931
24946
24959
24932
24945
24931
24948
24962
24943
24964
24941
24953
24938
24949
24939
24943
24940
24954
24959
24938
24948
24956
24942
24956
24941
24951
24949
24947
24943
24940
24940
24948
24945
24946
24935
24938
24934
24939
24937
24940
24941
24937
24934
24936
24925
24943
24940
24943
24941
24935
24937
24935
24939
24941
24935
24937
24935
24940
24935
24932
24933
24935
24935
24935
24933
24938
24931
24935
24928
24933
24934
24931
24933
24926
24935
24930
24935
24939
24932
24930
24931
24932
24935
24929
24934
24932
24933
24932
24927
24932
24934
24930
24932
24926
24928
24935
24935
24937
24927
24933
24933
24933
24930
24933
24931
24935
24935
24935
24934
24932
24925
24933
24934
24937
24929
24930
24927
24927
24931
24927
24935
24926
24930
24940
24931
24932
24928
24927
24930
24924
24928
24935
24932
24928
24924
24931
24920
24927
24927
24922
24933
24932
24927
24927
24931
24925
24927
24937
24920
24931
24931
24924
24925
24930
24923
24925
24931
24921
24929
24924
24925
24921
24931
24923
24929
24927
24927
24930
24918
24926
24935
24932
24930
24924
24931
24924
24925
24922
24931
24923
24930
24927
24921
24927
24919
24924
24920
24922
24927
24921
24935
24935
24921
24927
24917
24929
24933
24917
24921
24924
24916
24929
24929
24919
24926
24924
24931
24933
24924
24924
24931
24921
24929
24917
24927
24931
24925
24926
24920
24935
24931
24924
24930
24919
24926
24925
24934
24927
24920
24929
24935
24919
24923
24935
24917
24925
24932
24919
24925
24939
24918
24925
24935
24922
24929
24918
24923
24927
24924
24926
24924
24919
24924
24917
24925
24929
24919
24930
24924
24918
24927
24931
24913
24927
24927
24919
24928
24927
24918
24920
24931
24913
24919
24919
24911
24925
24916
24914
24917
24923
24927
24915
24919
24931
24911
24919
24913
24919
24930
24919
24921
24916
24925
24923
24911
24916
24917
24919
24927
24915
24917
24916
24919
24918
24919
24924
24918
24919
24913
24919
24917
24919
24923
24919
24916
24917
24918
24913
24919
24915
24917
24921
24913
24917
24921
24917
24919
24911
24916
24913
24909
24916
24917
24916
24919
24915
24910
24910
24916
24909
24913
24918
24906
24917
24915
24911
24919
24908
24913
24909
24916
24911
24919
24914
24914
24912
24909
24911
24911
24911
24910
24916
24907
24913
24905
24911
24910
24913
24903
24913
24901
24913
24913
24911
24916
24916
24918
24913
24910
24911
24912
24910
24912
24905
24911
24911
24913
24911
24917
24911
24919
24907
24913
24908
24908
24900
24914
24910
24907
24900
24911
24917
24906
24917
24906
24916
24911
24917
24911
24910
24907
24911
24902
24908
24908
24909
24902
24909
24890
24908
24903
24910
24902
24911
24906
24917
24905
24911
24916
24884
24918
24919
24905
24915
24903
24910
24911
24915
24903
24922
24913
24911
24906
24914
24905
24905
24901
24915
24911
24903
24908
24907
24908
24917
24903
24905
24907
24908
24900
24908
24900
24908
24916
24905
24911
24903
24909
24906
24903
24902
24905
24918
24923
24915
24909
24911
24909
24910
24901
24911
24903
24906
24903
24910
24911
24906
24911
24899
24908
24911
24906
24908
24911
24900
24913
24910
24903
24904
24908
24902
24903
24917
24907
24907
24902
24913
24916
24910
24907
24901
24908
24910
24904
24910
24901
24906
24902
24912
24903
24902
24903
24910
24913
24899
24908
24902
24911
24909
24903
24907
24917
24916
24905
24906
24905
24900
24902
24907
24903
24909
24917
24910
24904
24903
24902
24917
24906
24911
24903
24907
24912
24901
24911
24898
24908
24904
24895
24902
24911
24902
24905
24902
24906
24907
24898
24900
24917
24903
24903
24902
24908
24908
24896
24907
24908
24895
24909
24903
24899
24906
24903
24911
24898
24907
24906
24892
24905
24905
24899
24908
24905
24903
24903
24901
24908
24906
24899
24907
24903
24897
24900
24914
24904
24906
24895
24902
24900
24908
24914
24898
24903
24903
24910
24909
24897
24903
24898
24903
24902
24897
24903
24911
24900
24906
24903
24908
24906
24903
24902
24893
24905
24909
24897
24902
24897
24910
24906
24895
24900
24911
24908
24902
24895
24900
24897
24903
24919
24903
24905
24896
24903
24902
24903
24903
24897
24907
24900
24899
24894
24905
24899
24901
24910
24899
24892
24904
24906
24901
24903
24899
24903
24887
24903
24897
24898
24905
24908
24908
24902
24903
24891
24903
24899
24903
24903
24900
24902
24909
24898
24903
24900
24909
24902
24899
24900
24905
24901
24903
24891
24900
24907
24903
24905
24895
24907
24895
24897
24897
24899
24899
24885
24896
24902
24894
24903
24894
24898
24893
24903
24895
24900
24903
24899
24901
24901
24898
24898
24892
24900
24899
24891
24898
24905
24898
24902
24893
24899
24906
24903
24900
24890
24895
24903
24891
24895
24903
24893
24901
24895
24894
24903
24892
24901
24890
24892
24907
24891
24902
24895
24895
24909
24900
24896
24897
24895
24906
24893
24902
24895
24887
24903
24901
24891
24900
24897
24895
24897
24892
24899
24902
24903
24900
24888
24898
24903
24895
24897
24888
24895
24898
24894
24901
24893
24892
24896
24898
24884
24897
24895
24889
24897
24891
24895
24899
24892
24900
24896
24893
24894
24893
24898
24899
24891
24898
24907
24893
24900
24885
24893
24899
24895
24900
24895
24890
24899
24902
24891
24895
24900
24889
24899
24886
24895
24901
24885
24894
24893
24890
24890
24903
24893
24891
24895
24899
24892
24892
24899
24889
24895
24895
24897
24890
24886
24893
24884
24891
24890
24889
24887
24886
24889
24888
24890
24890
24888
24883
24895
24893
24884
24891
24882
24899
24894
24883
24892
24909
24895
24906
24900
24901
24885
24895
24904
24890
24903
24889
24900
24887
24903
24891
24909
24890
24912
24893
24920
24919
24893
24910
24941
24915
24914
24901
24903
24921
24910
24919
24904
24913
24903
24905
24909
24927
24903
24902
24903
24915
24903
24899
24903
24901
24897
24902
24897
24897
24903
24899
24899
24892
24893
24901
24894
24893
24890
24894
24893
24892
24898
24892
24900
24891
24892
24896
24892
24894
24892
24895
24897
24894
24895
24892
24891
24891
24887
24890
24889
24889
24889
24897
24890
24889
24891
24894
24894
24890
24894
24891
24891
24895
24901
24892
24894
24893
24891
24890
24889
24895
24893
24883
24893
24884
24887
24886
24889
24892
24887
24896
24884
24895
24893
24886
24888
24887
24891
24887
24885
24894
24885
24888
24882
24889
24885
24885
24900
24892
24890
24885
24885
24885
24886
24878
24887
24885
24884
24885
24890
24887
24887
24887
24884
24884
24887
24879
24893
24881
24886
24887
24881
24880
24882
24883
24885
24879
24887
24887
24880
24882
24885
24884
24885
24889
24879
24879
24894
24884
24885
24878
24891
24883
24884
24879
24882
24885
24878
24881
24862
24887
24891
24873
24882
24886
24881
24887
24880
24886
24893
24881
24892
24879
24893
24887
24876
24892
24893
24879
24886
24877
24887
24884
24876
24890
24885
24876
24882
24895
24879
24893
24873
24889
24887
24871
24886
24887
24879
24885
24885
24875
24889
24886
24874
24885
24884
24877
24887
24875
24882
24889
24878
24885
24884
24879
24881
24890
24885
24885
24876
24893
24888
24879
24885
24883
24878
24892
24892
24892
24878
24880
24878
24885
24886
24892
24884
24882
24887
24887
24872
24886
24894
24879
24887
24877
24879
24886
24882
24890
24895
24879
24882
24885
24882
24887
24885
24879
24878
24897
24877
24884
24877
24887
24881
24887
24893
24886
24885
24879
24880
24885
24879
24884
24887
24879
24890
24885
24880
24876
24885
24879
24879
24879
24881
24879
24889
24879
24886
24878
24886
24879
24889
24881
24881
24884
24884
24884
24882
24882
24876
24885
24890
24879
24881
24882
24885
24890
24882
24883
24879
24886
24882
24877
24881
24882
24879
24884
24877
24885
24884
24875
24876
24876
24881
24884
24878
24879
24885
24877
24883
24871
24882
24881
24868
24879
24879
24879
24879
24887
24873
24879
24881
24873
24879
24878
24882
24887
24877
24882
24876
24877
24879
24881
24883
24881
24876
24886
24876
24876
24885
24879
24881
24871
24879
24879
24879
24878
24881
24872
24875
24876
24881
24882
24879
24876
24875
24879
24871
24879
24871
24879
24881
24876
24882
24876
24879
24873
24879
24876
24879
24881
24875
24878
24887
24887
24881
24870
24879
24876
24877
24872
24882
24878
24876
24875
24873
24875
24876
24881
24878
24876
24879
24874
24884
24879
24874
24873
24884
24869
24879
24870
24878
24871
24847
24876
24875
24881
24871
24876
24875
24887
24881
24879
24875
24879
24874
24883
24874
24874
24874
24873
24877
24885
24887
24876
24872
24887
24880
24891
24887
24889
24876
24886
24878
24882
24877
24882
24875
24877
24871
24879
24871
24878
24874
24879
24875
24883
24877
24877
24874
24874
24876
24875
24887
24879
24872
24877
24852
24886
24895
24879
24877
24879
24893
24882
24887
24873
24885
24874
24887
24877
24884
24874
24882
24877
24881
24877
24876
24879
24880
24892
24879
24882
24878
24879
24877
24885
24876
24883
24885
24885
24876
24879
24871
24881
24876
24888
24870
24882
24879
24890
24879
24876
24884
24875
24885
24877
24887
24887
24881
24887
24879
24887
24879
24885
24888
24884
24887
24881
24887
24876
24882
24877
24883
24879
24879
24868
24880
24885
24880
24884
24881
24883
24888
24881
24878
24876
24887
24878
24881
24886
24879
24885
24871
24876
24879
24890
24886
24877
24880
24884
24876
24878
24876
24879
24887
24879
24882
24877
24881
24889
24882
24882
24873
24878
24881
24879
24884
24877
24885
24871
24885
24892
24883
24882
24884
24887
24883
24865
24890
24887
24878
24884
24877
24878
24870
24879
24877
24883
24882
24881
24887
24878
24889
24879
24885
24873
24882
24873
24883
24884
24873
24889
24871
24879
24887
24879
24880
24875
24882
24879
24887
24885
24879
24883
24879
24882
24871
24881
24884
24874
24883
24887
24873
24876
24872
24876
24885
24876
24886
24895
24885
24884
24881
24879
24864
24879
24882
24882
24876
24876
24887
24883
24887
24880
24885
24885
24882
24877
24874
24888
24879
24879
24891
24887
24887
24889
24884
24882
24884
24876
24875
24879
24874
24884
24873
24883
24876
24884
24870
24884
24871
24899
24881
24892
24887
24885
24889
24895
24876
24874
24882
24873
24887
24876
24884
24878
24886
24882
24881
24877
24881
24874
24879
24875
24881
24878
24882
24873
24883
24873
24878
24874
24879
24871
24877
24871
24885
24869
24882
24873
24884
24874
24885
24881
24880
24881
24880
24879
24876
24879
24876
24885
24879
24884
24887
24882
24882
24887
24886
24885
24871
24887
24878
24879
24873
24887
24892
24879
24884
24872
24876
24878
24875
24869
24881
24881
24883
24870
24880
24873
24878
24875
24884
24871
24881
24878
24878
24877
24879
24878
24879
24871
24878
24879
24890
24878
24877
24882
24869
24881
24875
24885
24877
24884
24873
24883
24883
24887
24887
24881
24885
24875
24876
24876
24879
24885
24877
24883
24871
24876
24874
24887
24871
24882
24873
24880
24876
24879
24875
24876
24876
24882
24875
24879
24881
24877
24880
24871
24880
24873
24877
24885
24877
24881
24875
24874
24872
24877
24884
24875
24882
24873
24879
24870
24879
24884
24871
24882
24873
24884
24888
24879
24882
24871
24879
24873
24883
24887
24873
24885
24873
24903
24900
24876
24892
24871
24910
24902
24881
24896
24884
24913
24903
24881
24893
24913
24897
24903
24884
24895
24914
24887
24892
24908
24891
24894
24908
24892
24896
24885
24892
24897
24891
24892
24882
24885
24890
24887
24884
24890
24891
24881
24887
24881
24891
24882
24887
24887
24884
24884
24887
24889
24885
24887
24889
24889
24881
24888
24878
24885
24885
24885
24880
24887
24883
24886
24891
24885
24889
24887
24886
24883
24881
24884
24881
24887
24884
24876
24879
24885
24878
24877
24884
24880
24884
24879
24877
24885
24879
24879
24885
24881
24885
24881
24879
24880
24879
24879
24879
24881
24880
24883
24887
24884
24882
24879
24879
24876
24887
24879
24878
24882
24878
24877
24865
24882
24886
24874
24887
24871
24885
24873
24882
24878
24878
24877
24871
24884
24879
24877
24873
24881
24875
24881
24884
24877
24879
24882
24873
24876
24884
24871
24875
24875
24872
24868
24879
24877
24881
24876
24874
24875
24878
24878
24873
24871
24876
24879
24868
24879
24881
24874
24874
24871
24878
24887
24871
24872
24877
24878
24882
24871
24877
24855
24877
24879
24873
24875
24871
24876
24873
24882
24883
24871
24881
24868
24874
24876
24875
24876
24867
24877
24870
24879
24877
24869
24877
24871
24872
24881
24879
24881
24873
24876
24871
24875
24874
24874
24884
24879
24881
24874
24878
24871
24879
24884
24879
24879
24872
24871
24869
24875
24871
24878
24872
24872
24875
24879
24870
24879
24885
24879
24874
24879
24872
24879
24871
24876
24885
24870
24882
24869
24879
24885
24873
24879
24878
24871
24883
24869
24880
24873
24874
24881
24871
24882
24871
24881
24879
24871
24876
24871
24877
24877
24884
24873
24875
24871
24877
24876
24879
24871
24878
24870
24874
24878
24877
24875
24871
24876
24868
24873
24871
24870
24882
24877
24884
24866
24880
24871
24874
24869
24869
24871
24871
24871
24873
24865
24867
24866
24868
24871
24867
24870
24866
24868
24869
24871
24863
24871
24863
24871
24871
24859
24870
24862
24868
24868
24869
24869
24861
24868
24855
24864
24863
24871
24862
24869
24862
24863
24860
24871
24863
24868
24862
24867
24862
24868
24863
24866
24861
24862
24871
24862
24865
24868
24858
24863
24859
24863
24859
24865
24871
24858
24862
24863
24861
24865
24860
24870
24859
24860
24857
24866
24863
24856
24867
24861
24861
24862
24863
24861
24867
24857
24858
24867
24867
24865
24859
24859
24855
24869
24856
24861
24856
24860
24858
24856
24853
24858
24858
24861
24861
24869
24866
24867
24865
24854
24863
24860
24861
24859
24862
24853
24860
24859
24863
24855
24863
24851
24861
24855
24863
24855
24863
24863
24857
24863
24855
24868
24860
24852
24860
24859
24860
24855
24856
24856
24863
24863
24860
24865
24850
24863
24854
24863
24855
24863
24852
24866
24855
24861
24855
24857
24852
24860
24852
24861
24871
24858
24861
24855
24858
24861
24860
24855
24855
24852
24857
24864
24858
24849
24861
24849
24855
24852
24863
24861
24853
24850
24865
24857
24865
24855
24855
24851
24848
24865
24862
24857
24849
24853
24842
24857
24860
24855
24861
24855
24859
24865
24848
24857
24841
24855
24847
24855
24861
24849
24862
24847
24852
24851
24859
24862
24850
24854
24847
24852
24847
24852
24857
24849
24852
24860
24855
24854
24850
24860
24852
24847
24854
24858
24847
24859
24863
24853
24858
24849
24855
24850
24851
24849
24856
24846
24848
24854
24855
24857
24845
24853
24864
24855
24848
24850
24856
24838
24847
24855
24846
24855
24847
24855
24860
24850
24855
24850
24849
24847
24847
24863
24855
24855
24847
24851
24844
24859
24839
24847
24846
24852
24858
24852
24852
24844
24853
24861
24851
24852
24845
24847
24849
24850
24853
24847
24846
24842
24847
24845
24844
24850
24852
24855
24839
24853
24852
24847
24849
24847
24849
24845
24839
24847
24855
24847
24849
24838
24855
24853
24845
24845
24839
24854
24850
24839
24852
24839
24845
24855
24851
24850
24837
24847
24839
24848
24847
24838
24850
24839
24852
24844
24844
24849
24850
24846
24847
24839
24843
24837
24847
24853
24839
24851
24839
24841
24846
24839
24847
24860
24847
24845
24839
24851
24839
24839
24847
24853
24849
24839
24847
24839
24842
24835
24843
24839
24854
24839
24839
24844
24836
24838
24838
24844
24855
24852
24849
24849
24846
24845
24851
24834
24848
24836
24846
24828
24849
24845
24837
24845
24839
24849
24835
24839
24836
24836
24838
24844
24839
24845
24847
24836
24839
24838
24838
24839
24839
24853
24842
24847
24836
24841
24829
24836
24849
24845
24839
24839
24847
24835
24839
24834
24836
24839
24831
24839
24836
24839
24828
24837
24847
24847
24839
24831
24836
24833
24839
24833
24831
24840
24836
24838
24833
24839
24827
24839
24831
24834
24849
24844
24839
24829
24839
24838
24847
24841
24842
24839
24838
24831
24839
24824
24836
24839
24837
24833
24828
24835
24822
24836
24839
24839
24837
24839
24829
24837
24831
24838
24830
24836
24837
24830
24837
24824
24835
24826
24836
24825
24829
24828
24836
24828
24835
24830
24831
24835
24832
24837
24828
24835
24824
24831
24835
24823
24837
24826
24828
24839
24829
24831
24829
24831
24838
24837
24832
24831
24837
24836
24831
24831
24831
24825
24831
24828
24828
24829
24834
24839
24835
24835
24832
24834
24835
24833
24830
24832
24845
24834
24833
24829
24831
24823
24836
24828
24827
24836
24820
24831
24826
24830
24826
24836
24833
24834
24829
24826
24831
24834
24826
24829
24822
24829
24820
24828
24827
24819
24826
24816
24828
24817
24823
24817
24826
24819
24826
24836
24821
24834
24830
24829
24823
24826
24820
24824
24831
24821
24827
24820
24827
24840
24823
24831
24821
24831
24858
24836
24836
24821
24836
24868
24831
24839
24823
24834
24878
24857
24864
24855
24855
24837
24887
24844
24883
24859
24852
24846
24846
24838
24847
24833
24834
24833
24836
24839
24830
24835
24828
24831
24837
24831
24832
24836
24838
24834
24832
24829
24830
24837
24828
24828
24831
24831
24832
24827
24831
24828
24829
24828
24823
24831
24823
24829
24828
24829
24827
24823
24831
24826
24829
24825
24825
24821
24831
24821
24827
24822
24826
24822
24825
24823
24826
24819
24823
24831
24824
24825
24829
24831
24821
24828
24817
24816
24821
24820
24823
24821
24817
24817
24818
24815
24823
24818
24816
24812
24823
24813
24823
24823
24827
24822
24815
24823
24815
24818
24817
24817
24817
24821
24817
24830
24815
24820
24819
24821
24816
24826
24820
24821
24815
24819
24819
24818
24820
24821
24813
24823
24813
24818
24821
24822
24820
24821
24823
24826
24823
24815
24819
24820
24823
24821
24812
24814
24816
24821
24819
24814
24812
24817
24815
24820
24810
24816
24806
24815
24821
24812
24814
24813
24815
24809
24812
24810
24818
24812
24820
24811
24823
24812
24799
24809
24807
24814
24809
24817
24804
24812
24821
24814
24813
24814
24809
24812
24819
24815
24813
24808
24814
24807
24815
24820
24811
24820
24815
24819
24817
24815
24813
24823
24823
24825
24807
24815
24813
24818
24810
24820
24812
24809
24811
24823
24821
24820
24806
24815
24810
24816
24815
24817
24814
24824
24813
24823
24820
24817
24812
24800
24812
24809
24818
24811
24822
24813
24816
24809
24819
24809
24813
24808
24818
24806
24809
24807
24811
24809
24812
24810
24817
24809
24815
24805
24815
24812
24815
24813
24822
24813
24821
24819
24817
24807
24814
24807
24809
24804
24815
24806
24811
24805
24813
24801
24812
24803
24807
24805
24811
24804
24807
24802
24811
24815
24807
24808
24806
24807
24805
24807
24804
24807
24804
24811
24807
24805
24807
24800
24802
24804
24814
24807
24798
24806
24806
24796
24807
24806
24802
24803
24805
24796
24803
24804
24802
24807
24802
24806
24797
24804
24802
24799
24804
24801
24806
24804
24797
24799
24799
24791
24801
24803
24799
24799
24795
24799
24799
24791
24806
24800
24790
24803
24801
24796
24797
24807
24795
24799
24799
24801
24801
24795
24792
24799
24806
24805
24802
24795
24797
24799
24790
24794
24790
24792
24796
24798
24795
24796
24793
24793
24796
24788
24789
24794
24791
24798
24797
24786
24793
24803
24799
24794
24796
24792
24789
24795
24793
24786
24791
24799
24791
24794
24791
24799
24791
24797
24789
24799
24796
24789
24791
24794
24790
24796
24793
24789
24788
24791
24799
24788
24790
24797
24784
24796
24793
24787
24791
24784
24791
24791
24791
24794
24791
24791
24793
24790
24788
24782
24793
24791
24781
24788
24793
24787
24791
24793
24783
24788
24796
24773
24791
24786
24784
24795
24791
24784
24783
24796
24791
24783
24783
24785
24785
24788
24796
24789
24789
24778
24789
24783
24783
24789
24779
24788
24804
24783
24791
24783
24789
24791
24781
24791
24789
24783
24785
24789
24783
24781
24788
24788
24788
24793
24785
24783
24789
24783
24782
24783
24786
24793
24781
24781
24775
24787
24788
24779
24783
24783
24786
24775
24789
24786
24791
24785
24778
24782
24783
24776
24786
24783
24791
24781
24793
24783
24789
24778
24787
24790
24788
24783
24778
24787
24780
24782
24775
24780
24780
24783
24772
24783
24781
24778
24783
24777
24789
24783
24778
24787
24788
24779
24783
24791
24781
24785
24775
24780
24776
24776
24783
24773
24785
24783
24780
24783
24774
24785
24775
24781
24756
24791
24782
24775
24781
24773
24778
24775
24783
24787
24775
24783
24777
24787
24771
24781
24774
24783
24775
24783
24789
24775
24785
24770
24781
24775
24781
24781
24775
24781
24776
24782
24777
24775
24783
24774
24783
24773
24775
24774
24777
24783
24775
24780
24776
24783
24775
24780
24785
24780
24780
24774
24777
24775
24782
24774
24779
24772
24778
24787
24775
24773
24777
24774
24773
24767
24777
24770
24777
24774
24771
24775
24773
24781
24783
24774
24779
24775
24776
24769
24777
24770
24776
24775
24769
24774
24772
24778
24785
24775
24773
24769
24777
24771
24777
24775
24777
24780
24783
24772
24789
24774
24780
24783
24780
24781
24775
24774
24775
24772
24780
24775
24777
24772
24773
24767
24775
24768
24775
24771
24775
24767
24775
24767
24772
24781
24770
24778
24775
24775
24772
24774
24767
24768
24768
24773
24767
24772
24773
24775
24788
24779
24783
24775
24782
24767
24769
24766
24775
24767
24771
24768
24775
24779
24773
24775
24772
24775
24778
24775
24771
24778
24770
24769
24771
24774
24762
24773
24770
24762
24772
24765
24765
24777
24758
24782
24775
24769
24769
24780
24762
24775
24762
24769
24760
24772
24767
24773
24761
24767
24774
24763
24771
24759
24766
24773
24765
24772
24759
24775
24769
24766
24775
24762
24766
24765
24775
24774
24763
24775
24761
24767
24765
24772
24771
24759
24766
24772
24768
24769
24763
24767
24759
24767
24780
24769
24767
24759
24762
24769
24763
24771
24761
24767
24771
24757
24764
24759
24761
24766
24759
24764
24759
24767
24759
24769
24761
24759
24759
24769
24766
24765
24751
24757
24759
24761
24765
24756
24765
24753
24771
24767
24759
24764
24753
24763
24753
24760
24764
24751
24758
24749
24761
24752
24761
24762
24764
24757
24763
24761
24762
24765
24754
24761
24761
24758
24759
24757
24757
24753
24759
24753
24749
24757
24751
24762
24756
24748
24762
24756
24756
24762
24759
24758
24756
24756
24751
24751
24747
24763
24754
24748
24753
24745
24752
24745
24761
24757
24747
24753
24748
24757
24744
24746
24752
24744
24748
24743
24751
24743
24746
24751
24755
24747
24747
24747
24754
24741
24754
24737
24750
24751
24745
24753
24740
24749
24742
24750
24740
24759
24756
24742
24758
24770
24751
24757
24746
24770
24769
24741
24753
24807
24774
24772
24750
24769
24753
24771
24745
24759
24780
24749
24765
24748
24758
24775
24747
24756
24771
24744
24765
24778
24760
24757
24755
24755
24757
24749
24755
24751
24750
24748
24755
24756
24756
24755
24749
24751
24748
24755
24745
24742
24750
24747
24750
24748
24746
24750
24742
24755
24744
24745
24741
24747
24746
24742
24745
24741
24748
24745
24745
24740
24748
24743
24745
24745
24748
24743
24740
24744
24743
24744
24734
24738
24741
24746
24739
24741
24743
24738
24743
24735
24739
24740
24739
24735
24740
24732
24741
24735
24743
24737
24741
24735
24734
24740
24735
24743
24737
24743
24743
24735
24739
24735
24735
24737
24735
24740
24741
24735
24741
24730
24743
24743
24733
24736
24731
24743
24733
24737
24735
24741
24739
24737
24739
24730
24732
24735
24732
24739
24729
24733
24734
24725
24733
24743
24740
24733
24732
24732
24733
24733
24733
24734
24735
24727
24736
24737
24732
24733
24725
24726
24735
24743
24731
24725
24732
24734
24735
24727
24727
24739
24725
24730
24727
24728
24706
24727
24733
24724
24735
24718
24729
24727
24727
24733
24725
24729
24722
24729
24727
24734
24736
24729
24735
24725
24731
24724
24714
24725
24726
24719
24723
24729
24723
24725
24732
24721
24732
24721
24729
24732
24722
24727
24732
24718
24725
24731
24720
24721
24723
24730
24733
24719
24724
24723
24727
24719
24727
24719
24732
24731
24716
24726
24719
24727
24727
24719
24724
24722
24717
24741
24725
24731
24719
24724
24730
24725
24731
24719
24732
24727
24718
24724
24718
24725
24729
24719
24719
24727
24718
24724
24719
24724
24726
24725
24717
24713
24725
24713
24718
24727
24721
24716
24723
24722
24719
24717
24717
24724
24711
24719
24725
24719
24722
24714
24724
24711
24718
24722
24717
24721
24719
24721
24715
24705
24716
24725
24714
24716
24722
24708
24711
24717
24711
24715
24713
24708
24718
24716
24710
24717
24711
24709
24715
24708
24711
24705
24714
24706
24711
24709
24711
24711
24710
24719
24711
24709
24707
24709
24703
24711
24706
24710
24708
24711
24704
24703
24711
24708
24711
24710
24700
24711
24710
24709
24711
24702
24710
24709
24711
24704
24710
24715
24705
24706
24711
24710
24708
24698
24702
24703
24709
24711
24701
24705
24703
24703
24707
24701
24705
24703
24705
24709
24706
24708
24702
24703
24702
24690
24704
24704
24701
24703
24709
24697
24702
24702
24700
24711
24702
24702
24711
24711
24700
24696
24701
24706
24701
24702
24700
24699
24708
24696
24699
24703
24695
24702
24708
24692
24698
24700
24695
24697
24695
24701
24703
24693
24701
24711
24705
24703
24692
24703
24707
24700
24699
24699
24697
24701
24695
24701
24700
24692
24699
24703
24694
24698
24699
24693
24695
24693
24698
24703
24699
24703
24687
24697
24687
24707
24700
24695
24703
24686
24703
24700
24690
24696
24694
24693
24695
24699
24693
24695
24708
24695
24690
24697
24705
24692
24687
24697
24701
24685
24693
24688
24695
24703
24693
24695
24686
24692
24701
24687
24695
24692
24693
24695
24695
24694
24692
24697
24685
24687
24693
24679
24686
24698
24686
24692
24692
24687
24687
24704
24685
24686
24699
24687
24695
24695
24686
24693
24684
24687
24695
24685
24692
24692
24685
24690
24692
24678
24695
24692
24679
24687
24701
24685
24689
24687
24692
24682
24695
24696
24682
24692
24687
24683
24693
24687
24692
24683
24693
24687
24689
24677
24695
24691
24685
24693
24686
24679
24686
24685
24682
24688
24688
24683
24682
24687
24680
24692
24689
24683
24687
24689
24682
24687
24682
24690
24685
24676
24685
24690
24679
24686
24693
24683
24685
24687
24679
24679
24685
24677
24685
24689
24676
24684
24690
24684
24684
24679
24685
24687
24679
24684
24692
24679
24682
24678
24687
24681
24678
24679
24683
24677
24684
24677
24679
24678
24677
24679
24679
24679
24680
24678
24673
24681
24685
24674
24679
24686
24671
24686
24679
24666
24676
24681
24677
24678
24680
24671
24683
24669
24679
24684
24671
24676
24679
24675
24677
24678
24671
24679
24685
24674
24675
24671
24678
24679
24665
24671
24679
24666
24674
24679
24670
24677
24677
24671
24675
24678
24670
24674
24667
24674
24674
24669
24673
24666
24678
24675
24674
24672
24663
24678
24677
24663
24669
24663
24672
24671
24666
24671
24661
24669
24676
24671
24676
24663
24671
24665
24674
24673
24663
24671
24662
24664
24663
24677
24665
24659
24672
24668
24656
24671
24663
24668
24655
24667
24685
24671
24670
24664
24671
24660
24664
24663
24666
24671
24660
24668
24663
24668
24677
24665
24667
24660
24666
24654
24674
24670
24660
24667
24679
24660
24671
24660
24666
24673
24663
24662
24662
24665
24662
24653
24663
24679
24664
24666
24659
24664
24662
24671
24660
24661
24671
24653
24659
24657
24653
24663
24654
24661
24669
24656
24661
24653
24655
24662
24652
24663
24663
24653
24667
24660
24650
24654
24661
24653
24655
24649
24660
24658
24671
24650
24651
24660
24652
24657
24659
24655
24657
24663
24650
24653
24647
24655
24657
24649
24652
24663
24652
24653
24647
24659
24647
24657
24657
24650
24652
24647
24655
24651
24654
24663
24652
24657
24647
24655
24652
24655
24650
24655
24646
24663
24658
24647
24658
24646
24653
24660
24655
24663
24653
24653
24644
24654
24659
24644
24651
24643
24653
24662
24647
24646
24645
24659
24649
24647
24652
24655
24642
24649
24653
24647
24652
24655
24646
24648
24644
24650
24657
24646
24654
24652
24645
24652
24657
24641
24652
24661
24645
24654
24646
24658
24657
24639
24654
24643
24649
24658
24654
24655
24647
24653
24647
24655
24647
24643
24661
24656
24645
24650
24652
24644
24649
24645
24645
24655
24647
24649
24647
24645
24638
24651
24657
24644
24645
24645
24644
24653
24645
24651
24657
24639
24657
24654
24644
24650
24682
24669
24668
24647
24657
24646
24652
24675
24649
24663
24644
24663
24684
24653
24671
24651
24677
24677
24653
24671
24649
24672
24676
24655
24661
24678
24659
24668
24658
24665
24663
24669
24655
24663
24663
24657
24652
24655
24659
24652
24652
24657
24655
24655
24647
24653
24657
24649
24650
24645
24654
24655
24650
24659
24651
24647
24652
24652
24647
24649
24655
24650
24647
24650
24655
24653
24647
24645
24646
24647
24657
24652
24645
24642
24648
24646
24649
24651
24644
24647
24646
24647
24647
24647
24641
24651
24641
24651
24652
24645
24646
24647
24647
24651
24647
24651
24641
24653
24649
24646
24651
24643
24642
24650
24641
24655
24655
24647
24644
24645
24651
24639
24655
24651
24641
24651
24642
24644
24646
24638
24645
24651
24644
24644
24642
24644
24657
24644
24646
24643
24636
24655
24646
24647
24634
24647
24636
24643
24644
24636
24646
24638
24643
24640
24650
24647
24638
24641
24642
24639
24639
24648
24641
24646
24645
24639
24645
24631
24647
24647
24642
24638
24655
24634
24644
24644
24636
24650
24647
24637
24653
24644
24639
24645
24636
24644
24642
24629
24631
24645
24643
24638
24635
24639
24648
24634
24641
24643
24637
24639
24652
24639
24647
24639
24643
24631
24641
24645
24638
24644
24639
24633
24644
24639
24647
24643
24631
24643
24647
24635
24644
24639
24639
24641
24636
24641
24640
24631
24643
24645
24635
24640
24634
24646
24646
24636
24634
24644
24633
24645
24641
24642
24640
24636
24643
24637
24642
24646
24634
24639
24647
24641
24641
24634
24643
24646
24631
24640
24636
24634
24641
24647
24638
24637
24631
24645
24645
24637
24639
24645
24633
24644
24642
24636
24638
24645
24641
24641
24636
24647
24653
24647
24642
24631
24639
24645
24638
24631
24642
24638
24644
24631
24636
24651
24632
24641
24634
24642
24642
24633
24639
24632
24645
24637
24631
24634
24643
24630
24639
24639
24628
24633
24628
24641
24638
24634
24633
24638
24633
24632
24628
24634
24636
24638
24642
24630
24631
24631
24636
24628
24638
24639
24628
24631
24641
24632
24636
24629
24633
24628
24638
24634
24638
24630
24631
24637
24622
24633
24636
24629
24636
24621
24628
24641
24625
24631
24623
24630
24625
24632
24628
24621
24624
24631
24625
24633
24620
24624
24613
24625
24631
24621
24623
24627
24620
24628
24623
24620
24609
24631
24633
24620
24627
24629
24623
24623
24628
24619
24625
24617
24618
24623
24630
24616
24623
24628
24623
24627
24616
24621
24629
24622
24625
24623
24622
24623
24617
24621
24623
24617
24624
24623
24615
24622
24614
24628
24623
24621
24623
24615
24623
24613
24623
24613
24626
24629
24618
24621
24619
24623
24615
24617
24625
24623
24625
24623
24625
24623
24622
24620
24621
24615
24615
24619
24614
24613
24623
24614
24620
24615
24607
24621
24627
24615
24623
24615
24623
24617
24613
24615
24615
24618
24609
24615
24620
24611
24614
24606
24610
24619
24612
24615
24609
24614
24629
24614
24615
24606
24610
24615
24607
24613
24617
24609
24614
24623
24611
24615
24602
24609
24601
24612
24611
24606
24607
24619
24609
24615
24601
24611
24609
24603
24611
24614
24602
24605
24612
24606
24613
24614
24614
24596
24610
24605
24607
24615
24603
24611
24610
24609
24604
24602
24609
24609
24599
24607
24606
24605
24610
24601
24604
24598
24607
24608
24599
24603
24594
24603
24599
24602
24596
24609
24611
24601
24575
24611
24607
24597
24602
24597
24606
24591
24600
24603
24595
24601
24605
24597
24604
24599
24599
24604
24594
24605
24602
24599
24603
24603
24596
24604
24605
24592
24597
24607
24591
24599
24596
24605
24607
24595
24603
24607
24599
24599
24592
24599
24601
24592
24604
24605
24591
24596
24596
24611
24602
24591
24603
24594
24605
24605
24593
24599
24597
24599
24598
24597
24594
24604
24593
24598
24601
24590
24593
24604
24593
24593
24605
24583
24607
24606
24596
24598
24601
24596
24604
24599
24592
24606
24604
24596
24599
24596
24605
24603
24589
24601
24607
24595
24599
24590
24597
24598
24597
24594
24599
24588
24599
24605
24597
24601
24603
24596
24597
24603
24591
24595
24599
24591
24599
24598
24590
24607
24601
24593
24605
24599
24595
24596
24595
24590
24595
24599
24607
24592
24596
24605
24589
24604
24607
24595
24599
24583
24602
24603
24593
24607
24599
24589
24593
24593
24598
24596
24611
24591
24597
24591
24604
24604
24591
24593
24599
24596
24592
24602
24583
24592
24604
24583
24590
24583
24596
24597
24583
24592
24602
24583
24596
24596
24583
24594
24596
24599
24583
24592
24598
24583
24593
24596
24583
24595
24589
24583
24583
24594
24583
24591
24591
24583
24590
24591
24583
24589
24589
24588
24583
24594
24582
24591
24583
24583
24591
24583
24591
24581
24593
24589
24582
24582
24588
24591
24583
24583
24583
24596
24579
24583
24596
24576
24583
24589
24579
24583
24591
24581
24595
24588
24583
24583
24583
24597
24583
24583
24586
24580
24594
24583
24583
24583
24589
24578
24589
24583
24579
24583
24588
24581
24583
24590
24581
24583
24577
24589
24583
24582
24579
24583
24577
24577
24583
24583
24569
24581
24590
24581
24588
24583
24582
24582
24583
24595
24580
24583
24583
24588
24578
24581
24589
24580
24582
24583
24580
24583
24583
24581
24583
24581
24573
24583
24583
24594
24576
24583
24583
24581
24578
24588
24577
24576
24575
24577
24583
24583
24573
24581
24583
24574
24580
24583
24574
24576
24583
24577
24580
24573
24583
24576
24574
24576
24583
24573
24575
24570
24574
24572
24582
24571
24583
24577
24574
24574
24579
24578
24591
24583
24597
24578
24579
24602
24579
24589
24608
24582
24591
24573
24599
24596
24574
24583
24588
24604
24574
24615
24597
24581
24612
24601
24583
24590
24602
24612
24589
24605
24597
24615
24591
24595
24583
24593
24595
24606
24591
24591
24596
24583
24583
24583
24597
24579
24583
24575
24583
24583
24576
24582
24583
24575
24581
24578
24581
24583
24579
24576
24579
24583
24583
24580
24580
24582
24583
24569
24580
24578
24577
24576
24583
24575
24578
24580
24574
24577
24572
24581
24579
24572
24573
24575
24578
24566
24575
24575
24578
24571
24575
24567
24574
24577
24571
24572
24575
24567
24571
24575
24575
24570
24571
24571
24575
24566
24572
24572
24567
24570
24575
24577
24561
24572
24574
24569
24567
24572
24562
24572
24572
24568
24573
24551
24575
24572
24566
24575
24575
24564
24565
24575
24564
24571
24570
24565
24572
24575
24565
24568
24576
24566
24570
24559
24567
24575
24564
24575
24560
24566
24566
24565
24571
24573
24574
24562
24570
24575
24567
24568
24580
24566
24570
24573
24565
24572
24567
24568
24568
24560
24570
24574
24563
24564
24567
24562
24568
24580
24570
24566
24553
24567
24566
24566
24567
24557
24564
24567
24560
24564
24567
24557
24562
24572
24559
24566
24557
24567
24565
24557
24564
24561
24566
24570
24564
24569
24561
24565
24567
24563
24567
24567
24559
24566
24578
24562
24568
24559
24561
24566
24573
24558
24560
24564
24565
24564
24575
24556
24561
24577
24562
24567
24550
24563
24571
24558
24557
24563
24559
24564
24562
24551
24559
24564
24559
24559
24565
24555
24561
24565
24559
24563
24558
24573
24567
24557
24564
24558
24559
24569
24566
24566
24554
24561
24557
24564
24565
24559
24564
24559
24565
24565
24553
24561
24554
24563
24565
24550
24565
24556
24565
24564
24555
24559
24549
24551
24574
24556
24563
24553
24556
24569
24558
24563
24551
24568
24562
24557
24560
24567
24551
24560
24557
24553
24556
24564
24560
24556
24557
24559
24553
24554
24559
24551
24558
24564
24555
24556
24556
24558
24554
24549
24552
24554
24557
24549
24551
24545
24551
24551
24551
24555
24551
24549
24555
24559
24548
24559
24549
24549
24554
24551
24548
24550
24551
24549
24554
24551
24546
24551
24547
24551
24551
24546
24548
24550
24551
24551
24550
24547
24551
24550
24563
24551
24559
24544
24549
24548
24543
24545
24548
24561
24543
24548
24559
24548
24544
24549
24553
24549
24551
24551
24549
24548
24551
24551
24540
24551
24553
24542
24550
24548
24559
24544
24549
24551
24537
24551
24550
24548
24543
24548
24543
24543
24543
24547
24548
24547
24546
24548
24543
24542
24542
24546
24540
24547
24543
24551
24547
24545
24548
24549
24542
24547
24550
24542
24545
24554
24538
24544
24540
24555
24548
24542
24547
24550
24537
24546
24549
24537
24545
24551
24548
24551
24540
24540
24545
24541
24549
24539
24543
24541
24543
24546
24535
24547
24551
24538
24542
24549
24536
24548
24544
24536
24544
24548
24535
24541
24548
24543
24548
24550
24539
24538
24537
24548
24546
24535
24540
24542
24534
24541
24551
24539
24542
24543
24536
24538
24554
24538
24542
24543
24533
24541
24541
24535
24540
24536
24552
24543
24545
24538
24543
24543
24532
24538
24541
24548
24539
24542
24526
24545
24546
24532
24537
24547
24539
24539
24535
24543
24532
24543
24551
24547
24542
24540
24543
24537
24543
24542
24533
24542
24543
24526
24547
24540
24535
24539
24547
24538
24539
24551
24532
24545
24533
24535
24540
24535
24546
24541
24526
24537
24537
24529
24547
24543
24531
24539
24538
24531
24534
24538
24540
24539
24537
24535
24548
24538
24542
24527
24540
24539
24526
24542
24540
24524
24538
24535
24532
24541
24538
24527
24538
24536
24527
24533
24537
24540
24527
24536
24534
24508
24526
24532
24539
24527
24535
24532
24538
24538
24524
24539
24535
24531
24535
24532
24530
24529
24535
24525
24533
24535
24527
24531
24522
24526
24531
24527
24527
24536
24542
24522
24531
24540
24535
24539
24527
24528
24532
24540
24523
24529
24532
24527
24543
24533
24524
24534
24527
24536
24535
24525
24531
24524
24537
24532
24526
24525
24532
24520
24534
24533
24518
24526
24535
24527
24527
24533
24526
24530
24534
24522
24532
24522
24524
24529
24521
24527
24524
24518
24530
24528
24525
24527
24523
24537
24531
24528
24533
24526
24528
24519
24527
24522
24531
24525
24514
24527
24534
24525
24526
24519
24521
24527
24521
24527
24529
24521
24519
24527
24535
24523
24520
24510
24526
24529
24519
24531
24527
24515
24517
24529
24516
24521
24531
24522
24538
24519
24512
24527
24517
24523
24518
24525
24527
24517
24523
24531
24519
24520
24526
24518
24527
24537
24519
24527
24516
24535
24521
24514
24518
24526
24513
24516
24524
24514
24519
24519
24516
24522
24519
24524
24505
24516
24526
24516
24516
24533
24516
24523
24529
24513
24517
24530
24516
24516
24510
24526
24519
24514
24517
24516
24518
24518
24523
24511
24524
24519
24511
24518
24509
24522
24519
24512
24517
24508
24517
24524
24511
24518
24522
24512
24519
24515
24516
24516
24511
24516
24513
24512
24519
24510
24519
24514
24516
24518
24508
24519
24514
24507
24519
24518
24511
24513
24519
24518
24515
24514
24509
24519
24511
24516
24509
24517
24523
24526
24513
24513
24504
24515
24512
24510
24521
24512
24513
24515
24516
24519
24505
24519
24516
24509
24516
24518
24509
24510
24505
24511
24518
24500
24513
24509
24512
24509
24516
24515
24510
24509
24496
24517
24511
24506
24504
24501
24501
24511
24504
24505
24501
24500
24507
24497
24517
24516
24500
24512
24501
24506
24511
24505
24523
24512
24500
24510
24523
24501
24510
24519
24497
24525
24525
24500
24515
24533
24519
24521
24502
24521
24538
24506
24527
24511
24541
24537
24516
24538
24529
24517
24527
24530
24555
24519
24522
24514
24517
24528
24514
24514
24523
24524
24513
24519
24514
24510
24510
24517
24506
24516
24519
24517
24515
24511
24510
24519
24513
24516
24515
24513
24519
24512
24513
24515
24509
24510
24506
24513
24507
24507
24514
24511
24506
24510
24500
24503
24513
24506
24507
24513
24503
24516
24511
24504
24505
24505
24501
24508
24509
24503
24503
24503
24512
24511
24500
24509
24502
24507
24509
24501
24501
24510
24503
24504
24508
24501
24509
24506
24500
24505
24495
24503
24506
24508
24507
24498
24503
24499
24503
24510
24508
24507
24500
24505
24501
24508
24497
24498
24501
24500
24505
24503
24507
24500
24499
24504
24495
24502
24511
24507
24505
24500
24497
24499
24503
24503
24492
24499
24508
24499
24500
24495
24503
24494
24503
24508
24498
24500
24492
24496
24500
24494
24501
24503
24494
24502
24501
24503
24495
24497
24507
24497
24497
24506
24492
24503
24505
24490
24502
24501
24497
24497
24506
24492
24500
24499
24493
24497
24509
24495
24498
24495
24506
24496
24495
24503
24489
24502
24509
24493
24503
24495
24501
24497
24489
24495
24501
24491
24501
24501
24495
24505
24497
24505
24495
24499
24493
24499
24503
24497
24497
24493
24501
24503
24493
24495
24495
24497
24502
24493
24502
24511
24500
24495
24513
24494
24502
24489
24508
24503
24495
24500
24502
24498
24502
24503
24494
24503
24509
24491
24500
24504
24495
24502
24497
24499
24499
24503
24493
24501
24515
24497
24501
24513
24496
24500
24495
24497
24503
24489
24498
24496
24489
24495
24503
24488
24503
24507
24492
24500
24492
24494
24493
24506
24493
24493
24497
24495
24497
24498
24487
24493
24495
24501
24493
24492
24495
24487
24492
24493
24489
24494
24495
24492
24492
24495
24493
24487
24495
24494
24485
24493
24493
24487
24499
24492
24485
24495
24493
24484
24495
24494
24486
24487
24492
24485
24489
24489
24484
24490
24495
24492
24492
24487
24480
24486
24486
24485
24493
24484
24484
24489
24484
24487
24479
24485
24489
24485
24491
24481
24491
24487
24474
24484
24479
24487
24486
24476
24484
24469
24482
24487
24479
24486
24489
24482
24483
24477
24480
24483
24478
24480
24487
24481
24485
24478
24481
24485
24477
24479
24489
24479
24485
24476
24486
24483
24479
24480
24481
24477
24487
24473
24481
24476
24479
24484
24480
24474
24476
24478
24473
24480
24487
24476
24482
24478
24478
24484
24471
24473
24487
24473
24474
24474
24483
24479
24473
24477
24485
24472
24481
24471
24482
24481
24473
24483
24468
24477
24485
24476
24479
24464
24477
24481
24466
24478
24477
24470
24484
24477
24467
24470
24476
24485
24471
24470
24483
24468
24469
24474
24463
24468
24479
24465
24471
24477
24486
24461
24471
24475
24471
24479
24478
24469
24477
24473
24484
24471
24471
24477
24467
24471
24472
24479
24462
24466
24476
24471
24473
24465
24469
24468
24470
24476
24463
24474
24470
24471
24463
24465
24468
24472
24463
24478
24471
24468
24472
24463
24480
24460
24465
24468
24460
24461
24467
24466
24466
24466
24470
24463
24475
24470
24458
24464
24470
24462
24463
24466
24457
24470
24474
24455
24476
24471
24458
24472
24466
24460
24462
24482
24459
24473
24456
24466
24469
24453
24470
24464
24460
24463
24465
24455
24458
24464
24457
24466
24465
24461
24465
24470
24460
24468
24458
24465
24468
24455
24471
24468
24455
24466
24461
24466
24457
24463
24465
24455
24462
24463
24455
24462
24463
24469
24455
24461
24455
24457
24463
24463
24456
24465
24471
24453
24462
24469
24461
24457
24470
24461
24463
24462
24460
24462
24475
24459
24463
24452
24463
24457
24459
24464
24457
24460
24463
24453
24462
24463
24463
24452
24460
24462
24453
24461
24455
24460
24468
24454
24460
24470
24455
24463
24458
24457
24462
24452
24453
24460
24469
24453
24454
24452
24458
24461
24453
24455
24459
24452
24458
24453
24462
24461
24450
24460
24453
24461
24455
24454
24458
24455
24453
24455
24470
24452
24460
24452
24455
24459
24454
24455
24463
24449
24455
24460
24459
24449
24461
24455
24454
24447
24458
24463
24444
24453
24463
24452
24450
24455
24452
24455
24460
24452
24452
24459
24450
24450
24455
24458
24452
24448
24455
24463
24455
24454
24456
24455
24461
24450
24452
24455
24458
24454
24449
24455
24447
24462
24459
24436
24463
24455
24455
24449
24452
24446
24455
24452
24447
24447
24457
24449
24451
24452
24446
24451
24446
24447
24452
24445
24452
24447
24455
24453
24447
24454
24453
24446
24447
24454
24444
24452
24457
24455
24452
24452
24454
24449
24454
24446
24447
24455
24442
24450
24446
24455
24451
24445
24447
24441
24447
24460
24449
24452
24449
24452
24451
24457
24450
24440
24450
24446
24447
24455
24449
24450
24443
24452
24446
24455
24455
24439
24447
24461
24452
24449
24439
24452
24444
24445
24450
24450
24455
24444
24447
24453
24442
24450
24441
24449
24452
24447
24449
24445
24447
24453
24451
24454
24447
24444
24457
24443
24447
24455
24446
24442
24452
24437
24450
24454
24439
24447
24446
24441
24450
24451
24440
24447
24446
24444
24440
24444
24450
24443
24447
24454
24441
24445
24452
24441
24442
24444
24444
24446
24448
24444
24446
24443
24451
24447
24443
24439
24443
24446
24436
24445
24445
24441
24446
24434
24451
24448
24446
24438
24460
24445
24441
24441
24451
24443
24439
24441
24447
24437
24446
24454
24445
24444
24435
24442
24442
24433
24445
24430
24447
24443
24436
24439
24442
24437
24439
24455
24443
24443
24436
24439
24445
24436
24443
24464
24445
24448
24432
24444
24479
24452
24451
24433
24465
24463
24434
24445
24463
24439
24465
24459
24509
24438
24458
24444
24447
24453
24495
24452
24469
24447
24470
24466
24446
24455
24447
24455
24451
24466
24460
24452
24455
24452
24452
24445
24453
24447
24447
24447
24440
24447
24444
24441
24451
24449
24447
24444
24446
24444
24444
24441
24446
24447
24439
24445
24447
24447
24445
24446
24441
24447
24445
24447
24446
24439
24443
24442
24444
24442
24438
24435
24439
24437
24443
24441
24441
24439
24437
24440
24441
24435
24433
24444
24436
24441
24443
24416
24442
24436
24431
24441
24439
24430
24438
24439
24432
24436
24436
24438
24432
24439
24431
24436
24438
24431
24436
24438
24430
24437
24439
24430
24429
24436
24428
24436
24439
24428
24441
24439
24430
24432
24436
24430
24437
24433
24433
24433
24439
24432
24435
24434
24435
24437
24432
24433
24428
24429
24431
24431
24436
24426
24425
24425
24430
24423
24433
24436
24426
24434
24433
24423
24431
24438
24429
24429
24430
24423
24428
24431
24425
24433
24431
24431
24423
24431
24431
24431
24435
24423
24429
24431
24422
24429
24426
24421
24430
24430
24422
24431
24429
24422
24428
24431
24429
24428
24425
24435
24426
24423
24430
24431
24423
24423
24423
24430
24430
24417
24425
24431
24429
24430
24419
24432
24431
24420
24431
24431
24423
24427
24427
24430
24421
24433
24430
24422
24429
24428
24419
24429
24427
24430
24423
24434
24428
24421
24423
24425
24417
24427
24431
24423
24434
24431
24417
24422
24431
24430
24428
24426
24421
24426
24431
24425
24423
24431
24426
24423
24419
24423
24426
24420
24426
24430
24420
24428
24431
24419
24426
24426
24416
24424
24420
24422
24428
24419
24426
24421
24426
24425
24417
24428
24423
24416
24419
24431
24425
24417
24423
24420
24429
24420
24420
24429
24426
24414
24427
24421
24410
24418
24416
24430
24416
24420
24425
24413
24419
24423
24415
24419
24410
24417
24419
24413
24423
24423
24415
24417
24419
24415
24417
24423
24408
24418
24404
24420
24418
24407
24425
24418
24419
24411
24409
24413
24413
24421
24413
24407
24415
24410
24409
24413
24413
24420
24409
24418
24412
24404
24408
24413
24403
24412
24414
24408
24414
24407
24409
24415
24409
24411
24417
24407
24408
24405
24405
24409
24407
24410
24411
24400
24407
24408
24415
24405
24413
24418
24411
24405
24402
24404
24410
24413
24398
24407
24400
24413
24413
24397
24402
24405
24411
24407
24404
24407
24402
24407
24401
24402
24410
24404
24404
24408
24392
24404
24409
24404
24407
24404
24407
24399
24405
24412
24404
24408
24415
24406
24398
24403
24399
24408
24402
24409
24409
24395
24397
24403
24395
24404
24404
24396
24397
24399
24406
24392
24403
24407
24396
24404
24405
24396
24400
24404
24397
24405
24404
24393
24403
24396
24415
24399
24393
24411
24396
24403
24394
24400
24401
24408
24397
24399
24397
24404
24402
24399
24404
24405
24391
24407
24404
24390
24403
24395
24398
24399
24395
24397
24400
24406
24396
24399
24408
24411
24391
24394
24388
24401
24391
24396
24396
24400
24396
24392
24403
24402
24393
24402
24398
24387
24397
24391
24407
24395
24400
24399
24393
24396
24398
24399
24392
24401
24404
24391
24398
24391
24399
24392
24391
24395
24404
24391
24393
24393
24396
24399
24393
24391
24409
24400
24398
24391
24399
24390
24394
24393
24385
24395
24397
24384
24391
24395
24391
24390
24396
24388
24389
24391
24396
24387
24393
24397
24391
24388
24394
24393
24390
24391
24399
24385
24389
24387
24383
24390
24399
24390
24393
24391
24391
24395
24394
24387
24394
24391
24404
24388
24394
24399
24391
24389
24394
24385
24390
24398
24391
24391
24395
24386
24388
24398
24386
24388
24382
24392
24393
24383
24396
24391
24390
24389
24389
24402
24383
24391
24393
24387
24395
24399
24382
24391
24398
24388
24389
24391
24386
24388
24394
24384
24388
24381
24390
24388
24380
24390
24396
24387
24385
24394
24382
24387
24392
24388
24383
24394
24385
24391
24386
24390
24391
24383
24393
24396
24384
24388
24379
24382
24393
24388
24389
24378
24390
24391
24382
24388
24384
24396
24390
24391
24389
24394
24387
24388
24380
24396
24388
24379
24384
24390
24382
24388
24388
24377
24387
24391
24381
24378
24388
24378
24391
24381
24382
24387
24379
24385
24389
24376
24382
24391
24380
24386
24378
24388
24388
24387
24388
24380
24382
24389
24382
24388
24381
24388
24389
24375
24387
24381
24380
24378
24392
24386
24382
24383
24379
24387
24390
24375
24382
24374
24386
24377
24382
24392
24391
24386
24388
24389
24375
24391
24387
24386
24381
24388
24367
24382
24375
24380
24382
24378
24383
24377
24386
24383
24378
24389
24373
24376
24386
24375
24386
24370
24378
24374
24381
24370
24379
24378
24384
24375
24376
24374
24378
24391
24387
24383
24377
24385
24374
24386
24391
24379
24380
24372
24387
24388
24372
24385
24382
24372
24379
24378
24390
24378
24377
24373
24378
24381
24372
24383
24375
24370
24373
24381
24370
24381
24387
24385
24379
24375
24380
24375
24383
24370
24376
24380
24371
24374
24391
24375
24376
24364
24375
24385
24371
24377
24384
24369
24380
24380
24374
24381
24382
24373
24375
24382
24375
24375
24372
24374
24374
24368
24376
24380
24384
24368
24368
24370
24387
24373
24375
24381
24364
24372
24369
24375
24375
24373
24379
24368
24377
24367
24375
24381
24374
24376
24372
24375
24368
24372
24372
24379
24381
24362
24373
24369
24369
24381
24371
24372
24369
24374
24366
24370
24376
24380
24378
24365
24374
24378
24370
24380
24363
24373
24370
24367
24372
24378
24365
24381
24374
24364
24365
24378
24367
24372
24366
24370
24373
24367
24375
24367
24366
24367
24378
24373
24372
24361
24367
24364
24369
24374
24359
24373
24362
24367
24370
24364
24368
24388
24364
24366
24360
24370
24378
24369
24374
24388
24360
24362
24372
24393
24358
24383
24364
24396
24388
24366
24382
24391
24373
24388
24399
24372
24400
24399
24372
24387
24425
24383
24391
24372
24387
24373
24388
24391
24377
24388
24386
24377
24376
24379
24372
24378
24380
24367
24377
24368
24380
24372
24374
24373
24374
24380
24371
24377
24371
24375
24379
24370
24380
24375
24369
24371
24373
24374
24373
24372
24371
24377
24369
24379
24366
24371
24374
24370
24372
24366
24367
24374
24367
24371
24367
24366
24375
24364
24364
24378
24360
24370
24375
24371
24367
24366
24371
24376
24366
24369
24364
24371
24369
24371
24364
24365
24367
24381
24372
24367
24361
24370
24370
24364
24369
24358
24372
24366
24364
24364
24363
24366
24362
24358
24360
24369
24368
24360
24366
24367
24359
24365
24369
24361
24364
24365
24369
24366
24360
24364
24370
24363
24369
24371
24359
24360
24359
24363
24363
24362
24363
24359
24359
24362
24364
24360
24373
24369
24357
24359
24366
24364
24364
24359
24361
24363
24359
24364
24363
24356
24367
24359
24357
24363
24362
24354
24358
24367
24356
24362
24366
24359
24362
24364
24359
24363
24358
24360
24361
24359
24362
24356
24365
24365
24357
24365
24359
24362
24366
24359
24364
24368
24359
24367
24372
24357
24356
24364
24358
24361
24365
24353
24361
24338
24361
24367
24356
24359
24364
24358
24370
24364
24354
24365
24360
24353
24363
24367
24358
24360
24357
24354
24360
24361
24359
24361
24366
24355
24362
24367
24358
24370
24362
24358
24361
24359
24359
24362
24374
24358
24358
24373
24359
24361
24354
24369
24362
24353
24362
24365
24356
24363
24359
24363
24362
24359
24357
24366
24357
24361
24371
24355
24361
24363
24350
24364
24370
24353
24357
24371
24359
24366
24351
24356
24356
24364
24358
24367
24360
24375
24349
24357
24359
24353
24359
24364
24358
24359
24363
24349
24358
24358
24360
24348
24358
24355
24366
24353
24357
24363
24350
24350
24357
24348
24360
24354
24351
24359
24359
24351
24356
24354
24351
24357
24361
24353
24352
24346
24357
24355
24347
24352
24351
24342
24349
24359
24343
24351
24352
24343
24343
24354
24347
24347
24353
24341
24346
24352
24349
24348
24336
24343
24349
24345
24347
24352
24346
24353
24356
24361
24350
24348
24352
24341
24350
24351
24340
24346
24343
24356
24338
24348
24362
24342
24355
24344
24341
24350
24343
24350
24342
24343
24348
24348
24342
24343
24345
24349
24349
24345
24346
24348
24340
24344
24351
24343
24347
24345
24348
24342
24339
24353
24343
24341
24350
24337
24348
24351
24342
24343
24349
24349
24340
24348
24343
24347
24351
24347
24349
24353
24339
24347
24354
24341
24348
24343
24347
24350
24337
24349
24351
24340
24345
24345
24341
24345
24346
24340
24344
24327
24340
24347
24348
24340
24339
24346
24338
24344
24355
24347
24348
24340
24341
24345
24338
24343
24343
24336
24341
24345
24346
24335
24349
24347
24337
24346
24340
24337
24341
24348
24339
24343
24330
24341
24347
24338
24340
24335
24342
24350
24331
24343
24346
24335
24343
24345
24334
24344
24342
24337
24342
24339
24347
24332
24337
24351
24332
24338
24346
24339
24346
24343
24332
24340
24348
24333
24342
24346
24335
24343
24343
24330
24342
24342
24331
24335
24343
24331
24338
24340
24330
24340
24341
24342
24332
24343
24339
24334
24342
24337
24327
24341
24343
24347
24335
24340
24348
24334
24342
24330
24336
24340
24335
24335
24338
24344
24335
24346
24343
24332
24338
24340
24353
24333
24337
24339
24344
24343
24337
24339
24337
24332
24342
24347
24335
24336
24339
24330
24340
24327
24340
24340
24328
24341
24347
24327
24335
24351
24332
24338
24337
24333
24339
24335
24345
24324
24340
24335
24339
24324
24346
24337
24338
24326
24330
24343
24327
24346
24337
24345
24327
24329
24335
24338
24339
24327
24333
24341
24327
24335
24327
24336
24341
24332
24333
24343
24335
24340
24327
24330
24337
24340
24327
24343
24340
24343
24327
24329
24338
24324
24334
24341
24327
24334
24337
24324
24332
24338
24327
24332
24339
24345
24327
24338
24337
24326
24327
24335
24335
24327
24327
24327
24335
24326
24327
24335
24326
24336
24335
24327
24339
24326
24350
24324
24327
24331
24337
24324
24333
24332
24327
24327
24332
24327
24332
24333
24327
24327
24329
24325
24327
24336
24327
24339
24337
24324
24340
24339
24320
24329
24334
24322
24337
24333
24326
24337
24333
24326
24327
24335
24343
24324
24333
24333
24326
24334
24327
24333
24323
24327
24319
24325
24332
24334
24322
24335
24340
24327
24327
24350
24331
24335
24324
24327
24335
24339
24337
24327
24327
24324
24327
24327
24323
24337
24324
24331
24321
24332
24338
24327
24328
24322
24338
24334
24326
24327
24321
24327
24338
24336
24333
24325
24327
24318
24337
24332
24322
24327
24327
24316
24330
24343
24324
24327
24319
24324
24332
24319
24324
24335
24322
24327
24333
24321
24327
24315
24322
24330
24327
24320
24327
24324
24320
24333
24324
24340
24314
24327
24335
24315
24327
24327
24322
24327
24327
24318
24328
24327
24313
24320
24327
24318
24327
24331
24340
24319
24319
24313
24322
24325
24323
24314
24323
24327
24322
24321
24327
24335
24315
24319
24327
24316
24318
24321
24327
24316
24321
24323
24327
24316
24325
24327
24316
24325
24322
24327
24315
24322
24327
24316
24314
24327
24327
24317
24321
24326
24319
24324
24317
24319
24311
24325
24315
24324
24329
24321
24313
24326
24322
24318
24324
24324
24313
24325
24320
24327
24319
24323
24327
24316
24318
24324
24326
24315
24319
24321
24313
24327
24321
24327
24315
24326
24316
24327
24316
24316
24317
24322
24333
24315
24324
24332
24315
24318
24327
24312
24324
24317
24330
24327
24313
24319
24319
24316
24319
24327
24327
24311
24326
24323
24327
24308
24325
24319
24324
24309
24319
24316
24326
24313
24321
24322
24310
24327
24319
24317
24311
24318
24326
24311
24320
24310
24319
24326
24308
24313
24346
24310
24322
24341
24311
24323
24333
24313
24325
24337
24308
24340
24343
24306
24327
24353
24322
24334
24357
24319
24335
24364
24324
24339
24370
24335
24343
24319
24340
24342
24319
24335
24337
24327
24328
24319
24327
24318
24327
24327
24325
24319
24318
24325
24315
24320
24324
24321
24325
24324
24319
24323
24325
24323
24319
24319
24322
24319
24319
24314
24323
24324
24319
24323
24310
24318
24319
24316
24311
24309
24316
24315
24316
24316
24309
24319
24325
24310
24315
24315
24319
24318
24310
24322
24318
24308
24317
24309
24316
24311
24307
24316
24313
24311
24312
24315
24307
24310
24309
24311
24315
24311
24321
24308
24314
24317
24308
24309
24314
24301
24314
24316
24303
24314
24315
24308
24316
24308
24310
24305
24308
24318
24303
24311
24315
24303
24311
24306
24312
24305
24301
24317
24303
24315
24310
24299
24311
24308
24301
24313
24309
24298
24311
24308
24298
24308
24308
24303
24311
24303
24309
24307
24303
24309
24316
24296
24305
24308
24294
24305
24303
24306
24308
24303
24315
24311
24293
24316
24304
24300
24301
24308
24300
24303
24301
24306
24309
24300
24309
24299
24305
24300
24308
24315
24309
24308
24301
24301
24305
24300
24307
24294
24303
24303
24316
24302
24303
24297
24295
24297
24307
24300
24301
24309
24300
24302
24305
24297
24307
24303
24294
24307
24302
24299
24301
24303
24311
24297
24297
24301
24311
24299
24305
24303
24299
24300
24312
24300
24307
24310
24295
24307
24294
24294
24295
24314
24303
24303
24303
24294
24308
24303
24295
24301
24299
24305
24295
24300
24303
24293
24303
24301
24295
24299
24298
24306
24293
24307
24301
24288
24293
24298
24298
24300
24308
24291
24309
24295
24295
24298
24295
24303
24310
24295
24297
24305
24294
24308
24296
24294
24295
24300
24285
24296
24296
24292
24295
24299
24293
24294
24294
24295
24289
24285
24295
24294
24287
24300
24295
24291
24289
24295
24288
24287
24292
24303
24287
24293
24287
24289
24295
24285
24293
24287
24290
24301
24287
24295
24287
24293
24293
24285
24289
24299
24291
24295
24287
24293
24283
24292
24287
24292
24284
24295
24287
24289
24279
24290
24291
24283
24286
24291
24282
24287
24284
24287
24287
24293
24295
24280
24286
24287
24287
24285
24286
24285
24289
24289
24279
24282
24276
24286
24287
24278
24292
24290
24283
24283
24281
24286
24279
24285
24274
24286
24265
24279
24287
24299
24280
24284
24279
24279
24287
24293
24278
24284
24290
24281
24295
24287
24269
24283
24280
24289
24281
24291
24282
24282
24293
24281
24287
24281
24279
24288
24286
24279
24280
24285
24285
24279
24287
24290
24273
24279
24289
24271
24294
24287
24273
24285
24285
24294
24286
24290
24292
24277
24290
24285
24279
24285
24287
24287
24283
24282
24287
24281
24291
24287
24274
24282
24292
24293
24281
24285
24287
24279
24295
24287
24279
24283
24287
24287
24284
24284
24288
24279
24282
24289
24277
24277
24295
24281
24292
24279
24281
24288
24282
24282
24279
24286
24279
24283
24284
24287
24276
24283
24286
24285
24291
24277
24286
24279
24289
24277
24274
24287
24295
24285
24284
24286
24274
24284
24282
24274
24286
24274
24284
24274
24287
24286
24273
24274
24282
24291
24277
24283
24281
24277
24275
24280
24281
24279
24272
24287
24283
24299
24278
24284
24292
24279
24284
24280
24273
24291
24277
24291
24276
24284
24287
24273
24278
24271
24282
24277
24285
24274
24276
24288
24277
24281
24275
24284
24283
24273
24282
24279
24273
24279
24271
24275
24281
24265
24277
24268
24282
24282
24270
24275
24273
24276
24279
24275
24283
24276
24272
24279
24279
24275
24274
24283
24269
24279
24265
24271
24274
24286
24269
24278
24279
24274
24267
24275
24268
24276
24287
24263
24273
24269
24269
24277
24265
24274
24271
24261
24276
24279
24267
24269
24272
24283
24270
24277
24277
24271
24268
24275
24268
24271
24274
24265
24268
24270
24271
24264
24269
24276
24267
24270
24275
24265
24271
24275
24266
24271
24277
24267
24273
24275
24263
24273
24278
24262
24273
24275
24267
24271
24273
24257
24266
24281
24265
24268
24261
24275
24277
24263
24272
24270
24262
24271
24271
24262
24273
24271
24261
24274
24266
24263
24263
24266
24268
24258
24263
24271
24279
24269
24271
24269
24260
24262
24265
24265
24261
24267
24270
24269
24260
24269
24268
24271
24260
24269
24266
24272
24267
24267
24264
24255
24254
24261
24265
24274
24260
24277
24265
24263
24266
24263
24257
24266
24268
24260
24263
24263
24271
24258
24266
24260
24260
24262
24271
24263
24265
24261
24262
24263
24269
24255
24261
24271
24257
24263
24260
24265
24253
24263
24269
24273
24260
24269
24263
24271
24261
24263
24275
24263
24260
24260
24254
24267
24267
24255
24263
24265
24252
24256
24261
24255
24260
24263
24248
24260
24262
24254
24261
24262
24259
24258
24251
24251
24261
24251
24263
24261
24254
24270
24267
24252
24255
24259
24252
24265
24265
24253
24261
24261
24250
24262
24265
24254
24261
24263
24257
24263
24267
24261
24265
24261
24255
24261
24267
24254
24260
24255
24260
24264
24257
24253
24261
24250
24257
24261
24261
24255
24260
24262
24253
24255
24257
24256
24247
24248
24256
24257
24255
24262
24263
24247
24258
24248
24260
24255
24257
24254
24257
24253
24256
24257
24246
24255
24248
24251
24261
24260
24251
24259
24255
24263
24251
24252
24261
24249
24253
24255
24247
24250
24253
24247
24252
24258
24245
24252
24252
24249
24255
24262
24251
24256
24259
24250
24254
24258
24255
24255
24251
24252
24250
24255
24247
24248
24252
24244
24244
24253
24249
24241
24250
24258
24243
24249
24254
24247
24246
24233
24247
24250
24244
24254
24254
24242
24251
24262
24253
24258
24247
24254
24269
24252
24255
24267
24247
24263
24257
24267
24298
24262
24268
24249
24262
24296
24269
24271
24254
24268
24271
24284
24262
24273
24289
24259
24277
24293
24267
24268
24273
24263
24271
24274
24260
24263
24268
24263
24264
24271
24256
24265
24274
24253
24262
24261
24257
24253
24257
24252
24261
24248
24257
24255
24251
24255
24241
24255
24260
24248
24254
24258
24249
24255
24260
24249
24254
24262
24251
24255
24251
24252
24254
24250
24255
24253
24249
24253
24244
24250
24250
24249
24246
24255
24239
24252
24250
24246
24255
24253
24242
24247
24251
24245
24252
24250
24242
24241
24251
24247
24245
24245
24250
24244
24248
24251
24247
24245
24261
24245
24242
24247
24244
24241
24251
24247
24240
24249
24250
24240
24241
24239
24247
24247
24239
24239
24240
24247
24237
24253
24243
24233
24241
24233
24242
24246
24238
24244
24235
24241
24236
24236
24243
24236
24237
24237
24243
24236
24242
24245
24236
24245
24234
24239
24231
24236
24245
24234
24244
24244
24234
24245
24231
24245
24244
24237
24244
24237
24239
24251
24233
24244
24237
24237
24244
24238
24249
24236
24242
24231
24232
24244
24233
24239
24255
24235
24245
24247
24239
24239
24231
24236
24250
24238
24235
24233
24247
24247
24228
24239
24235
24231
24237
24243
24241
24233
24237
24245
24229
24230
24236
24245
24228
24240
24234
24230
24239
24239
24230
24233
24235
24243
24230
24234
24243
24227
24239
24231
24242
24228
24239
24236
24239
24241
24231
24230
24237
24236
24224
24241
24235
24247
24230
24230
24252
24231
24235
24239
24227
24240
24237
24231
24234
24234
24228
24230
24230
24233
24244
24228
24234
24231
24245
24228
24231
24237
24249
24231
24240
24237
24243
24221
24234
24235
24226
24228
24231
24235
24226
24229
24229
24235
24220
24236
24231
24229
24228
24227
24225
24231
24229
24226
24232
24226
24217
24227
24230
24238
24228
24228
24229
24214
24231
24232
24220
24227
24238
24226
24230
24227
24223
24227
24225
24219
24228
24218
24231
24225
24219
24221
24224
24220
24229
24219
24227
24225
24221
24227
24223
24217
24229
24228
24214
24219
24228
24222
24228
24223
24228
24223
24223
24217
24224
24215
24221
24223
24228
24210
24221
24223
24211
24220
24229
24215
24222
24225
24220
24222
24218
24218
24223
24220
24224
24212
24221
24223
24214
24219
24213
24220
24214
24215
24213
24215
24207
24215
24215
24222
24209
24214
24228
24213
24217
24228
24212
24213
24212
24215
24212
24218
24207
24216
24215
24214
24210
24213
24214
24212
24215
24218
24205
24215
24219
24206
24218
24202
24213
24217
24207
24211
24212
24209
24212
24219
24212
24208
24203
24202
24211
24211
24209
24207
24215
24220
24204
24209
24213
24205
24207
24209
24210
24203
24204
24211
24214
24204
24205
24206
24199
24206
24209
24219
24200
24210
24210
24199
24205
24206
24211
24199
24212
24210
24217
24199
24199
24207
24197
24198
24205
24206
24199
24204
24210
24199
24213
24207
24196
24193
24208
24201
24209
24196
24200
24204
24197
24207
24207
24193
24196
24204
24202
24198
24199
24198
24210
24196
24202
24207
24195
24205
24204
24197
24207
24204
24197
24198
24205
24199
24196
24190
24200
24201
24193
24196
24201
24219
24202
24205
24196
24199
24194
24199
24199
24198
24212
24197
24196
24204
24193
24199
24204
24195
24194
24199
24193
24204
24203
24190
24190
24195
24206
24197
24200
24188
24203
24186
24195
24196
24186
24196
24199
24191
24199
24202
24192
24197
24170
24192
24196
24188
24202
24194
24186
24198
24198
24188
24200
24199
24191
24193
24166
24196
24199
24183
24195
24191
24196
24198
24191
24192
24183
24196
24192
24188
24199
24192
24190
24194
24183
24199
24193
24185
24190
24182
24191
24183
24199
24198
24191
24191
24195
24186
24197
24187
24191
24191
24183
24188
24183
24183
24189
24201
24191
24188
24186
24195
24196
24191
24191
24183
24188
24196
24182
24191
24202
24188
24190
24182
24186
24188
24183
24191
24198
24186
24188
24191
24191
24191
24182
24191
24189
24178
24197
24183
24193
24190
24181
24198
24188
24187
24186
24191
24183
24194
24191
24181
24186
24190
24183
24183
24193
24179
24186
24193
24187
24183
24182
24193
24191
24179
24188
24199
24181
24183
24196
24183
24188
24181
24191
24188
24182
24187
24192
24181
24190
24177
24186
24187
24177
24183
24185
24175
24181
24182
24190
24185
24183
24199
24187
24181
24179
24187
24178
24180
24190
24175
24182
24198
24170
24188
24172
24191
24187
24175
24180
24193
24175
24183
24175
24180
24188
24179
24175
24193
24179
24186
24172
24183
24175
24188
24190
24169
24188
24171
24181
24190
24177
24182
24173
24189
24187
24181
24183
24174
24183
24183
24171
24178
24171
24182
24183
24174
24175
24184
24171
24177
24183
24175
24176
24181
24175
24169
24181
24173
24182
24173
24169
24182
24183
24170
24172
24181
24172
24181
24177
24167
24177
24164
24169
24180
24170
24172
24188
24172
24183
24175
24180
24178
24169
24176
24180
24170
24170
24167
24177
24180
24165
24180
24175
24172
24175
24167
24174
24177
24175
24172
24167
24173
24164
24178
24183
24166
24169
24175
24172
24167
24168
24183
24167
24174
24171
24180
24166
24173
24175
24165
24175
24170
24169
24174
24169
24174
24161
24173
24161
24174
24175
24167
24172
24167
24169
24158
24167
24175
24164
24165
24164
24175
24178
24162
24169
24167
24174
24161
24169
24178
24165
24172
24167
24174
24165
24167
24161
24164
24159
24165
24163
24167
24164
24165
24160
24169
24171
24162
24171
24159
24162
24152
24164
24169
24159
24166
24160
24164
24156
24161
24159
24173
24171
24163
24172
24156
24167
24156
24167
24189
24178
24180
24167
24156
24170
24159
24174
24159
24168
24161
24169
24159
24193
24195
24167
24193
24165
24180
24167
24187
24167
24181
24229
24191
24191
24172
24183
24167
24178
24171
24176
24174
24166
24172
24172
24175
24174
24166
24172
24172
24165
24170
24165
24174
24174
24168
24167
24159
24167
24167
24170
24169
24167
24167
24173
24167
24166
24167
24172
24164
24164
24158
24164
24167
24164
24167
24161
24161
24161
24165
24166
24170
24169
24158
24166
24158
24165
24161
24159
24164
24159
24158
24170
24158
24159
24157
24157
24159
24157
24157
24159
24163
24165
24154
24159
24156
24162
24159
24159
24162
24160
24156
24156
24167
24156
24163
24151
24156
24151
24162
24162
24156
24159
24164
24155
24158
24144
24156
24159
24157
24152
24154
24159
24154
24151
24156
24157
24151
24158
24159
24151
24153
24156
24154
24158
24150
24160
24156
24148
24153
24151
24150
24153
24150
24154
24151
24149
24149
24148
24156
24158
24148
24149
24156
24148
24152
24148
24151
24157
24151
24154
24144
24150
24151
24151
24162
24158
24150
24152
24147
24156
24148
24149
24157
24149
24159
24163
24143
24154
24162
24149
24157
24148
24157
24148
24156
24151
24151
24143
24156
24148
24159
24159
24153
24158
24149
24159
24148
24151
24155
24149
24166
24165
24145
24159
24153
24154
24159
24157
24158
24151
24156
24163
24151
24157
24148
24154
24159
24150
24159
24155
24153
24156
24144
24167
24161
24146
24164
24159
24149
24164
24164
24155
24157
24154
24165
24158
24153
24157
24161
24153
24161
24150
24162
24162
24151
24153
24153
24164
24159
24150
24164
24161
24152
24164
24149
24156
24152
24167
24162
24158
24164
24155
24156
24150
24161
24150
24153
24151
24156
24170
24156
24157
24155
24167
24151
24170
24159
24156
24146
24151
24159
24146
24156
24167
24145
24157
24150
24151
24155
24146
24151
24153
24150
24149
24143
24150
24157
24139
24150
24161
24147
24157
24164
24149
24155
24157
24142
24151
24159
24149
24151
24140
24148
24153
24143
24148
24145
24153
24149
24145
24142
24151
24152
24143
24144
24147
24148
24147
24147
24155
24151
24140
24143
24150
24136
24151
24121
24148
24146
24140
24143
24158
24146
24148
24137
24137
24151
24142
24148
24140
24143
24149
24145
24146
24138
24149
24137
24138
24146
24137
24148
24137
24147
24137
24150
24138
24146
24143
24137
24142
24141
24140
24147
24135
24139
24135
24140
24126
24139
24143
24138
24138
24135
24143
24135
24134
24135
24140
24138
24142
24135
24137
24137
24149
24134
24138
24126
24141
24146
24134
24142
24135
24135
24145
24143
24143
24132
24139
24135
24141
24136
24135
24142
24148
24135
24137
24135
24135
24137
24134
24134
24146
24135
24138
24133
24133
24131
24141
24141
24133
24133
24129
24132
24133
24135
24138
24135
24147
24141
24130
24134
24134
24134
24143
24135
24132
24135
24145
24132
24137
24132
24140
24138
24131
24133
24145
24132
24137
24132
24135
24141
24134
24140
24129
24134
24126
24135
24150
24141
24141
24135
24135
24135
24135
24127
24137
24126
24134
24131
24140
24135
24132
24133
24122
24142
24137
24129
24133
24124
24135
24147
24132
24130
24124
24132
24126
24131
24137
24130
24134
24135
24126
24134
24131
24132
24139
24127
24134
24138
24127
24138
24139
24126
24135
24127
24133
24145
24135
24134
24127
24137
24135
24135
24137
24126
24131
24138
24122
24133
24124
24139
24131
24126
24137
24122
24138
24132
24121
24131
24135
24134
24135
24126
24127
24140
24132
24142
24128
24129
24127
24131
24134
24126
24132
24124
24138
24132
24123
24130
24123
24125
24135
24125
24131
24124
24132
24135
24125
24129
24125
24132
24132
24125
24129
24142
24132
24133
24126
24127
24135
24127
24134
24126
24129
24135
24121
24126
24135
24135
24126
24119
24133
24132
24119
24125
24135
24127
24133
24119
24132
24130
24117
24127
24134
24126
24127
24127
24127
24132
24123
24126
24133
24118
24124
24135
24124
24124
24123
24119
24121
24133
24125
24125
24119
24125
24127
24123
24127
24116
24132
24128
24117
24127
24127
24114
24122
24135
24116
24120
24134
24118
24125
24130
24119
24123
24116
24127
24124
24114
24118
24124
24114
24124
24121
24128
24115
24123
24127
24121
24124
24115
24119
24129
24116
24123
24117
24116
24124
24118
24125
24109
24121
24126
24117
24121
24115
24119
24124
24117
24124
24110
24123
24132
24120
24131
24119
24124
24115
24116
24109
24111
24117
24124
24111
24115
24137
24119
24124
24111
24122
24127
24113
24117
24123
24111
24127
24114
24119
24118
24110
24122
24122
24110
24115
24122
24119
24111
24109
24123
24122
24108
24116
24107
24114
24119
24106
24113
24108
24117
24119
24106
24113
24121
24107
24119
24108
24117
24116
24108
24112
24119
24108
24117
24129
24108
24117
24106
24108
24113
24121
24107
24109
24116
24103
24111
24109
24126
24103
24109
24087
24111
24110
24113
24107
24106
24111
24103
24108
24114
24100
24111
24109
24124
24106
24113
24114
24105
24113
24112
24119
24104
24105
24110
24098
24109
24106
24105
24114
24107
24104
24112
24108
24098
24115
24110
24105
24118
24113
24105
24110
24117
24102
24111
24112
24116
24106
24108
24103
24108
24110
24110
24104
24102
24106
24101
24102
24105
24111
24107
24103
24116
24103
24106
24110
24103
24103
24103
24110
24108
24099
24103
24100
24103
24106
24102
24111
24105
24103
24106
24100
24111
24101
24109
24110
24105
24105
24100
24105
24097
24103
24116
24095
24102
24110
24093
24107
24098
24107
24110
24098
24111
24097
24109
24108
24103
24104
24101
24108
24108
24092
24100
24111
24095
24101
24094
24103
24100
24103
24102
24099
24099
24093
24101
24119
24100
24102
24088
24101
24103
24096
24100
24119
24092
24105
24090
24098
24095
24116
24123
24094
24111
24093
24110
24096
24126
24129
24100
24119
24100
24112
24158
24128
24132
24103
24119
24095
24122
24124
24102
24119
24110
24115
24132
24119
24123
24108
24117
24111
24119
24124
24109
24114
24101
24111
24103
24111
24111
24106
24111
24103
24113
24111
24103
24109
24117
24115
24110
24108
24113
24103
24108
24105
24111
24111
24105
24106
24103
24103
24109
24102
24106
24105
24115
24103
24109
24100
24103
24108
24107
24109
24107
24107
24102
24102
24103
24101
24110
24107
24103
24104
24111
24101
24102
24100
24106
24108
24103
24102
24106
24100
24103
24103
24097
24107
24108
24097
24101
24093
24103
24108
24105
24098
24097
24101
24103
24101
24099
24103
24100
24100
24103
24093
24097
24109
24101
24109
24100
24100
24099
24105
24097
24094
24109
24103
24095
24106
24105
24103
24104
24095
24095
24100
24092
24095
24107
24092
24101
24092
24101
24100
24093
24093
24100
24094
24102
24100
24093
24098
24100
24089
24093
24099
24089
24095
24102
24089
24095
24094
24103
24090
24094
24103
24089
24095
24091
24093
24100
24087
24097
24098
24090
24092
24097
24088
24092
24092
24096
24094
24101
24096
24093
24093
24090
24097
24085
24095
24094
24095
24089
24095
24092
24097
24103
24093
24075
24094
24087
24090
24105
24091
24093
24103
24085
24093
24093
24087
24090
24099
24101
24092
24101
24103
24090
24086
24101
24102
24090
24101
24094
24105
24089
24095
24092
24103
24097
24085
24095
24102
24085
24090
24088
24093
24097
24085
24090
24101
24103
24094
24096
24087
24092
24100
24085
24093
24095
24084
24097
24093
24083
24091
24094
24090
24093
24087
24099
24098
24081
24092
24084
24096
24095
24084
24094
24109
24090
24103
24081
24090
24095
24092
24093
24087
24094
24087
24086
24091
24104
24086
24094
24084
24101
24097
24085
24089
24092
24089
24090
24095
24092
24080
24091
24090
24076
24079
24086
24087
24081
24092
24092
24084
24090
24092
24080
24095
24089
24084
24086
24089
24095
24082
24084
24090
24080
24082
24092
24081
24085
24090
24071
24083
24085
24083
24097
24087
24082
24079
24083
24087
24079
24082
24087
24075
24093
24087
24079
24085
24084
24079
24082
24089
24078
24086
24071
24079
24095
24073
24085
24076
24087
24082
24078
24083
24086
24071
24081
24093
24077
24081
24071
24071
24079
24084
24071
24081
24089
24071
24079
24071
24081
24084
24071
24079
24081
24076
24071
24081
24087
24074
24081
24071
24081
24086
24071
24085
24085
24081
24079
24071
24081
24083
24071
24085
24070
24082
24087
24071
24077
24079
24071
24076
24087
24068
24082
24087
24069
24078
24084
24071
24085
24082
24070
24081
24086
24071
24067
24079
24071
24087
24074
24071
24071
24082
24068
24076
24080
24071
24076
24084
24070
24079
24081
24071
24071
24079
24065
24077
24071
24079
24079
24095
24071
24071
24078
24070
24076
24082
24071
24085
24079
24071
24081
24079
24067
24071
24079
24068
24079
24078
24071
24076
24093
24071
24073
24071
24079
24079
24099
24071
24078
24081
24067
24083
24076
24092
24071
24075
24080
24068
24079
24082
24071
24079
24068
24076
24084
24071
24078
24071
24073
24079
24092
24071
24071
24068
24074
24073
24071
24082
24071
24078
24081
24066
24081
24079
24063
24071
24086
24068
24071
24063
24069
24078
24068
24071
24071
24066
24078
24077
24065
24076
24062
24071
24092
24071
24071
24063
24071
24071
24082
24079
24068
24071
24082
24078
24079
24069
24083
24078
24069
24071
24071
24085
24071
24071
24083
24068
24076
24071
24069
24071
24071
24064
24081
24071
24064
24071
24078
24071
24071
24065
24069
24071
24055
24071
24076
24065
24068
24079
24065
24067
24081
24063
24071
24084
24063
24069
24085
24068
24071
24058
24082
24078
24076
24069
24071
24081
24064
24071
24071
24062
24071
24068
24070
24071
24064
24069
24066
24065
24071
24076
24064
24071
24065
24047
24061
24067
24071
24067
24071
24069
24068
24070
24062
24063
24068
24062
24062
24071
24064
24068
24057
24071
24071
24059
24057
24065
24068
24077
24058
24065
24069
24060
24062
24055
24066
24059
24063
24071
24069
24058
24063
24064
24056
24055
24068
24071
24063
24065
24063
24067
24061
24065
24064
24063
24057
24068
24066
24054
24067
24062
24071
24063
24065
24076
24058
24065
24061
24066
24059
24069
24071
24055
24062
24067
24058
24071
24068
24057
24062
24065
24071
24055
24061
24061
24063
24071
24057
24063
24070
24057
24060
24062
24056
24069
24064
24057
24066
24069
24057
24064
24066
24065
24052
24063
24066
24062
24059
24062
24069
24060
24068
24067
24065
24061
24071
24065
24078
24052
24059
24059
24064
24052
24060
24061
24066
24058
24060
24065
24061
24049
24054
24061
24063
24052
24048
24059
24071
24055
24056
24069
24057
24055
24052
24054
24055
24071
24050
24057
24064
24052
24055
24057
24060
24051
24059
24057
24079
24058
24058
24071
24050
24054
24057
24063
24049
24057
24063
24047
24063
24055
24049
24063
24058
24046
24053
24054
24048
24060
24060
24047
24041
24055
24050
24060
24057
24049
24052
24052
24050
24052
24052
24052
24062
24052
24047
24054
24056
24049
24050
24051
24067
24052
24047
24054
24047
24054
24055
24053
24044
24063
24052
24043
24047
24047
24054
24047
24055
24045
24053
24055
24044
24049
24051
24046
24047
24052
24051
24059
24049
24061
24045
24050
24050
24042
24038
24060
24052
24052
24051
24059
24047
24044
24053
24047
24065
24042
24053
24051
24058
24037
24055
24047
24040
24049
24049
24038
24044
24043
24047
24038
24055
24041
24060
24042
24042
24047
24046
24040
24038
24047
24047
24044
24039
24041
24037
24039
24045
24039
24034
24042
24049
24039
24037
24043
24054
24036
24043
24041
24044
24037
24051
24043
24038
24050
24044
24039
24044
24045
24036
24034
24042
24049
24036
24046
24045
24055
24039
24040
24051
24036
24036
24043
24060
24039
24043
24060
24037
24060
24055
24038
24044
24057
24069
24037
24041
24052
24060
24070
24039
24054
24063
24115
24046
24058
24071
24047
24053
24066
24050
24055
24059
24058
24070
24047
24053
24055
24066
24042
24048
24053
24054
24049
24044
24055
24046
24046
24045
24044
24053
24047
24059
24049
24053
24047
24055
24053
24051
24047
24049
24050
24049
24045
24042
24046
24047
24044
24045
24047
24052
24041
24044
24040
24039
24050
24051
24041
24043
24043
24045
24045
24043
24047
24052
24039
24039
24047
24036
24036
24049
24046
24037
24047
24049
24051
24041
24046
24042
24044
24042
24038
24039
24045
24045
24034
24045
24038
24049
24041
24043
24051
24041
24041
24042
24037
24039
24043
24040
24035
24039
24036
24040
24032
24038
24043
24038
24039
24037
24046
24047
24039
24038
24042
24045
24036
24043
24043
24045
24034
24047
24043
24034
24047
24043
24038
24039
24039
24041
24031
24039
24044
24039
24044
24029
24038
24038
24035
24041
24041
24036
24044
24041
24034
24041
24035
24039
24046
24033
24040
24044
24035
24038
24043
24033
24036
24052
24032
24036
24030
24044
24031
24034
24030
24036
24039
24044
24032
24047
24032
24039
24037
24042
24031
24043
24043
24047
24038
24041
24036
24038
24042
24039
24041
24039
24043
24035
24048
24041
24046
24034
24031
24039
24045
24032
24044
24039
24037
24012
24033
24045
24038
24031
24042
24036
24049
24035
24034
24047
24033
24047
24039
24029
24037
24038
24044
24037
24044
24042
24039
24036
24038
24042
24031
24038
24041
24042
24032
24038
24034
24046
24034
24039
24038
24038
24035
24034
24042
24038
24043
24028
24041
24040
24030
24038
24041
24028
24038
24037
24047
24035
24041
24038
24049
24025
24036
24037
24041
24032
24037
24039
24028
24046
24039
24025
24033
24033
24039
24035
24025
24047
24037
24031
24031
24036
24042
24024
24034
24037
24026
24031
24039
24025
24031
24030
24042
24030
24036
24027
24026
24030
24038
24031
24024
24033
24025
24022
24026
24032
24022
24027
24031
24024
24035
24030
24019
24022
24023
24035
24021
24023
24026
24015
24036
24028
24020
24025
24028
24029
24021
24024
24028
24020
24025
24024
24015
24021
24031
24016
24020
24026
24020
24027
24026
24015
24016
24019
24031
24017
24017
24018
24021
24023
24015
24028
24022
24010
24018
24020
24023
24017
24021
24025
24015
24023
24022
24016
24014
24021
24015
24017
24019
24014
24019
24025
24015
24018
24022
24026
24012
24013
24016
24012
24018
24021
24011
24019
24015
24012
24014
24014
24020
24011
24020
24012
24015
24009
24019
24017
24007
24006
24019
24004
24012
24015
24026
24010
24013
24013
24009
24014
24012
24005
24008
24014
24010
24019
24012
24009
24013
24011
24010
24009
24012
24015
24006
24009
24022
24011
24011
24015
24007
24013
24006
24007
24012
24022
24015
24018
24006
24006
24015
24007
24015
24013
24007
24015
24015
24005
24010
24017
24008
24021
24009
24003
24009
24010
24007
24013
24005
24019
24006
24007
24017
24002
24016
24012
24007
24005
24012
24001
24006
24006
24006
23999
24011
24010
23999
24004
24013
24004
24009
24001
24013
24010
24003
24009
24008
24001
24006
24015
24002
24010
23999
24002
24010
23997
24006
24011
23999
24006
23999
24007
24007
24001
24004
24003
23999
24013
24010
23996
24003
24009
23999
24006
24002
24001
24004
24007
23997
24015
24004
23996
24002
24001
24008
23996
24007
24003
24015
23994
24006
24000
23994
23999
24002
24006
23994
24002
24005
23991
24007
24001
24004
23992
23995
24002
24004
23991
24005
23996
23991
23997
23999
24004
23994
23998
23994
23998
24005
24003
24002
23986
24006
23998
23992
24000
23997
23996
23989
23993
24000
23991
24001
23999
23991
23989
23992
23999
23988
23993
23994
23990
24005
23991
23985
23991
23992
24003
23987
23996
24001
23985
23991
23994
23985
23991
23993
23986
23987
23991
24001
23980
23990
23998
23982
23994
23989
23991
23988
23999
23990
23981
23985
23995
23993
23981
23982
23988
23991
23998
23987
23997
23987
23995
23983
23984
23988
23990
23980
23987
23986
23993
23982
23982
23996
23990
23994
23976
23978
23986
23991
23980
23980
23988
23991
23996
23981
23982
23983
23991
24000
23983
23998
23987
23979
23983
23986
23985
23990
23981
23986
23983
23993
23986
23988
23994
23985
23982
23994
23981
23988
23989
23999
23983
23983
23982
23988
23991
23983
23983
23989
23980
23980
23983
23996
23981
23984
23987
23976
23988
23989
23975
23987
23982
23978
23985
23989
23975
23988
23982
23991
23975
23983
23988
23979
23979
23985
23990
23978
23975
23985
23984
23975
23979
23981
23990
23975
23988
23986
23987
23975
23980
23977
23991
23977
23975
23979
23977
23978
23986
23977
23972
23981
23991
23975
23977
23980
23975
23980
23986
23973
23985
23984
23974
23971
23980
23973
23975
23979
23981
23970
23977
23982
23972
23974
23992
23976
23970
23975
23989
23970
23970
23981
23971
23975
23979
23974
23975
23975
23973
23977
23983
23971
23972
23978
23970
23974
23983
23971
23972
23975
23965
23980
23978
23969
23976
23983
23967
23978
23970
23975
23975
23966
23972
23980
23971
23973
23975
23965
23968
23974
23979
23971
23974
23978
23971
23975
23976
23966
23976
23972
23965
23973
23975
23970
23973
23972
23974
23969
23970
23977
23966
23966
23972
23971
23962
23972
23972
23964
23965
23975
23983
23966
23970
23976
23965
23971
23975
23963
23967
23972
23963
23968
23974
23964
23975
23974
23966
23978
23974
23969
23970
23964
23975
23972
23959
23973
23970
23956
23969
23979
23968
23971
23987
23967
23975
23964
23974
23972
23961
23967
23973
23962
23975
23967
23972
23968
23961
23966
23971
23963
23970
23967
23978
23967
23975
23970
23963
23965
23969
23962
23965
23967
23969
23959
23963
23970
23959
23962
23959
23973
23972
23954
23964
23976
23961
23967
23962
23972
23966
23957
23964
23964
23991
23957
23970
23956
23969
23959
23971
23982
23964
23972
23950
23968
23995
23965
23975
23958
23996
23989
23961
23978
23963
23980
23982
24015
23967
23978
23991
23970
23981
23990
23975
23986
23969
23996
23989
23971
23975
23980
23972
23981
23980
23971
23975
23974
23964
23976
23972
23963
23967
23973
23973
23964
23969
23969
23977
23973
23967
23970
23964
23971
23967
23963
23969
23971
23967
23968
23966
23965
23967
23965
23963
23974
23969
23967
23959
23967
23966
23960
23969
23955
23967
23973
23959
23964
23971
23961
23961
23964
23958
23969
23964
23958
23960
23965
23966
23952
23958
23959
23957
23967
23948
23964
23958
23971
23952
23961
23965
23956
23959
23962
23957
23965
23959
23956
23959
23960
23958
23963
23952
23959
23963
23953
23956
23959
23969
23953
23957
23969
23959
23954
23958
23955
23960
23950
23966
23959
23952
23950
23955
23962
23953
23958
23965
23951
23956
23961
23951
23959
23956
23956
23955
23950
23964
23962
23948
23961
23958
23950
23962
23937
23949
23953
23963
23951
23956
23962
23953
23959
23958
23953
23956
23955
23961
23953
23960
23959
23974
23951
23959
23950
23963
23951
23957
23945
23959
23956
23947
23961
23962
23947
23951
23954
23952
23964
23953
23951
23956
23972
23949
23951
23959
23948
23951
23955
23958
23944
23957
23952
23949
23957
23957
23951
23949
23956
23951
23959
23955
23937
23953
23957
23956
23949
23945
23962
23957
23959
23951
23949
23963
23953
23958
23948
23946
23951
23964
23948
23958
23968
23951
23957
23956
23947
23948
23959
23956
23971
23948
23954
23964
23944
23956
23963
23947
23965
23956
23944
23949
23959
23950
23957
23959
23948
23944
23953
23958
23946
23953
23953
23960
23947
23948
23952
23962
23947
23948
23955
23942
23951
23959
23944
23952
23952
23942
23948
23952
23947
23958
23955
23940
23937
23967
23957
23944
23949
23950
23956
23945
23948
23957
23943
23951
23951
23942
23943
23948
23958
23939
23959
23944
23952
23941
23948
23948
23943
23943
23948
23948
23943
23943
23951
23943
23943
23943
23948
23940
23949
23948
23937
23953
23948
23957
23946
23948
23939
23946
23948
23940
23948
23947
23938
23940
23944
23950
23937
23943
23947
23938
23948
23946
23939
23937
23943
23943
23949
23943
23943
23943
23943
23950
23941
23935
23953
23939
23943
23940
23944
23945
23937
23946
23940
23940
23938
23943
23946
23942
23940
23935
23943
23941
23935
23943
23943
23936
23940
23944
23931
23941
23946
23939
23947
23940
23951
23935
23943
23943
23939
23943
23943
23942
23935
23943
23941
23937
23943
23942
23935
23941
23941
23940
23932
23946
23942
23940
23946
23943
23932
23948
23940
23959
23930
23938
23941
23936
23932
23938
23943
23934
23938
23941
23951
23939
23940
23943
23940
23938
23943
23939
23932
23943
23946
23939
23934
23938
23947
23933
23940
23945
23932
23936
23929
23943
23942
23933
23939
23940
23935
23935
23935
23935
23939
23940
23926
23940
23937
23931
23928
23934
23941
23932
23936
23942
23934
23935
23919
23934
23938
23935
23940
23940
23931
23935
23947
23931
23935
23927
23943
23940
23926
23938
23931
23935
23943
23934
23942
23929
23942
23941
23927
23942
23942
23932
23940
23940
23935
23937
23941
23932
23940
23935
23932
23943
23943
23938
23931
23933
23923
23943
23935
23933
23933
23940
23930
23933
23940
23929
23935
23931
23942
23941
23926
23934
23933
23929
23930
23935
23932
23932
23920
23930
23939
23925
23936
23931
23921
23934
23918
23927
23940
23925
23931
23906
23927
23929
23925
23927
23932
23939
23931
23925
23940
23933
23934
23927
23931
23937
23927
23933
23923
23927
23921
23932
23926
23933
23935
23931
23922
23924
23936
23919
23929
23932
23924
23924
23932
23933
23924
23925
23932
23924
23930
23935
23919
23924
23932
23924
23929
23935
23926
23932
23916
23925
23925
23919
23929
23919
23925
23929
23929
23933
23918
23926
23934
23923
23929
23925
23930
23920
23931
23938
23927
23925
23919
23922
23930
23916
23927
23916
23922
23927
23932
23927
23917
23927
23919
23927
23930
23926
23928
23916
23919
23930
23917
23922
23937
23924
23921
23918
23932
23930
23917
23924
23914
23924
23934
23917
23921
23935
23916
23917
23935
23919
23917
23925
23912
23922
23929
23919
23921
23928
23908
23921
23926
23914
23919
23918
23916
23915
23927
23924
23909
23927
23921
23908
23919
23924
23913
23923
23932
23916
23919
23911
23917
23918
23932
23917
23918
23921
23908
23930
23921
23915
23909
23917
23918
23925
23911
23925
23917
23934
23913
23925
23935
23909
23916
23923
23912
23906
23918
23919
23909
23912
23917
23921
23913
23912
23923
23915
23937
23909
23921
23919
23908
23913
23913
23921
23904
23917
23918
23929
23911
23925
23923
23908
23923
23917
23910
23911
23916
23925
23911
23916
23925
23912
23927
23919
23906
23918
23916
23910
23914
23913
23906
23916
23919
23907
23911
23926
23906
23917
23908
23911
23921
23907
23913
23909
23911
23913
23904
23912
23913
23909
23911
23911
23921
23903
23919
23916
23911
23919
23911
23908
23905
23919
23916
23909
23919
23913
23910
23915
23916
23908
23923
23917
23910
23910
23913
23919
23911
23916
23903
23918
23916
23908
23917
23912
23909
23910
23916
23918
23911
23911
23913
23916
23907
23915
23917
23916
23908
23919
23915
23923
23911
23907
23909
23916
23911
23922
23911
23903
23919
23910
23913
23902
23924
23915
23903
23916
23911
23911
23911
23919
23907
23910
23917
23903
23916
23918
23907
23908
23919
23909
23910
23913
23908
23907
23909
23912
23907
23913
23911
23918
23911
23911
23913
23910
23917
23911
23903
23918
23916
23903
23912
23907
23909
23917
23909
23906
23913
23910
23908
23900
23913
23908
23905
23906
23910
23908
23900
23908
23914
23901
23905
23909
23904
23908
23915
23906
23911
23911
23907
23908
23911
23911
23901
23916
23919
23909
23917
23919
23929
23908
23911
23913
23932
23907
23934
23929
23905
23935
23929
23946
23915
23939
23937
23918
23910
23941
23932
23944
23918
23934
23932
23943
23914
23935
23924
23936
23917
23919
23927
23908
23925
23924
23916
23916
23916
23917
23913
23917
23908
23915
23911
23911
23908
23911
23915
23908
23910
23909
23911
23909
23906
23910
23910
23902
23911
23908
23911
23904
23915
23902
23909
23899
23901
23909
23911
23905
23906
23904
23910
23901
23911
23911
23903
23908
23908
23909
23905
23910
23904
23900
23908
23908
23906
23902
23903
23898
23903
23905
23900
23894
23903
23900
23907
23908
23900
23898
23905
23905
23907
23900
23902
23900
23897
23906
23900
23910
23896
23900
23899
23895
23892
23900
23903
23895
23897
23901
23901
23892
23897
23903
23892
23903
23903
23893
23904
23899
23892
23903
23903
23902
23892
23906
23900
23889
23894
23897
23892
23897
23907
23884
23895
23900
23888
23897
23906
23888
23893
23893
23899
23898
23895
23898
23894
23895
23895
23893
23897
23899
23897
23889
23897
23903
23894
23893
23890
23895
23901
23886
23889
23903
23887
23896
23895
23899
23894
23892
23898
23902
23903
23881
23892
23895
23885
23901
23895
23900
23890
23893
23901
23888
23895
23899
23884
23892
23898
23891
23903
23905
23893
23894
23898
23900
23887
23895
23900
23893
23904
23901
23887
23892
23897
23912
23895
23898
23900
23893
23896
23914
23891
23900
23900
23890
23898
23906
23892
23890
23887
23897
23896
23887
23892
23898
23887
23893
23901
23888
23895
23885
23893
23903
23886
23899
23902
23884
23901
23885
23889
23900
23891
23898
23885
23900
23879
23901
23895
23885
23888
23892
23898
23883
23893
23892
23880
23895
23891
23886
23892
23900
23903
23885
23898
23893
23883
23883
23888
23895
23884
23887
23886
23894
23880
23885
23884
23885
23895
23895
23879
23897
23887
23881
23885
23891
23889
23889
23892
23884
23891
23889
23877
23891
23889
23887
23884
23889
23882
23886
23887
23881
23896
23895
23883
23884
23892
23877
23887
23893
23879
23886
23876
23879
23881
23876
23883
23882
23881
23881
23886
23876
23887
23883
23882
23889
23877
23884
23885
23879
23887
23885
23885
23878
23884
23878
23886
23882
23874
23887
23882
23878
23876
23878
23884
23879
23878
23884
23878
23878
23878
23885
23875
23877
23883
23885
23879
23887
23885
23869
23882
23885
23877
23876
23880
23885
23875
23883
23883
23891
23879
23882
23879
23879
23877
23886
23880
23877
23881
23873
23872
23882
23891
23875
23878
23871
23875
23876
23870
23876
23882
23871
23875
23876
23884
23870
23870
23884
23873
23878
23878
23886
23869
23879
23874
23880
23877
23878
23879
23878
23871
23871
23874
23879
23871
23878
23881
23868
23876
23883
23866
23873
23886
23868
23873
23879
23866
23874
23874
23878
23867
23872
23879
23875
23876
23863
23876
23869
23875
23887
23870
23879
23866
23868
23871
23881
23870
23869
23877
23868
23869
23874
23862
23879
23865
23879
23876
23869
23876
23866
23879
23868
23872
23873
23872
23883
23871
23875
23863
23871
23873
23866
23876
23874
23862
23877
23873
23865
23870
23876
23888
23866
23873
23864
23873
23876
23865
23870
23886
23871
23871
23862
23869
23881
23864
23870
23879
23866
23871
23864
23870
23873
23870
23871
23872
23869
23876
23877
23868
23870
23879
23865
23871
23880
23868
23873
23868
23878
23869
23861
23872
23869
23847
23863
23872
23879
23866
23869
23866
23879
23867
23878
23868
23861
23860
23871
23875
23863
23869
23868
23863
23860
23871
23879
23864
23869
23881
23860
23874
23873
23863
23868
23869
23863
23864
23871
23860
23864
23870
23862
23877
23871
23861
23870
23869
23873
23863
23865
23870
23863
23865
23869
23853
23863
23861
23869
23858
23868
23864
23858
23863
23867
23853
23874
23870
23862
23871
23871
23865
23865
23868
23860
23867
23871
23873
23855
23861
23868
23860
23867
23867
23859
23863
23866
23879
23857
23868
23869
23854
23860
23871
23857
23869
23868
23855
23857
23863
23876
23863
23868
23856
23871
23868
23860
23861
23875
23868
23866
23868
23859
23866
23863
23868
23861
23869
23869
23859
23869
23875
23863
23863
23869
23855
23871
23867
23861
23863
23860
23850
23861
23862
23872
23855
23868
23861
23850
23855
23864
23862
23870
23859
23864
23863
23868
23857
23873
23871
23854
23856
23856
23864
23843
23856
23860
23863
23868
23857
23866
23860
23868
23859
23867
23866
23852
23855
23856
23869
23853
23863
23869
23852
23857
23866
23860
23862
23846
23852
23856
23852
23862
23864
23852
23863
23862
23847
23860
23867
23851
23866
23858
23847
23856
23850
23855
23860
23849
23858
23863
23852
23863
23860
23848
23857
23860
23846
23852
23860
23855
23849
23847
23863
23846
23862
23855
23849
23853
23851
23863
23851
23855
23847
23858
23860
23849
23854
23860
23852
23850
23861
23847
23850
23857
23846
23847
23854
23862
23851
23861
23854
23844
23852
23854
23846
23852
23851
23866
23849
23855
23835
23854
23854
23845
23855
23855
23849
23855
23855
23843
23846
23845
23848
23854
23869
23847
23851
23860
23846
23861
23860
23846
23859
23855
23842
23849
23846
23850
23859
23846
23849
23863
23850
23848
23854
23847
23854
23854
23846
23860
23852
23847
23846
23850
23844
23850
23859
23848
23853
23847
23850
23859
23852
23852
23841
23855
23861
23855
23851
23844
23847
23852
23846
23850
23854
23847
23851
23844
23845
23850
23855
23852
23844
23845
23843
23849
23861
23844
23846
23849
23839
23847
23841
23847
23843
23839
23839
23846
23849
23836
23847
23850
23847
23851
23853
23837
23846
23853
23842
23850
23863
23839
23868
23860
23839
23857
23857
23894
23847
23861
23903
23855
23858
23893
23847
23867
23848
23884
23877
23846
23865
23881
23853
23877
23859
23875
23854
23860
23873
23855
23860
23861
23885
23859
23864
23860
23851
23859
23846
23855
23859
23847
23861
23851
23854
23854
23853
23850
23850
23848
23857
23852
23849
23850
23853
23846
23853
23847
23855
23855
23846
23851
23846
23849
23851
23852
23852
23842
23852
23851
23840
23850
23855
23847
23847
23844
23849
23848
23846
23849
23849
23841
23841
23850
23843
23844
23845
23847
23846
23845
23842
23846
23844
23845
23847
23842
23847
23844
23847
23847
23839
23847
23847
23847
23846
23839
23844
23838
23843
23842
23833
23845
23846
23839
23846
23843
23836
23844
23841
23838
23841
23842
23836
23839
23840
23847
23834
23849
23846
23835
23835
23839
23846
23831
23839
23847
23835
23846
23841
23839
23838
23837
23839
23838
23838
23839
23842
23833
23843
23834
23846
23837
23839
23837
23838
23833
23830
23832
23835
23841
23829
23847
23839
23848
23841
23837
23850
23833
23838
23845
23835
23838
23840
23830
23839
23836
23844
23834
23836
23837
23831
23839
23841
23826
23842
23836
23831
23839
23834
23827
23832
23834
23842
23829
23838
23843
23826
23836
23847
23829
23842
23838
23830
23835
23839
23835
23836
23837
23828
23830
23837
23839
23825
23831
23833
23840
23824
23824
23839
23844
23826
23838
23838
23847
23822
23842
23840
23828
23831
23838
23842
23827
23836
23836
23839
23824
23827
23831
23848
23829
23836
23828
23823
23833
23847
23828
23834
23838
23826
23835
23832
23836
23823
23840
23831
23823
23830
23834
23830
23836
23838
23844
23830
23830
23834
23847
23823
23844
23836
23826
23823
23831
23825
23823
23828
23850
23827
23833
23845
23824
23833
23829
23838
23836
23826
23830
23834
23823
23833
23833
23823
23839
23834
23820
23836
23826
23823
23831
23831
23831
23821
23834
23826
23821
23824
23829
23820
23837
23827
23815
23820
23823
23835
23812
23824
23828
23835
23815
23823
23826
23825
23815
23824
23820
23828
23815
23823
23829
23815
23811
23830
23820
23812
23827
23806
23826
23823
23812
23823
23827
23809
23814
23828
23810
23823
23808
23818
23820
23815
23814
23825
23815
23819
23800
23810
23809
23826
23819
23813
23818
23815
23807
23819
23819
23807
23808
23820
23812
23815
23819
23807
23812
23813
23821
23805
23812
23815
23802
23813
23814
23834
23806
23823
23812
23822
23806
23814
23812
23806
23806
23814
23815
23806
23815
23815
23803
23807
23812
23815
23807
23819
23815
23800
23814
23815
23804
23814
23815
23807
23807
23811
23822
23809
23814
23811
23828
23807
23813
23820
23804
23807
23812
23807
23812
23808
23815
23802
23811
23811
23821
23800
23815
23809
23805
23808
23811
23804
23807
23812
23812
23822
23805
23807
23820
23805
23804
23823
23802
23809
23799
23807
23809
23800
23802
23804
23824
23804
23813
23796
23806
23812
23801
23804
23817
23801
23810
23801
23801
23815
23797
23807
23815
23804
23807
23823
23796
23809
23823
23804
23807
23814
23799
23804
23812
23799
23805
23811
23801
23804
23807
23811
23818
23802
23801
23807
23796
23803
23814
23801
23802
23806
23796
23812
23809
23796
23806
23812
23802
23803
23809
23797
23799
23809
23806
23795
23796
23802
23806
23799
23804
23808
23799
23804
23803
23797
23811
23801
23806
23795
23800
23807
23797
23801
23806
23792
23801
23804
23804
23801
23802
23805
23798
23811
23806
23804
23811
23809
23796
23804
23797
23799
23801
23801
23798
23805
23818
23811
23815
23803
23812
23802
23814
23797
23801
23802
23796
23798
23806
23794
23798
23797
23798
23799
23801
23792
23804
23800
23794
23807
23804
23797
23800
23800
23799
23789
23799
23802
23793
23799
23803
23804
23788
23799
23802
23794
23802
23791
23801
23806
23797
23796
23796
23804
23789
23797
23802
23791
23794
23813
23796
23797
23804
23794
23805
23801
23790
23805
23804
23793
23799
23791
23795
23796
23793
23797
23790
23796
23804
23790
23799
23804
23795
23802
23804
23799
23801
23791
23793
23790
23797
23792
23798
23799
23794
23799
23766
23798
23801
23795
23803
23792
23796
23798
23804
23789
23796
23796
23789
23799
23799
23791
23794
23807
23796
23796
23801
23788
23793
23785
23799
23798
23789
23796
23799
23791
23800
23798
23791
23800
23799
23791
23795
23801
23791
23790
23791
23805
23787
23797
23798
23785
23795
23804
23789
23799
23815
23789
23792
23799
23787
23801
23801
23788
23791
23794
23788
23785
23793
23785
23795
23795
23785
23787
23796
23786
23793
23782
23797
23788
23794
23785
23786
23794
23789
23790
23791
23781
23785
23791
23783
23787
23795
23804
23784
23795
23798
23783
23794
23797
23780
23793
23795
23780
23799
23794
23796
23781
23785
23795
23806
23784
23791
23785
23796
23797
23781
23791
23797
23789
23796
23786
23790
23791
23798
23780
23790
23794
23783
23796
23794
23780
23792
23793
23783
23789
23791
23785
23792
23791
23799
23783
23796
23791
23782
23790
23796
23783
23802
23794
23781
23795
23793
23792
23792
23795
23786
23784
23796
23789
23793
23792
23784
23799
23796
23799
23783
23788
23791
23808
23783
23791
23793
23796
23782
23789
23789
23801
23788
23793
23796
23784
23793
23789
23797
23789
23789
23794
23785
23790
23789
23789
23797
23796
23804
23785
23799
23805
23787
23801
23795
23788
23787
23803
23791
23788
23790
23796
23791
23795
23795
23799
23783
23802
23798
23781
23793
23791
23799
23788
23790
23796
23785
23785
23799
23794
23808
23786
23792
23797
23788
23793
23791
23799
23787
23793
23804
23782
23789
23796
23813
23783
23798
23813
23787
23823
23806
23788
23799
23826
23788
23799
23820
23790
23809
23815
23788
23838
23826
23791
23821
23828
23799
23813
23832
23803
23808
23828
23804
23808
23829
23807
23815
23806
23818
23820
23804
23815
23817
23804
23812
23813
23798
23807
23811
23804
23805
23811
23802
23811
23809
23809
23802
23815
23813
23803
23804
23808
23814
23807
23804
23815
23805
23815
23814
23804
23804
23812
23807
23814
23807
23805
23812
23799
23809
23811
23807
23810
23815
23802
23810
23815
23807
23811
23809
23806
23812
23809
23814
23806
23808
23810
23799
23800
23811
23814
23807
23810
23815
23802
23812
23811
23803
23809
23810
23814
23807
23810
23806
23805
23813
23815
23801
23808
23812
23806
23812
23812
23803
23812
23815
23803
23813
23821
23807
23808
23817
23805
23814
23814
23809
23815
23816
23809
23810
23826
23804
23815
23823
23807
23814
23823
23807
23821
23821
23825
23809
23820
23815
23818
23809
23817
23815
23812
23815
23815
23814
23819
23820
23814
23823
23817
23813
23819
23815
23814
23821
23821
23815
23820
23825
23812
23822
23807
23818
23824
23807
23823
23826
23815
23826
23829
23816
23827
23831
23815
23822
23815
23827
23825
23814
23817
23831
23820
23828
23837
23821
23826
23813
23823
23826
23833
23821
23827
23829
23815
23826
23831
23820
23836
23819
23829
23821
23839
23833
23844
23829
23827
23821
23831
23844
23836
23842
23830
23837
23844
23836
23841
23832
23837
23843
23824
23834
23839
23828
23836
23842
23830
23839
23830
23836
23853
23828
23847
23836
23850
23840
23834
23836
23839
23842
23834
23845
23830
23847
23841
23830
23844
23831
23846
23842
23836
23840
23846
23833
23840
23849
23837
23847
23849
23841
23845
23850
23847
23847
23835
23845
23846
23850
23841
23845
23853
23835
23846
23843
23855
23847
23856
23841
23850
23860
23846
23847
23838
23842
23855
23847
23855
23839
23845
23845
23860
23849
23841
23853
23845
23848
23850
23845
23854
23860
23845
23852
23847
23853
23855
23844
23847
23858
23847
23850
23845
23852
23855
23850
23855
23856
23847
23855
23846
23854
23869
23852
23852
23846
23847
23856
23861
23846
23853
23860
23847
23855
23858
23848
23863
23856
23846
23853
23854
23864
23850
23852
23858
23853
23863
23860
23856
23857
23862
23862
23856
23854
23863
23862
23851
23860
23874
23863
23868
23865
23855
23872
23862
23855
23870
23869
23857
23870
23867
23862
23869
23870
23862
23867
23870
23861
23869
23859
23869
23869
23863
23863
23869
23877
23865
23871
23874
23866
23874
23871
23870
23873
23880
23863
23874
23863
23879
23879
23874
23876
23868
23876
23887
23868
23879
23875
23877
23876
23881
23871
23874
23878
23866
23879
23874
23871
23883
23881
23874
23879
23879
23898
23878
23878
23887
23879
23879
23888
23874
23884
23885
23876
23884
23888
23879
23887
23899
23881
23886
23894
23876
23885
23892
23887
23895
23885
23884
23895
23889
23883
23892
23887
23893
23895
23884
23884
23898
23886
23891
23901
23892
23900
23892
23894
23903
23893
23892
23903
23892
23893
23902
23892
23903
23907
23896
23900
23903
23898
23902
23895
23901
23903
23896
23903
23908
23906
23898
23905
23911
23899
23908
23911
23903
23908
23910
23905
23914
23911
23904
23907
23911
23905
23914
23919
23909
23911
23923
23910
23913
23919
23912
23919
23910
23921
23921
23915
23916
23925
23917
23921
23916
23923
23920
23912
23924
23900
23931
23931
23924
23926
23917
23934
23927
23923
23934
23928
23923
23927
23935
23922
23935
23935
23922
23927
23932
23924
23943
23938
23932
23937
23945
23932
23943
23931
23940
23929
23947
23943
23941
23946
23935
23943
23937
23947
23947
23932
23942
23960
23940
23948
23950
23942
23948
23955
23938
23953
23953
23943
23957
23952
23959
23945
23959
23949
23959
23964
23949
23953
23948
23959
23962
23957
23959
23971
23966
23962
23955
23965
23978
23963
23967
23956
23971
23969
23956
23968
23975
23957
23973
23974
23966
23970
23979
23968
23972
23966
23975
23980
23962
23967
23979
23969
23983
23980
23978
23973
23975
23981
23988
23975
23977
23983
23988
23981
23987
23986
23997
23981
23986
23981
23997
23996
23983
23998
23992
23984
23998
24003
23988
23999
23989
24002
23996
23993
24002
24000
23996
23995
24001
23991
24007
24009
23993
24001
24011
24002
24004
24012
23999
24011
24012
23999
24005
24009
24015
24005
24007
24010
24010
24002
24015
24015
24007
24018
24020
24011
24023
24018
24015
24015
24023
24016
24018
24014
24023
24029
24023
24023
24037
24017
24031
24022
24029
24019
24025
24029
24039
24026
24033
24035
24028
24034
24037
24043
24026
24031
24039
24030
24038
24038
24031
24033
24042
24030
24039
24044
24039
24038
24037
24044
24040
24040
24049
24060
24047
24047
24042
24059
24052
24045
24047
24053
24044
24052
24055
24050
24055
24059
24047
24057
24055
24070
24055
24054
24063
24064
24058
24054
24060
24069
24067
24071
24069
24070
24057
24070
24071
24066
24070
24071
24065
24071
24072
24060
24071
24074
24087
24071
24079
24070
24071
24087
24071
24082
24091
24071
24089
24093
24081
24087
24094
24080
24093
24085
24092
24089
24085
24089
24094
24087
24090
24097
24087
24100
24100
24095
24099
24111
24101
24104
24100
24102
24106
24101
24103
24112
24100
24111
24119
24104
24111
24105
24112
24103
24116
24112
24103
24111
24110
24116
24114
24111
24113
24119
24118
24110
24117
24121
24110
24122
24120
24116
24124
24116
24124
24126
24114
24119
24125
24119
24129
24132
24119
24130
24122
24135
24120
24138
24129
24149
24137
24148
24127
24150
24157
24128
24165
24150
24210
24133
24149
24164
24140
24153
24180
24140
24158
24175
24153
24160
24164
24188
24157
24183
24180
24159
24166
24175
24149
24170
24173
24161
24167
24173
24161
24171
24172
24167
24173
24172
24164
24167
24164
24172
24169
24169
24172
24170
24175
24181
24175
24177
24181
24181
24179
24180
24179
24181
24176
24183
24183
24183
24180
24188
24185
24186
24195
24189
24190
24197
24184
24190
24196
24190
24199
24196
24187
24196
24196
24192
24189
24195
24199
24197
24198
24203
24194
24198
24199
24197
24201
24206
24205
24203
24212
24213
24199
24207
24211
24206
24207
24210
24210
24215
24212
24207
24214
24210
24212
24212
24215
24222
24206
24218
24220
24216
24220
24221
24217
24216
24222
24224
24220
24223
24230
24220
24226
24235
24223
24231
24228
24231
24220
24235
24229
24237
24225
24238
24234
24229
24231
24232
24242
24233
24237
24238
24236
24234
24244
24242
24247
24239
24245
24249
24236
24253
24247
24245
24246
24250
24254
24242
24248
24251
24244
24245
24252
24262
24247
24255
24263
24249
24263
24257
24260
24255
24261
24263
24255
24258
24261
24270
24263
24263
24276
24257
24269
24269
24262
24266
24274
24267
24271
24273
24264
24277
24271
24277
24275
24279
24272
24275
24276
24278
24281
24279
24290
24282
24276
24286
24290
24281
24292
24293
24287
24287
24291
24303
24284
24287
24295
24280
24290
24298
24295
24298
24300
24293
24302
24300
24298
24300
24306
24293
24307
24299
24301
24308
24319
24305
24312
24300
24305
24314
24305
24314
24316
24308
24313
24318
24310
24311
24325
24327
24317
24325
24313
24322
24333
24321
24327
24317
24327
24327
24322
24327
24327
24326
24334
24335
24327
24337
24334
24335
24343
24340
24331
24341
24345
24326
24333
24334
24351
24340
24346
24345
24337
24343
24348
24336
24343
24349
24338
24346
24344
24349
24343
24348
24353
24367
24345
24356
24356
24359
24348
24352
24350
24353
24356
24358
24359
24352
24363
24357
24354
24359
24363
24365
24357
24367
24367
24368
24359
24364
24366
24360
24370
24371
24359
24362
24367
24372
24359
24369
24371
24374
24366
24370
24382
24364
24369
24379
24366
24377
24376
24366
24381
24384
24373
24382
24382
24381
24379
24377
24376
24380
24391
24375
24384
24384
24378
24386
24389
24395
24381
24391
24389
24384
24386
24390
24396
24385
24395
24399
24386
24399
24394
24393
24392
24399
24402
24390
24399
24403
24411
24395
24398
24400
24399
24401
24402
24408
24395
24408
24406
24406
24397
24408
24411
24407
24406
24402
24421
24408
24423
24404
24414
24415
24407
24407
24410
24420
24409
24416
24421
24420
24407
24416
24424
24415
24416
24418
24423
24423
24428
24414
24427
24423
24416
24423
24423
24425
24420
24430
24433
24420
24423
24428
24423
24431
24431
24422
24429
24439
24424
24437
24436
24426
24431
24430
24436
24428
24434
24442
24428
24444
24439
24428
24435
24438
24439
24437
24443
24443
24437
24445
24445
24434
24443
24445
24455
24441
24450
24448
24463
24440
24453
24455
24444
24451
24456
24442
24456
24461
24444
24451
24458
24459
24445
24463
24455
24471
24455
24466
24469
24451
24460
24468
24463
24458
24450
24469
24471
24457
24471
24466
24457
24461
24463
24468
24463
24474
24471
24486
24468
24471
24470
24485
24467
24468
24475
24472
24477
24480
24471
24479
24480
24483
24471
24469
24479
24483
24471
24487
24482
24480
24473
24487
24487
24494
24476
24479
24491
24478
24476
24487
24493
24483
24488
24485
24499
24487
24493
24503
24488
24495
24493
24487
24493
24494
24502
24487
24495
24495
24497
24489
24492
24496
24501
24494
24496
24497
24503
24494
24494
24506
24500
24497
24513
24503
24497
24497
24503
24497
24506
24507
24500
24507
24511
24510
24504
24517
24516
24510
24523
24515
24508
24514
24519
24505
24515
24508
24513
24528
24510
24519
24523
24525
24517
24516
24526
24519
24517
24519
24527
24517
24523
24529
24530
24519
24523
24527
24526
24522
24524
24534
24527
24533
24531
24525
24527
24524
24532
24522
24533
24535
24528
24527
24535
24540
24530
24541
24538
24528
24533
24542
24542
24530
24536
24543
24546
24538
24541
24538
24543
24539
24535
24540
24536
24549
24551
24540
24545
24550
24554
24541
24550
24549
24559
24542
24551
24551
24564
24551
24556
24552
24550
24546
24556
24563
24551
24558
24554
24555
24559
24560
24567
24552
24565
24564
24553
24552
24559
24565
24554
24558
24566
24572
24575
24559
24572
24564
24565
24566
24572
24564
24566
24573
24569
24564
24575
24577
24579
24565
24575
24574
24567
24579
24582
24580
24568
24581
24572
24575
24580
24591
24574
24583
24583
24569
24583
24583
24578
24583
24583
24588
24581
24588
24591
24580
24589
24583
24597
24589
24597
24593
24590
24590
24591
24591
24592
24597
24599
24585
24596
24597
24599
24591
24596
24607
24593
24597
24605
24596
24609
24611
24606
24602
24605
24613
24607
24607
24615
24603
24615
24609
24619
24607
24614
24613
24618
24612
24619
24615
24615
24615
24613
24627
24619
24614
24618
24623
24614
24629
24629
24629
24618
24629
24631
24619
24631
24631
24622
24622
24630
24638
24618
24631
24633
24641
24626
24629
24636
24629
24630
24637
24637
24629
24642
24639
24644
24631
24636
24643
24634
24642
24644
24642
24636
24644
24639
24639
24642
24643
24645
24639
24644
24645
24635
24642
24645
24639
24644
24649
24645
24644
24656
24649
24646
24652
24646
24656
24656
24647
24645
24660
24671
24655
24663
24651
24663
24667
24652
24662
24647
24677
24678
24654
24684
24674
24658
24686
24689
24663
24691
24681
24659
24670
24675
24686
24663
24673
24679
24695
24669
24694
24687
24675
24681
24695
24679
24700
24687
24676
24678
24683
24684
24678
24685
24678
24691
24679
24679
24681
24681
24687
24683
24687
24679
24682
24679
24683
24687
24686
24680
24687
24679
24676
24681
24680
24682
24687
24693
24679
24685
24685
24684
24684
24684
24679
24687
24685
24684
24685
24693
24685
24687
24695
24685
24687
24688
24685
24684
24687
24684
24687
24692
24684
24692
24695
24692
24695
24695
24689
24689
24692
24689
24695
24692
24697
24687
24694
24695
24687
24695
24699
24694
24692
24698
24692
24692
24695
24698
24695
24700
24702
24698
24697
24695
24695
24697
24701
24698
24707
24702
24707
24695
24709
24707
24711
24702
24710
24711
24709
24705
24702
24706
24708
