EDA
18314
18290
18306
18313
18288
18313
18313
18286
18297
18307
18333
18286
18319
18323
18288
18314
18311
18288
18317
18311
18329
18293
18307
18312
18286
18303
18311
18351
18292
18307
18332
18284
18297
18307
18332
18290
18302
18325
18290
18292
18303
18314
18293
18301
18310
18284
18297
18313
18278
18293
18309
18283
18318
18318
18283
18300
18284
18307
18312
18289
18302
18302
18286
18295
18308
18284
18300
18319
18281
18311
18303
18279
18299
18307
18283
18293
18311
18285
18297
18303
18289
18307
18303
18282
18285
18290
18319
18278
18283
18295
18316
18277
18300
18317
18284
18297
18342
18284
18300
18281
18295
18302
18311
18298
18287
18341
18288
18277
18308
18297
18282
18274
18319
18295
18293
18277
18309
18293
18285
18284
18332
18303
18295
18285
18277
18323
18301
18293
18300
18295
18297
18294
18301
18282
18279
18281
18279
18281
18280
18303
18293
18281
18283
18294
18293
18277
18303
18306
18291
18274
18273
18308
18291
18279
18279
18305
18304
18279
18325
18292
18290
18281
18293
18294
18279
18308
18294
18279
18270
18297
18290
18273
18304
18303
18279
18310
18292
18274
18312
18292
18283
18279
18296
18300
18275
18319
18295
18277
18275
18305
18307
18271
18313
18285
18274
18329
18294
18282
18279
18298
18292
18277
18329
18294
18290
18277
18308
18287
18272
18368
18296
18303
18270
18308
18285
18274
18319
18290
18281
18277
18290
18282
18324
18290
18278
18270
18298
18281
18271
18266
18316
18299
18286
18272
18269
18301
18286
18292
18272
18295
18289
18277
18287
18285
18270
18321
18290
18270
18310
18278
18267
18305
18287
18269
18308
18285
18276
18329
18285
18287
18277
18292
18282
18276
18302
18287
18269
18308
18286
18269
18271
18306
18285
18277
18266
18302
18299
18277
18292
18288
18272
18314
18290
18291
18269
18306
18287
18270
18342
18292
18283
18271
18297
18299
18272
18311
18285
18277
18302
18285
18275
18296
18287
18281
18276
18305
18290
18278
18272
18301
18285
18276
18319
18291
18275
18337
18292
18284
18275
18297
18284
18305
18287
18279
18306
18297
18273
18297
18285
18273
18306
18287
18275
18276
18318
18293
18296
18276
18302
18294
18284
18273
18277
18297
18281
18276
18271
18293
18297
18263
18321
18287
18274
18271
18310
18295
18284
18277
18265
18294
18282
18279
18271
18298
18279
18264
18334
18294
18297
18264
18311
18285
18276
18265
18302
18279
18273
18277
18289
18281
18277
18276
18292
18287
18278
18269
18263
18296
18281
18267
18263
18303
18284
18269
18319
18278
18273
18301
18279
18273
18295
18282
18271
18306
18281
18269
18302
18287
18286
18260
18316
18279
18269
18262
18298
18291
18267
18291
18277
18267
18311
18287
18286
18265
18290
18278
18263
18311
18278
18264
18255
18290
18279
18263
18304
18282
18270
18266
18295
18277
18263
18303
18282
18269
18260
18304
18277
18257
18396
18298
18310
18258
18360
18300
18308
18268
18465
18321
18325
18278
18343
18309
18291
18283
18350
18317
18292
18343
18343
18297
18323
18298
18356
18322
18298
18344
18335
18302
18305
18313
18325
18355
18299
18317
18311
18294
18295
18301
18314
18293
18301
18310
18364
18294
18302
18308
18325
18295
18295
18300
18287
18288
18299
18294
18289
18287
18298
18310
18284
18319
18353
18283
18295
18305
18279
18293
18297
18284
18288
18292
18292
18280
18294
18289
18280
18282
18287
18294
18315
18278
18287
18294
18273
18279
18293
18298
18275
18282
18283
18285
18279
18279
18282
18289
18289
18276
18276
18285
18284
18291
18271
18276
18283
18297
18271
18278
18278
18284
18283
18273
18279
18278
18284
18261
18266
18272
18278
18291
18267
18264
18279
18278
18294
18263
18268
18283
18277
18274
18273
18277
18279
18291
18269
18279
18281
18263
18264
18266
18293
18290
18266
18296
18276
18259
18281
18275
18311
18276
18274
18270
18276
18275
18265
18288
18271
18262
18312
18282
18280
18259
18302
18277
18265
18262
18281
18279
18268
18277
18277
18270
18278
18273
18267
18281
18278
18279
18260
18287
18272
18268
18261
18303
18281
18277
18258
18281
18278
18267
18279
18277
18276
18264
18278
18275
18277
18261
18285
18272
18260
18290
18259
18287
18287
18259
18276
18282
18264
18279
18279
18268
18271
18275
18287
18265
18271
18283
18258
18284
18278
18310
18258
18280
18279
18290
18262
18279
18298
18269
18275
18263
18274
18272
18266
18264
18278
18261
18260
18278
18286
18258
18277
18279
18310
18257
18285
18271
18282
18260
18269
18274
18277
18264
18262
18267
18277
18280
18258
18252
18279
18272
18283
18339
18261
18277
18277
18286
18261
18263
18273
18286
18263
18277
18275
18278
18292
18256
18266
18277
18289
18257
18261
18270
18279
18297
18256
18265
18272
18280
18265
18261
18279
18278
18284
18259
18262
18284
18276
18285
18254
18286
18279
18296
18255
18254
18278
18277
18289
18260
18264
18269
18295
18263
18272
18285
18260
18283
18278
18294
18252
18257
18268
18287
18319
18255
18273
18277
18293
18258
18268
18276
18287
18259
18262
18273
18294
18249
18278
18278
18310
18254
18254
18249
18258
18268
18288
18255
18270
18268
18284
18258
18267
18273
18280
18254
18255
18282
18270
18289
18250
18278
18279
18301
18250
18253
18274
18268
18285
18253
18255
18267
18274
18282
18254
18259
18268
18286
18254
18267
18289
18246
18284
18283
18246
18263
18274
18283
18251
18255
18270
18269
18255
18278
18271
18247
18271
18260
18347
18266
18245
18294
18271
18262
18244
18257
18267
18279
18331
18255
18271
18275
18254
18255
18268
18299
18252
18261
18273
18292
18247
18259
18260
18275
18290
18250
18263
18247
18262
18249
18263
18246
18260
18247
18262
18248
18278
18272
18278
18244
18276
18271
18248
18275
18250
18331
18254
18245
18275
18263
18249
18264
18251
18248
18255
18277
18243
18248
18262
18277
18241
18247
18261
18284
18239
18243
18269
18255
18277
18242
18248
18255
18264
18275
18239
18268
18263
18277
18241
18240
18253
18275
18291
18244
18252
18258
18276
18239
18244
18258
18267
18245
18250
18266
18260
18238
18246
18258
18259
18258
18274
18238
18240
18254
18264
18279
18240
18243
18255
18266
18242
18244
18254
18244
18259
18293
18257
18246
18266
18254
18244
18236
18266
18271
18236
18267
18267
18236
18270
18253
18244
18292
18255
18241
18270
18251
18233
18260
18244
18290
18257
18236
18279
18250
18237
18264
18267
18238
18261
18255
18238
18265
18247
18244
18263
18249
18236
18263
18267
18231
18255
18249
18233
18253
18233
18270
18259
18236
18264
18244
18242
18255
18245
18239
18253
18237
18274
18235
18233
18260
18252
18261
18273
18230
18230
18236
18261
18252
18256
18234
18239
18255
18255
18239
18244
18250
18266
18231
18247
18251
18263
18322
18229
18259
18259
18295
18235
18247
18254
18259
18237
18238
18249
18247
18265
18230
18235
18240
18252
18269
18223
18231
18247
18263
18226
18235
18243
18260
18231
18240
18243
18247
18271
18232
18233
18243
18256
18260
18222
18226
18252
18246
18268
18229
18238
18244
18255
18208
18226
18249
18248
18251
18231
18244
18243
18255
18226
18223
18251
18247
18271
18221
18243
18271
18225
18251
18245
18252
18271
18230
18244
18247
18228
18228
18238
18254
18224
18225
18252
18247
18277
18227
18243
18260
18222
18242
18243
18255
18221
18225
18227
18234
18237
18245
18269
18225
18237
18259
18222
18245
18236
18251
18273
18222
18231
18243
18254
18224
18223
18237
18236
18247
18223
18231
18234
18244
18273
18216
18248
18247
18326
18219
18235
18245
18263
18224
18238
18242
18255
18228
18246
18240
18250
18223
18236
18239
18274
18223
18252
18253
18223
18220
18244
18242
18262
18223
18229
18252
18239
18245
18246
18251
18224
18224
18252
18244
18293
18219
18238
18244
18267
18221
18226
18237
18261
18226
18231
18241
18244
18222
18227
18239
18245
18217
18224
18237
18243
18260
18215
18215
18217
18225
18238
18241
18256
18275
18221
18223
18241
18233
18238
18244
18221
18223
18241
18231
18246
18215
18210
18240
18243
18308
18214
18247
18238
18255
18215
18232
18234
18241
18216
18223
18233
18230
18242
18212
18211
18227
18223
18241
18249
18207
18214
18242
18239
18209
18211
18235
18229
18237
18214
18213
18219
18223
18228
18242
18210
18223
18248
18204
18237
18239
18271
18212
18240
18229
18244
18212
18224
18230
18239
18214
18231
18227
18262
18209
18225
18229
18250
18204
18214
18221
18228
18235
18202
18204
18223
18223
18229
18208
18213
18222
18233
18207
18212
18218
18231
18198
18199
18218
18247
18205
18228
18234
18272
18205
18230
18255
18212
18222
18244
18303
18213
18264
18262
18220
18251
18266
18223
18272
18276
18227
18279
18298
18302
18265
18264
18242
18292
18274
18269
18245
18284
18263
18248
18246
18261
18267
18231
18271
18295
18230
18258
18254
18278
18234
18246
18251
18251
18235
18242
18242
18239
18243
18231
18233
18235
18247
18224
18229
18238
18252
18223
18238
18244
18273
18230
18232
18233
18225
18228
18234
18225
18226
18223
18228
18227
18233
18273
18215
18215
18228
18234
18214
18215
18220
18229
18223
18232
18218
18212
18221
18215
18223
18219
18243
18220
18211
18227
18222
18207
18226
18214
18272
18218
18208
18230
18220
18212
18221
18216
18213
18219
18209
18232
18215
18210
18231
18247
18201
18212
18212
18221
18246
18207
18220
18215
18235
18204
18215
18212
18217
18207
18209
18221
18210
18201
18228
18223
18201
18213
18198
18227
18212
18199
18223
18214
18201
18216
18209
18207
18201
18211
18215
18197
18221
18211
18194
18222
18216
18194
18219
18204
18190
18214
18212
18197
18218
18207
18200
18200
18209
18209
18205
18196
18212
18208
18193
18218
18219
18191
18237
18215
18221
18196
18225
18215
18195
18212
18202
18196
18209
18200
18196
18212
18211
18190
18218
18215
18247
18213
18199
18194
18222
18204
18241
18212
18198
18196
18211
18204
18201
18210
18206
18173
18204
18191
18225
18204
18191
18223
18217
18190
18211
18193
18230
18203
18193
18208
18198
18209
18197
18193
18210
18202
18194
18216
18207
18194
18190
18226
18202
18188
18221
18202
18190
18214
18204
18199
18211
18203
18194
18206
18202
18216
18198
18189
18220
18204
18183
18236
18206
18197
18191
18213
18195
18194
18207
18194
18210
18201
18195
18207
18204
18190
18216
18199
18185
18215
18196
18184
18208
18194
18183
18204
18188
18220
18200
18189
18214
18200
18195
18211
18208
18186
18211
18206
18189
18202
18183
18221
18197
18181
18223
18201
18186
18211
18203
18211
18185
18191
18196
18208
18214
18182
18191
18196
18204
18242
18176
18204
18211
18235
18180
18209
18201
18215
18180
18191
18199
18202
18175
18180
18192
18213
18178
18199
18190
18201
18242
18175
18195
18222
18175
18194
18212
18180
18204
18198
18223
18183
18194
18203
18187
18204
18173
18191
18198
18242
18178
18194
18266
18178
18194
18237
18175
18190
18204
18181
18187
18195
18223
18177
18188
18213
18171
18187
18212
18172
18193
18169
18175
18191
18216
18195
18175
18197
18183
18235
18194
18183
18178
18191
18190
18175
18209
18180
18170
18201
18188
18167
18204
18202
18173
18215
18209
18195
18190
18172
18193
18188
18174
18189
18177
18171
18168
18190
18211
18162
18199
18193
18234
18168
18196
18195
18212
18165
18171
18183
18187
18184
18192
18169
18165
18182
18191
18201
18160
18173
18182
18191
18268
18165
18180
18193
18215
18162
18166
18179
18176
18183
18190
18192
18159
18164
18170
18188
18159
18161
18174
18189
18253
18158
18176
18197
18167
18169
18183
18160
18168
18182
18183
18163
18159
18186
18180
18245
18154
18187
18191
18156
18204
18181
18184
18159
18188
18180
18158
18184
18181
18159
18182
18171
18157
18188
18164
18153
18194
18170
18153
18199
18170
18151
18190
18181
18155
18177
18167
18156
18169
18159
18187
18174
18155
18176
18154
18191
18170
18151
18193
18177
18150
18192
18174
18151
18190
18168
18153
18179
18175
18153
18175
18157
18188
18165
18150
18179
18166
18142
18186
18183
18151
18153
18174
18191
18152
18149
18172
18167
18179
18156
18166
18169
18183
18148
18153
18180
18175
18235
18175
18194
18147
18178
18175
18195
18148
18175
18170
18178
18149
18152
18161
18173
18210
18151
18161
18167
18237
18164
18171
18188
18151
18150
18179
18173
18182
18222
18149
18153
18162
18167
18168
18154
18151
18170
18161
18178
18246
18148
18148
18177
18167
18178
18133
18149
18162
18163
18175
18185
18149
18157
18162
18171
18183
18149
18152
18159
18180
18146
18174
18174
18199
18145
18164
18160
18174
18151
18151
18164
18168
18151
18152
18155
18161
18163
18180
18142
18140
18166
18164
18189
18141
18147
18160
18174
18203
18144
18148
18155
18164
18180
18149
18151
18158
18171
18145
18148
18159
18170
18194
18141
18173
18169
18180
18142
18146
18164
18167
18183
18148
18165
18158
18169
18147
18143
18161
18168
18240
18139
18145
18175
18164
18168
18223
18143
18152
18164
18172
18148
18153
18157
18167
18151
18148
18156
18165
18179
18144
18143
18151
18155
18175
18197
18145
18151
18161
18179
18148
18151
18157
18166
18149
18153
18160
18182
18145
18167
18163
18192
18142
18174
18165
18202
18142
18157
18181
18143
18159
18171
18146
18155
18167
18143
18155
18175
18142
18167
18163
18142
18149
18161
18191
18138
18163
18156
18167
18136
18143
18151
18170
18143
18143
18153
18162
18135
18138
18151
18164
18239
18135
18163
18164
18135
18137
18148
18167
18212
18140
18150
18153
18162
18136
18140
18147
18162
18202
18133
18150
18170
18128
18158
18157
18207
18137
18150
18172
18139
18151
18136
18145
18137
18155
18153
18132
18159
18147
18126
18150
18132
18139
18149
18126
18167
18159
18132
18167
18129
18143
18151
18191
18133
18142
18153
18129
18143
18155
18123
18149
18151
18124
18157
18147
18119
18162
18146
18131
18155
18140
18127
18151
18150
18130
18151
18148
18127
18158
18145
18127
18167
18161
18130
18166
18168
18140
18161
18145
18197
18171
18150
18274
18177
18141
18215
18172
18148
18230
18183
18149
18212
18180
18164
18185
18161
18210
18203
18162
18211
18199
18167
18195
18188
18167
18194
18190
18159
18191
18180
18174
18170
18169
18149
18150
18209
18186
18174
18159
18153
18166
18165
18154
18165
18159
18127
18164
18170
18146
18167
18156
18143
18169
18151
18207
18154
18143
18164
18150
18143
18159
18148
18142
18154
18149
18143
18152
18146
18135
18167
18159
18151
18151
18132
18129
18154
18149
18132
18133
18149
18143
18145
18137
18123
18142
18141
18140
18135
18191
18147
18150
18124
18207
18158
18145
18127
18124
18157
18137
18138
18143
18144
18129
18127
18129
18143
18134
18141
18165
18120
18133
18135
18150
18122
18142
18140
18180
18129
18133
18144
18126
18132
18133
18143
18132
18127
18140
18143
18153
18117
18125
18133
18148
18180
18123
18135
18153
18118
18124
18133
18144
18122
18133
18133
18144
18123
18133
18141
18118
18137
18151
18117
18139
18148
18118
18129
18147
18119
18135
18121
18127
18131
18134
18120
18137
18126
18127
18118
18116
18146
18131
18118
18119
18141
18142
18115
18145
18130
18116
18145
18129
18123
18132
18133
18119
18149
18134
18126
18118
18142
18135
18113
18145
18134
18117
18154
18141
18130
18117
18141
18131
18116
18137
18126
18124
18140
18126
18116
18137
18119
18166
18130
18115
18150
18126
18115
18144
18122
18116
18143
18124
18118
18131
18118
18115
18125
18134
18115
18114
18126
18145
18112
18119
18135
18148
18115
18133
18127
18145
18116
18126
18128
18138
18117
18116
18133
18130
18140
18188
18114
18134
18140
18115
18115
18120
18137
18111
18113
18132
18135
18116
18117
18125
18128
18116
18130
18127
18143
18108
18123
18124
18127
18104
18135
18117
18204
18131
18110
18159
18120
18111
18134
18125
18114
18150
18131
18126
18135
18112
18109
18108
18189
18140
18131
18131
18103
18129
18126
18112
18130
18114
18138
18122
18113
18151
18124
18128
18106
18125
18117
18191
18124
18110
18109
18135
18112
18186
18124
18109
18144
18122
18113
18133
18123
18108
18137
18124
18109
18140
18117
18103
18147
18132
18103
18137
18126
18149
18105
18120
18120
18132
18110
18115
18119
18130
18108
18111
18119
18126
18135
18168
18094
18108
18124
18126
18146
18104
18107
18119
18119
18127
18107
18104
18117
18118
18105
18105
18111
18116
18122
18152
18098
18128
18123
18181
18103
18111
18126
18107
18107
18107
18137
18118
18104
18131
18115
18101
18118
18100
18144
18114
18097
18129
18124
18088
18137
18119
18099
18125
18116
18102
18121
18116
18103
18117
18100
18169
18118
18098
18188
18112
18097
18187
18117
18095
18144
18115
18099
18127
18116
18097
18122
18115
18102
18103
18114
18108
18091
18115
18098
18135
18121
18092
18119
18111
18099
18119
18119
18098
18119
18124
18100
18119
18116
18094
18119
18110
18093
18119
18103
18186
18113
18095
18129
18120
18093
18116
18112
18099
18115
18097
18119
18111
18100
18111
18096
18126
18118
18091
18115
18102
18143
18104
18088
18124
18113
18090
18158
18117
18103
18095
18111
18112
18094
18116
18103
18103
18093
18118
18107
18116
18119
18095
18200
18110
18085
18179
18109
18098
18161
18113
18095
18143
18110
18097
18143
18115
18111
18088
18123
18105
18095
18086
18124
18103
18083
18119
18095
18163
18110
18095
18135
18107
18100
18093
18118
18103
18087
18121
18116
18089
18113
18090
18128
18113
18086
18102
18110
18119
18090
18093
18105
18119
18089
18099
18114
18085
18100
18102
18117
18186
18087
18100
18121
18087
18091
18101
18120
18086
18099
18105
18114
18132
18089
18101
18108
18088
18116
18108
18087
18094
18103
18132
18086
18103
18121
18081
18106
18114
18087
18108
18110
18094
18092
18088
18104
18097
18086
18123
18100
18084
18083
18115
18100
18085
18083
18116
18103
18084
18117
18100
18088
18119
18102
18097
18118
18101
18087
18122
18096
18086
18137
18110
18097
18086
18114
18113
18084
18106
18112
18091
18112
18104
18111
18091
18119
18104
18092
18087
18116
18100
18085
18133
18109
18103
18086
18110
18091
18130
18109
18091
18095
18113
18100
18092
18153
18110
18098
18085
18116
18114
18086
18124
18108
18093
18083
18117
18096
18086
18105
18105
18099
18089
18113
18100
18090
18127
18105
18084
18132
18103
18086
18143
18103
18101
18096
18109
18084
18110
18092
18087
18099
18085
18105
18098
18084
18115
18087
18078
18108
18085
18079
18106
18092
18073
18111
18113
18079
18100
18089
18125
18098
18083
18104
18095
18077
18104
18107
18072
18116
18091
18075
18126
18100
18092
18089
18093
18078
18082
18097
18092
18081
18095
18094
18079
18102
18100
18068
18113
18094
18071
18165
18094
18072
18119
18092
18083
18076
18095
18085
18079
18092
18086
18079
18065
18092
18087
18069
18108
18090
18082
18068
18108
18084
18071
18108
18090
18070
18108
18087
18078
18077
18090
18095
18074
18110
18086
18069
18100
18087
18074
18114
18112
18076
18139
18109
18086
18086
18122
18106
18145
18122
18177
18114
18097
18125
18117
18100
18136
18143
18102
18168
18130
18102
18150
18126
18257
18148
18135
18116
18142
18117
18151
18126
18113
18146
18129
18125
18102
18156
18134
18115
18102
18097
18120
18127
18094
18127
18108
18094
18116
18110
18103
18114
18109
18102
18092
18124
18116
18115
18089
18114
18101
18086
18125
18105
18101
18087
18109
18097
18092
18104
18099
18086
18096
18098
18084
18108
18103
18083
18104
18104
18081
18110
18094
18092
18079
18105
18088
18085
18080
18089
18094
18083
18097
18093
18086
18117
18094
18088
18074
18094
18075
18108
18085
18076
18095
18077
18090
18081
18095
18079
18076
18086
18081
18095
18069
18093
18098
18068
18081
18109
18072
18086
18101
18072
18070
18103
18081
18070
18100
18085
18080
18078
18072
18095
18087
18074
18140
18089
18077
18071
18106
18084
18086
18067
18101
18087
18077
18070
18085
18082
18074
18087
18081
18071
18122
18091
18095
18062
18096
18083
18063
18110
18082
18071
18069
18093
18085
18073
18082
18083
18073
18083
18076
18067
18087
18083
18061
18111
18086
18077
18061
18119
18089
18085
18127
18076
18068
18070
18084
18087
18092
18071
18080
18081
18092
18065
18076
18087
18066
18086
18088
18062
18069
18104
18080
18067
18099
18082
18073
18090
18076
18077
18094
18083
18076
18067
18097
18087
18092
18062
18103
18082
18063
18087
18067
18068
18083
18072
18070
18082
18079
18068
18082
18069
18067
18085
18074
18058
18084
18060
18109
18076
18057
18095
18079
18071
18067
18084
18076
18071
18082
18079
18064
18085
18077
18064
18102
18075
18062
18087
18068
18109
18081
18063
18098
18079
18071
18090
18077
18069
18087
18069
18100
18080
18074
18136
18081
18063
18133
18086
18069
18065
18089
18091
18060
18101
18076
18071
18088
18087
18067
18086
18074
18065
18103
18079
18066
18059
18093
18087
18060
18090
18090
18063
18091
18085
18063
18084
18062
18085
18078
18065
18093
18079
18079
18058
18088
18092
18063
18101
18085
18072
18063
18092
18079
18061
18128
18081
18066
18087
18078
18082
18064
18057
18095
18073
18065
18060
18086
18065
18146
18085
18081
18056
18077
18064
18093
18075
18062
18116
18081
18074
18071
18058
18088
18069
18053
18097
18072
18062
18058
18082
18071
18056
18091
18068
18060
18091
18076
18067
18095
18076
18074
18058
18084
18084
18055
18087
18064
18055
18076
18054
18117
18079
18057
18063
18103
18081
18075
18066
18063
18061
18087
18077
18070
18086
18055
18087
18066
18132
18074
18055
18100
18089
18058
18076
18092
18059
18061
18074
18082
18058
18064
18073
18085
18053
18072
18079
18093
18055
18069
18081
18052
18055
18106
18070
18053
18086
18070
18056
18084
18067
18058
18092
18074
18057
18055
18074
18071
18055
18082
18070
18103
18076
18071
18053
18074
18061
18085
18064
18060
18079
18068
18056
18090
18068
18055
18084
18077
18053
18079
18075
18051
18084
18066
18055
18080
18063
18056
18066
18057
18079
18069
18056
18047
18086
18069
18070
18050
18111
18073
18072
18045
18080
18076
18046
18085
18072
18054
18071
18063
18055
18065
18063
18049
18068
18048
18093
18082
18047
18067
18047
18081
18082
18047
18069
18063
18047
18074
18063
18055
18082
18060
18054
18076
18071
18082
18045
18055
18061
18079
18046
18052
18058
18086
18050
18054
18065
18076
18048
18054
18063
18074
18047
18049
18059
18083
18044
18041
18056
18079
18044
18047
18065
18079
18049
18052
18057
18071
18050
18061
18059
18074
18044
18053
18062
18081
18039
18071
18066
18088
18045
18078
18071
18133
18053
18056
18071
18048
18058
18062
18094
18048
18055
18068
18085
18041
18057
18068
18097
18042
18063
18077
18052
18063
18063
18081
18049
18071
18068
18095
18046
18060
18076
18045
18059
18078
18044
18060
18086
18043
18055
18078
18046
18057
18063
18076
18049
18053
18051
18065
18067
18053
18061
18047
18081
18066
18133
18074
18095
18079
18047
18069
18047
18089
18050
18053
18071
18073
18081
18052
18065
18071
18047
18077
18066
18105
18051
18061
18087
18042
18071
18074
18048
18046
18057
18077
18047
18062
18066
18049
18055
18067
18079
18039
18054
18049
18040
18059
18090
18036
18055
18078
18047
18047
18061
18078
18042
18056
18071
18047
18050
18045
18071
18056
18063
18037
18101
18061
18062
18037
18068
18068
18044
18078
18053
18037
18042
18044
18061
18061
18044
18063
18055
18042
18036
18060
18066
18031
18086
18061
18067
18037
18087
18056
18047
18108
18050
18046
18062
18055
18039
18051
18037
18055
18039
18118
18054
18036
18072
18054
18031
18068
18063
18034
18059
18040
18039
18060
18044
18039
18055
18049
18036
18052
18044
18033
18052
18031
18071
18047
18030
18054
18031
18081
18050
18036
18035
18050
18035
18084
18044
18037
18028
18058
18062
18022
18076
18044
18026
18106
18056
18032
18028
18029
18247
18093
18076
18078
18039
18114
18077
18078
18042
18100
18070
18053
18194
18094
18063
18240
18091
18078
18132
18089
18066
18117
18112
18076
18102
18079
18116
18087
18073
18096
18085
18066
18074
18087
18114
18063
18077
18090
18095
18064
18074
18079
18062
18070
18074
18062
18072
18065
18072
18061
18063
18073
18054
18056
18070
18087
18053
18053
18071
18065
18053
18057
18060
18063
18055
18057
18058
18062
18053
18055
18066
18045
18064
18060
18103
18046
18055
18077
18045
18053
18060
18051
18054
18054
18047
18052
18053
18043
18050
18053
18085
18047
18056
18036
18074
18055
18039
18080
18053
18044
18060
18052
18039
18050
18046
18043
18044
18041
18055
18046
18033
18062
18051
18034
18069
18047
18030
18065
18050
18036
18061
18048
18039
18055
18050
18036
18038
18052
18045
18032
18084
18046
18043
18031
18055
18047
18030
18055
18039
18091
18046
18040
18037
18046
18041
18034
18049
18038
18036
18028
18055
18040
18026
18030
18053
18058
18029
18063
18047
18041
18034
18055
18041
18033
18049
18044
18038
18036
18027
18031
18050
18038
18025
18030
18051
18039
18030
18059
18039
18031
18052
18050
18033
18047
18038
18034
18059
18041
18039
18028
18044
18050
18027
18062
18046
18030
18094
18047
18039
18028
18046
18041
18033
18045
18044
18034
18044
18041
18036
18071
18045
18030
18062
18042
18042
18023
18058
18050
18026
18058
18044
18039
18032
18043
18044
18033
18047
18036
18029
18053
18039
18029
18052
18048
18034
18026
18047
18050
18030
18050
18044
18036
18052
18037
18039
18036
18045
18044
18034
18052
18044
18070
18025
18052
18053
18027
18031
18047
18055
18029
18036
18047
18045
18029
18036
18039
18044
18034
18055
18044
18039
18029
18055
18039
18027
18022
18052
18056
18025
18063
18044
18034
18054
18043
18034
18035
18051
18051
18025
18057
18038
18023
18055
18055
18028
18056
18047
18031
18042
18062
18028
18054
18055
18028
18048
18046
18031
18028
18039
18060
18028
18038
18054
18113
18027
18042
18075
18022
18039
18084
18030
18048
18022
18030
18045
18054
18027
18030
18044
18024
18048
18057
18017
18052
18059
18018
18031
18049
18020
18050
18052
18022
18039
18022
18024
18053
18039
18030
18023
18047
18046
18018
18060
18034
18031
18012
18056
18031
18015
18054
18037
18023
18071
18034
18041
18019
18049
18037
18018
18020
18049
18032
18019
18014
18051
18036
18031
18015
18058
18037
18044
18017
18046
18041
18037
18036
18021
18033
18039
18039
18010
18017
18047
18028
18025
18010
18055
18030
18021
18012
18060
18047
18030
18021
18022
18037
18027
18052
18031
18022
18010
18044
18045
18006
18050
18031
18012
18046
18040
18017
18042
18033
18025
18028
18035
18015
18023
18031
18052
18008
18020
18039
18010
18041
18039
18119
18007
18023
18039
18010
18012
18029
18081
18017
18027
18054
18009
18021
18047
17999
18033
18037
18084
18010
18019
18034
18065
18001
18023
18026
18071
18009
18025
18029
18006
18011
18021
18023
18029
18049
18007
18015
18020
18044
17999
18004
18020
18036
18079
18012
18035
18027
18012
18023
18028
18026
18009
18031
18017
18046
18018
17999
18039
18031
18003
18043
18030
18000
18035
18013
18005
18033
18028
17999
18026
18020
18008
18002
18025
18031
18001
18030
18022
17999
18021
18026
17995
18047
18020
18006
17999
18020
18015
18002
18021
18014
18007
18018
18020
17996
18033
18028
18025
18108
17997
18019
18028
17998
17996
18023
18023
18001
17999
18013
18022
18006
18011
18017
18030
17995
18013
18017
18024
17996
17996
18010
18035
17993
18017
18018
18023
18017
17999
18009
18020
17997
18009
18024
17996
18012
18017
18085
17995
18004
18023
18055
17990
18007
18006
18020
18028
17992
18012
18005
18018
17997
18003
18008
18025
17991
18023
18014
17992
18015
18017
17988
18022
18023
17993
18008
18069
18000
18007
18017
17997
17995
18008
18015
18028
17989
17993
18011
18029
17993
18004
18012
18039
17993
18021
18027
17999
18004
18012
18026
17998
17998
18031
18016
18009
18071
18009
17989
18027
18022
17998
18021
17995
18025
18009
18084
18012
18016
18022
17996
18003
18004
18014
18021
17992
17993
18010
18034
17990
18006
18031
17987
18019
18013
18074
17991
18001
18018
17991
17998
18011
18043
17991
18004
18015
17990
17988
18004
18017
17989
18021
18006
17999
17989
18018
18002
17990
18037
18004
18010
17988
18036
18007
18002
17988
18019
18005
17988
17985
18016
17998
17982
18023
18012
17986
18000
17990
18015
17999
17988
18011
18004
17984
18004
17994
17987
18005
17985
18033
18001
17979
18029
17997
17982
18019
17996
17985
18011
18001
17985
18011
18004
17996
17981
18050
18004
17999
17980
18019
18004
18002
17978
18081
18005
17991
17981
18052
18003
18001
17983
18000
18001
17983
18004
17996
17979
18071
17976
17993
18017
17978
17983
17999
18043
17978
18002
18078
18010
18016
17980
17999
18007
17994
17984
17976
18030
17997
17979
17988
18028
18009
17988
18078
18023
18031
17996
18046
18044
18039
18009
18181
18060
18033
18010
18078
18041
18016
18086
18044
18016
18019
18051
18051
18019
18065
18033
18019
18037
18029
18017
18030
18022
18018
18023
18013
18014
18021
18002
18036
18003
18055
18030
18025
18023
18022
18014
18007
18007
18015
18019
18015
18012
18013
18008
18002
18014
18007
17998
18032
18006
18001
17999
18014
18007
17997
17995
18004
18007
17998
18005
18002
17999
18001
17999
17989
18007
18001
17987
18017
18005
17984
18018
17999
17987
18005
18005
17989
18001
17996
17990
17996
17994
17986
17999
17996
17982
17989
18000
17995
17982
18000
17991
17978
18002
17984
17982
17991
17995
17981
17986
17996
17991
17982
17991
17990
17978
18020
17996
17994
17975
18001
17988
17977
17981
17991
17999
17983
17995
17991
17982
17985
17991
17985
17983
17978
18004
17990
17989
17976
17991
17983
17979
17991
17975
18003
17988
17979
17998
17986
17991
17984
17980
17975
17991
17982
17978
17973
18001
17997
17970
18005
17986
17972
17998
18004
17972
17985
17991
17972
17990
17989
17996
17973
17991
17985
17995
18031
17972
17992
17991
17978
18020
17980
17975
17999
17980
18000
17982
17986
17977
17975
17993
17980
18012
17980
17991
17985
18025
17966
17991
17998
17972
17977
17986
18026
17973
17982
17998
17978
17980
17976
17977
17987
18007
17975
17981
17999
17972
17986
18004
17967
17986
18023
17972
17989
17996
17975
17991
17990
17977
17986
17987
17976
17990
17988
18031
17978
17973
17999
18001
17970
17999
17991
17967
17992
17988
17972
17990
17986
17977
17986
17976
17974
17987
17978
17972
17994
17975
17964
17994
17995
17963
18007
17994
17966
17985
17986
17973
17988
17984
17971
17991
17985
17989
17967
18010
17992
17995
17963
17961
17994
17993
17964
17990
17979
17966
17989
17990
17969
17974
17983
17993
17972
17982
17998
17962
17980
17988
18030
17964
17981
18012
17962
17982
18004
17965
17980
17993
17965
17976
17988
17967
17983
17966
17989
17998
17956
17987
17983
18068
17975
17988
17963
17973
17990
17965
17985
17982
18020
17970
17977
17985
17964
17962
17975
17996
17979
17985
18019
17961
17990
17990
17961
17962
17980
18003
17961
17975
17987
17963
17972
17980
17958
17960
17980
18015
17963
17977
17958
17982
17993
17956
17978
17997
17959
17975
17988
17981
17972
17947
17972
17964
17989
17969
17959
17997
17971
17955
17996
17982
17957
17988
17975
17976
17988
17958
17956
17968
17967
17980
17962
17959
17979
17976
17989
17952
17966
17991
17994
17982
17956
17986
17975
18053
17973
17956
17988
17970
17956
17991
17978
17964
17958
17975
17983
17951
17991
17965
17956
17991
17974
17954
17999
17967
17946
17980
17975
17958
17977
17961
18005
17967
17957
17980
17964
17951
17949
17978
17977
17946
17978
17970
17946
17980
17978
17947
17982
17966
17957
17980
17967
17969
17956
17953
17982
17959
17950
17998
17974
17969
17943
17987
17963
17955
17945
17972
17974
17953
17971
17958
17951
17969
17958
17946
17987
17969
17963
17943
17988
17959
17945
17993
17970
17949
17993
17963
17950
17948
17973
17958
17954
17979
17966
17955
17946
17969
17975
17940
17990
17958
17946
17945
17971
17968
17951
17985
17963
17956
17945
17970
17956
17950
17974
17962
17950
17943
17967
17959
17942
17981
17964
17945
17991
17966
17950
17942
17960
17948
17974
17971
17950
17959
17944
17973
17963
18007
17959
17940
17970
17972
17991
17940
17972
17964
17984
17945
17953
17954
17962
17970
17950
17950
17959
17968
17942
17978
17957
17941
17995
17959
17957
17938
17975
17958
17940
17973
17955
17946
17963
17957
17944
17955
17965
17940
17942
17953
17973
17935
17964
17968
17932
17940
17956
17973
17937
17967
17957
17984
17944
17957
17965
17942
17945
17953
17940
17951
17973
17943
17967
17934
17956
17934
17980
17957
17943
17956
17960
17953
17943
17963
17956
17943
17957
17953
17937
17966
17949
17931
17977
17958
17935
17934
17968
17949
17937
18000
17957
17959
17938
17963
17962
17956
17941
17963
17951
17933
17976
17956
17943
17935
17938
17959
17947
17937
17967
17956
17940
17950
17945
17943
17961
17956
17941
17958
17949
18018
17962
17963
17938
17936
17976
17952
17945
17934
17942
17967
17951
17945
17937
17958
17957
17951
17940
17952
17963
17961
17932
17973
17950
17941
17934
17966
17965
17927
17969
17955
17947
17937
17966
17947
17945
17931
17961
17942
17935
17931
17965
17947
17929
17974
17943
17933
17969
17944
17933
17960
17948
17939
17959
17951
17948
17947
17935
17930
17958
17943
17927
18013
17950
17940
17926
17957
17959
17928
17961
17941
17932
17967
17943
17933
17959
17951
17933
17956
17942
17926
17975
17948
17950
17924
17990
17951
17943
17933
17927
17988
17948
17941
17934
17930
17945
17940
17927
17958
17940
17927
17927
17952
17936
17927
17919
17966
17950
17954
17921
17958
17943
17948
17927
17927
17950
17934
17925
17922
17949
17950
17924
17919
17959
17946
17954
17924
17917
17959
17941
17935
17921
18012
17956
17956
17957
17943
18071
17964
17964
17924
18021
17968
17973
17927
17991
17967
17960
17935
17999
17975
17948
18015
17981
17959
18060
17999
18002
17959
18015
17985
17967
18053
17995
17963
17962
17993
17981
17959
17989
17973
17957
17978
17967
17987
17969
17956
17967
17954
17968
17957
17947
17960
17968
17977
17950
17954
17958
17964
17977
17951
17958
17964
17954
17954
17967
17946
17954
17962
17942
17948
17957
17970
17936
17956
17964
18007
17938
17948
17959
17940
17944
17950
17953
17937
17945
17948
17951
17935
17940
17948
17957
17935
17934
17943
17954
17932
17932
17932
17947
17936
17932
17946
17945
17935
17943
17942
17927
17928
17945
17938
17930
17927
17948
17949
17924
17959
17940
17929
17924
17951
17938
17934
17929
17943
17935
17929
17927
17943
17932
17921
17960
17941
17921
17923
17948
17950
17918
17957
17940
17926
17945
17941
17927
17941
17938
17924
17943
17940
17919
17956
17933
17917
17951
17934
17924
17919
17919
17939
17952
17948
17940
17939
17936
17935
17930
17927
17923
17921
17928
17917
17951
17927
17915
17950
17948
17914
17943
17935
17912
17944
17940
17923
17933
17924
17940
17929
17925
17940
17939
17913
17935
17946
18003
17913
17940
17938
17944
17985
17921
17922
17932
17937
17919
17924
17927
17919
17922
17916
17917
17940
17930
17914
17938
17934
17915
17935
17916
17949
17931
17919
17950
17932
17930
17919
17934
17933
17916
17958
17926
17932
17911
17940
17939
17913
17951
17932
17910
17949
17926
17916
17935
17925
17950
17927
17921
17934
17926
17913
17945
17927
17934
17909
17945
17940
17912
17948
17925
17905
17927
17911
17937
17923
17949
17927
17920
17916
17935
17925
17917
17912
17938
17940
17911
17952
17935
17916
17917
17945
17925
17916
17912
17932
17927
17914
17928
17924
17910
17935
17937
17910
17950
17921
17908
17948
17927
17923
17909
17932
17935
17911
17951
17927
17925
17911
17942
17933
17924
17929
17911
17940
17927
17922
17903
17944
17927
17906
17948
17924
17914
17954
17922
17918
17951
17926
17916
17937
17923
17909
17928
17911
17958
17921
17901
17948
17930
17906
17936
17934
17906
17932
17911
17940
17924
17913
17919
17905
17926
17924
17938
17908
17903
17916
17914
17937
17980
17901
17912
17939
17900
17913
17924
17936
17905
17925
17925
17905
17927
17927
17900
17911
17927
17972
17896
17935
17927
17905
17903
17930
17927
17977
17907
17912
17920
17950
17909
17927
17920
17941
17900
17919
17933
17991
17897
17903
17917
17941
17901
17900
17921
17927
17959
17907
17916
17927
17903
17903
17913
17933
17901
17922
17924
17895
17920
17892
17917
17892
17910
17894
17927
17927
17902
17902
17910
17924
17899
17905
17913
17925
17952
17895
17924
17922
17942
17893
17915
17919
17948
17897
17918
17923
17897
17896
17907
17938
17895
17909
17930
17893
17912
17917
17927
17893
17905
17909
17931
17887
17898
17894
17917
17911
17896
17920
17910
17894
17917
17905
17893
17893
17913
17896
17931
17915
17923
17911
17931
17888
17915
17917
17928
17889
17911
17908
17919
17894
17903
17905
17922
17887
17911
17902
17916
17934
17887
17905
17905
17942
17887
17914
17914
17890
17915
17915
17893
17895
17918
17910
17900
17887
17913
17898
17888
17917
17911
17887
17915
17891
17943
17905
17884
17891
17916
17910
17949
17888
17905
17908
17890
17889
17902
17920
17886
17900
17916
17881
17890
17902
17913
17943
17885
17913
17908
17937
17889
17897
17908
17889
17911
17909
17885
17911
17893
17880
17905
17901
17884
17908
17894
17882
17912
17911
17889
17910
17897
17918
17897
17889
17884
17905
17905
17921
17883
17882
17913
17903
17906
17918
17923
17971
17881
17887
17898
17907
17914
17884
17887
17897
17911
17879
17886
17895
17908
17878
17876
17905
17908
17980
17881
17881
17903
17898
17882
17902
17894
17885
17896
17886
17909
17892
17878
17918
17894
17879
17911
17906
17876
17908
17887
17937
17892
17879
17901
17894
17880
17898
17884
17908
17897
17883
17877
17893
17905
17870
17876
17908
17905
17940
17877
17906
17904
17948
17878
17895
17895
17935
17903
17892
17886
17880
17908
17895
17878
17911
17901
17875
17913
17907
17881
17903
17900
17885
17906
17895
17889
17906
17900
17886
17906
17887
17945
17893
17878
17915
17906
17879
17958
17896
17880
17927
17895
17893
17880
17892
17884
17903
17906
17878
17895
17882
17932
17894
17881
17926
17887
17873
17918
17908
17876
17900
17879
17910
17890
17879
17892
17883
17898
17887
17874
17874
17883
17896
17967
17871
17903
17895
17913
17951
17875
17899
17895
17927
17876
17880
17884
17893
17910
17871
17868
17900
17891
17907
17869
17903
17892
17935
17870
17895
17900
17928
17870
17881
17894
17926
17876
17887
17893
17874
17869
17885
17885
17895
17867
17869
17883
17894
17902
17870
17864
17897
17892
17900
17868
17879
17882
17890
17902
17873
17869
17884
17891
17903
17861
17864
17885
17902
17862
17890
17893
17864
17868
17876
17895
17869
17885
17863
17876
17880
17932
17864
17871
17898
17857
17889
17888
17980
17870
17885
17919
17865
17885
17906
17864
17898
17901
17873
17888
17890
17919
17872
17886
17909
17876
17900
17914
17958
17879
17897
17913
17949
17895
17898
17921
17945
17909
17909
17949
17935
17954
17902
17919
17923
17957
17902
17909
17917
17927
17940
17893
17903
17911
17925
17893
17895
17912
17911
17943
17892
17896
17913
17917
17882
17885
17905
17902
17921
17882
17896
17910
17886
17885
17892
17900
17887
17894
17894
17886
17884
17889
17893
17877
17881
17894
17920
17871
17897
17899
17872
17880
17887
17890
17919
17871
17873
17884
17878
17892
17875
17866
17880
17885
17894
17865
17866
17890
17887
17899
17863
17871
17875
17882
17882
17866
17863
17874
17876
17877
17862
17862
17884
17878
17910
17862
17887
17893
17861
17887
17873
17891
17861
17864
17872
17879
17877
17869
17871
17875
17875
17881
17861
17855
17860
17871
17891
17855
17859
17871
17883
17856
17858
17862
17877
17869
17860
17877
17869
17860
17893
17866
17857
17854
17870
17846
17885
17875
17852
17866
17849
17880
17867
17858
17885
17863
17857
17874
17863
17854
17882
17861
17852
17874
17874
17851
17873
17891
17868
17888
17846
17848
17873
17870
17884
17856
17870
17869
17891
17858
17863
17874
17849
17871
17881
17844
17862
17889
17847
17874
17871
17893
17854
17865
17874
17855
17862
17866
17870
17863
17855
17896
17867
17859
17845
17869
17860
17852
17869
17842
17879
17874
17846
17869
17871
17852
17861
17862
17865
17849
17855
17862
17874
17845
17846
17871
17869
17844
17857
17874
17851
17880
17862
17847
17871
17860
17851
17867
17862
17849
17843
17869
17856
17844
17883
17862
17845
17945
17861
17842
17871
17864
17844
17869
17859
17851
17860
17861
17844
17856
17847
17855
17862
17892
17841
17863
17871
17838
17847
17856
17875
17845
17845
17865
17861
17873
17848
17858
17867
17844
17847
17855
17868
17845
17843
17855
17879
17837
17876
17863
17910
17842
17855
17879
17844
17853
17858
17865
17845
17858
17862
17873
17842
17854
17860
17879
17841
17837
17881
17850
17841
17879
17863
17841
17858
17847
17867
17855
17840
17882
17854
17845
17882
17858
17838
17878
17859
17839
17864
17841
17883
17853
17844
17868
17857
17844
17874
17862
17845
17840
17860
17860
17840
17869
17869
17837
17862
17853
17839
17871
17865
17838
17885
17851
17847
17871
17851
17840
17863
17854
17841
17838
17857
17850
17849
17831
17881
17864
17849
17831
17906
17854
17836
17838
17860
17848
17844
17858
17842
17825
17857
17839
17879
17843
17829
17879
17845
17833
17870
17847
17831
17874
17843
17831
17864
17849
17835
17863
17847
17833
17865
17847
17829
17826
17856
17847
17830
17877
17853
17831
17881
17852
17836
17829
17852
17839
17837
17849
17841
17834
17858
17845
17834
17828
17863
17844
17830
17879
17851
17832
17870
17845
17832
17858
17853
17834
17845
17835
17863
17844
17837
17826
17855
17839
17825
17863
17844
17823
17856
17858
17826
17863
17847
17830
17894
17846
17846
17829
17850
17841
17831
17905
17850
17837
17826
17823
17860
17844
17827
17844
17856
17841
17830
17829
17855
17837
17829
17846
17831
17862
17842
17826
17866
17842
17818
17862
17843
17823
17871
17845
17831
17825
17855
17844
17830
17850
17839
17830
17828
17847
17847
17823
17893
17848
17853
17820
17865
17840
17834
17816
17860
17834
17827
17824
17850
17834
17830
17828
17843
17845
17831
17855
17837
17819
17863
17839
17822
17841
17821
17874
17841
17825
17859
17834
17826
17855
17840
17828
17827
17840
17827
17823
17839
17823
17876
17841
17826
17817
17852
17854
17817
17855
17831
17816
17853
17835
17830
17826
17841
17841
17826
17858
17842
17827
17817
17855
17852
17818
17865
17834
17818
17857
17839
17829
17819
17845
17836
17823
17836
17823
17847
17842
17821
17839
17847
17813
17848
17835
17819
17849
17830
17815
17845
17839
17823
17845
17831
17826
17853
17837
17834
17818
17849
17844
17818
17849
17845
17814
17851
17823
17869
17835
17822
17834
17823
17842
17834
17827
17833
17820
17820
17823
17835
17851
17850
17817
17852
17847
17927
17820
17851
17846
17824
17823
17842
17845
17823
17831
17837
17841
17885
17818
17838
17873
17817
17851
17845
17820
17823
17841
17855
17816
17842
17857
17823
17828
17840
17853
17824
17833
17842
17822
17826
17841
17868
17821
17838
17836
17820
17815
17847
17845
17820
17854
17830
17824
17863
17831
17835
17818
17863
17836
17837
17814
17901
17843
17836
17810
17851
17836
17820
17895
17841
17829
17820
17836
17834
17819
17859
17832
17825
17851
17826
17807
17844
17838
17810
17833
17815
17849
17842
17816
17835
17824
17831
17834
17816
17831
17839
17820
17836
17835
17837
17815
17825
17836
17809
17812
17823
17844
17860
17809
17836
17831
17852
17815
17823
17831
17866
17813
17828
17831
17858
17811
17814
17840
17836
17886
17812
17847
17840
17805
17815
17823
17833
17815
17814
17823
17847
17819
17832
17822
17807
17849
17826
17822
17805
17847
17827
17827
17805
17812
17841
17828
17812
17861
17838
17825
17953
17853
17852
17815
17876
17852
17850
17815
17871
17870
17831
17976
17869
17880
17837
17900
17871
17887
17849
17910
17881
17858
17846
17892
17864
17849
17894
17863
17846
17847
17876
17857
17847
17843
17863
17859
17841
17873
17858
17847
17840
17852
17847
17844
17834
17861
17855
17832
17873
17848
17857
17830
17867
17850
17841
17834
17845
17845
17831
17843
17839
17839
17828
17855
17840
17831
17825
17852
17847
17818
17844
17841
17822
17848
17832
17828
17842
17835
17829
17829
17838
17831
17823
17843
17834
17822
17818
17847
17834
17821
17821
17852
17831
17817
17871
17828
17835
17823
17836
17829
17821
17818
17831
17825
17827
17815
17868
17836
17841
17811
17812
17845
17825
17825
17812
17837
17824
17819
17818
17828
17831
17820
17831
17822
17813
17841
17826
17808
17852
17825
17819
17812
17835
17822
17813
17813
17831
17829
17814
17829
17822
17815
17834
17825
17817
17814
17844
17821
17815
17810
17842
17825
17812
17849
17826
17818
17849
17826
17816
17814
17825
17810
17828
17822
17812
17837
17826
17823
17807
17833
17821
17807
17849
17828
17826
17810
17849
17828
17822
17815
17827
17822
17812
17833
17829
17805
17810
17820
17833
17805
17820
17828
17849
17810
17830
17832
17812
17823
17827
17831
17815
17821
17814
17815
17822
17807
17841
17816
17807
17839
17824
17812
17883
17828
17818
17812
17829
17829
17815
17827
17825
17810
17825
17818
17809
17805
17821
17822
17807
17827
17834
17803
17836
17825
17815
17823
17818
17817
17823
17815
17835
17822
17804
17830
17815
17805
17847
17819
17809
17808
17823
17825
17805
17835
17824
17810
17827
17819
17813
17829
17815
17807
17828
17818
17805
17852
17821
17807
17803
17837
17823
17814
17802
17830
17817
17807
17835
17820
17824
17809
17804
17822
17817
17809
17803
17838
17822
17809
17895
17820
17799
17845
17821
17803
17822
17807
17822
17823
17833
17811
17805
17813
17830
17799
17804
17812
17829
17838
17874
17797
17816
17810
17826
17831
17837
17858
17804
17802
17811
17819
17827
17800
17804
17813
17831
17879
17799
17812
17818
17825
17839
17798
17801
17826
17827
17831
17806
17804
17820
17815
17821
17833
17799
17797
17798
17810
17811
17820
17841
17799
17796
17808
17829
17817
17829
17833
17800
17803
17812
17815
17825
17836
17798
17796
17803
17826
17814
17831
17791
17796
17827
17811
17820
17826
17830
17837
17799
17801
17812
17822
17854
17799
17804
17807
17819
17837
17913
17790
17818
17815
17831
17791
17792
17805
17805
17817
17828
17860
17796
17794
17804
17819
17807
17826
17796
17793
17817
17812
17816
17831
17838
17786
17794
17821
17808
17824
17793
17797
17812
17818
17796
17798
17815
17808
17827
17886
17790
17797
17802
17814
17871
17795
17813
17788
17804
17815
17815
17809
17789
17793
17817
17806
17796
17791
17824
17812
17815
17789
17835
17812
17823
17786
17791
17823
17807
17806
17790
17793
17814
17807
17799
17789
17818
17802
17804
17785
17847
17812
17795
17783
17818
17816
17786
17789
17821
17804
17794
17831
17800
17798
17850
17804
17790
17794
17785
17839
17801
17785
17782
17820
17810
17787
17806
17797
17785
17810
17811
17786
17812
17799
17797
17784
17802
17785
17787
17808
17788
17893
17809
17791
17828
17799
17778
17814
17802
17815
17786
17803
17804
17829
17788
17796
17805
17783
17790
17806
17780
17809
17821
17785
17799
17794
17780
17824
17799
17785
17814
17802
17791
17786
17805
17805
17781
17812
17797
17777
17844
17802
17792
17775
17820
17808
17778
17822
17803
17804
17783
17809
17803
17797
17785
17792
17807
17798
17799
17777
17881
17807
17809
17776
17826
17805
17807
17779
17814
17794
17788
17781
17778
17800
17794
17790
17780
17818
17801
17804
17780
17773
17815
17795
17780
17775
17809
17805
17776
17813
17798
17780
17831
17795
17802
17779
17801
17805
17776
17825
17803
17806
17773
17879
17815
17796
17787
17774
17826
17802
17801
17785
17783
17825
17799
17803
17783
17841
17802
17793
17776
17820
17801
17800
17775
17813
17799
17791
17777
17806
17799
17793
17786
17809
17796
17787
17783
17815
17797
17787
17780
17818
17796
17775
17819
17798
17781
17820
17796
17777
17810
17799
17785
17807
17807
17781
17804
17798
17781
17805
17778
17819
17798
17775
17813
17799
17782
17799
17796
17780
17802
17797
17785
17804
17786
17775
17812
17790
17775
17807
17807
17772
17822
17793
17786
17775
17801
17791
17778
17775
17804
17791
17780
17781
17796
17796
17775
17807
17790
17780
17771
17798
17798
17771
17815
17788
17774
17815
17793
17785
17774
17796
17789
17779
17791
17791
17772
17809
17789
17771
17810
17794
17783
17772
17796
17778
17769
17828
17774
17786
17797
17772
17782
17788
17815
17784
17799
17765
17780
17809
17766
17786
17801
17767
17777
17784
17813
17768
17798
17791
17823
17775
17783
17791
17769
17771
17785
17813
17765
17780
17799
17764
17793
17789
17813
17766
17780
17780
17802
17765
17782
17790
17815
17770
17768
17798
17805
17764
17788
17760
17818
17798
17767
17814
17809
17766
17810
17780
17896
17812
17780
17891
17813
17793
17862
17814
17791
17849
17828
18030
17838
17845
17802
17846
17846
17804
17849
17845
17805
17844
17836
17805
17833
17818
17807
17841
17822
17813
17797
17828
17819
17799
17830
17813
17796
17831
17811
17800
17796
17812
17810
17798
17806
17805
17799
17797
17804
17807
17794
17818
17802
17789
17815
17798
17790
17840
17797
17789
17823
17799
17794
17798
17791
17794
17796
17791
17785
17799
17788
17782
17799
17785
17847
17791
17782
17806
17794
17784
17781
17790
17787
17787
17785
17786
17799
17783
17789
17780
17779
17794
17783
17845
17788
17776
17831
17791
17777
17797
17786
17776
17782
17778
17788
17777
17782
17782
17781
17770
17791
17772
17804
17787
17771
17795
17780
17772
17785
17769
17791
17784
17775
17787
17777
17776
17787
17802
17772
17783
17788
17834
17774
17782
17805
17767
17782
17796
17769
17789
17783
17796
17773
17778
17777
17783
17770
17774
17778
17787
17831
17764
17791
17790
17815
17765
17771
17774
17788
17794
17764
17772
17772
17781
17773
17768
17779
17783
17787
17765
17774
17794
17829
17765
17790
17789
17764
17778
17783
17796
17762
17766
17775
17779
17768
17774
17783
17770
17785
17773
17765
17798
17777
17766
17798
17785
17764
17799
17778
17766
17796
17780
17774
17792
17778
17773
17769
17768
17785
17773
17767
17841
17783
17772
17763
17794
17781
17765
17788
17773
17767
17791
17780
17779
17769
17782
17775
17764
17790
17772
17775
17759
17797
17775
17761
17805
17776
17773
17767
17792
17775
17767
17764
17778
17775
17769
17781
17775
17766
17788
17777
17772
17759
17799
17777
17783
17774
17773
17772
17781
17772
17763
17786
17775
17775
17764
17781
17777
17761
17789
17784
17762
17775
17757
17801
17773
17757
17789
17771
17761
17776
17764
17797
17772
17764
17785
17773
17763
17791
17771
17763
17756
17779
17790
17759
17794
17774
17759
17781
17787
17756
17783
17762
17790
17775
17763
17762
17778
17773
17756
17790
17770
17756
17791
17787
17754
17783
17758
17797
17767
17756
17789
17773
17759
17783
17767
17757
17786
17772
17750
17780
17781
17748
17797
17775
17754
17862
17779
17769
17752
17779
17777
17755
17784
17770
17754
17780
17767
17751
17768
17753
17780
17751
17793
17784
17751
17767
17748
17778
17770
17750
17777
17765
17809
17767
17756
17773
17774
17748
17776
17774
17751
17768
17772
17748
17791
17767
17750
17749
17768
17761
17752
17776
17775
17754
17782
17766
17758
17750
17787
17765
17754
17746
17777
17765
17750
17824
17770
17778
17747
17751
17775
17767
17768
17751
17769
17764
17751
17750
17757
17744
17784
17769
17770
17742
17791
17765
17756
17743
17780
17758
17744
17778
17759
17759
17753
17772
17761
17748
17741
17771
17775
17743
17790
17759
17753
17738
17781
17761
17750
17831
17767
17754
17747
17764
17758
17746
17777
17756
17754
17743
17769
17756
17847
17763
17743
17802
17767
17748
17797
17757
17746
17761
17760
17749
17741
17761
17743
17786
17759
17742
17753
17775
17737
17757
17771
17738
17748
17765
17793
17739
17764
17760
17743
17751
17761
17766
17761
17739
17740
17758
17785
17738
17758
17783
17738
17756
17735
17758
17765
17743
17741
17759
17798
17739
17754
17765
17740
17744
17751
17766
17779
17733
17746
17751
17771
17804
17735
17746
17761
17737
17737
17753
17766
17742
17749
17752
17774
17740
17759
17813
17734
17768
17766
17739
17737
17751
17774
17733
17762
17763
17734
17748
17756
17791
17740
17757
17738
17764
17735
17732
17767
17762
17735
17783
17761
17764
17735
17778
17757
17763
17741
17774
17751
17751
17739
17756
17745
17739
17782
17756
17741
17844
17751
17736
17830
17750
17737
17735
17765
17751
17738
17742
17754
17751
17738
17733
17764
17750
17766
17730
17778
17755
17759
17734
17774
17752
17755
17734
17772
17756
17751
17745
17733
17764
17751
17754
17734
17765
17754
17759
17735
17818
17757
17749
17733
17773
17751
17733
17769
17749
17736
17774
17752
17742
17740
17759
17749
17733
17763
17764
17734
17778
17755
17734
17781
17755
17766
17738
17786
17753
17747
17737
17764
17758
17741
17734
17751
17742
17730
17764
17758
17732
17765
17762
17733
17774
17752
17748
17733
17758
17744
17734
17760
17754
17749
17732
17764
17753
17759
17728
17832
17762
17743
17738
17730
17767
17754
17750
17732
17758
17744
17735
17776
17743
17737
17791
17743
17727
17764
17744
17728
17753
17749
17726
17725
17771
17764
17762
17745
17733
17761
17741
17734
17756
17747
17726
17742
17735
17724
17749
17728
17765
17748
17743
17758
17728
17724
17726
17726
17728
17761
17740
17730
17753
17748
17728
17748
17741
17725
17749
17727
17760
17734
17727
17750
17741
17727
17748
17734
17762
17736
17723
17748
17732
17726
17781
17736
17729
17721
17756
17735
17719
17778
17743
17735
17883
17744
17719
17775
17754
17725
17777
17751
17732
17743
17769
17751
17732
17801
17764
17781
17731
17852
17791
17781
17748
17750
17793
17799
17760
17822
17785
17765
17828
17792
17795
17767
17812
17788
17779
17762
17810
17780
17771
17758
17798
17768
17758
17808
17770
17773
17758
17770
17766
17763
17754
17760
17762
17748
17774
17762
17750
17748
17773
17773
17744
17774
17759
17749
17746
17756
17754
17751
17758
17753
17746
17748
17753
17755
17743
17767
17755
17759
17734
17771
17756
17758
17741
17739
17756
17741
17739
17740
17745
17743
17748
17732
17756
17747
17743
17730
17761
17750
17755
17733
17708
17751
17745
17735
17734
17743
17741
17735
17745
17739
17743
17730
17749
17743
17730
17757
17748
17730
17738
17727
17745
17736
17746
17775
17726
17735
17745
17729
17734
17736
17738
17726
17733
17748
17722
17735
17743
17734
17726
17775
17743
17739
17722
17744
17735
17738
17727
17744
17736
17741
17725
17741
17735
17725
17716
17748
17733
17720
17721
17742
17730
17724
17749
17733
17733
17724
17745
17738
17729
17727
17719
17735
17732
17721
17716
17748
17731
17711
17748
17738
17723
17737
17723
17760
17720
17729
17733
17756
17725
17728
17733
17725
17732
17735
17747
17710
17733
17744
17715
17725
17741
17716
17736
17744
17718
17734
17737
17721
17732
17733
17722
17722
17731
17735
17765
17747
17735
17751
17736
17718
17757
17729
17719
17742
17737
17722
17732
17727
17722
17734
17727
17758
17734
17732
17716
17733
17723
17716
17740
17731
17720
17745
17733
17723
17717
17732
17721
17724
17734
17732
17718
17743
17736
17736
17713
17751
17730
17733
17714
17747
17734
17713
17720
17735
17725
17718
17733
17719
17729
17732
17722
17720
17733
17716
17732
17740
17711
17739
17708
17752
17727
17712
17759
17741
17727
17725
17718
17736
17727
17717
17735
17740
17717
17745
17734
17745
17713
17747
17727
17714
17815
17738
17726
17714
17710
17741
17728
17719
17716
17737
17735
17718
17746
17725
17704
17746
17738
17711
17734
17715
17753
17734
17748
17741
17715
17737
17717
17751
17723
17710
17735
17716
17746
17741
17708
17742
17732
17707
17738
17738
17703
17740
17738
17709
17734
17720
17777
17724
17712
17731
17719
17784
17728
17708
17750
17719
17700
17761
17727
17706
17702
17733
17738
17711
17791
17730
17729
17711
17734
17724
17714
17706
17732
17716
17710
17698
17753
17737
17725
17701
17701
17732
17719
17710
17725
17723
17710
17739
17728
17726
17702
17734
17721
17704
17779
17703
17735
17700
17756
17728
17712
17703
17732
17732
17705
17730
17714
17702
17732
17720
17703
17727
17719
17700
17729
17723
17701
17729
17705
17780
17722
17702
17736
17731
17701
17727
17721
17701
17727
17710
17703
17701
17723
17707
17698
17699
17730
17715
17699
17732
17734
17700
17748
17713
17697
17726
17705
17702
17722
17716
17711
17729
17700
17700
17712
17730
17692
17703
17713
17765
17695
17715
17738
17697
17713
17711
17719
17701
17722
17713
17698
17770
17713
17712
17692
17767
17719
17703
17692
17809
17725
17709
17692
17734
17706
17693
17722
17711
17700
17694
17710
17716
17692
17723
17719
17689
17690
17735
17726
17721
17689
17757
17713
17709
17691
17719
17709
17696
17696
17711
17706
17688
17722
17700
17687
17727
17702
17681
17729
17722
17689
17712
17703
17766
17714
17710
17689
17709
17696
17694
17708
17704
17688
17713
17719
17684
17730
17703
17687
17799
17712
17714
17692
17714
17703
17693
17717
17706
17695
17714
17702
17692
17723
17703
17685
17733
17708
17689
17687
17719
17713
17695
17710
17694
17773
17708
17702
17695
17714
17706
17693
17717
17708
17689
17766
17717
17703
17690
17687
17735
17714
17719
17693
17730
17711
17709
17694
17706
17696
17681
17715
17706
17694
17775
17720
17706
17694
17692
17720
17712
17689
17712
17706
17687
17718
17717
17691
17716
17703
17692
17720
17706
17690
17686
17713
17701
17681
17705
17687
17777
17705
17701
17687
17707
17694
17687
17707
17690
17730
17702
17694
17710
17692
17720
17695
17682
17708
17695
17707
17739
17679
17715
17711
17679
17684
17700
17707
17684
17691
17697
17731
17687
17701
17693
17677
17724
17696
17679
17735
17696
17679
17738
17696
17679
17714
17706
17683
17707
17693
17684
17702
17694
17679
17707
17702
17673
17713
17702
17679
17705
17702
17678
17712
17697
17677
17707
17700
17681
17695
17679
17719
17692
17671
17732
17689
17672
17715
17692
17669
17716
17671
17682
17697
17756
17676
17690
17702
17677
17679
17689
17700
17765
17668
17686
17711
17728
17699
17685
17675
17733
17704
17708
17676
17741
17715
17697
17694
17739
17734
17694
17753
17762
17701
17728
17763
17703
17735
17751
17937
17708
17737
17773
17715
17749
17760
17716
17743
17736
17777
17718
17726
17754
17709
17726
17735
17703
17721
17739
17700
17721
17706
17711
17719
17705
17720
17719
17702
17709
17706
17719
17707
17703
17700
17717
17704
17694
17727
17709
17689
17723
17708
17697
17714
17701
17696
17708
17705
17697
17702
17699
17714
17700
17694
17690
17716
17711
17683
17712
17698
17686
17744
17703
17698
17685
17697
17696
17687
17698
17690
17687
17697
17689
17682
17701
17695
17677
17711
17699
17681
17731
17692
17677
17704
17698
17679
17695
17687
17684
17690
17681
17694
17688
17676
17699
17685
17676
17695
17674
17702
17697
17677
17687
17700
17677
17684
17690
17691
17677
17681
17680
17704
17678
17691
17734
17677
17685
17703
17670
17680
17683
17699
17671
17698
17690
17668
17674
17684
17692
17676
17677
17681
17691
17671
17678
17686
17708
17670
17671
17685
17687
17751
17673
17691
17717
17668
17684
17691
17668
17684
17684
17670
17670
17677
17685
17698
17744
17666
17667
17690
17686
17702
17665
17682
17679
17687
17669
17674
17676
17679
17691
17701
17668
17687
17686
17729
17665
17679
17679
17702
17664
17687
17686
17646
17668
17685
17678
17693
17666
17676
17678
17664
17670
17679
17690
17663
17673
17687
17663
17672
17683
17665
17682
17692
17665
17671
17676
17683
17670
17675
17679
17663
17678
17684
17706
17665
17682
17688
17681
17736
17674
17660
17670
17732
17679
17714
17664
17677
17670
17666
17674
17671
17663
17678
17664
17679
17685
17669
17659
17687
17678
17660
17700
17670
17668
17660
17684
17670
17663
17684
17679
17672
17654
17691
17673
17661
17741
17681
17706
17660
17675
17685
17707
17655
17678
17682
17667
17676
17683
17662
17681
17687
17657
17655
17698
17677
17685
17660
17697
17673
17663
17658
17690
17680
17657
17704
17675
17663
17688
17658
17687
17670
17663
17697
17678
17684
17652
17703
17682
17664
17753
17675
17654
17700
17672
17657
17693
17671
17666
17659
17678
17674
17654
17724
17685
17679
17651
17697
17671
17650
17714
17675
17660
17651
17688
17668
17658
17660
17683
17672
17654
17682
17665
17651
17716
17665
17696
17671
17656
17652
17682
17688
17653
17679
17665
17714
17668
17659
17690
17668
17663
17653
17678
17683
17650
17679
17677
17646
17690
17666
17652
17731
17668
17653
17685
17670
17652
17654
17648
17669
17660
17653
17675
17669
17646
17669
17647
17686
17681
17645
17679
17652
17694
17674
17647
17667
17651
17668
17659
17679
17663
17646
17669
17646
17686
17668
17646
17672
17650
17713
17662
17641
17687
17658
17647
17682
17662
17651
17674
17655
17646
17669
17668
17645
17738
17642
17644
17651
17665
17727
17640
17663
17698
17639
17667
17660
17684
17647
17655
17671
17643
17668
17662
17688
17638
17660
17664
17689
17637
17644
17657
17660
17674
17638
17659
17660
17701
17644
17655
17664
17642
17644
17650
17673
17640
17651
17664
17689
17637
17665
17666
17653
17642
17679
17652
17639
17674
17657
17647
17663
17644
17665
17670
17640
17667
17652
17636
17674
17671
17697
17642
17642
17660
17673
17646
17647
17668
17661
17670
17647
17660
17661
17663
17676
17644
17640
17676
17667
17689
17639
17644
17658
17671
17694
17641
17670
17661
17674
17645
17668
17660
17645
17647
17654
17677
17636
17658
17685
17643
17657
17677
17742
17638
17641
17656
17665
17679
17641
17653
17665
17642
17643
17658
17660
17710
17637
17653
17678
17637
17667
17671
17634
17665
17663
17641
17649
17656
17681
17641
17658
17662
17636
17652
17655
17676
17634
17639
17645
17666
17686
17633
17653
17677
17637
17660
17670
17643
17652
17671
17638
17639
17639
17663
17647
17629
17666
17661
17632
17653
17632
17663
17647
17637
17665
17644
17632
17645
17662
17636
17647
17649
17662
17631
17641
17658
17629
17630
17645
17663
17681
17628
17635
17645
17658
17636
17636
17654
17653
17636
17634
17646
17661
17632
17643
17650
17689
17629
17625
17665
17639
17625
17676
17646
17628
17663
17638
17629
17655
17639
17626
17648
17652
17628
17655
17656
17624
17681
17645
17618
17708
17653
17648
17628
17664
17647
17765
17663
17638
17637
17660
17684
17640
17639
17664
17700
17650
17668
17681
17712
17653
17692
17721
17663
17660
17703
17701
17718
17799
17671
17694
17697
17709
17671
17669
17683
17702
17663
17694
17692
17732
17678
17676
17660
17685
17673
17659
17676
17669
17662
17670
17664
17657
17671
17672
17652
17652
17652
17652
17687
17675
17663
17653
17653
17669
17665
17660
17657
17654
17666
17657
17655
17648
17668
17657
17666
17644
17660
17639
17687
17654
17636
17671
17649
17637
17661
17650
17652
17647
17651
17642
17646
17654
17636
17643
17649
17659
17633
17641
17651
17666
17634
17638
17649
17650
17661
17637
17638
17643
17644
17635
17636
17642
17654
17629
17654
17648
17671
17630
17647
17647
17663
17630
17633
17647
17649
17654
17634
17643
17644
17633
17637
17642
17644
17631
17630
17646
17644
17663
17625
17652
17657
17631
17651
17648
17626
17636
17642
17630
17632
17630
17628
17660
17640
17625
17650
17642
17626
17647
17622
17660
17637
17631
17653
17641
17632
17628
17640
17638
17627
17647
17637
17628
17648
17637
17626
17655
17636
17623
17655
17649
17626
17644
17635
17669
17640
17628
17639
17636
17627
17638
17636
17628
17645
17647
17622
17641
17634
17618
17647
17652
17621
17656
17646
17631
17641
17634
17627
17635
17630
17642
17635
17625
17649
17638
17623
17658
17636
17621
17645
17627
17656
17650
17621
17640
17625
17644
17635
17628
17639
17632
17626
17648
17631
17617
17652
17631
17625
17683
17643
17618
17650
17635
17623
17652
17635
17626
17623
17635
17623
17641
17631
17620
17640
17629
17618
17633
17619
17649
17645
17610
17639
17619
17656
17634
17625
17618
17637
17634
17660
17628
17623
17639
17623
17647
17668
17612
17614
17642
17635
17641
17660
17615
17619
17630
17648
17618
17643
17640
17622
17622
17624
17629
17644
17685
17615
17642
17640
17656
17612
17617
17645
17641
17618
17623
17638
17649
17620
17639
17639
17649
17616
17634
17641
17652
17613
17618
17631
17647
17710
17613
17644
17616
17618
17652
17637
17655
17631
17647
17638
17620
17630
17614
17646
17620
17614
17638
17616
17654
17636
17613
17651
17636
17612
17645
17643
17615
17643
17630
17615
17642
17626
17614
17644
17628
17612
17647
17615
17659
17626
17606
17634
17610
17670
17635
17610
17611
17638
17631
17628
17639
17611
17627
17640
17612
17615
17632
17697
17610
17626
17637
17711
17607
17640
17633
17655
17610
17631
17632
17662
17613
17637
17625
17648
17611
17619
17644
17613
17606
17621
17646
17607
17622
17630
17645
17607
17639
17630
17637
17610
17629
17623
17605
17636
17637
17604
17629
17618
17608
17625
17607
17636
17606
17662
17624
17606
17624
17613
17639
17623
17608
17604
17625
17607
17639
17633
17698
17625
17605
17622
17604
17642
17620
17606
17642
17623
17606
17613
17626
17631
17606
17613
17615
17631
17638
17604
17599
17631
17629
17714
17602
17631
17617
17651
17601
17615
17632
17605
17608
17623
17660
17607
17620
17684
17605
17612
17627
17604
17603
17618
17636
17598
17604
17620
17620
17638
17601
17606
17617
17631
17607
17606
17619
17629
17594
17610
17623
17642
17596
17612
17622
17658
17598
17620
17623
17681
17608
17617
17629
17606
17618
17626
17607
17621
17627
17599
17614
17631
17601
17606
17624
17647
17603
17611
17626
17607
17608
17620
17631
17607
17617
17617
17632
17690
17602
17634
17626
17721
17602
17622
17631
17637
17604
17628
17630
17604
17636
17621
17606
17626
17626
17603
17622
17610
17641
17634
17608
17622
17626
17646
17602
17603
17618
17627
17637
17605
17610
17615
17629
17605
17625
17625
17604
17605
17620
17636
17597
17611
17623
17649
17594
17628
17623
17601
17599
17613
17637
17602
17626
17614
17625
17599
17618
17614
17628
17695
17590
17617
17611
17639
17595
17614
17616
17636
17599
17603
17621
17619
17599
17601
17610
17621
17593
17599
17606
17627
17589
17601
17616
17643
17599
17613
17662
17594
17616
17603
17607
17610
17617
17599
17599
17607
17627
17591
17606
17608
17629
17657
17592
17602
17612
17637
17596
17609
17663
17603
17611
17643
17599
17607
17626
17592
17610
17610
17631
17586
17613
17615
17636
17586
17588
17603
17625
17588
17623
17608
17628
17591
17607
17609
17650
17593
17617
17621
17591
17625
17624
17591
17607
17622
17666
17601
17639
17637
17687
17607
17629
17667
17607
17652
17651
17695
17614
17640
17676
17617
17639
17657
17743
17622
17673
17685
17628
17651
17658
17743
17638
17662
17656
17684
17628
17653
17645
17663
17620
17629
17638
17658
17618
17623
17628
17645
17676
17618
17639
17637
17634
17607
17619
17620
17630
17620
17627
17643
17610
17617
17623
17638
17607
17631
17631
17637
17606
17607
17617
17623
17640
17613
17622
17623
17636
17606
17615
17623
17602
17624
17623
17600
17601
17608
17628
17597
17605
17610
17616
17625
17602
17605
17608
17609
17608
17637
17597
17617
17617
17637
17591
17621
17617
17589
17610
17615
17618
17649
17595
17597
17605
17602
17609
17615
17595
17591
17593
17610
17608
17620
17589
17589
17612
17604
17618
17590
17589
17612
17604
17614
17592
17589
17606
17601
17606
17591
17586
17600
17604
17621
17580
17591
17599
17605
17627
17584
17602
17603
17615
17585
17596
17600
17613
17588
17597
17599
17611
17586
17604
17599
17611
17579
17582
17607
17582
17608
17607
17577
17588
17597
17606
17584
17601
17601
17604
17582
17605
17606
17576
17596
17614
17575
17603
17602
17625
17577
17606
17604
17582
17585
17594
17628
17588
17593
17604
17579
17588
17613
17583
17594
17633
17581
17603
17578
17587
17598
17580
17599
17582
17622
17590
17585
17601
17594
17580
17606
17592
17579
17604
17604
17574
17607
17591
17582
17579
17599
17579
17642
17590
17579
17599
17598
17575
17593
17581
17601
17591
17632
17583
17581
17590
17609
17573
17585
17594
17607
17574
17594
17596
17604
17575
17586
17589
17598
17579
17578
17570
17577
17596
17590
17612
17568
17574
17588
17597
17615
17573
17581
17591
17592
17600
17573
17580
17588
17594
17607
17575
17583
17598
17660
17569
17594
17598
17677
17568
17590
17581
17569
17570
17611
17594
17585
17594
17574
17575
17611
17602
17597
17593
17591
17569
17609
17585
17570
17568
17601
17584
17648
17591
17574
17602
17583
17578
17623
17584
17590
17567
17606
17562
17593
17590
17570
17574
17583
17600
17566
17575
17591
17570
17577
17593
17573
17579
17580
17596
17600
17569
17590
17594
17665
17562
17570
17598
17589
17610
17564
17567
17575
17583
17585
17572
17572
17583
17597
17572
17578
17589
17564
17576
17583
17616
17560
17586
17585
17601
17564
17568
17590
17589
17589
17599
17565
17569
17577
17586
17597
17564
17569
17581
17607
17564
17565
17588
17580
17591
17613
17559
17582
17588
17635
17564
17572
17575
17579
17598
17564
17567
17574
17580
17593
17617
17559
17560
17578
17577
17587
17604
17562
17566
17579
17580
17588
17564
17568
17579
17564
17590
17605
17573
17588
17559
17588
17578
17607
17555
17575
17588
17636
17557
17573
17588
17567
17572
17575
17589
17562
17566
17569
17582
17604
17551
17569
17578
17604
17555
17568
17575
17585
17557
17578
17581
17559
17572
17587
17556
17571
17585
17556
17593
17549
17588
17583
17553
17576
17583
17621
17556
17578
17579
17594
17559
17568
17575
17592
17578
17580
17604
17554
17567
17573
17583
17604
17554
17570
17575
17587
17647
17562
17581
17575
17615
17566
17571
17580
17559
17569
17573
17537
17557
17565
17589
17550
17568
17580
17616
17555
17575
17597
17559
17574
17604
17562
17574
17602
17563
17576
17579
17558
17562
17577
17593
17551
17588
17594
17561
17567
17580
17567
17568
17581
17594
17562
17580
17586
17622
17562
17572
17586
17599
17564
17583
17583
17603
17559
17582
17585
17562
17587
17593
17567
17575
17589
17573
17559
17583
17574
17560
17645
17589
17571
17556
17679
17590
17590
17554
17597
17567
17575
17589
17558
17567
17574
17595
17559
17572
17595
17557
17568
17585
17553
17562
17574
17646
17551
17572
17591
17554
17561
17570
17585
17559
17558
17566
17580
17558
17551
17573
17566
17581
17549
17553
17567
17582
17549
17548
17581
17575
17553
17554
17566
17580
17553
17568
17571
17548
17555
17566
17580
17548
17575
17578
17544
17579
17586
17548
17566
17625
17567
17575
17549
17572
17569
17552
17585
17567
17559
17547
17577
17564
17572
17547
17596
17574
17564
17545
17578
17570
17547
17582
17565
17548
17572
17557
17599
17566
17548
17631
17567
17548
17610
17565
17578
17542
17572
17573
17542
17569
17566
17545
17569
17569
17549
17552
17575
17546
17581
17576
17608
17543
17554
17569
17594
17551
17564
17583
17617
17552
17600
17593
17619
17567
17567
17588
17613
17748
17574
17596
17627
17799
17578
17611
17619
17672
17581
17604
17613
17630
17584
17585
17607
17606
17626
17582
17601
17604
17574
17575
17586
17601
17574
17577
17590
17614
17606
17583
17574
17598
17582
17575
17573
17584
17581
17568
17585
17574
17574
17557
17581
17567
17591
17581
17561
17562
17573
17593
17558
17564
17573
17573
17576
17563
17565
17570
17574
17558
17559
17569
17579
17555
17579
17580
17636
17551
17572
17570
17581
17555
17555
17568
17579
17557
17566
17570
17553
17559
17567
17576
17546
17552
17562
17575
17547
17549
17566
17570
17588
17545
17560
17564
17568
17549
17562
17557
17588
17548
17558
17573
17544
17555
17573
17633
17543
17566
17559
17573
17543
17550
17564
17569
17550
17550
17556
17563
17548
17559
17564
17543
17548
17554
17569
17599
17543
17559
17576
17540
17548
17556
17569
17545
17554
17557
17564
17550
17558
17547
17571
17555
17543
17543
17571
17553
17542
17560
17543
17598
17559
17542
17559
17558
17559
17551
17550
17556
17561
17586
17541
17553
17562
17551
17554
17567
17572
17597
17538
17543
17562
17561
17570
17545
17559
17557
17548
17550
17555
17567
17541
17543
17556
17575
17540
17567
17560
17579
17540
17557
17569
17542
17559
17546
17559
17559
17551
17557
17567
17540
17560
17559
17595
17538
17554
17573
17538
17547
17553
17575
17540
17543
17552
17559
17571
17545
17558
17556
17575
17543
17540
17560
17558
17571
17535
17564
17559
17586
17538
17550
17564
17574
17541
17545
17555
17557
17543
17546
17551
17564
17541
17554
17583
17535
17535
17567
17559
17574
17539
17539
17562
17557
17574
17543
17551
17561
17543
17543
17553
17553
17608
17538
17550
17572
17535
17543
17551
17566
17539
17543
17550
17566
17585
17541
17554
17556
17543
17542
17556
17568
17540
17555
17553
17577
17530
17537
17550
17564
17644
17534
17568
17560
17538
17538
17569
17542
17543
17553
17562
17537
17540
17542
17556
17573
17529
17550
17556
17579
17535
17551
17570
17535
17561
17561
17538
17560
17557
17537
17542
17553
17607
17537
17551
17572
17535
17548
17575
17534
17542
17554
17579
17534
17567
17562
17540
17546
17548
17555
17534
17535
17553
17549
17562
17533
17537
17551
17568
17531
17535
17550
17572
17531
17539
17548
17559
17564
17535
17555
17550
17565
17535
17540
17549
17570
17529
17546
17557
17530
17533
17546
17564
17527
17546
17553
17574
17537
17549
17556
17536
17537
17545
17612
17537
17558
17648
17535
17555
17595
17575
17553
17559
17535
17531
17526
17552
17542
17537
17575
17548
17526
17556
17555
17526
17532
17541
17567
17527
17531
17543
17557
17524
17527
17542
17546
17590
17530
17538
17551
17529
17535
17543
17570
17524
17540
17561
17521
17543
17548
17524
17527
17540
17556
17533
17530
17540
17543
17551
17527
17539
17542
17554
17527
17525
17556
17541
17559
17585
17522
17525
17553
17542
17548
17561
17529
17533
17543
17546
17557
17525
17528
17543
17559
17520
17530
17550
17546
17567
17519
17539
17550
17519
17521
17543
17552
17526
17541
17543
17550
17527
17535
17556
17520
17545
17547
17518
17539
17548
17634
17524
17546
17524
17532
17544
17524
17540
17545
17524
17543
17547
17521
17534
17564
17519
17543
17553
17518
17525
17543
17569
17521
17546
17544
17573
17530
17535
17543
17567
17526
17537
17552
17516
17539
17540
17573
17523
17545
17521
17544
17551
17557
17524
17545
17549
17543
17538
17540
17531
17523
17555
17543
17551
17520
17567
17532
17522
17541
17519
17557
17540
17578
17540
17525
17563
17539
17524
17553
17535
17520
17546
17547
17524
17548
17538
17511
17562
17532
17521
17558
17543
17523
17553
17535
17519
17554
17535
17523
17543
17543
17583
17531
17516
17552
17532
17519
17564
17547
17514
17544
17529
17561
17547
17583
17521
17533
17538
17557
17518
17539
17532
17540
17511
17519
17530
17543
17511
17527
17532
17554
17510
17531
17532
17552
17513
17538
17536
17518
17525
17530
17543
17513
17535
17551
17527
17511
17557
17532
17517
17510
17534
17509
17550
17527
17513
17543
17526
17521
17531
17519
17511
17534
17512
17570
17521
17509
17537
17504
17544
17523
17572
17540
17511
17524
17511
17540
17524
17510
17535
17530
17508
17530
17509
17550
17517
17500
17543
17524
17500
17548
17548
17509
17569
17533
17512
17575
17556
17513
17556
17519
17580
17542
17516
17589
17556
17534
17665
17568
17560
17537
17586
17568
17548
17579
17552
17681
17586
17581
17554
17574
17548
17602
17567
17548
17542
17574
17557
17538
17581
17550
17541
17541
17573
17550
17542
17552
17545
17538
17551
17543
17539
17550
17545
17532
17555
17541
17529
17563
17542
17530
17551
17541
17532
17546
17532
17527
17540
17535
17532
17540
17531
17525
17537
17521
17558
17536
17519
17546
17535
17564
17534
17522
17516
17536
17533
17525
17535
17532
17526
17521
17530
17530
17537
17513
17542
17529
17527
17512
17546
17527
17516
17565
17528
17519
17514
17525
17523
17517
17524
17512
17531
17524
17515
17542
17524
17508
17546
17521
17509
17558
17530
17535
17509
17528
17526
17516
17525
17523
17512
17529
17513
17515
17543
17527
17524
17507
17540
17519
17510
17543
17520
17504
17535
17520
17510
17526
17514
17519
17524
17519
17513
17519
17503
17530
17528
17506
17539
17532
17507
17543
17520
17506
17539
17518
17509
17525
17517
17544
17518
17543
17526
17542
17518
17529
17503
17502
17519
17548
17500
17525
17529
17540
17506
17526
17526
17509
17509
17517
17521
17509
17509
17517
17517
17534
17508
17520
17502
17519
17578
17518
17542
17504
17532
17525
17519
17507
17520
17514
17510
17521
17515
17508
17552
17518
17511
17503
17524
17511
17500
17525
17503
17529
17527
17503
17512
17504
17523
17511
17507
17513
17519
17505
17520
17503
17527
17527
17551
17498
17526
17519
17551
17502
17525
17517
17549
17508
17516
17517
17519
17506
17505
17521
17509
17521
17540
17498
17500
17522
17524
17537
17494
17516
17518
17527
17504
17504
17510
17511
17519
17503
17513
17519
17530
17497
17508
17513
17519
17535
17498
17494
17522
17528
17528
17517
17519
17507
17540
17511
17502
17526
17511
17498
17532
17509
17497
17537
17515
17500
17493
17523
17499
17593
17512
17511
17495
17512
17503
17531
17509
17501
17534
17513
17494
17532
17509
17490
17519
17505
17549
17509
17495
17530
17510
17500
17497
17516
17507
17495
17525
17508
17500
17583
17515
17525
17492
17550
17517
17517
17489
17529
17515
17495
17583
17509
17500
17497
17525
17507
17498
17500
17519
17509
17499
17490
17527
17506
17491
17534
17511
17492
17604
17517
17495
17549
17512
17500
17498
17519
17506
17494
17492
17516
17507
17500
17487
17534
17535
17533
17537
17509
17500
17492
17551
17515
17507
17496
17495
17518
17506
17495
17559
17514
17520
17486
17548
17510
17509
17487
17533
17509
17492
17489
17540
17508
17504
17492
17514
17507
17493
17523
17505
17495
17523
17511
17514
17487
17529
17506
17486
17527
17500
17489
17525
17512
17489
17518
17506
17503
17494
17543
17510
17483
17517
17504
17485
17487
17523
17501
17483
17523
17511
17484
17520
17498
17488
17520
17504
17503
17485
17518
17501
17492
17485
17521
17496
17483
17518
17518
17482
17520
17513
17487
17514
17500
17485
17500
17486
17505
17488
17515
17482
17486
17501
17514
17482
17493
17502
17526
17483
17510
17510
17585
17485
17497
17511
17481
17488
17502
17510
17482
17505
17508
17478
17508
17511
17479
17480
17515
17476
17509
17511
17484
17488
17501
17536
17484
17503
17484
17487
17497
17524
17487
17499
17534
17479
17504
17504
17525
17474
17495
17500
17519
17484
17481
17498
17500
17509
17483
17485
17498
17505
17516
17479
17495
17493
17511
17479
17475
17494
17501
17517
17583
17485
17511
17507
17515
17487
17491
17497
17505
17542
17484
17493
17510
17478
17484
17501
17529
17479
17510
17503
17527
17479
17510
17508
17482
17484
17502
17501
17511
17480
17502
17503
17526
17479
17495
17519
17479
17511
17478
17526
17507
17494
17481
17503
17506
17482
17468
17500
17503
17478
17538
17498
17477
17578
17498
17490
17474
17514
17488
17473
17517
17495
17480
17476
17494
17500
17478
17502
17486
17476
17512
17492
17476
17538
17500
17497
17476
17502
17492
17472
17492
17486
17473
17492
17498
17475
17493
17487
17477
17493
17472
17521
17488
17470
17508
17490
17511
17487
17465
17504
17481
17495
17473
17471
17484
17491
17499
17471
17483
17493
17471
17497
17492
17466
17487
17487
17509
17465
17493
17497
17520
17470
17479
17500
17475
17485
17522
17475
17488
17465
17480
17465
17503
17485
17487
17467
17551
17498
17484
17466
17458
17497
17485
17477
17463
17501
17486
17484
17464
17465
17509
17488
17500
17462
17467
17512
17488
17468
17559
17498
17468
17543
17505
17489
17639
17522
17516
17487
17551
17517
17502
17740
17539
17545
17499
17564
17537
17512
17505
17546
17522
17506
17586
17532
17534
17509
17530
17515
17501
17519
17519
17501
17522
17521
17495
17496
17522
17507
17501
17494
17519
17509
17493
17511
17508
17504
17500
17503
17497
17501
17492
17527
17510
17493
17485
17501
17510
17500
17480
17514
17496
17490
17486
17497
17493
17487
17493
17495
17483
17486
17484
17515
17494
17480
17477
17495
17484
17524
17489
17476
17530
17491
17477
17479
17489
17483
17478
17491
17482
17472
17487
17487
17474
17474
17493
17479
17469
17517
17487
17484
17471
17495
17484
17479
17476
17481
17479
17472
17485
17485
17473
17498
17479
17469
17499
17481
17468
17523
17487
17475
17470
17492
17490
17468
17487
17487
17470
17494
17481
17483
17470
17489
17477
17473
17468
17500
17484
17495
17462
17492
17486
17465
17489
17478
17471
17471
17481
17477
17470
17468
17479
17486
17464
17541
17488
17495
17464
17521
17486
17484
17470
17468
17469
17486
17476
17477
17467
17481
17480
17468
17490
17478
17473
17462
17482
17478
17499
17461
17476
17495
17465
17484
17484
17463
17474
17481
17471
17477
17490
17465
17478
17466
17461
17485
17480
17463
17493
17478
17460
17498
17472
17462
17482
17470
17471
17479
17469
17490
17477
17474
17465
17486
17478
17460
17496
17479
17471
17460
17490
17476
17465
17500
17475
17465
17479
17476
17464
17479
17474
17464
17478
17472
17460
17478
17463
17460
17484
17479
17466
17488
17479
17460
17476
17466
17477
17474
17461
17471
17460
17479
17468
17458
17482
17484
17456
17496
17471
17460
17494
17475
17461
17489
17472
17461
17480
17470
17463
17479
17466
17479
17494
17455
17468
17475
17492
17453
17460
17473
17495
17456
17463
17472
17479
17456
17455
17479
17477
17439
17463
17474
17484
17538
17452
17465
17471
17476
17488
17496
17454
17455
17479
17472
17481
17516
17457
17476
17473
17484
17457
17459
17466
17483
17453
17455
17473
17493
17453
17454
17485
17480
17532
17451
17478
17478
17492
17459
17463
17479
17450
17480
17480
17448
17452
17471
17489
17450
17460
17471
17496
17452
17473
17476
17490
17453
17467
17471
17481
17463
17478
17474
17493
17446
17465
17491
17448
17463
17469
17489
17454
17445
17477
17477
17493
17449
17462
17475
17451
17455
17466
17480
17453
17479
17472
17479
17445
17461
17486
17447
17470
17469
17530
17451
17463
17479
17448
17475
17473
17450
17458
17466
17482
17444
17474
17481
17444
17467
17471
17494
17444
17457
17470
17472
17500
17447
17463
17475
17450
17468
17466
17478
17448
17476
17473
17551
17447
17456
17483
17438
17471
17468
17484
17444
17451
17460
17470
17489
17446
17468
17463
17478
17443
17449
17461
17510
17439
17460
17470
17507
17444
17460
17468
17481
17445
17471
17469
17449
17453
17457
17500
17449
17466
17440
17445
17468
17441
17444
17446
17444
17468
17455
17485
17460
17444
17461
17447
17463
17447
17468
17445
17473
17451
17477
17500
17441
17439
17455
17455
17460
17472
17482
17533
17440
17445
17445
17450
17463
17455
17454
17463
17477
17440
17439
17454
17453
17463
17474
17483
17438
17440
17445
17444
17462
17469
17455
17460
17460
17469
17476
17507
17441
17435
17436
17438
17444
17467
17469
17449
17451
17452
17453
17470
17475
17441
17439
17452
17463
17452
17465
17441
17436
17455
17454
17463
17479
17431
17431
17437
17439
17468
17460
17504
17438
17447
17447
17454
17458
17469
17471
17439
17440
17442
17445
17452
17462
17475
17506
17438
17433
17442
17462
17455
17466
17476
17436
17443
17458
17453
17463
17473
17437
17439
17454
17450
17458
17473
17483
17439
17438
17442
17450
17449
17453
17468
17452
17461
17466
17488
17443
17436
17444
17446
17461
17476
17441
17436
17461
17453
17472
17418
17436
17451
17450
17462
17493
17439
17450
17463
17434
17439
17455
17464
17482
17431
17463
17461
17483
17434
17446
17448
17451
17464
17481
17436
17437
17444
17446
17450
17455
17449
17434
17441
17445
17453
17473
17492
17425
17430
17435
17447
17469
17431
17446
17451
17468
17434
17445
17452
17429
17433
17448
17452
17470
17425
17432
17447
17429
17428
17446
17464
17426
17441
17460
17429
17438
17446
17431
17431
17447
17472
17426
17453
17459
17423
17421
17437
17448
17530
17423
17442
17443
17454
17426
17448
17429
17441
17455
17434
17436
17439
17463
17422
17443
17466
17422
17438
17461
17422
17432
17445
17465
17429
17438
17454
17428
17433
17445
17473
17431
17448
17447
17472
17420
17445
17457
17488
17425
17468
17481
17431
17466
17477
17440
17442
17471
17507
17445
17484
17491
17457
17462
17486
17527
17459
17503
17518
17462
17492
17499
17517
17466
17471
17478
17500
17468
17472
17478
17491
17455
17483
17470
17484
17455
17448
17527
17452
17455
17472
17468
17477
17448
17450
17462
17462
17467
17467
17455
17457
17459
17460
17487
17444
17448
17459
17460
17479
17445
17443
17449
17455
17454
17459
17465
17446
17444
17445
17450
17451
17441
17441
17447
17459
17497
17437
17460
17461
17438
17447
17454
17454
17437
17445
17452
17431
17444
17445
17450
17438
17441
17453
17430
17432
17438
17451
17512
17428
17446
17447
17468
17431
17446
17453
17431
17446
17447
17431
17439
17439
17427
17439
17445
17428
17426
17503
17446
17449
17423
17442
17429
17425
17446
17446
17429
17445
17438
17425
17439
17433
17449
17439
17427
17453
17437
17421
17455
17436
17423
17425
17455
17434
17428
17420
17445
17439
17428
17442
17437
17423
17440
17433
17481
17437
17425
17419
17442
17429
17418
17447
17447
17420
17439
17441
17425
17445
17439
17416
17435
17436
17397
17437
17434
17419
17449
17436
17421
17516
17441
17431
17421
17442
17442
17429
17427
17422
17421
17429
17445
17442
17438
17431
17426
17415
17450
17448
17415
17451
17446
17417
17437
17420
17457
17435
17420
17442
17438
17426
17437
17425
17442
17432
17420
17441
17428
17472
17433
17420
17448
17426
17454
17434
17421
17419
17429
17429
17437
17423
17431
17439
17421
17430
17436
17466
17414
17425
17443
17414
17415
17426
17445
17497
17423
17434
17445
17421
17423
17429
17434
17423
17420
17429
17440
17412
17415
17429
17447
17415
17421
17433
17449
17414
17441
17443
17416
17436
17442
17419
17431
17436
17417
17417
17431
17447
17412
17433
17511
17431
17441
17414
17428
17441
17411
17430
17439
17415
17423
17436
17455
17422
17434
17413
17426
17438
17413
17442
17452
17412
17431
17471
17415
17429
17414
17479
17434
17415
17444
17432
17412
17436
17421
17399
17429
17409
17466
17430
17425
17407
17442
17442
17406
17445
17428
17410
17442
17431
17415
17441
17427
17414
17435
17430
17412
17431
17417
17409
17432
17421
17408
17443
17442
17406
17446
17430
17461
17427
17415
17431
17428
17438
17406
17415
17431
17498
17406
17439
17431
17451
17409
17420
17427
17449
17412
17443
17444
17432
17425
17413
17471
17432
17429
17411
17492
17438
17438
17404
17516
17429
17415
17407
17434
17413
17405
17437
17421
17409
17435
17420
17410
17471
17433
17415
17405
17403
17435
17436
17399
17458
17427
17415
17407
17433
17422
17404
17439
17423
17418
17411
17435
17415
17407
17468
17430
17429
17402
17439
17415
17402
17456
17419
17407
17404
17429
17415
17404
17426
17422
17407
17432
17415
17404
17434
17422
17409
17401
17436
17430
17398
17444
17418
17403
17496
17427
17417
17404
17401
17423
17420
17415
17424
17423
17397
17425
17426
17399
17460
17428
17415
17412
17437
17396
17405
17421
17438
17401
17413
17423
17450
17405
17415
17434
17401
17418
17419
17436
17396
17431
17433
17399
17410
17417
17440
17393
17423
17426
17401
17414
17417
17461
17405
17420
17434
17397
17406
17410
17426
17448
17396
17412
17413
17436
17397
17425
17436
17399
17423
17425
17399
17423
17433
17402
17417
17427
17399
17405
17418
17444
17396
17412
17438
17436
17414
17398
17443
17415
17399
17425
17409
17399
17425
17420
17398
17418
17392
17447
17423
17410
17392
17430
17404
17500
17423
17402
17438
17408
17401
17421
17412
17431
17423
17401
17418
17403
17481
17415
17402
17450
17409
17399
17445
17421
17411
17399
17436
17413
17399
17424
17427
17401
17404
17424
17428
17394
17398
17415
17434
17482
17402
17429
17432
17447
17401
17421
17421
17445
17402
17411
17415
17430
17406
17400
17409
17412
17428
17396
17399
17429
17426
17442
17395
17394
17418
17423
17464
17399
17409
17412
17429
17403
17399
17408
17414
17447
17391
17424
17423
17471
17395
17415
17413
17427
17461
17396
17413
17412
17422
17440
17399
17409
17414
17418
17391
17391
17420
17411
17423
17387
17401
17415
17455
17390
17419
17417
17435
17390
17407
17407
17415
17397
17395
17403
17412
17434
17385
17396
17405
17431
17385
17407
17410
17432
17394
17404
17411
17435
17390
17403
17417
17389
17401
17424
17396
17405
17424
17384
17422
17412
17439
17387
17405
17429
17381
17412
17416
17456
17391
17403
17419
17391
17401
17419
17387
17406
17407
17431
17383
17404
17412
17383
17390
17407
17422
17388
17414
17410
17388
17389
17404
17400
17410
17452
17380
17400
17410
17423
17384
17382
17417
17415
17433
17389
17393
17415
17446
17396
17439
17448
17400
17438
17442
17407
17427
17446
17411
17452
17465
17413
17445
17452
17545
17423
17452
17508
17430
17447
17469
17430
17459
17456
17428
17453
17453
17425
17439
17436
17425
17436
17456
17418
17431
17445
17420
17444
17426
17440
17426
17425
17430
17415
17415
17412
17413
17431
17426
17439
17447
17407
17431
17426
17452
17408
17422
17434
17408
17420
17422
17405
17414
17415
17428
17406
17414
17429
17398
17415
17437
17403
17425
17426
17395
17426
17412
17415
17414
17432
17403
17412
17409
17425
17402
17406
17415
17396
17413
17415
17391
17394
17410
17424
17394
17394
17404
17414
17446
17394
17402
17414
17393
17397
17404
17415
17388
17402
17404
17425
17385
17401
17422
17388
17408
17418
17391
17404
17405
17389
17398
17402
17410
17404
17393
17389
17408
17407
17381
17405
17389
17382
17407
17389
17432
17398
17386
17405
17388
17397
17399
17408
17367
17391
17407
17400
17415
17385
17394
17401
17415
17472
17383
17404
17404
17426
17387
17403
17404
17411
17390
17388
17393
17422
17404
17406
17394
17410
17382
17409
17412
17388
17380
17397
17414
17380
17385
17396
17397
17407
17387
17396
17399
17398
17425
17385
17388
17397
17399
17413
17376
17388
17399
17414
17382
17388
17391
17405
17421
17383
17386
17396
17403
17391
17389
17397
17429
17382
17407
17400
17473
17380
17397
17415
17382
17398
17401
17414
17381
17398
17398
17422
17386
17391
17411
17383
17389
17409
17377
17407
17399
17426
17380
17389
17406
17455
17381
17390
17407
17381
17390
17391
17397
17383
17388
17399
17382
17377
17391
17406
17378
17378
17391
17409
17380
17383
17399
17449
17382
17390
17400
17380
17383
17391
17399
17380
17388
17390
17409
17372
17373
17407
17396
17408
17426
17374
17383
17389
17400
17424
17374
17386
17390
17396
17429
17380
17391
17404
17375
17405
17397
17423
17375
17383
17391
17403
17423
17374
17404
17393
17404
17379
17392
17397
17377
17380
17389
17406
17375
17370
17386
17408
17451
17372
17382
17399
17399
17427
17374
17395
17391
17404
17433
17381
17381
17391
17388
17415
17375
17381
17392
17415
17375
17407
17399
17448
17374
17389
17409
17379
17395
17404
17392
17378
17409
17391
17373
17412
17405
17375
17403
17379
17379
17405
17396
17374
17402
17389
17374
17411
17391
17380
17404
17385
17373
17404
17400
17372
17405
17401
17375
17397
17402
17375
17396
17375
17410
17390
17375
17398
17390
17378
17394
17393
17379
17430
17402
17401
17374
17413
17384
17371
17422
17393
17377
17457
17405
17405
17376
17405
17398
17375
17399
17396
17376
17401
17383
17414
17402
17373
17399
17377
17374
17404
17399
17471
17393
17381
17380
17399
17399
17378
17380
17388
17404
17375
17399
17406
17367
17391
17395
17421
17371
17380
17406
17374
17394
17393
17406
17374
17391
17395
17399
17377
17391
17391
17420
17367
17387
17423
17378
17378
17475
17399
17405
17372
17409
17389
17377
17410
17389
17375
17401
17383
17375
17405
17394
17391
17373
17409
17386
17380
17371
17415
17391
17380
17389
17391
17380
17418
17390
17375
17416
17388
17383
17372
17393
17378
17370
17397
17399
17369
17412
17389
17369
17440
17396
17390
17378
17403
17388
17390
17377
17393
17385
17378
17373
17407
17385
17372
17490
17395
17375
17367
17381
17374
17399
17398
17374
17399
17386
17371
17400
17380
17375
17399
17384
17371
17438
17389
17381
17368
17407
17387
17369
17420
17391
17376
17431
17388
17385
17375
17380
17404
17394
17390
17380
17371
17389
17381
17365
17396
17397
17369
17401
17385
17455
17391
17379
17411
17391
17379
17423
17384
17377
17370
17391
17369
17445
17392
17381
17460
17389
17370
17408
17385
17397
17395
17444
17376
17387
17401
17380
17380
17385
17400
17372
17389
17398
17375
17394
17412
17372
17392
17462
17390
17403
17377
17391
17396
17379
17383
17392
17401
17377
17389
17407
17370
17404
17407
17373
17415
17396
17377
17375
17394
17377
17415
17388
17375
17402
17383
17381
17377
17373
17393
17388
17367
17404
17394
17375
17408
17386
17369
17414
17397
17377
17388
17374
17399
17394
17397
17374
17388
17388
17398
17447
17370
17393
17391
17415
17369
17399
17397
17400
17401
17369
17397
17394
17372
17393
17382
17375
17387
17381
17364
17391
17393
17362
17399
17398
17366
17398
17386
17365
17405
17379
17367
17399
17387
17373
17391
17378
17369
17386
17366
17400
17379
17361
17392
17389
17362
17389
17371
17363
17383
17372
17389
17385
17367
17399
17377
17369
17388
17377
17362
17398
17375
17356
17393
17382
17471
17380
17361
17397
17376
17359
17397
17374
17362
17379
17366
17367
17379
17359
17383
17361
17397
17376
17354
17401
17373
17355
17407
17373
17359
17423
17385
17367
17455
17389
17367
17422
17410
17368
17405
17378
17441
17428
17370
17377
17423
17428
17490
17378
17410
17444
17388
17439
17447
17402
17430
17452
17401
17477
17428
17402
17459
17422
17397
17434
17412
17487
17415
17391
17429
17421
17396
17407
17397
17408
17399
17407
17404
17393
17410
17400
17389
17413
17399
17388
17406
17383
17415
17406
17384
17402
17389
17398
17391
17389
17392
17389
17394
17396
17382
17399
17388
17376
17398
17384
17392
17394
17377
17404
17385
17382
17421
17391
17391
17381
17390
17389
17377
17388
17386
17369
17393
17381
17370
17366
17390
17381
17371
17385
17380
17367
17386
17383
17374
17382
17381
17378
17384
17371
17383
17385
17419
17373
17380
17388
17361
17376
17382
17391
17365
17374
17378
17385
17371
17379
17381
17367
17372
17380
17384
17367
17380
17381
17361
17382
17387
17445
17360
17373
17386
17411
17364
17383
17378
17390
17369
17367
17375
17377
17384
17362
17358
17382
17379
17389
17436
17354
17375
17383
17360
17364
17375
17375
17396
17367
17375
17376
17366
17364
17374
17383
17357
17364
17375
17389
17357
17365
17375
17414
17358
17371
17382
17363
17364
17371
17385
17364
17372
17375
17357
17364
17373
17378
17357
17357
17375
17385
17356
17382
17374
17361
17366
17372
17380
17365
17372
17360
17375
17361
17380
17381
17353
17375
17388
17355
17384
17389
17356
17364
17374
17383
17354
17367
17373
17359
17374
17377
17361
17370
17375
17390
17370
17390
17358
17372
17354
17358
17380
17382
17404
17360
17370
17379
17360
17364
17373
17377
17367
17373
17359
17363
17368
17377
17394
17354
17369
17386
17352
17383
17381
17358
17365
17372
17359
17378
17368
17365
17359
17378
17376
17359
17380
17380
17352
17388
17377
17353
17378
17364
17431
17375
17361
17351
17372
17359
17381
17370
17356
17386
17373
17358
17389
17385
17357
17380
17388
17357
17353
17382
17376
17390
17445
17359
17372
17378
17402
17361
17375
17408
17359
17370
17388
17348
17375
17373
17382
17397
17351
17382
17380
17430
17352
17365
17372
17388
17362
17351
17378
17372
17389
17352
17354
17382
17370
17382
17394
17351
17352
17380
17379
17395
17356
17374
17372
17383
17392
17354
17358
17368
17375
17385
17407
17348
17350
17373
17365
17383
17457
17351
17367
17370
17391
17351
17365
17372
17382
17354
17361
17372
17382
17351
17353
17384
17370
17390
17415
17349
17348
17366
17368
17389
17352
17378
17377
17354
17362
17372
17395
17353
17365
17381
17349
17350
17383
17371
17394
17350
17357
17365
17378
17356
17357
17366
17383
17354
17357
17366
17380
17354
17348
17367
17382
17353
17381
17435
17367
17381
17349
17350
17397
17370
17356
17431
17370
17354
17373
17356
17408
17373
17369
17351
17390
17362
17349
17351
17360
17361
17379
17385
17349
17353
17375
17367
17380
17418
17355
17359
17372
17422
17348
17380
17379
17404
17348
17366
17391
17348
17356
17364
17380
17349
17353
17374
17370
17378
17351
17354
17368
17361
17378
17344
17347
17370
17366
17382
17401
17344
17344
17364
17367
17372
17410
17349
17349
17366
17370
17381
17349
17348
17364
17360
17383
17343
17343
17364
17366
17381
17348
17349
17359
17371
17343
17350
17359
17372
17353
17350
17362
17385
17346
17354
17381
17367
17370
17342
17367
17342
17394
17364
17349
17373
17371
17344
17372
17371
17351
17385
17359
17351
17341
17379
17366
17339
17380
17372
17343
17389
17361
17354
17341
17362
17358
17348
17363
17359
17349
17361
17347
17375
17357
17344
17378
17356
17349
17340
17372
17375
17341
17374
17378
17343
17369
17374
17344
17355
17371
17346
17367
17373
17341
17351
17361
17434
17340
17359
17379
17341
17350
17358
17378
17340
17359
17359
17373
17347
17358
17365
17343
17344
17356
17372
17341
17338
17355
17378
17343
17344
17355
17371
17438
17348
17353
17369
17343
17348
17364
17369
17399
17348
17357
17359
17373
17343
17339
17359
17371
17382
17340
17347
17359
17373
17345
17349
17359
17373
17347
17356
17361
17375
17338
17361
17366
17402
17343
17375
17370
17383
17343
17346
17371
17370
17423
17350
17356
17367
17348
17348
17367
17365
17346
17352
17362
17381
17340
17359
17378
17342
17348
17366
17340
17349
17362
17398
17348
17355
17370
17341
17346
17350
17367
17435
17343
17357
17385
17339
17359
17365
17385
17341
17349
17359
17372
17343
17349
17363
17361
17367
17341
17350
17364
17412
17341
17367
17371
17439
17337
17353
17374
17334
17355
17364
17417
17343
17351
17357
17398
17342
17356
17367
17344
17338
17350
17372
17332
17340
17353
17367
17398
17338
17350
17364
17413
17343
17358
17359
17366
17404
17342
17348
17355
17374
17327
17343
17358
17371
17341
17342
17353
17366
17399
17339
17359
17358
17397
17337
17341
17346
17358
17350
17368
17335
17335
17347
17372
17332
17350
17362
17421
17335
17353
17381
17339
17352
17361
17390
17338
17374
17380
17341
17344
17380
17382
17341
17348
17372
17411
17343
17381
17393
17453
17361
17391
17430
17370
17396
17407
17471
17380
17400
17431
17374
17385
17397
17431
17375
17385
17396
17417
17368
17382
17391
17409
17371
17389
17381
17404
17374
17380
17388
17364
17375
17383
17399
17365
17379
17383
17399
17359
17365
17372
17375
17382
17367
17372
17371
17375
17370
17374
17356
17360
17365
17380
17399
17354
17355
17382
17372
17375
17397
17357
17366
17365
17372
17360
17361
17359
17364
17365
17385
17349
17362
17365
17375
17397
17348
17374
17366
17383
17348
17361
17367
17374
17358
17364
17355
17365
17349
17349
17362
17365
17405
17341
17356
17362
17377
17346
17351
17359
17377
17347
17356
17360
17315
17346
17351
17359
17348
17358
17341
17367
17350
17340
17367
17356
17415
17358
17340
17371
17363
17340
17356
17349
17343
17352
17345
17363
17351
17359
17355
17340
17361
17344
17378
17353
17342
17361
17343
17418
17355
17346
17381
17350
17343
17357
17354
17346
17354
17348
17339
17357
17344
17415
17352
17342
17364
17352
17372
17333
17352
17354
17361
17380
17346
17351
17358
17341
17346
17359
17395
17339
17361
17354
17367
17333
17342
17359
17368
17358
17341
17348
17351
17356
17361
17340
17343
17353
17353
17360
17337
17352
17352
17372
17340
17339
17361
17357
17367
17406
17337
17364
17350
17364
17343
17342
17347
17349
17351
17358
17367
17335
17360
17364
17373
17335
17343
17355
17349
17356
17367
17373
17342
17341
17344
17351
17353
17354
17341
17342
17350
17353
17364
17336
17334
17344
17348
17353
17367
17335
17336
17350
17355
17361
17345
17346
17348
17350
17377
17335
17340
17346
17366
17332
17349
17332
17363
17373
17349
17357
17387
17335
17354
17357
17380
17343
17353
17343
17337
17359
17357
17423
17330
17347
17349
17367
17451
17334
17353
17353
17366
17376
17335
17343
17350
17361
17335
17343
17349
17361
17330
17346
17348
17367
17332
17330
17352
17358
17409
17330
17364
17356
17337
17354
17357
17333
17354
17358
17335
17330
17344
17359
17330
17364
17365
17327
17338
17349
17332
17348
17357
17335
17337
17349
17367
17333
17334
17347
17359
17329
17338
17344
17363
17380
17322
17332
17360
17348
17357
17377
17327
17336
17348
17357
17336
17346
17345
17359
17330
17339
17346
17396
17326
17348
17343
17361
17324
17322
17336
17344
17353
17397
17325
17350
17346
17364
17330
17350
17348
17325
17331
17342
17352
17324
17326
17337
17357
17446
17322
17351
17343
17362
17327
17344
17346
17364
17326
17340
17342
17354
17337
17348
17365
17322
17348
17361
17325
17335
17359
17322
17322
17350
17344
17375
17321
17342
17339
17349
17326
17323
17337
17341
17380
17321
17354
17348
17367
17319
17338
17353
17322
17324
17339
17374
17324
17338
17346
17320
17330
17339
17319
17331
17342
17319
17322
17343
17366
17318
17330
17359
17319
17326
17341
17340
17354
17323
17331
17332
17340
17357
17318
17329
17329
17349
17357
17317
17318
17337
17357
17317
17350
17342
17321
17330
17338
17352
17318
17339
17345
17319
17318
17327
17353
17314
17351
17341
17383
17316
17341
17343
17398
17318
17340
17337
17356
17319
17330
17340
17317
17324
17331
17335
17356
17308
17318
17327
17352
17314
17325
17343
17314
17324
17327
17347
17323
17335
17333
17357
17311
17321
17328
17343
17396
17312
17340
17343
17404
17311
17327
17347
17313
17317
17334
17327
17343
17316
17316
17326
17333
17350
17311
17311
17330
17407
17311
17341
17338
17390
17312
17329
17348
17316
17332
17326
17337
17356
17319
17326
17340
17316
17320
17332
17351
17313
17323
17332
17353
17303
17316
17324
17334
17367
17312
17319
17324
17335
17315
17314
17322
17334
17351
17308
17316
17325
17341
17425
17307
17324
17341
17327
17308
17340
17335
17375
17314
17325
17332
17337
17313
17316
17319
17333
17350
17304
17313
17319
17340
17354
17305
17317
17325
17340
17307
17314
17331
17331
17292
17308
17329
17326
17342
17305
17317
17323
17346
17307
17319
17333
17352
17308
17330
17336
17356
17311
17332
17329
17339
17311
17326
17332
17335
17350
17306
17309
17324
17329
17337
17395
17304
17316
17324
17330
17338
17368
17314
17329
17323
17339
17354
17308
17303
17316
17334
17330
17365
17302
17334
17327
17338
17399
17312
17328
17310
17307
17311
17325
17319
17334
17303
17304
17313
17324
17337
17305
17301
17324
17319
17332
17350
17301
17306
17322
17322
17323
17332
17309
17307
17314
17317
17327
17367
17295
17314
17316
17338
17412
17297
17332
17327
17343
17301
17319
17316
17331
17303
17304
17314
17329
17298
17298
17303
17306
17324
17347
17293
17299
17328
17317
17346
17297
17298
17307
17322
17316
17318
17326
17359
17303
17301
17298
17321
17318
17327
17346
17292
17298
17317
17314
17327
17292
17296
17316
17315
17327
17299
17301
17313
17315
17295
17319
17304
17288
17322
17306
17294
17316
17285
17334
17319
17294
17338
17328
17297
17349
17317
17301
17356
17320
17301
17360
17332
17304
17376
17339
17328
17310
17380
17343
17333
17326
17373
17365
17331
17395
17354
17333
17374
17348
17341
17359
17329
17377
17364
17329
17359
17340
17345
17362
17325
17331
17351
17346
17359
17324
17331
17335
17340
17324
17324
17338
17339
17347
17321
17312
17329
17327
17334
17347
17321
17325
17327
17338
17317
17322
17323
17326
17314
17319
17322
17329
17341
17314
17307
17303
17315
17317
17326
17345
17304
17318
17325
17332
17313
17313
17312
17319
17317
17321
17349
17302
17303
17321
17322
17339
17298
17311
17321
17338
17301
17303
17314
17311
17314
17320
17319
17303
17307
17306
17309
17313
17314
17328
17359
17297
17290
17300
17315
17316
17326
17294
17301
17308
17317
17301
17300
17307
17305
17311
17316
17348
17294
17311
17310
17327
17294
17294
17315
17308
17317
17367
17294
17314
17310
17301
17294
17307
17306
17311
17299
17292
17292
17294
17316
17311
17324
17382
17295
17291
17298
17311
17306
17309
17309
17318
17293
17295
17296
17300
17310
17320
17293
17292
17310
17305
17316
17325
17332
17290
17291
17296
17315
17310
17322
17292
17296
17300
17299
17309
17312
17354
17292
17289
17304
17302
17319
17325
17292
17293
17301
17318
17288
17294
17306
17300
17308
17292
17298
17300
17305
17317
17291
17287
17303
17327
17286
17300
17309
17324
17286
17295
17306
17311
17327
17295
17303
17303
17316
17290
17303
17304
17317
17283
17287
17303
17316
17354
17287
17296
17297
17312
17292
17294
17303
17304
17293
17295
17303
17308
17286
17307
17308
17377
17292
17309
17326
17285
17299
17329
17287
17313
17308
17317
17290
17310
17303
17313
17287
17288
17295
17311
17324
17284
17282
17297
17309
17321
17287
17296
17300
17312
17285
17285
17291
17303
17300
17307
17306
17309
17309
17318
17290
17286
17288
17288
17316
17301
17308
17316
17323
17335
17285
17286
17290
17288
17288
17288
17287
17287
17287
17287
17282
17285
17285
17285
17289
17294
17304
17295
17307
17309
17314
17316
17320
17318
17291
17287
17303
17305
17311
17319
17282
17282
17292
17303
17308
17326
17282
17284
17295
17298
17306
17316
17322
17341
17287
17283
17289
17305
17298
17303
17314
17322
17383
17281
17284
17307
17305
17326
17319
17285
17286
17311
17301
17309
17341
17287
17284
17306
17291
17301
17308
17314
17312
17318
17329
17378
17277
17279
17279
17291
17299
17306
17297
17299
17306
17308
17323
17282
17282
17284
17304
17303
17311
17327
17281
17284
17299
17311
17277
17289
17300
17335
17286
17295
17318
17283
17301
17308
17278
17295
17304
17276
17286
17299
17279
17282
17306
17278
17286
17300
17372
17284
17290
17316
17287
17292
17311
17279
17303
17291
17318
17277
17287
17317
17276
17307
17303
17381
17276
17292
17304
17276
17277
17292
17303
17277
17289
17296
17276
17278
17287
17316
17270
17302
17306
17273
17285
17289
17279
17301
17296
17273
17292
17276
17300
17290
17327
17289
17274
17302
17278
17327
17289
17270
17313
17305
17271
17291
17275
17311
17289
17274
17302
17295
17279
17295
17279
17303
17297
17295
17303
17327
17270
17292
17290
17296
17313
17268
17277
17301
17295
17306
17273
17275
17292
17289
17298
17273
17276
17284
17296
17318
17270
17284
17292
17298
17310
17268
17286
17287
17306
17274
17295
17295
17275
17276
17287
17311
17272
17294
17295
17318
17268
17268
17285
17302
17265
17295
17293
17304
17268
17289
17292
17332
17277
17283
17292
17299
17269
17292
17298
17270
17295
17300
17271
17268
17286
17299
17268
17291
17286
17302
17271
17279
17288
17299
17273
17290
17288
17268
17271
17281
17293
17356
17266
17287
17284
17300
17356
17271
17295
17287
17295
17270
17275
17276
17284
17297
17269
17260
17296
17291
17316
17264
17291
17288
17299
17366
17266
17272
17286
17289
17299
17273
17274
17284
17284
17289
17303
17345
17267
17269
17300
17292
17305
17266
17266
17289
17287
17303
17269
17278
17286
17300
17273
17281
17287
17301
17270
17286
17301
17271
17276
17285
17308
17268
17291
17303
17271
17294
17295
17269
17285
17288
17296
17268
17286
17287
17302
17269
17272
17284
17295
17383
17263
17281
17294
17323
17260
17289
17286
17300
17269
17266
17287
17287
17316
17282
17293
17265
17267
17286
17301
17262
17287
17285
17318
17262
17294
17292
17264
17264
17276
17297
17262
17267
17278
17281
17300
17261
17273
17274
17289
17337
17259
17266
17276
17289
17264
17258
17279
17285
17263
17268
17278
17290
17261
17266
17279
17300
17260
17279
17279
17295
17350
17257
17279
17292
17260
17271
17277
17288
17260
17266
17273
17284
17261
17265
17270
17295
17253
17286
17287
17302
17255
17271
17277
17287
17256
17255
17279
17282
17308
17260
17269
17282
17324
17257
17266
17274
17284
17295
17316
17249
17250
17276
17270
17284
17298
17250
17275
17273
17296
17259
17272
17286
17322
17252
17282
17279
17252
17310
17293
17260
17307
17276
17444
17290
17264
17325
17302
17437
17306
17284
17323
17318
17350
17286
17318
17313
17341
17292
17287
17318
17313
17330
17367
17288
17326
17329
17293
17292
17306
17317
17287
17302
17306
17289
17284
17310
17301
17312
17280
17284
17287
17295
17302
17309
17281
17281
17291
17294
17284
17283
17289
17287
17287
17290
17274
17275
17289
17292
17298
17286
17273
17296
17285
17326
17281
17269
17280
17275
17279
17273
17273
17265
17277
17264
17263
17277
17276
17284
17297
17313
17261
17262
17290
17280
17290
17261
17273
17278
17288
17265
17277
17269
17277
17260
17260
17271
17290
17256
17255
17264
17286
17273
17284
17300
17269
17259
17279
17269
17260
17287
17274
17263
17273
17260
17253
17278
17261
17311
17269
17255
17327
17273
17253
17284
17281
17309
17262
17254
17268
17259
17271
17267
17255
17266
17258
17285
17288
17249
17275
17266
17290
17252
17255
17269
17267
17276
17298
17255
17265
17262
17268
17260
17257
17262
17270
17287
17246
17253
17263
17276
17285
17249
17249
17257
17276
17264
17275
17274
17253
17260
17263
17268
17270
17251
17260
17265
17284
17248
17265
17279
17290
17246
17255
17262
17266
17277
17292
17254
17252
17262
17261
17263
17272
17292
17249
17250
17268
17270
17287
17250
17254
17265
17286
17255
17263
17265
17275
17253
17263
17262
17266
17254
17257
17260
17276
17248
17259
17263
17284
17247
17250
17263
17281
17247
17270
17276
17250
17262
17261
17264
17253
17261
17264
17277
17249
17261
17262
17281
17248
17259
17283
17247
17273
17275
17249
17266
17252
17260
17266
17251
17263
17265
17249
17254
17262
17302
17252
17269
17244
17246
17258
17276
17243
17271
17271
17252
17258
17261
17252
17266
17267
17247
17259
17276
17244
17265
17268
17246
17253
17263
17285
17247
17260
17277
17248
17254
17260
17276
17249
17248
17259
17259
17267
17287
17244
17240
17271
17268
17305
17241
17262
17291
17246
17260
17263
17301
17247
17268
17271
17294
17251
17264
17276
17243
17254
17260
17284
17245
17263
17263
17279
17338
17245
17277
17274
17246
17250
17259
17276
17248
17252
17258
17275
17239
17246
17261
17281
17238
17250
17260
17278
17240
17244
17258
17270
17239
17248
17258
17271
17246
17260
17262
17293
17240
17259
17268
17242
17247
17266
17301
17237
17271
17271
17245
17250
17257
17278
17244
17251
17260
17268
17294
17244
17263
17262
17279
17242
17236
17269
17261
17273
17283
17242
17241
17247
17262
17260
17258
17253
17263
17260
17271
17238
17242
17246
17258
17261
17282
17237
17263
17262
17277
17316
17238
17243
17244
17268
17261
17271
17242
17246
17263
17261
17276
17236
17264
17268
17307
17232
17269
17268
17346
17239
17255
17255
17281
17242
17265
17261
17271
17240
17243
17254
17265
17302
17235
17255
17263
17239
17237
17265
17268
17316
17231
17247
17253
17258
17271
17238
17247
17251
17257
17282
17236
17264
17262
17324
17231
17257
17261
17287
17236
17249
17252
17263
17318
17236
17256
17257
17266
17236
17238
17252
17259
17269
17298
17228
17246
17254
17267
17284
17230
17235
17252
17258
17272
17230
17247
17247
17263
17235
17241
17245
17263
17228
17229
17258
17257
17351
17230
17253
17249
17255
17267
17260
17236
17241
17258
17249
17261
17239
17236
17261
17253
17299
17231
17242
17260
17223
17238
17253
17284
17229
17253
17271
17228
17247
17262
17235
17248
17254
17234
17237
17248
17268
17227
17257
17257
17227
17233
17253
17326
17276
17244
17231
17269
17246
17236
17269
17246
17235
17282
17254
17235
17277
17245
17226
17275
17220
17263
17253
17285
17224
17252
17256
17231
17239
17256
17236
17245
17247
17263
17228
17227
17263
17243
17222
17271
17245
17225
17269
17259
17228
17265
17242
17231
17260
17252
17236
17253
17250
17231
17237
17247
17275
17228
17258
17261
17279
17226
17236
17255
17247
17253
17266
17284
17234
17231
17250
17252
17250
17262
17317
17229
17235
17248
17272
17231
17229
17247
17251
17272
17229
17232
17240
17253
17263
17232
17239
17247
17253
17260
17231
17231
17242
17255
17287
17225
17228
17243
17247
17259
17287
17231
17244
17249
17259
17288
17233
17233
17250
17251
17256
17297
17229
17242
17251
17260
17297
17229
17248
17253
17271
17230
17254
17254
17294
17233
17242
17249
17231
17228
17244
17263
17227
17239
17246
17268
17220
17233
17242
17247
17260
17271
17225
17227
17230
17245
17246
17257
17229
17233
17239
17253
17225
17231
17241
17256
17220
17237
17238
17257
17224
17227
17243
17242
17254
17230
17227
17235
17251
17223
17231
17235
17258
17221
17230
17237
17251
17274
17219
17231
17242
17255
17223
17227
17249
17241
17247
17227
17227
17246
17248
17279
17220
17222
17251
17243
17263
17215
17231
17239
17273
17219
17239
17254
17218
17252
17252
17220
17226
17241
17274
17220
17241
17273
17412
17218
17266
17255
17285
17231
17243
17261
17292
17465
17239
17271
17274
17296
17482
17250
17255
17294
17288
17306
17457
17256
17292
17286
17305
17260
17267
17279
17288
17348
17258
17261
17281
17279
17281
17255
17255
17276
17253
17271
17247
17269
17294
17257
17276
17245
17262
17253
17258
17248
17250
17254
17255
17248
17250
17250
17255
17271
17242
17259
17263
17239
17238
17254
17254
17267
17237
17238
17248
17252
17251
17244
17241
17247
17245
17253
17228
17239
17243
17255
17264
17230
17244
17246
17259
17233
17254
17253
17257
17229
17234
17244
17241
17247
17227
17240
17237
17252
17222
17239
17247
17261
17225
17249
17247
17226
17229
17243
17255
17230
17231
17241
17229
17230
17242
17240
17261
17222
17233
17242
17269
17221
17244
17247
17256
17221
17222
17245
17240
17250
17229
17233
17236
17251
17225
17228
17232
17246
17220
17228
17232
17249
17218
17223
17237
17247
17256
17221
17238
17233
17238
17223
17231
17237
17234
17222
17242
17236
17288
17216
17234
17244
17310
17221
17230
17243
17219
17221
17244
17234
17236
17223
17223
17233
17230
17236
17215
17223
17235
17261
17219
17238
17237
17252
17217
17222
17241
17236
17267
17224
17236
17231
17254
17220
17229
17237
17219
17222
17234
17242
17255
17219
17231
17245
17299
17220
17228
17239
17215
17232
17232
17217
17230
17227
17219
17219
17230
17283
17219
17230
17259
17212
17231
17252
17217
17230
17253
17223
17237
17217
17226
17228
17239
17219
17227
17237
17212
17228
17245
17239
17234
17226
17229
17223
17212
17245
17226
17217
17253
17228
17215
17237
17223
17218
17233
17215
17222
17231
17245
17211
17220
17223
17235
17242
17211
17214
17236
17228
17231
17254
17215
17223
17230
17230
17212
17224
17226
17253
17210
17215
17226
17241
17208
17219
17226
17291
17215
17221
17242
17213
17217
17221
17238
17214
17231
17232
17211
17206
17223
17236
17268
17206
17243
17233
17276
17212
17225
17242
17210
17213
17226
17239
17212
17231
17234
17209
17209
17236
17229
17249
17204
17211
17225
17254
17207
17221
17224
17241
17209
17219
17224
17240
17212
17221
17221
17232
17210
17206
17228
17316
17208
17220
17239
17206
17222
17249
17207
17213
17227
17243
17209
17224
17229
17234
17210
17209
17231
17223
17239
17204
17207
17226
17255
17204
17239
17243
17204
17218
17227
17247
17208
17218
17223
17233
17207
17225
17229
17200
17208
17223
17246
17201
17230
17230
17247
17202
17213
17221
17228
17206
17210
17215
17233
17205
17216
17221
17259
17196
17230
17225
17251
17199
17204
17213
17227
17201
17200
17224
17222
17265
17203
17222
17225
17207
17221
17212
17194
17230
17227
17197
17242
17210
17197
17230
17215
17243
17227
17248
17202
17208
17212
17221
17255
17202
17222
17219
17232
17197
17201
17214
17231
17195
17199
17211
17229
17296
17198
17215
17230
17196
17212
17228
17199
17196
17224
17213
17228
17199
17191
17226
17218
17242
17191
17203
17208
17228
17194
17198
17210
17223
17192
17199
17215
17215
17231
17193
17193
17208
17212
17238
17189
17207
17210
17231
17240
17197
17194
17217
17207
17216
17223
17190
17192
17194
17204
17207
17214
17223
17193
17190
17220
17214
17313
17189
17211
17231
17190
17217
17212
17245
17197
17203
17217
17191
17201
17208
17236
17183
17215
17214
17239
17190
17209
17225
17191
17212
17215
17268
17191
17215
17215
17247
17191
17203
17212
17188
17184
17205
17223
17186
17191
17196
17242
17202
17229
17191
17198
17219
17191
17195
17206
17190
17190
17204
17221
17191
17192
17221
17180
17189
17201
17228
17188
17195
17207
17227
17183
17205
17211
17219
17199
17190
17207
17208
17222
17188
17204
17204
17220
17186
17190
17207
17285
17181
17203
17217
17188
17189
17205
17207
17221
17191
17197
17203
17218
17188
17189
17201
17220
17183
17205
17214
17187
17189
17200
17213
17222
17188
17194
17200
17212
17217
17193
17190
17196
17213
17201
17221
17182
17205
17210
17185
17202
17208
17166
17188
17199
17216
17188
17191
17206
17212
17185
17191
17199
17218
17178
17191
17221
17180
17202
17250
17181
17190
17217
17179
17207
17205
17180
17184
17196
17207
17179
17201
17204
17180
17198
17205
17174
17193
17198
17192
17223
17175
17196
17222
17176
17205
17198
17233
17181
17189
17182
17181
17197
17181
17181
17188
17218
17175
17207
17199
17222
17173
17192
17198
17173
17183
17197
17205
17180
17200
17176
17215
17190
17173
17208
17182
17171
17215
17191
17179
17227
17192
17188
17172
17200
17187
17172
17201
17189
17175
17202
17185
17174
17172
17187
17173
17240
17191
17178
17258
17189
17172
17227
17190
17180
17167
17191
17183
17174
17197
17194
17169
17212
17189
17175
17271
17207
17198
17176
17222
17222
17178
17226
17214
17182
17221
17204
17265
17219
17197
17247
17230
17216
17223
17250
17321
17204
17217
17233
17252
17211
17207
17239
17236
17205
17226
17206
17225
17206
17229
17210
17239
17223
17220
17197
17234
17210
17197
17212
17192
17218
17191
17225
17210
17219
17193
17210
17205
17221
17200
17203
17206
17191
17202
17201
17216
17189
17209
17213
17196
17205
17224
17183
17204
17206
17183
17189
17195
17196
17188
17193
17185
17188
17200
17180
17206
17188
17173
17215
17193
17186
17176
17204
17200
17177
17195
17184
17177
17190
17188
17207
17184
17181
17191
17175
17206
17191
17174
17205
17187
17167
17202
17183
17174
17190
17179
17193
17186
17174
17191
17183
17178
17193
17180
17169
17189
17175
17169
17197
17183
17167
17187
17175
17170
17195
17185
17171
17170
17188
17181
17172
17188
17178
17170
17200
17192
17248
17205
17165
17166
17192
17190
17202
17169
17167
17171
17179
17188
17174
17182
17183
17192
17164
17176
17178
17196
17242
17161
17190
17185
17201
17162
17175
17183
17206
17167
17179
17182
17178
17169
17180
17182
17167
17166
17187
17189
17206
17167
17166
17182
17190
17201
17172
17172
17175
17186
17213
17169
17179
17188
17171
17174
17182
17180
17210
17164
17181
17217
17159
17189
17163
17190
17175
17161
17182
17169
17188
17176
17168
17183
17175
17167
17189
17175
17161
17223
17181
17182
17159
17188
17183
17163
17185
17187
17164
17189
17183
17166
17186
17183
17165
17183
17185
17160
17186
17181
17161
17189
17188
17162
17183
17162
17193
17179
17194
17178
17164
17177
17184
17163
17175
17176
17191
17163
17166
17173
17195
17159
17154
17166
17172
17185
17199
17158
17158
17184
17178
17186
17166
17164
17175
17174
17189
17157
17164
17172
17188
17230
17157
17165
17175
17182
17194
17201
17165
17162
17166
17180
17174
17179
17184
17188
17158
17159
17161
17172
17190
17260
17158
17174
17179
17196
17161
17165
17176
17192
17159
17165
17178
17180
17185
17160
17165
17175
17190
17159
17152
17171
17188
17156
17159
17188
17198
17159
17177
17176
17184
17156
17170
17175
17183
17162
17155
17180
17180
17230
17156
17170
17201
17151
17161
17172
17180
17192
17159
17156
17182
17175
17190
17157
17179
17173
17191
17149
17157
17166
17196
17151
17178
17185
17197
17150
17185
17185
17151
17182
17175
17155
17160
17166
17174
17153
17151
17177
17182
17254
17148
17172
17179
17196
17149
17158
17166
17185
17205
17153
17158
17174
17177
17186
17150
17155
17167
17165
17174
17189
17148
17145
17165
17162
17172
17191
17153
17154
17158
17172
17181
17153
17158
17167
17173
17153
17159
17166
17181
17145
17148
17180
17173
17191
17148
17145
17182
17168
17188
17150
17168
17168
17180
17149
17163
17175
17147
17151
17167
17181
17143
17153
17169
17230
17147
17158
17183
17147
17160
17178
17143
17169
17168
17150
17165
17171
17142
17154
17166
17199
17140
17160
17177
17143
17142
17172
17170
17183
17143
17151
17191
17167
17155
17178
17156
17145
17164
17142
17169
17147
17189
17156
17141
17180
17157
17162
17164
17175
17194
17141
17162
17161
17175
17145
17150
17158
17177
17139
17140
17151
17171
17186
17140
17141
17169
17162
17164
17184
17134
17145
17145
17161
17164
17175
17145
17146
17163
17164
17196
17142
17156
17160
17180
17193
17141
17149
17175
17165
17181
17144
17143
17169
17164
17174
17148
17152
17159
17170
17142
17140
17156
17174
17185
17145
17144
17157
17166
17186
17148
17144
17168
17165
17165
17172
17175
17222
17143
17143
17147
17178
17162
17167
17180
17214
17143
17153
17162
17169
17177
17145
17144
17163
17167
17167
17181
17140
17148
17158
17161
17181
17140
17136
17167
17167
17180
17137
17153
17158
17171
17144
17149
17162
17161
17172
17137
17142
17153
17154
17167
17249
17134
17152
17170
17141
17135
17167
17158
17168
17138
17145
17149
17162
17141
17143
17154
17162
17136
17148
17161
17186
17131
17157
17156
17179
17129
17137
17152
17174
17137
17150
17160
17167
17140
17141
17151
17169
17130
17154
17158
17131
17128
17153
17159
17191
17132
17157
17150
17165
17128
17133
17146
17149
17158
17191
17137
17151
17166
17131
17135
17141
17159
17119
17129
17159
17143
17159
17178
17126
17131
17148
17155
17131
17131
17140
17156
17221
17129
17162
17159
17190
17124
17169
17155
17172
17208
17134
17146
17162
17172
17197
17144
17143
17174
17180
17210
17149
17160
17174
17206
17152
17175
17180
17199
17227
17159
17162
17200
17201
17175
17197
17212
17175
17188
17255
17175
17183
17193
17222
17159
17187
17182
17201
17157
17161
17172
17187
17158
17158
17181
17175
17157
17166
17172
17166
17177
17153
17173
17176
17149
17156
17173
17191
17145
17161
17175
17224
17145
17149
17167
17161
17160
17164
17147
17150
17162
17158
17162
17169
17140
17143
17171
17141
17159
17140
17165
17175
17167
17164
17145
17158
17145
17179
17150
17143
17156
17150
17140
17191
17154
17146
17129
17158
17149
17136
17160
17154
17137
17162
17156
17140
17146
17143
17151
17145
17137
17173
17148
17138
17133
17151
17143
17130
17164
17143
17133
17162
17158
17132
17196
17145
17135
17151
17144
17135
17148
17149
17134
17160
17146
17127
17167
17143
17131
17174
17149
17134
17167
17141
17149
17151
17132
17143
17149
17146
17159
17128
17135
17147
17151
17167
17127
17158
17155
17175
17126
17157
17158
17132
17132
17148
17154
17132
17145
17148
17156
17129
17142
17142
17155
17203
17125
17126
17148
17140
17146
17160
17129
17133
17151
17147
17148
17134
17135
17146
17146
17151
17127
17129
17132
17141
17148
17167
17130
17127
17132
17140
17150
17157
17129
17135
17140
17148
17133
17130
17141
17142
17150
17160
17125
17137
17145
17164
17126
17132
17140
17153
17127
17133
17151
17143
17152
17150
17129
17132
17145
17143
17156
17126
17125
17154
17141
17165
17123
17152
17152
17190
17127
17140
17143
17149
17165
17131
17131
17142
17128
17148
17144
17156
17124
17126
17133
17137
17155
17179
17123
17135
17141
17199
17138
17151
17127
17145
17126
17129
17129
17137
17139
17160
17119
17144
17143
17169
17118
17140
17143
17157
17213
17126
17129
17141
17145
17183
17124
17134
17133
17146
17166
17120
17128
17137
17147
17186
17124
17148
17146
17122
17127
17137
17155
17126
17141
17145
17141
17129
17141
17175
17124
17135
17158
17121
17134
17140
17164
17123
17127
17141
17124
17132
17143
17153
17129
17136
17143
17151
17126
17132
17155
17118
17135
17172
17126
17138
17246
17124
17141
17184
17128
17146
17124
17138
17158
17125
17134
17138
17161
17121
17135
17159
17121
17134
17158
17117
17126
17137
17158
17120
17125
17141
17121
17127
17142
17155
17127
17131
17156
17126
17131
17159
17118
17115
17152
17140
17149
17208
17131
17150
17120
17130
17203
17141
17146
17122
17127
17130
17149
17117
17122
17141
17166
17114
17118
17114
17143
17134
17144
17220
17115
17134
17135
17145
17119
17128
17128
17135
17148
17201
17113
17114
17147
17135
17154
17159
17184
17117
17117
17126
17145
17133
17150
17120
17126
17135
17151
17119
17133
17129
17151
17113
17141
17139
17165
17111
17122
17127
17137
17162
17115
17128
17130
17142
17119
17122
17124
17138
17180
17109
17136
17146
17165
17114
17108
17134
17127
17142
17159
17114
17119
17127
17142
17149
17117
17126
17126
17138
17185
17110
17131
17132
17158
17108
17144
17156
17131
17151
17112
17140
17113
17118
17127
17137
17114
17115
17127
17126
17146
17111
17127
17127
17146
17108
17110
17137
17129
17158
17107
17137
17139
17149
17112
17127
17132
17143
17116
17133
17134
17129
17124
17135
17165
17110
17126
17133
17152
17107
17134
17133
17164
17112
17123
17131
17139
17116
17123
17127
17151
17110
17125
17137
17181
17105
17129
17158
17116
17130
17157
17116
17117
17127
17139
17116
17130
17142
17119
17128
17134
17130
17110
17112
17178
17145
17132
17111
17140
17126
17109
17140
17128
17193
17132
17120
17122
17127
17134
17144
17113
17119
17124
17136
17164
17111
17108
17122
17132
17129
17138
17148
17119
17117
17127
17138
17143
17169
17120
17117
17130
17129
17130
17153
17132
17133
17150
17109
17112
17137
17126
17140
17135
17110
17124
17131
17133
17112
17112
17124
17130
17146
17109
17123
17129
17146
17105
17119
17181
17116
17124
17150
17104
17126
17123
17144
17114
17132
17125
17141
17105
17114
17110
17138
17103
17103
17125
17138
17108
17120
17123
17189
17104
17122
17131
17111
17115
17123
17131
17104
17107
17120
17131
17101
17101
17115
17155
17129
17151
17105
17100
17101
17100
17174
17132
17119
17109
17130
17117
17105
17133
17114
17097
17125
17133
17121
17132
17156
17096
17133
17126
17141
17100
17107
17111
17117
17119
17129
17098
17100
17125
17114
17135
17101
17100
17124
17123
17140
17093
17094
17108
17140
17094
17109
17120
17135
17102
17127
17118
17142
17096
17116
17124
17157
17094
17095
17140
17124
17149
17228
17100
17130
17165
17110
17149
17146
17175
17121
17138
17149
17168
17234
17129
17129
17174
17169
17201
17132
17158
17154
17164
17185
17134
17139
17150
17156
17173
17132
17143
17141
17154
17130
17130
17136
17151
17127
17129
17135
17150
17120
17125
17135
17123
17122
17128
17131
17121
17124
17129
17135
17117
17119
17125
17138
17111
17130
17135
17152
17108
17116
17125
17129
17109
17119
17116
17126
17118
17116
17121
17111
17111
17119
17128
17106
17106
17119
17143
17104
17123
17134
17105
17111
17116
17125
17105
17108
17112
17118
