EDA
15596
15591
15588
15593
15591
15596
15591
15588
15587
15589
15589
15623
15624
15612
15605
15601
15605
15604
15600
15622
15606
15605
15598
15589
15595
15601
15688
15645
15650
15650
15644
15638
15639
15639
15639
15639
15637
15636
15636
15627
15641
15636
15640
15634
15636
15636
15639
15647
15649
15636
15644
15640
15641
15641
15641
15641
15643
15646
15636
15639
15639
15655
15663
15663
15655
15659
15668
15670
15646
15649
15644
15642
15644
15647
15649
15655
15655
15656
15657
15653
15655
15645
15646
15648
15650
15654
15655
15719
15692
15678
15670
15675
15674
15665
15679
15667
15666
15663
15655
15653
15655
15665
15709
15705
15701
15696
15691
15692
15684
15704
15697
15693
15708
15701
15683
15676
15666
15671
15771
15714
15707
15703
15688
15708
15695
15684
15686
15690
15689
15720
15718
15716
15717
15707
15704
15713
15719
15724
15721
15697
15698
15692
15703
15701
15698
15700
15831
15763
15748
15740
15734
15729
15732
15727
15730
15708
15708
15805
15775
15767
15754
15751
15751
15761
15737
15726
15732
15794
15768
15753
15759
15739
15736
15737
15773
15768
15753
15750
15752
15735
15734
15737
15735
15738
15773
15764
15771
15762
15765
15766
15764
15772
15762
15769
15758
15759
15758
15755
15755
15756
15759
15762
15759
15759
15759
15758
15777
15778
15771
15769
15774
15767
15772
15756
15755
15748
15757
15772
15772
15763
15756
15748
15750
15749
15758
15752
15753
15840
15825
15751
15753
15817
15788
15788
15786
15828
15804
15795
15782
15778
15773
15771
15763
15767
15757
15770
15760
15755
15753
15758
15751
15754
15753
15769
15794
15741
15751
15785
15775
15776
15769
15766
15762
15754
15756
15754
15751
15749
15745
15801
15783
15775
15772
15773
15774
15767
15773
15773
15775
15782
15823
15819
15783
15743
15749
15771
15767
15756
15747
15752
15758
15750
15800
15786
15795
15802
15783
15789
15771
15764
15766
15762
15764
15761
15750
15753
15788
15775
15774
15766
15778
15780
15764
15758
15749
15794
15774
15765
15760
15749
15814
15779
15764
15782
15764
15786
15777
15785
15786
15795
15789
15786
15773
15769
15781
15750
15755
15753
15748
15794
15783
15783
15769
15774
15769
15757
15759
15760
15760
15763
15759
15802
15787
15780
15775
15772
15762
15751
15751
15754
15822
15791
15778
15772
15783
15780
15762
15767
15759
15760
15764
15798
15786
15786
15776
15774
15782
15761
15755
15749
15753
15803
15793
15783
15775
15783
15762
15764
15759
15761
15755
15838
15813
15800
15789
15791
15791
15783
15773
15764
15776
15769
15758
15757
15751
15751
15754
15750
15750
15751
15755
15788
15778
15768
15756
15749
15738
15735
15737
15844
15775
15764
15755
15770
15753
15746
15756
15750
15750
15751
15741
15741
15741
15742
15810
15771
15772
15765
15772
15759
15763
15755
15750
15763
15748
15737
15733
15743
15738
15740
15745
15740
15793
15774
15754
15746
15745
15753
15732
15727
15724
15729
15725
15727
15734
15733
15744
15750
15759
15751
15745
15730
15728
15726
15728
15745
15739
15762
15718
15717
15718
15719
15801
15759
15745
15739
15747
15743
15724
15719
15719
15714
15749
15740
15729
15731
15735
15719
15705
15701
15829
15741
15730
15726
15728
15716
15719
15704
15706
15708
15702
15702
15742
15733
15729
15706
15727
15700
15691
15694
15725
15716
15721
15692
15692
15731
15725
15711
15717
15694
15695
15765
15727
15718
15710
15699
15699
15721
15690
15690
15685
15683
15683
15685
15773
15729
15727
15719
15708
15702
15706
15719
15712
15710
15701
15694
15685
15693
15685
15687
15682
15682
15678
15762
15730
15718
15714
15709
15695
15718
15690
15684
15687
15681
15674
15677
15682
15677
15725
15718
15699
15695
15695
15688
15704
15690
15679
15678
15673
15718
15700
15691
15694
15672
15665
15662
15661
15658
15715
15703
15685
15679
15680
15687
15666
15659
15660
15711
15694
15683
15675
15689
15663
15654
15654
15651
15772
15696
15686
15678
15668
15681
15669
15684
15669
15681
15686
15701
15721
15651
15651
15716
15684
15670
15661
15658
15676
15668
15648
15638
15639
15766
15686
15673
15663
15662
15674
15654
15652
15647
15644
15690
15676
15665
15661
15660
15662
15649
15641
15669
15662
15663
15657
15638
15637
15637
15639
15682
15676
15668
15653
15653
15663
15657
15647
15637
15630
15628
15629
15673
15668
15662
15654
15653
15644
15646
15666
15655
15645
15645
15641
15636
15641
15626
15626
15629
15628
15631
15623
15626
15622
15694
15659
15651
15641
15633
15631
15628
15634
15738
15679
15672
15669
15654
15651
15643
15640
15653
15651
15627
15621
15623
15627
15631
15708
15675
15658
15652
15663
15633
15630
15636
15687
15667
15651
15638
15647
15627
15740
15671
15655
15648
15645
15642
15629
15630
15711
15671
15667
15652
15663
15639
15630
15631
15683
15662
15649
15642
15655
15639
15634
15623
15628
15626
15628
15671
15666
15653
15652
15644
15662
15634
15620
15623
15683
15660
15645
15644
15652
15635
15622
15616
15683
15647
15647
15636
15641
15628
15620
15670
15649
15635
15645
15631
15615
15613
15668
15651
15642
15637
15629
15627
15623
15615
15703
15655
15651
15642
15631
15645
15622
15617
15621
15615
15612
15654
15647
15638
15632
15626
15622
15632
15621
15613
15606
15611
15608
15610
15620
15692
15652
15638
15628
15626
15620
15611
15620
15603
15598
15599
15698
15649
15639
15627
15629
15653
15610
15642
15634
15623
15612
15611
15604
15598
15650
15630
15614
15608
15605
15605
15596
15589
15593
15594
15596
15599
15647
15632
15632
15633
15619
15611
15610
15619
15589
15581
15669
15619
15601
15604
15593
15586
15586
15693
15627
15618
15616
15607
15602
15598
15604
15607
15587
15587
15581
15577
15582
15674
15611
15600
15590
15609
15581
15574
15635
15602
15591
15590
15590
15573
15571
15568
15599
15593
15576
15571
15578
15561
15558
15557
15555
15553
15554
15562
15559
15556
15553
15569
15553
15559
15555
15595
15583
15582
15583
15576
15565
15567
15562
15559
15561
15554
15571
15559
15538
15539
15545
15540
15545
15545
15603
15573
15569
15573
15567
15559
15551
15544
15558
15551
15534
15531
15528
15531
15525
15532
15534
15539
15572
15558
15560
15556
15550
15547
15538
15536
15541
15539
15545
15536
15540
15553
15546
15544
15528
15527
15535
15535
15527
15563
15554
15547
15550
15524
15524
15519
15582
15562
15551
15543
15551
15524
15524
15525
15592
15564
15546
15561
15534
15524
15522
15597
15573
15570
15555
15551
15552
15549
15549
15551
15556
15560
15557
15557
15557
15559
15557
15557
15555
15553
15556
15548
15557
15537
15532
15529
15526
15521
15526
15599
15558
15554
15556
15552
15552
15544
15539
15553
15528
15527
15578
15545
15545
15548
15530
15525
15520
15519
15524
15561
15573
15560
15533
15547
15526
15527
15607
15560
15559
15554
15549
15542
15540
15530
15521
15520
15596
15568
15559
15559
15545
15542
15554
15522
15525
15531
15564
15557
15553
15548
15551
15533
15530
15574
15564
15552
15544
15542
15535
15541
15532
15523
15533
15527
15568
15558
15550
15543
15551
15533
15525
15527
15525
15559
15556
15552
15544
15556
15528
15514
15521
15519
15594
15567
15558
15551
15535
15549
15532
15530
15528
15528
15584
15556
15540
15532
15541
15522
15524
15519
15517
15602
15557
15554
15541
15537
15536
15535
15536
15530
15521
15524
15583
15554
15547
15540
15536
15525
15527
15535
15538
15540
15538
15519
15516
15511
15516
15519
15578
15549
15542
15528
15536
15525
15524
15543
15515
15504
15505
15554
15530
15520
15521
15505
15510
15543
15543
15535
15527
15529
15526
15524
15529
15514
15506
15569
15543
15541
15533
15530
15532
15530
15528
15527
15524
15534
15524
15517
15523
15509
15602
15554
15542
15539
15535
15529
15527
15519
15517
15509
15517
15557
15546
15533
15531
15521
15519
15523
15526
15606
15563
15553
15542
15535
15533
15519
15513
15605
15562
15545
15537
15529
15552
15525
15527
15526
15524
15522
15570
15559
15550
15547
15548
15534
15524
15515
15567
15548
15533
15532
15538
15532
15542
15532
15535
15555
15542
15535
15530
15518
15518
15579
15565
15557
15559
15556
15545
15535
15530
15524
15529
15537
15527
15516
15516
15523
15517
15518
15517
15513
15522
15528
15545
15520
15535
15540
15530
15531
15543
15550
15540
15543
15553
15556
15558
15558
15569
15583
15579
15563
15557
15558
15550
15549
15546
15540
15536
15540
15541
15542
15548
15549
15553
15559
15576
15524
15530
15526
15531
15526
15531
15528
15526
15530
15526
15526
15527
15527
15527
15527
15527
15595
15567
15555
15551
15552
15551
15551
15552
15542
15533
15527
15530
15530
15527
15620
15572
15564
15556
15540
15543
15558
15536
15530
15530
15530
15535
15535
15581
15567
15559
15551
15548
15536
15540
15539
15561
15541
15527
15529
15533
15525
15525
15528
15609
15594
15580
15566
15566
15573
15559
15552
15552
15546
15543
15541
15541
15540
15537
15529
15534
15529
15530
15575
15563
15559
15559
15557
15558
15558
15557
15554
15565
15559
15559
15556
15557
15559
15557
15553
15575
15567
15561
15556
15554
15553
15551
15552
15547
15553
15559
15553
15551
15554
15551
15551
15553
15551
15550
15598
15589
15578
15570
15587
15567
15563
15564
15565
15560
15653
15606
15620
15605
15603
15590
15594
15591
15587
15587
15575
15589
15571
15563
15563
15671
15670
15606
15604
15595
15588
15589
15580
15572
15569
15567
15604
15603
15593
15589
15596
15582
15567
15575
15644
15615
15595
15589
15579
15575
15609
15599
15590
15590
15574
15572
15567
15572
15654
15618
15667
15619
15611
15614
15609
15592
15594
15593
15589
15593
15585
15637
15616
15603
15610
15594
15611
15604
15588
15577
15578
15640
15630
15620
15609
15598
15597
15607
15621
15599
15611
15617
15599
15602
15594
15586
15588
15588
15668
15629
15614
15607
15613
15594
15590
15586
15597
15654
15634
15627
15621
15613
15623
15604
15601
15599
15646
15629
15620
15609
15631
15604
15599
15693
15649
15643
15643
15631
15626
15629
15623
15617
15635
15618
15607
15612
15608
15606
15611
15614
15610
15622
15637
15635
15641
15639
15631
15636
15636
15647
15634
15633
15638
15636
15637
15638
15641
15641
15636
15650
15644
15643
15654
15663
15712
15683
15658
15662
15670
15670
15663
15659
15663
15652
15655
15655
15656
15650
15651
15654
15654
15651
15654
15648
15652
15654
15663
15663
15654
15655
15657
15657
15660
15650
15647
15649
15648
15646
15652
15662
15649
15639
15646
15636
15638
15692
15677
15673
15668
15663
15666
15658
15650
15650
15647
15649
15690
15681
15670
15667
15680
15652
15652
15652
15649
15658
15726
15692
15685
15680
15695
15675
15662
15664
15668
15699
15692
15685
15679
15678
15689
15675
15671
15664
15670
15676
15695
15692
15709
15707
15707
15703
15705
15696
15697
15695
15695
15691
15705
15689
15681
15687
15698
15709
15698
15694
15690
15708
15702
15697
15702
15699
15692
15687
15687
15685
15797
15793
15751
15732
15733
15735
15735
15733
15718
15708
15727
15705
15698
15696
15703
15735
15737
15727
15719
15716
15713
15716
15726
15713
15708
15702
15703
15707
15712
15803
15757
15740
15737
15735
15726
15725
15718
15709
15786
15756
15746
15742
15743
15736
15732
15734
15735
15740
15743
15739
15743
15753
15749
15753
15757
15762
15757
15759
15770
15767
15765
15788
15819
15801
15731
15834
15783
15772
15769
15766
15762
15766
15761
15769
15762
15766
15773
15771
15764
15767
15764
15759
15762
15761
15758
15771
15749
15745
15751
15793
15783
15767
15773
15772
15783
15758
15751
15757
15751
15748
15756
15749
15760
15807
15796
15792
15792
15787
15791
15783
15784
15789
15788
15786
15788
15784
15789
15789
15791
15791
15791
15774
15779
15773
15764
15771
15773
15775
15778
15782
15784
15778
15793
15786
15788
15857
15823
15822
15820
15809
15811
15803
15817
15807
15799
15791
15798
15799
15803
15796
15805
15909
15852
15849
15842
15829
15849
15813
15807
15806
15863
15841
15826
15841
15804
15812
15823
15890
15889
15886
15892
15890
15882
15882
15881
15866
15863
15865
15860
15849
15850
15863
15855
15870
15853
15853
15855
15851
15860
15854
15860
15859
15857
15860
15856
15863
15868
15867
15870
15870
15868
15853
15850
15849
15845
15848
15851
15854
15857
15863
15863
15861
15860
15860
15860
15860
15855
15845
15861
15860
15865
15878
15881
15867
15870
15878
15890
15911
15861
15863
15867
15868
15868
15871
15874
15867
15870
15865
15868
15866
15866
15870
15867
15871
15876
15875
15873
15881
15877
15879
15883
15882
15883
15887
15887
15879
15891
15885
15877
15882
15886
15887
15882
15884
15884
15884
15887
15888
15965
15935
15943
15937
15941
15940
15926
15915
15911
15924
15897
15902
15900
15903
15905
15942
15934
15927
15914
15927
15927
15926
15931
15940
15938
15940
15929
15925
15922
15920
15910
15920
15922
15918
16027
16019
16024
16012
15969
15967
15964
15972
15971
15969
15982
15965
15962
15952
15955
15945
15945
15949
15959
15964
15962
15953
15944
15960
15966
15949
15956
15969
15980
15978
16010
15955
15947
15949
15950
15950
15948
15956
15953
15951
15951
15956
15949
15951
15954
15949
16061
16045
16005
16006
16002
15991
15994
15989
15985
15993
16004
15998
16001
16009
16001
16001
16012
16006
16005
16006
16013
16010
16014
16006
16003
16007
16005
16000
16001
15999
16012
16006
16007
16001
15999
15985
15985
15983
15985
15994
15993
16031
16027
16023
16015
16021
16012
16001
15998
15999
16093
16058
16047
16041
16045
16037
16031
16020
16013
16017
16031
16019
16008
16005
16008
16010
16011
16013
16011
16013
16004
16010
16006
16006
16015
16010
16021
16046
16033
16031
16034
16039
16048
16047
16045
16046
16048
16046
16052
16047
16046
16047
16048
16033
16029
16023
16031
16030
16031
16030
16079
16071
16061
16060
16061
16058
16054
16057
16049
16055
16060
16055
16058
16052
16055
16053
16072
16058
16043
16047
16047
16086
16071
16070
16068
16062
16059
16058
16055
16052
16055
16124
16097
16090
16094
16095
16082
16084
16082
16079
16074
16087
16064
16064
16073
16065
16123
16106
16088
16098
16095
16090
16097
16092
16092
16098
16103
16094
16100
16095
16102
16108
16116
16111
16104
16106
16102
16098
16099
16103
16087
16078
16069
16078
16079
16137
16121
16113
16105
16116
16109
16109
16108
16108
16111
16109
16103
16107
16103
16103
16103
16125
16111
16110
16098
16090
16100
16097
16101
16099
16199
16104
16113
16137
16129
16141
16135
16135
16124
16129
16119
16107
16109
16101
16109
16158
16145
16139
16133
16131
16135
16123
16120
16116
16189
16161
16149
16142
16141
16132
16118
16167
16156
16145
16138
16149
16127
16126
16131
16135
16169
16165
16150
16163
16146
16143
16196
16166
16169
16160
16165
16144
16145
16144
16141
16144
16142
16149
16143
16150
16152
16162
16160
16185
16170
16234
16197
16196
16190
16193
16182
16176
16175
16183
16165
16159
16220
16213
16204
16199
16191
16182
16201
16184
16175
16181
16178
16258
16216
16206
16203
16219
16260
16175
16172
16189
16209
16197
16202
16200
16208
16201
16210
16205
16199
16195
16194
16196
16194
16288
16230
16226
16223
16212
16211
16211
16220
16201
16196
16199
16289
16247
16260
16208
16211
16211
16209
16218
16234
16229
16236
16238
16220
16209
16213
16212
16249
16243
16239
16221
16214
16271
16252
16240
16247
16231
16227
16225
16252
16244
16237
16231
16219
16220
16322
16273
16256
16253
16252
16247
16261
16238
16239
16239
16319
16271
16261
16257
16252
16237
16286
16263
16268
16254
16255
16263
16239
16244
16280
16267
16263
16276
16252
16250
16255
16341
16282
16280
16273
16278
16253
16349
16277
16269
16271
16269
16260
16260
16267
16299
16293
16283
16283
16301
16271
16273
16271
16323
16303
16287
16295
16281
16270
16263
16322
16296
16289
16292
16287
16278
16278
16343
16310
16303
16292
16317
16295
16293
16282
16282
16281
16327
16311
16300
16313
16286
16284
16287
16295
16313
16307
16299
16299
16295
16338
16322
16315
16329
16311
16300
16294
16372
16337
16340
16408
16302
16299
16307
16344
16335
16327
16330
16317
16310
16380
16354
16347
16338
16334
16340
16326
16321
16308
16317
16319
16369
16354
16339
16343
16336
16327
16329
16328
16321
16331
16334
16377
16359
16364
16353
16342
16359
16354
16329
16330
16386
16368
16367
16357
16361
16363
16356
16342
16344
16347
16435
16390
16379
16380
16373
16370
16361
16374
16354
16351
16341
16413
16376
16374
16377
16364
16358
16362
16360
16403
16391
16384
16383
16384
16375
16388
16362
16360
16365
16363
16356
16360
16367
16365
16421
16398
16395
16391
16390
16391
16394
16407
16382
16378
16377
16377
16380
16372
16371
16365
16375
16374
16378
16390
16380
16473
16446
16427
16423
16418
16408
16418
16405
16404
16406
16407
16397
16406
16404
16397
16410
16406
16399
16402
16396
16399
16399
16403
16404
16404
16431
16429
16421
16412
16407
16403
16404
16406
16407
16404
16406
16409
16412
16411
16417
16483
16483
16518
16515
16457
16446
16445
16440
16434
16452
16433
16422
16421
16422
16423
16421
16422
16423
16425
16429
16454
16491
16475
16463
16463
16454
16454
16456
16451
16464
16439
16427
16436
16433
16431
16546
16471
16481
16470
16466
16471
16463
16463
16469
16462
16454
16454
16537
16484
16464
16470
16464
16463
16481
16459
16456
16452
16455
16532
16492
16493
16482
16478
16481
16491
16489
16473
16472
16472
16468
16475
16468
16503
16503
16493
16500
16470
16471
16476
16477
16533
16524
16525
16521
16517
16523
16518
16517
16513
16520
16494
16490
16485
16487
16486
16487
16559
16554
16540
16535
16530
16541
16543
16524
16518
16654
16562
16545
16537
16544
16522
16520
16523
16581
16551
16543
16527
16535
16523
16523
16570
16543
16543
16540
16542
16551
16543
16547
16538
16545
16550
16539
16529
16523
16587
16556
16553
16553
16550
16556
16556
16543
16542
16545
16547
16607
16573
16579
16559
16567
16548
16536
16548
16577
16580
16580
16572
16582
16582
16583
16583
16591
16583
16594
16596
16591
16589
16586
16591
16589
16586
16582
16572
16590
16568
16562
16639
16600
16590
16587
16594
16599
16596
16591
16591
16598
16596
16599
16598
16609
16599
16599
16606
16601
16593
16602
16599
16610
16611
16616
16629
16589
16592
16594
16614
16604
16607
16614
16615
16602
16593
16597
16597
16599
16598
16601
16597
16597
16602
16603
16603
16679
16644
16634
16629
16615
16633
16615
16612
16612
16647
16642
16634
16644
16613
16612
16651
16649
16641
16638
16640
16643
16629
16629
16622
16661
16657
16648
16651
16641
16642
16644
16644
16631
16629
16673
16654
16647
16637
16633
16642
16730
16677
16668
16660
16667
16660
16675
16680
16667
16655
16649
16644
16644
16647
16643
16644
16654
16707
16687
16677
16676
16683
16678
16670
16666
16665
16668
16719
16744
16669
16663
16735
16725
16714
16711
16714
16720
16765
16774
16773
16734
16773
16687
16754
16726
16717
16719
16716
16715
16707
16702
16700
16704
16707
16688
16685
16733
16730
16722
16720
16728
16724
16723
16716
16717
16722
16707
16701
16708
16704
16702
16703
16714
16705
16706
16711
16709
16710
16712
16713
16714
16787
16765
16782
16786
16772
16765
16774
16775
16765
16761
16756
16754
16755
16754
16751
16746
16755
16742
16742
16735
16742
16754
16768
16759
16759
16775
16742
16743
16742
16756
16794
16783
16783
16783
16783
16773
16775
16770
16767
16776
16783
16777
16766
16769
16762
16762
16764
16759
16807
16803
16799
16795
16783
16780
16781
16770
16765
16810
16801
16791
16804
16776
16775
16779
16803
16807
16791
16804
16783
16772
16775
16777
16869
16815
16804
16804
16804
16803
16801
16802
16801
16806
16794
16793
16798
16804
16815
16818
16821
16818
16807
16804
16805
16812
16818
16809
16802
16799
16800
16804
16805
16875
16837
16837
16835
16822
16822
16817
16823
16797
16802
16837
16820
16823
16836
16826
16821
16811
16818
16812
16815
16859
16848
16840
16837
16833
16837
16823
16817
16815
16816
16871
16852
16847
16838
16837
16849
16853
16858
16843
16831
16837
16827
16871
16865
16865
16857
16854
16851
16850
16849
16848
16847
16839
16840
16836
16841
16924
16885
16877
16869
16864
16863
16867
16863
16866
16860
16854
16846
16857
16847
16846
16848
16907
16887
16879
16868
16877
16863
16861
16865
16867
16926
16895
16878
16882
16895
16870
16869
16860
16868
16924
16900
16893
16887
16882
16879
16871
16877
16879
16877
16881
16877
16939
16927
16925
16939
16918
16917
16915
16898
16903
16899
16902
16896
16900
16918
16908
16900
16892
16890
16892
16954
16927
16930
16908
16909
16911
16892
16894
16890
16944
16929
16916
16916
16918
16915
16919
16919
16920
16939
16923
16915
16919
16917
16903
16908
16913
16900
16909
16913
16916
16916
16919
16915
16914
16919
16916
16919
16921
16922
16927
16931
16925
17002
16949
16955
16951
16952
16953
16954
16951
16958
16959
16940
16949
16953
16948
16952
16951
16949
16951
16942
16930
16940
16942
16942
16938
16938
16939
16943
16941
16988
16973
16965
16964
16963
16964
16967
16965
16968
16967
16964
16975
16970
16975
16967
16981
16950
16954
16953
16950
16951
16964
16957
16957
16963
16964
16965
16966
16967
17047
17007
16999
17003
17001
16993
16991
16987
16983
16988
16987
16999
16996
17000
16999
16994
16993
16996
16997
17007
16991
16985
16981
16980
16982
16975
17031
17014
17011
16999
16995
17004
16989
16993
16997
16997
16993
16992
16988
16991
17061
17025
17027
17026
17017
17014
17005
17004
17021
17011
17020
17019
17016
17012
17011
17007
17013
17015
17020
17019
17017
17014
17022
17017
17015
17032
17023
17021
17021
17023
17018
17022
17025
17031
17024
17025
17023
17033
17029
17024
17022
17022
17017
17020
17087
17055
17048
17038
17034
17034
17046
17033
17026
17019
17018
17026
17026
17022
17033
17029
17031
17033
17034
17031
17030
17033
17031
17023
17026
17036
17039
17058
17047
17053
17054
17055
17057
17062
17064
17064
17072
17093
17092
17105
17111
17044
17032
17039
17058
17063
17067
17061
17067
17077
17082
17079
17089
17085
17083
17100
17124
17095
17093
17130
17094
17088
17087
17086
17087
17097
17084
17079
17072
17078
17077
17076
17070
17087
17079
17080
17095
17081
17068
17071
17069
17071
17068
17073
17067
17066
17066
17063
17067
17074
17078
17077
17087
17102
17102
17103
17106
17100
17092
17091
17094
17094
17095
17092
17101
17107
17110
17116
17127
17124
17126
17139
17125
17121
17156
17166
17128
17121
17124
17117
17110
17108
17115
17105
17118
17094
17084
17092
17091
17094
17094
17092
17178
17154
17132
17138
17191
17103
17107
17104
17101
17100
17101
17094
17104
17098
17095
17196
17151
17149
17151
17145
17140
17150
17151
17146
17148
17153
17148
17145
17139
17132
17135
17133
17140
17135
17138
17137
17142
17135
17138
17138
17154
17157
17155
17164
17159
17166
17164
17161
17165
17185
17149
17127
17126
17131
17131
17124
17129
17132
17139
17160
17154
17160
17161
17175
17171
17198
17191
17196
17197
17143
17139
17134
17151
17168
17152
17161
17160
17175
17186
17188
17198
17153
17155
17159
17174
17177
17175
17172
17169
17167
17181
17164
17167
17172
17177
17178
17184
17178
17163
17162
17171
17171
17173
17180
17199
17193
17191
17203
17204
17209
17220
17226
17229
17271
17179
17171
17178
17203
17225
17204
17224
17223
17232
17234
17245
17252
17253
17310
17197
17196
17196
17188
17196
17211
17216
17221
17236
17235
17232
17222
17224
17234
17234
17231
17228
17230
17230
17223
17225
17223
17220
17223
17230
17235
17258
17207
17210
17212
17221
17222
17217
17223
17223
17223
17241
17234
17231
17237
17233
17237
17243
17216
17217
17204
17214
17215
17217
17220
17227
17255
17255
17254
17255
17264
17268
17279
17266
17221
17227
17227
17223
17221
17220
17300
17284
17311
17301
17228
17223
17277
17263
17263
17261
17255
17255
17255
17262
17263
17277
17223
17235
17231
17300
17268
17266
17258
17261
17263
17266
17286
17234
17249
17261
17269
17268
17252
17254
17258
17261
17269
17269
17281
17303
17299
17275
17274
17273
17278
17282
17249
17252
17249
17252
17249
17277
17276
17273
17276
17273
17270
17263
17269
17271
17282
17283
17296
17253
17253
17253
17261
17263
17264
17268
17276
17289
17287
17271
17286
17292
17291
17275
17280
17294
17335
17259
17261
17268
17263
17262
17328
17303
17299
17308
17303
17303
17304
17303
17309
17308
17311
17348
17273
17266
17269
17268
17267
17273
17277
17274
17285
17291
17298
17297
17295
17297
17292
17295
17293
17287
17296
17311
17303
17287
17295
17294
17292
17297
17296
17308
17311
17317
17311
17307
17309
17318
17317
17317
17317
17320
17337
17327
17333
17373
17299
17290
17293
17311
17311
17314
17309
17319
17321
17321
17328
17334
17332
17327
17341
17342
17343
17335
17336
17357
17306
17301
17301
17297
17305
17300
17303
17308
17316
17327
17326
17341
17339
17318
17335
17323
17328
17337
17346
17337
17341
17339
17325
17311
17322
17319
17316
17313
17329
17319
17316
17322
17322
17319
17319
17404
17358
17355
17342
17334
17344
17329
17327
17316
17315
17330
17321
17318
17329
17324
17329
17384
17364
17370
17361
17371
17380
17418
17391
17323
17324
17326
17325
17335
17329
17340
17358
17359
17359
17348
17350
17356
17354
17365
17367
17358
17359
17357
17356
17359
17363
17377
17414
17328
17330
17338
17340
17329
17335
17341
17343
17350
17360
17354
17364
17373
17373
17399
17336
17341
17341
17348
17362
17354
17357
17356
17359
17365
17369
17377
17367
17367
17375
17374
17380
17375
17387
17407
17344
17343
17327
17338
17351
17366
17353
17359
17361
17364
17367
17368
17370
17365
17361
17377
17370
17373
17373
17375
17367
17364
17371
17375
17374
17380
17384
17391
17401
17437
17439
17356
17359
17364
17358
17359
17352
17358
17354
17359
17359
17351
17357
17361
17355
17421
17398
17398
17393
17384
17385
17393
17381
17383
17383
17372
17386
17379
17379
17387
17381
17391
17396
17401
17399
17403
17427
17412
17399
17402
17401
17426
17375
17379
17371
17375
17383
17398
17382
17383
17395
17391
17407
17400
17412
17406
17386
17391
17404
17381
17393
17403
17399
17399
17406
17390
17380
17383
17384
17377
17470
17421
17411
17399
17402
17399
17390
17411
17414
17390
17399
17401
17404
17407
17413
17405
17404
17405
17410
17402
17412
17406
17396
17384
17391
17388
17390
17389
17395
17399
17401
17404
17401
17397
17404
17401
17395
17397
17394
17390
17389
17391
17386
17391
17435
17437
17431
17432
17428
17434
17437
17442
17456
17420
17473
17449
17441
17444
17435
17444
17435
17431
17444
17435
17437
17447
17437
17433
17429
17421
17428
17420
17419
17431
17431
17420
17422
17415
17410
17407
17410
17405
17407
17410
17409
17415
17419
17439
17444
17447
17446
17439
17440
17422
17425
17415
17415
17414
17415
17404
17410
17415
17407
17411
17420
17418
17437
17447
17433
17436
17438
17431
17433
17436
17433
17433
17424
17431
17423
17420
17421
17422
17417
17426
17415
17414
17424
17492
17471
17461
17455
17460
17455
17461
17459
17462
17454
17458
17466
17461
17458
17497
17483
17461
17460
17460
17462
17447
17447
17458
17446
17438
17433
17431
17433
17511
17500
17469
17476
17466
17458
17452
17444
17444
17461
17464
17453
17455
17450
17445
17463
17462
17454
17450
17450
17451
17452
17457
17463
17463
17453
17455
17452
17455
17454
17454
17460
17462
17463
17466
17457
17451
17447
17463
17439
17445
17514
17479
17473
17469
17455
17472
17457
17454
17447
17451
17447
17447
17454
17452
17451
17457
17454
17452
17457
17493
17482
17482
17485
17486
17476
17487
17477
17476
17473
17476
17477
17473
17467
17469
17477
17473
17473
17469
17461
17466
17466
17461
17464
17460
17451
17455
17454
17457
17497
17486
17481
17478
17484
17471
17465
17464
17473
17465
17466
17465
17466
17463
17463
17462
17463
17466
17542
17527
17535
17460
17461
17463
17461
17469
17468
17462
17536
17530
17517
17500
17503
17504
17499
17501
17497
17508
17508
17494
17499
17503
17500
17496
17496
17495
17497
17485
17494
17492
17492
17484
17494
17493
17491
17493
17495
17506
17499
17501
17505
17502
17508
17533
17477
17471
17482
17476
17476
17480
17487
17485
17483
17490
17489
17500
17500
17489
17481
17485
17488
17489
17490
17494
17490
17483
17489
17487
17484
17487
17489
17481
17482
17488
17481
17480
17486
17506
17507
17500
17503
17506
17508
17511
17500
17499
17502
17504
17506
17508
17515
17503
17510
17508
17501
17502
17499
17505
17509
17517
17519
17527
17524
17525
17527
17534
17538
17535
17536
17540
17543
17495
17493
17487
17492
17493
17494
17493
17496
17490
17492
17491
17495
17491
17494
17497
17488
17503
17500
17490
17495
17495
17520
17559
17546
17534
17527
17525
17521
17523
17511
17519
17521
17516
17519
17524
17526
17523
17524
17519
17516
17513
17511
17512
17525
17520
17511
17497
17499
17493
17502
17497
17586
17539
17535
17533
17539
17534
17529
17527
17529
17519
17521
17520
17521
17523
17522
17516
17516
17516
17532
17518
17511
17508
17500
17572
17547
17546
17535
17538
17530
17525
17516
17530
17518
17508
17507
17511
17566
17543
17543
17535
17535
17535
17538
17535
17535
17533
17540
17533
17535
17535
17531
17536
17533
17535
17534
17537
17541
17543
17550
17551
17572
17604
17510
17519
17517
17516
17518
17524
17522
17522
17532
17525
17531
17529
17533
17526
17536
17543
17545
17553
17540
17534
17533
17543
17543
17543
17541
17546
17545
17554
17549
17543
17539
17547
17553
17539
17540
17533
17527
17532
17532
17532
17588
17531
17540
17565
17559
17557
17549
17557
17548
17551
17543
17540
17541
17537
17528
17534
17537
17538
17589
17568
17561
17565
17559
17557
17559
17555
17556
17555
17556
17549
17557
17550
17548
17556
17552
17545
17543
17548
17560
17564
17553
17558
17555
17560
17548
17548
17545
17539
17540
17535
17535
17541
17541
17532
17543
17543
17543
17543
17536
17532
17539
17550
17546
17543
17545
17545
17545
17540
17541
17535
17543
17548
17538
17538
17537
17623
17585
17572
17567
17556
17557
17555
17556
17553
17564
17568
17578
17579
17575
17568
17568
17567
17564
17564
17553
17555
17574
17559
17551
17553
17545
17553
17557
17552
17560
17564
17561
17564
17562
17564
17568
17567
17567
17573
17572
17572
17578
17582
17608
17545
17550
17549
17551
17557
17564
17551
17553
17558
17548
17547
17550
17551
17543
17543
17551
17546
17548
17552
17551
17549
17557
17555
17555
17559
17551
17554
17563
17554
17555
17554
17554
17540
17546
17554
17550
17548
17552
17550
17551
17554
17559
17555
17565
17570
17574
17569
17572
17574
17575
17573
17583
17574
17575
17583
17583
17576
17578
17576
17577
17573
17575
17575
17575
17573
17588
17586
17566
17565
17567
17562
17554
17567
17637
17596
17588
17579
17582
17577
17572
17580
17578
17574
17590
17592
17588
17585
17575
17569
17576
17567
17567
17565
17567
17564
17602
17594
17585
17580
17591
17587
17569
17571
17570
17571
17570
17572
17577
17575
17572
17575
17570
17567
17572
17577
17569
17570
17571
17566
17567
17570
17577
17573
17585
17591
17606
17605
17601
17593
17582
17585
17589
17585
17580
17586
17589
17589
17594
17601
17596
17577
17581
17583
17588
17589
17583
17580
17583
17587
17582
17579
17582
17573
17583
17593
17594
17581
17587
17583
17587
17594
17599
17602
17612
17613
17651
17576
17575
17577
17589
17596
17584
17599
17607
17568
17574
17572
17575
17575
17589
17598
17587
17592
17599
17599
17599
17602
17598
17609
17610
17613
17629
17576
17572
17575
17569
17575
17575
17575
17571
17577
17574
17574
17576
17580
17579
17577
17581
17641
17649
17649
17610
17614
17610
17613
17610
17613
17602
17604
17600
17597
17593
17599
17592
17597
17604
17602
17604
17596
17594
17596
17596
17607
17587
17591
17582
17583
17588
17584
17586
17580
17583
17656
17612
17605
17600
17601
17605
17598
17586
17575
17581
17582
17671
17625
17613
17604
17599
17592
17605
17594
17587
17597
17587
17586
17588
17616
17620
17611
17603
17603
17598
17595
17594
17590
17591
17577
17580
17581
17585
17621
17613
17606
17604
17599
17605
17603
17605
17607
17605
17598
17588
17596
17591
17585
17581
17585
17587
17576
17587
17586
17589
17612
17602
17607
17603
17602
17602
17598
17599
17600
17594
17575
17583
17585
17584
17631
17611
17605
17601
17605
17609
17592
17593
17591
17592
17595
17636
17622
17611
17615
17607
17607
17603
17613
17601
17607
17596
17583
17591
17589
17592
17685
17647
17625
17626
17615
17615
17626
17616
17611
17615
17607
17611
17606
17610
17611
17611
17613
17612
17619
17612
17613
17609
17615
17611
17609
17606
17604
17619
17604
17597
17596
17595
17597
17599
17611
17616
17603
17604
17609
17606
17615
17618
17627
17627
17627
17633
17631
17624
17625
17621
17615
17609
17605
17614
17599
17598
17593
17590
17628
17623
17620
17617
17606
17626
17607
17591
17599
17599
17595
17639
17620
17615
17618
17613
17612
17607
17607
17611
17608
17606
17603
17598
17601
17602
17605
17639
17637
17617
17617
17613
17614
17607
17622
17637
17583
17597
17609
17616
17592
17597
17606
17617
17623
17631
17636
17619
17618
17606
17611
17624
17620
17603
17596
17586
17593
17598
17672
17639
17625
17623
17613
17620
17624
17607
17607
17601
17599
17634
17622
17610
17616
17623
17599
17594
17596
17596
17631
17621
17621
17616
17612
17624
17622
17617
17607
17597
17597
17601
17598
17599
17593
17586
17591
17597
17641
17629
17634
17631
17634
17633
17639
17628
17631
17628
17615
17619
17614
17607
17611
17605
17607
17609
17614
17613
17613
17607
17611
17612
17614
17607
17620
17612
17609
17607
17598
17602
17601
17594
17602
17596
17596
17596
17591
17594
17600
17589
17595
17596
17596
17598
17596
17601
17596
17601
17605
17597
17660
17652
17629
17623
17616
17620
17611
17601
17610
17604
17606
17614
17609
17606
17607
17595
17595
17598
17654
17628
17631
17629
17631
17633
17626
17618
17623
17614
17610
17607
17610
17614
17607
17621
17607
17595
17599
17596
17595
17596
17644
17631
17636
17677
17641
17654
17637
17635
17648
17639
17638
17623
17635
17657
17594
17621
17598
17667
17648
17640
17651
17634
17627
17620
17614
17609
17607
17608
17602
17607
17607
17618
17620
17623
17616
17619
17630
17619
17607
17607
17599
17597
17591
17591
17591
17589
17607
17602
17615
17623
17658
17635
17634
17633
17636
17626
17621
17616
17607
17608
17607
17604
17613
17610
17606
17614
17623
17622
17627
17621
17625
17618
17623
17628
17620
17625
17623
17627
17634
17636
17616
17637
17648
17591
17590
17586
17587
17586
17583
17597
17591
17588
17586
17630
17626
17623
17617
17617
17621
17619
17612
17606
17606
17607
17598
17607
17605
17592
17580
17582
17586
17581
17586
17588
17671
17655
17621
17620
17619
17603
17609
17606
17607
17602
17605
17596
17600
17599
17597
17601
17602
17599
17605
17596
17589
17591
17594
17590
17588
17635
17623
17623
17621
17616
17615
17604
17601
17604
17600
17606
17599
17597
17590
17584
17591
17623
17605
17615
17590
17591
17593
17587
17668
17637
17618
17611
17603
17595
17609
17598
17586
17588
17586
17633
17624
17617
17607
17607
17616
17597
17593
17588
17660
17632
17627
17628
17623
17639
17632
17634
17626
17628
17618
17617
17633
17612
17595
17591
17601
17807
17660
17654
17637
17631
17623
17614
17640
17612
17592
17604
17676
17639
17632
17631
17624
17620
17618
17620
17615
17615
17613
17609
17606
17613
17606
17607
17607
17608
17613
17607
17597
17598
17593
17648
17626
17617
17620
17607
17609
17606
17607
17612
17598
17598
17593
17592
17658
17631
17623
17613
17614
17596
17611
17588
17656
17619
17617
17611
17611
17611
17607
17607
17607
17613
17604
17604
17602
17597
17597
17614
17589
17591
17584
17586
17591
17622
17615
17620
17612
17609
17611
17607
17605
17594
17609
17613
17597
17601
17605
17606
17609
17608
17608
17607
17602
17606
17602
17599
17606
17603
17604
17601
17596
17598
17601
17598
17601
17593
17586
17583
17580
17578
17588
17632
17626
17627
17623
17636
17642
17623
17619
17617
17622
17617
17625
17577
17583
17582
17583
17574
17583
17583
17588
17587
17590
17587
17588
17595
17590
17585
17591
17599
17602
17608
17609
17604
17591
17600
17605
17601
17595
17600
17605
17610
17610
17613
17624
17620
17629
17636
17627
17629
17638
17629
17640
17580
17574
17575
17583
17583
17574
17583
17588
17615
17610
17619
17599
17606
17606
17606
17605
17609
17615
17610
17622
17647
17650
17567
17581
17582
17579
17582
17581
17585
17604
17604
17605
17614
17609
17606
17617
17617
17625
17626
17617
17613
17608
17616
17609
17616
17633
17665
17591
17586
17594
17612
17618
17606
17614
17621
17612
17618
17638
17591
17591
17589
17589
17592
17614
17604
17613
17608
17610
17612
17615
17622
17622
17624
17623
17629
17635
17595
17592
17593
17596
17590
17589
17604
17620
17607
17616
17631
17687
17599
17596
17605
17628
17623
17623
17631
17637
17596
17595
17590
17591
17596
17605
17609
17619
17615
17609
17613
17623
17625
17621
17617
17619
17622
17621
17621
17630
17619
17614
17619
17622
17622
17630
17620
17617
17621
17622
17621
17642
17637
17638
17646
17601
17639
17657
17607
17594
17595
17602
17593
17594
17588
17593
17594
17591
17595
17593
17591
17594
17597
17598
17600
17598
17592
17597
17598
17591
17634
17626
17632
17626
17617
17609
17604
17605
17609
17607
17610
17607
17605
17615
17605
17597
17599
17601
17599
17600
17594
17591
17596
17586
17591
17592
17591
17586
17584
17591
17584
17591
17597
17592
17597
17601
17598
17597
17599
17588
17635
17666
17671
17584
17628
17617
17611
17605
17616
17623
17661
17594
17594
17596
17596
17607
17601
17597
17596
17638
17627
17623
17635
17583
17615
17642
17668
17598
17590
17589
17657
17588
17599
17600
17597
17597
17607
17607
17614
17615
17615
17613
17611
17622
17637
17675
17596
17596
17591
17594
17593
17605
17610
17612
17622
17624
17619
17611
17615
17617
17629
17591
17589
17593
17591
17594
17592
17602
17596
17599
17606
17594
17598
17607
17599
17601
17602
17600
17600
17596
17592
17596
17599
17595
17598
17614
17615
17610
17621
17631
17608
17621
17634
17639
17636
17677
17596
17592
17583
17589
17585
17583
17590
17592
17588
17586
17581
17572
17579
17580
17577
17583
17589
17578
17593
17594
17595
17592
17598
17588
17591
17591
17591
17591
17599
17594
17799
17658
17663
17652
17649
17646
17647
17650
17654
17649
17652
17664
17611
17608
17609
17614
17605
17611
17621
17623
17636
17629
17637
17639
17637
17638
17643
17643
17648
17619
17624
17614
17619
17626
17621
17630
17637
17632
17633
17631
17628
17631
17623
17633
17615
17621
17624
17637
17636
17631
17617
17614
17622
17617
17615
17615
17611
17607
17606
17611
17639
17604
17609
17604
17626
17618
17623
17615
17623
17615
17612
17615
17608
17606
17606
17611
17607
17600
17599
17603
17599
17598
17622
17609
17607
17617
17606
17605
17611
17606
17606
17607
17601
17605
17591
17599
17597
17599
17596
17599
17601
17590
17598
17602
17593
17599
17595
17594
17598
17599
17585
17593
17586
17588
17588
17581
17607
17589
17580
17581
17583
17580
17586
17587
17589
17587
17590
17588
17586
17596
17591
17588
17588
17587
17590
17595
17598
17592
17594
17581
17589
17609
17572
17572
17574
17577
17572
17578
17584
17575
17579
17583
17550
17574
17575
17572
17573
17575
17568
17564
17576
17582
17588
17591
17590
17581
17587
17586
17588
17585
17581
17580
17591
17580
17582
17580
17577
17578
17585
17581
17577
17581
17590
17550
17599
17585
17581
17583
17581
17574
17578
17574
17574
17580
17579
17575
17581
17574
17573
17575
17577
17574
17574
17575
17574
17570
17581
17575
17580
17606
17562
17562
17556
17563
17558
17563
17556
17548
17553
17553
17551
17548
17549
17552
17552
17558
17564
17554
17558
17555
17553
17553
17560
17554
17548
17551
17550
17543
17543
17546
17548
17541
17553
17550
17551
17552
17552
17548
17551
17554
17545
17551
17603
17581
17571
17567
17567
17559
17573
17578
17563
17567
17568
17566
17564
17574
17562
17546
17549
17559
17547
17549
17548
17653
17543
17546
17532
17543
17639
17607
17663
17543
17538
17543
17543
17543
17543
17545
17548
17547
17550
17542
17549
17547
17543
17542
17625
17657
17592
17594
17651
17591
17659
17550
17543
17639
17646
17645
17635
17591
17579
17574
17570
17558
17559
17572
17554
17543
17541
17537
17540
17578
17574
17568
17562
17561
17558
17563
17564
17561
17559
17556
17556
17548
17548
17568
17564
17564
17573
17572
17535
17535
17540
17542
17551
17543
17543
17540
17575
17572
17562
17558
17558
17554
17561
17543
17528
17541
17569
17563
17551
17537
17538
17532
17537
17589
17578
17585
17574
17567
17560
17565
17556
17558
17559
17557
17549
17545
17549
17549
17544
17555
17551
17550
17553
17559
17566
17563
17563
17564
17563
17561
17566
17595
17527
17524
17527
17520
17526
17524
17522
17524
17597
17557
17563
17561
17556
17541
17558
17534
17532
17530
17562
17554
17552
17542
17541
17549
17537
17533
17547
17562
17527
17524
17539
17534
17530
17542
17529
17527
17529
17526
17530
17531
17527
17543
17551
17543
17549
17531
17535
17537
17542
17538
17532
17543
17543
17547
17554
17548
17541
17530
17519
17519
17519
17516
17519
17514
17508
17563
17551
17557
17549
17548
17543
17549
17548
17541
17542
17535
17543
17532
17521
17513
17515
17548
17537
17532
17527
17541
17511
17513
17516
17510
17515
17587
17556
17555
17551
17556
17511
17539
17509
17513
17514
17510
17508
17515
17503
17509
17509
17506
17508
17508
17519
17508
17512
17513
17509
17509
17508
17508
17567
17543
17537
17534
17528
17523
17516
17516
17521
17510
17505
17503
17504
17500
17569
17540
17531
17524
17533
17516
17512
17507
17506
17549
17541
17529
17522
17510
17519
17523
17519
17522
17522
17523
17519
17522
17524
17519
17522
17513
17512
17513
17515
17518
17515
17513
17503
17511
17506
17506
17509
17511
17514
17510
17518
17514
17516
17519
17513
17512
17511
17508
17505
17517
17502
17509
17501
17507
17515
17513
17501
17497
17494
17492
17519
17540
17528
17527
17521
17525
17521
17528
17527
17539
17493
17487
17478
17490
17502
17516
17511
17511
17508
17513
17510
17512
17513
17519
17521
17519
17524
17522
17526
17537
17481
17485
17479
17480
17484
17487
17487
17487
17497
17503
17507
17510
17505
17500
17503
17503
17503
17507
17503
17509
17500
17510
17511
17508
17499
17505
17507
17506
17503
17509
17505
17499
17501
17506
17503
17505
17500
17495
17507
17499
17500
17496
17498
17500
17498
17506
17503
17505
17505
17509
17512
17508
17514
17515
17521
17524
17476
17474
17481
17473
17478
17476
17478
17471
17477
17472
17478
17471
17545
17554
17476
17478
17481
17477
17478
17479
17477
17474
17467
17471
17476
17509
17500
17493
17505
17493
17494
17485
17490
17494
17496
17500
17493
17498
17502
17508
17503
17501
17510
17546
17470
17470
17462
17500
17514
17502
17500
17499
17490
17488
17485
17484
17480
17493
17492
17484
17479
17469
17462
17467
17465
17503
17490
17497
17487
17482
17479
17478
17478
17493
17478
17492
17470
17471
17468
17511
17500
17511
17500
17496
17506
17494
17507
17494
17494
17500
17487
17483
17477
17476
17466
17466
17502
17492
17486
17476
17485
17479
17460
17450
17460
17494
17489
17477
17475
17471
17471
17481
17464
17465
17465
17465
17461
17463
17502
17488
17477
17473
17471
17484
17457
17460
17455
17451
17494
17490
17479
17464
17475
17479
17459
17468
17455
17457
17465
17455
17536
17495
17477
17478
17475
17477
17476
17475
17468
17469
17469
17449
17445
17451
17456
17454
17482
17464
17474
17477
17485
17454
17447
17511
17485
17481
17469
17469
17460
17458
17455
17460
17462
17463
17463
17463
17474
17480
17460
17450
17455
17471
17466
17466
17463
17445
17450
17452
17447
17445
17445
17439
17444
17455
17447
17527
17487
17470
17478
17476
17477
17471
17465
17460
17458
17453
17452
17463
17469
17461
17452
17439
17445
17446
17439
17448
17441
17443
17441
17443
17441
17442
17466
17473
17460
17448
17461
17437
17441
17428
17436
17495
17468
17468
17464
17455
17460
17448
17448
17453
17452
17459
17459
17460
17454
17457
17451
17447
17444
17450
17439
17447
17443
17443
17444
17444
17444
17460
17457
17453
17460
17447
17435
17449
17447
17440
17441
17442
17441
17459
17454
17450
17437
17434
17434
17439
17456
17446
17449
17446
17444
17438
17445
17436
17445
17441
17441
17440
17441
17457
17441
17439
17438
17430
17434
17432
17428
17435
17430
17429
17503
17478
17469
17460
17454
17455
17448
17447
17455
17455
17440
17451
17455
17449
17454
17455
17455
17455
17452
17448
17461
17458
17472
17484
17506
17415
17488
17455
17451
17453
17446
17450
17445
17446
17441
17439
17437
17430
17431
17432
17437
17435
17434
17426
17432
17429
17430
17427
17427
17431
17424
17426
17430
17429
17441
17437
17425
17428
17418
17418
17414
17415
17408
17412
17412
17402
17413
17409
17402
17408
17443
17449
17439
17437
17436
17445
17435
17432
17445
17436
17437
17438
17442
17436
17431
17433
17426
17425
17420
17421
17425
17426
17423
17423
17421
17431
17428
17415
17413
17414
17407
17407
17497
17436
17433
17438
17426
17421
17428
17407
17402
17399
17444
17442
17444
17444
17437
17431
17430
17421
17417
17415
17399
17396
17401
17391
17458
17441
17426
17427
17426
17421
17427
17415
17414
17428
17407
17397
17399
17399
17405
17396
17395
17394
17486
17436
17426
17414
17413
17407
17423
17413
17420
17431
17399
17405
17398
17406
17420
17405
17412
17422
17430
17418
17405
17409
17391
17391
17444
17423
17406
17405
17402
17419
17405
17418
17409
17421
17429
17391
17397
17402
17407
17402
17410
17412
17407
17406
17394
17385
17393
17393
17386
17389
17395
17387
17393
17388
17387
17464
17422
17411
17401
17388
17397
17388
17382
17381
17383
17381
17383
17381
17381
17391
17385
17382
17441
17423
17388
17391
17382
17383
17383
17449
17382
17385
17391
17401
17398
17402
17395
17391
17400
17399
17411
17422
17415
17405
17415
17415
17415
17415
17413
17406
17415
17401
17407
17404
17399
17402
17404
17398
17405
17407
17409
17415
17415
17407
17409
17401
17406
17405
17404
17396
17403
17399
17398
17396
17391
17408
17406
17383
17385
17383
17384
17385
17380
17381
17382
17379
17486
17464
17438
17437
17426
17426
17425
17430
17430
17444
17447
17436
17442
17438
17441
17439
17434
17418
17415
17415
17409
17401
17399
17403
17399
17402
17396
17406
17401
17402
17397
17396
17385
17393
17399
17394
17389
17385
17381
17383
17390
17375
17379
17378
17433
17402
17394
17388
17396
17386
17383
17398
17382
17374
17381
17436
17404
17399
17391
17392
17386
17382
17383
17388
17391
17388
17406
17365
17393
17376
17380
17383
17391
17396
17395
17398
17396
17396
17395
17391
17403
17364
17365
17364
17363
17360
17353
17362
17371
17388
17381
17383
17391
17398
17362
17361
17365
17373
17370
17389
17373
17377
17383
17387
17385
17390
17415
17354
17358
17349
17359
17367
17373
17374
17375
17373
17367
17378
17373
17379
17377
17369
17374
17379
17381
17380
17372
17372
17370
17377
17366
17367
17374
17370
17369
17370
17375
17377
17380
17383
17383
17381
17382
17383
17419
17342
17372
17363
17366
17366
17363
17364
17371
17360
17370
17364
17359
17364
17353
17350
17353
17350
17429
17380
17382
17375
17370
17373
17375
17383
17376
17367
17364
17360
17372
17370
17364
17365
17370
17369
17371
17365
17371
17372
17375
17375
17370
17358
17361
17364
17361
17367
17361
17367
17363
17366
17361
17362
17363
17367
17374
17372
17371
17363
17371
17373
17355
17356
17357
17366
17372
17366
17364
17365
17361
17367
17362
17355
17358
17352
17358
17351
17353
17349
17348
17344
17350
17346
17343
17331
17347
17349
17345
17350
17358
17357
17362
17364
17371
17369
17374
17378
17382
17346
17339
17335
17345
17348
17346
17371
17368
17372
17355
17350
17348
17351
17357
17354
17350
17345
17340
17343
17341
17338
17343
17337
17337
17339
17343
17343
17351
17359
17359
17369
17373
17375
17350
17359
17356
17339
17340
17336
17379
17367
17357
17359
17362
17359
17358
17358
17351
17349
17353
17368
17359
17346
17350
17343
17345
17342
17332
17337
17341
17324
17333
17336
17330
17406
17373
17358
17365
17361
17363
17363
17373
17372
17369
17364
17364
17353
17357
17353
17349
17349
17340
17343
17347
17341
17348
17342
17339
17343
17334
17327
17327
17329
17364
17361
17352
17350
17348
17341
17340
17351
17342
17332
17327
17319
17324
17324
17335
17373
17359
17353
17350
17353
17343
17345
17343
17343
17342
17342
17337
17334
17341
17342
17348
17349
17349
17354
17359
17370
17414
17324
17325
17337
17327
17324
17321
17329
17326
17348
17350
17332
17332
17328
17337
17343
17350
17351
17352
17357
17349
17355
17354
17358
17357
17399
17318
17324
17325
17311
17317
17317
17318
17318
17315
17317
17317
17327
17318
17321
17410
17372
17371
17359
17356
17349
17348
17341
17333
17331
17343
17322
17320
17320
17317
17317
17317
17318
17405
17360
17346
17351
17349
17347
17349
17340
17332
17338
17340
17333
17334
17334
17340
17341
17345
17346
17342
17343
17363
17358
17367
17317
17315
17318
17322
17323
17341
17359
17332
17338
17332
17351
17357
17365
17522
17300
17306
17295
17304
17301
17296
17304
17303
17307
17308
17311
17311
17306
17311
17306
17314
17311
17307
17310
17311
17311
17311
17317
17304
17322
17322
17320
17327
17332
17331
17335
17351
17358
17354
17346
17350
17351
17358
17354
17354
17357
17361
17366
17367
17365
17365
17365
17364
17350
17349
17355
17351
17358
17366
17352
17357
17352
17339
17349
17333
17335
17334
17335
17333
17337
17342
17338
17343
17343
17343
17340
17338
17341
17332
17341
17344
17340
17341
17341
17335
17332
17335
17329
17331
17334
17327
17339
17336
17335
17340
17333
17333
17334
17331
17334
17326
17321
17326
17327
17325
17325
17322
17323
17324
17321
17318
17319
17316
17326
17327
17322
17323
17316
17318
17319
17317
17319
17314
17312
17319
17312
17311
17311
17310
17318
17314
17316
17317
17305
17316
17310
17312
17311
17316
17315
17316
17311
17314
17318
17317
17310
17311
17311
17316
17311
17308
17317
17311
17311
17315
17310
17308
17311
17308
17304
17310
17311
17311
17303
17310
17296
17306
17316
17316
17309
17313
17308
17311
17310
17317
17305
17302
17300
17302
17301
17303
17294
17293
17292
17287
17293
17297
17287
17279
17311
17309
17301
17300
17299
17298
17300
17292
17289
17295
17288
17287
17297
17287
17287
17286
17287
17286
17290
17327
17308
17306
17300
17302
17305
17296
17298
17291
17295
17294
17291
17295
17293
17285
17284
17286
17274
17277
17285
17280
17282
17282
17270
17281
17281
17284
17281
17283
17286
17285
17291
17297
17287
17300
17284
17271
17275
17284
17281
17283
17287
17280
17281
17287
17291
17284
17287
17279
17280
17275
17269
17269
17270
17268
17271
17268
17264
17360
17318
17305
17301
17292
17294
17302
17294
17295
17300
17293
17286
17298
17284
17285
17287
17298
17310
17311
17302
17300
17293
17295
17288
17291
17289
17301
17297
17295
17294
17287
17301
17303
17291
17287
17277
17271
17276
17263
17270
17267
17261
17266
17269
17269
17271
17279
17277
17287
17287
17292
17287
17279
17279
17286
17287
17281
17264
17264
17267
17259
17264
17270
17269
17274
17276
17273
17277
17279
17278
17273
17276
17273
17268
17269
17300
17307
17287
17295
17269
17266
17303
17286
17301
17265
17310
17284
17287
17283
17268
17260
17328
17300
17292
17279
17294
17274
17262
17269
17303
17289
17287
17284
17276
17278
17268
17268
17302
17297
17287
17287
17268
17306
17289
17291
17258
17327
17287
17282
17276
17266
17306
17287
17286
17270
17303
17289
17287
17271
17323
17288
17279
17262
17314
17289
17281
17263
17260
17259
17297
17284
17286
17279
17271
17265
17267
17303
17295
17284
17284
17271
17263
17301
17291
17284
17269
17291
17265
17262
17259
17260
17306
17287
17280
17287
17277
17267
17267
17269
17311
17296
17283
17290
17263
17269
17289
17285
17277
17273
17259
17330
17287
17282
17284
17264
17264
17298
17287
17291
17274
17263
17267
17327
17293
17279
17286
17258
17258
17360
17283
17270
17258
17259
17331
17292
17277
17269
17259
17270
17284
17274
17266
17256
17294
17276
17286
17263
17257
17303
17284
17271
17259
17262
17260
17295
17287
17282
17261
17303
17275
17291
17258
17314
17285
17269
17265
17254
17290
17265
17287
17254
17261
17289
17280
17278
17270
17261
17293
17272
17284
17250
17261
17308
17283
17267
17278
17253
17290
17281
17273
17278
17264
17282
17279
17263
17260
17260
17260
17255
17255
17290
17266
17311
17298
17285
17276
17274
17269
17260
17261
17276
17277
17275
17254
17253
17255
17253
17259
17255
17267
17255
17254
17249
17249
17249
17254
17285
17285
17287
17284
17287
17287
17282
17278
17269
17280
17263
17253
17261
17253
17247
17247
17246
17241
17246
17243
17246
17287
17343
17286
17289
17295
17293
17284
17286
17277
17282
17280
17275
17279
17271
17271
17266
17263
17260
17254
17253
17251
17239
17245
17239
17233
17241
17245
17242
17240
17244
17246
17245
17247
17246
17236
17242
17239
17238
17304
17335
17275
17263
17270
17275
17265
17264
17273
17276
17323
17324
17276
17271
17266
17263
17257
17261
17255
17257
17253
17247
17252
17230
17233
17233
17228
17285
17276
17261
17268
17263
17265
17262
17260
17253
17257
17255
17260
17254
17249
17248
17257
17243
17236
17231
17228
17229
17232
17235
17231
17293
17268
17264
17257
17263
17254
17267
17260
17257
17261
17254
17249
17242
17254
17239
17236
17258
17245
17236
17242
17231
17231
17319
17260
17258
17251
17249
17252
17224
17231
17222
17271
17253
17249
17239
17242
17228
17223
17226
17281
17277
17262
17258
17248
17251
17245
17241
17245
17224
17225
17220
17223
17223
17227
17223
17287
17279
17255
17257
17259
17255
17256
17263
17255
17259
17255
17255
17254
17253
17245
17253
17246
17253
17248
17252
17254
17254
17253
17259
17252
17255
17252
17255
17250
17243
17238
17238
17238
17236
17236
17236
17234
17229
17235
17236
17214
17210
17215
17214
17222
17295
17259
17250
17247
17244
17244
17243
17238
17230
17232
17229
17225
17239
17239
17238
17232
17227
17229
17225
17223
17229
17221
17221
17215
17214
17211
17213
17215
17207
17204
17208
17210
17199
17206
17205
17207
17209
17223
17211
17210
17212
17215
17215
17210
17209
17205
17208
17204
17210
17206
17202
17301
17281
17256
17254
17249
17271
17268
17280
17255
17253
17244
17243
17246
17238
17230
17230
17218
17235
17218
17201
17202
17202
17201
17205
17205
17202
17295
17239
17242
17241
17234
17229
17223
17223
17220
17213
17225
17212
17207
17205
17209
17205
17201
17203
17201
17248
17245
17236
17235
17228
17224
17223
17207
17199
17206
17292
17236
17229
17231
17224
17223
17213
17219
17222
17204
17197
17205
17207
17202
17201
17213
17202
17204
17202
17197
17199
17203
17188
17196
17189
17191
17197
17199
17194
17195
17246
17255
17236
17231
17231
17222
17213
17224
17194
17198
17197
17186
17193
17196
17255
17236
17221
17221
17210
17213
17209
17214
17192
17199
17193
17243
17232
17224
17222
17214
17210
17228
17207
17203
17201
17189
17190
17188
17191
17270
17228
17223
17217
17215
17212
17204
17204
17196
17191
17193
17194
17191
17257
17227
17225
17221
17224
17233
17223
17219
17209
17207
17208
17215
17212
17211
17209
17205
17206
17207
17215
17190
17188
17191
17188
17188
17183
17186
17183
17194
17188
17197
17196
17194
17183
17198
17198
17210
17212
17204
17198
17201
17200
17203
17199
17199
17201
17205
17207
17210
17215
17217
17213
17207
17206
17212
17212
17207
17212
17211
17213
17214
17210
17210
17204
17205
17212
17215
17213
17221
17231
17281
17180
17240
17225
17222
17221
17214
17207
17207
17213
17199
17211
17193
17197
17196
17200
17207
17210
17223
17239
17260
17190
17183
17257
17271
17238
17221
17222
17223
17179
17183
17184
17177
17185
17190
17203
17191
17195
17196
17197
17202
17207
17218
17212
17210
17213
17215
17219
17233
17230
17179
17173
17173
17175
17180
17183
17195
17204
17195
17196
17198
17200
17193
17199
17198
17202
17206
17217
17228
17191
17177
17173
17186
17192
17190
17188
17191
17205
17214
17228
17170
17181
17180
17186
17188
17204
17191
17191
17191
17196
17199
17199
17203
17195
17196
17189
17182
17199
17193
17191
17189
17188
17188
17181
17201
17189
17198
17191
17191
17206
17170
17167
17198
17197
17249
17167
17171
17172
17174
17177
17177
17187
17180
17179
17205
17191
17190
17195
17194
17192
17191
17191
17193
17196
17195
17197
17195
17193
17202
17205
17211
17197
17200
17188
17192
17189
17189
17185
17188
17181
17197
17193
17179
17189
17192
17196
17211
17204
17220
17167
17173
17181
17191
17187
17187
17190
17191
17192
17199
17165
17171
17165
17165
17177
17174
17175
17183
17190
17192
17203
17209
17169
17163
17169
17172
17173
17177
17191
17194
17175
17172
17177
17180
17172
17177
17182
17186
17181
17191
17190
17194
17203
17223
17164
17165
17167
17159
17163
17156
17167
17168
17164
17169
17182
17191
17185
17174
17174
17172
17175
17183
17188
17194
17192
17193
17198
17194
17219
17248
17247
17248
17273
17158
17150
17157
17172
17203
17183
17185
17196
17207
17222
17220
17257
17181
17173
17173
17173
17177
17169
17240
17172
17170
17164
17188
17171
17168
17172
17175
17173
17171
17173
17178
17175
17173
17175
17166
17166
17170
17168
17164
17215
17194
17188
17194
17188
17182
17190
17188
17180
17183
17186
17180
17177
17188
17183
17179
17182
17180
17170
17170
17163
17158
17159
17162
17154
17161
17153
17157
17159
17159
17162
17161
17159
17161
17164
17161
17155
17156
17159
17158
17154
17151
17160
17158
17163
17164
17178
17177
17171
17180
17183
17183
17185
17179
17180
17166
17167
17153
17153
17153
17150
17148
17153
17150
17148
17150
17169
17166
17177
17218
17156
17172
17175
17181
17204
17145
17159
17169
17184
17185
17180
17183
17180
17187
17188
17186
17148
17151
17151
17154
17152
17153
17147
17154
17157
17149
17153
17148
17149
17143
17147
17143
17143
17148
17143
17146
17143
17151
17148
17149
17153
17151
17152
17148
17154
17159
17170
17162
17172
17167
17169
17164
17167
17166
17172
17182
17183
17175
17182
17180
17170
17177
17177
17174
17169
17164
17159
17170
17165
17167
17172
17167
17172
17177
17175
17175
17179
17181
17213
17147
17156
17148
17151
17147
17147
17145
17147
17147
17143
17140
17143
17152
17144
17135
17138
17141
17140
17144
17147
17151
17143
17142
17147
17143
17144
17147
17145
17143
17144
17143
17142
17138
17140
17143
17141
17141
17143
17139
17146
17149
17142
17156
17175
17167
17170
17167
17159
17172
17183
17143
17141
17145
17148
17147
17170
17167
17173
17239
17218
17180
17178
17186
17183
17181
17178
17171
17172
17168
17170
17164
17164
17165
17155
17158
17154
17159
17151
17156
17153
17156
17174
17167
17172
17157
17161
17162
17158
17150
17169
17145
17135
17146
17135
17135
17142
17135
17138
17132
17141
17177
17177
17176
17174
17167
17167
17162
17170
17176
17170
17167
17169
17207
17131
17127
17133
17135
17126
17133
17183
17178
17169
17170
17157
17163
17160
17156
17158
17156
17148
17149
17156
17156
17159
17159
17159
17158
17158
17156
17156
17163
17175
17165
17158
17161
17163
17154
17162
17169
17172
17124
17123
17129
17121
17119
17124
17127
17126
17122
17125
17125
17127
17126
17127
17121
17133
17127
17114
17124
17124
17121
17122
17123
17118
17120
17122
17122
17115
17181
17157
17154
17146
17148
17151
17143
17149
17163
17153
17151
17147
17151
17146
17149
17143
17151
17158
17161
17151
17146
17138
17137
17132
17125
17135
17138
17127
17125
17122
17123
17131
17129
17135
17150
17215
17115
17118
17129
17134
17133
17138
17143
17135
17133
17135
17138
17140
17132
17132
17132
17127
17126
17133
17135
17118
17111
17108
17108
17183
17147
17137
17129
17133
17126
17122
17119
17123
17119
17182
17160
17163
17195
17148
17141
17140
17133
17137
17140
17138
17127
17131
17133
17129
17129
17126
17130
17148
17126
17116
17108
17107
17105
17161
17130
17133
17126
17149
17120
17107
17100
17108
17214
17182
17157
17145
17130
17138
17106
17099
17096
17294
17180
17155
17152
17141
17135
17127
17138
17146
17126
17115
17112
17111
17118
17113
17204
17175
17155
17148
17141
17147
17125
17123
17119
17121
17118
17116
17122
17124
17126
17126
17218
17188
17173
17196
17137
17133
17133
17125
17127
17125
17122
17128
17127
17129
17127
17125
17127
17132
17126
17129
17131
17129
17134
17135
17134
17128
17130
17127
17128
17127
17127
17124
17123
17126
17126
17123
17122
17125
17127
17135
17137
17142
17128
17137
17141
17132
17133
17126
17126
17125
17120
17122
17117
17119
17120
17125
17125
17127
17127
17124
17120
17124
17125
17123
17125
17127
17122
17125
17123
17116
17117
17113
17117
17123
17118
17110
17119
17115
17119
17115
17116
17117
17114
17112
17113
17116
17114
17118
17124
17119
17101
17103
17099
17129
17116
17110
17116
17117
17112
17115
17108
17120
17114
17111
17114
17112
17103
17110
17105
17106
17105
17106
17107
17095
17103
17099
17103
17098
17102
17100
17109
17100
17103
17104
17110
17101
17103
17102
17106
17103
17095
17097
17099
17103
17094
17104
17097
17097
17100
17098
17103
17103
17099
17100
17103
17101
17101
17098
17096
17087
17084
17087
17086
17081
17082
17094
17093
17092
17096
17100
17098
17103
17095
17094
17097
17100
17103
17105
17092
17095
17098
17085
17095
17092
17090
17093
17099
17091
17095
17100
17097
17099
17105
17100
17099
17095
17092
17099
17097
17100
17106
17134
17075
17076
17074
17072
17074
17076
17073
17073
17143
17110
17100
17103
17103
17097
17101
17105
17105
17103
17106
17120
17149
17073
17170
17167
17063
17066
17069
17079
17077
17071
17071
17078
17082
17092
17105
17101
17103
17095
17097
17084
17086
17085
17087
17088
17095
17093
17094
17094
17089
17095
17097
17089
17090
17095
17093
17093
17103
17098
17100
17103
17095
17097
17101
17102
17101
17090
17090
17106
17100
17073
17074
17074
17075
17076
17073
17067
17068
17066
17063
17070
17066
17062
17064
17068
17177
17155
17148
17069
17065
17069
17074
17068
17070
17069
17068
17068
17075
17065
17066
17073
17065
17131
17111
17097
17094
17094
17091
17089
17089
17090
17090
17094
17087
17087
17081
17078
17083
17087
17079
17081
17078
17073
17094
17091
17088
17093
17090
17084
17084
17085
17094
17093
17093
17093
17098
17094
17097
17097
17095
17094
17101
17104
17114
17106
17114
17098
17095
17100
17093
17091
17089
17094
17089
17084
17086
17078
17084
17078
17080
17075
17075
17078
17071
17074
17071
17069
17069
17067
17063
17060
17064
17068
17063
17058
17143
17140
17127
17100
17097
17095
17089
17095
17092
17163
17060
17095
17100
17094
17086
17086
17081
17082
17089
17085
17092
17092
17118
17129
17093
17051
17055
17055
17053
17054
17055
17061
17056
17055
17067
17057
17057
17060
17140
17108
17102
17103
17111
17056
17061
17061
17053
17096
17098
17089
17089
17097
17091
17089
17082
17084
17084
17085
17090
17092
17093
17140
17051
17052
17063
17070
17069
17070
17088
17036
17052
17053
17050
17046
17053
17057
17058
17077
17081
17070
17069
17071
17068
17068
17073
17078
17087
17134
17055
17046
17056
17062
17071
17081
17083
17073
17066
17068
17076
17067
17071
17073
17081
17085
17091
17087
17111
17124
17050
17043
17045
17053
17055
17067
17081
17068
17074
17080
17085
17093
17047
17050
17057
17052
17045
17060
17068
17071
17071
17061
17066
17074
17081
17087
17055
17046
17058
17051
17051
17063
17073
17066
17073
17078
17077
17076
17066
17076
17071
17063
17068
17061
17059
17064
17063
17065
17070
17071
17062
17079
17079
17068
17072
17057
17061
17065
17067
17071
17063
17073
17072
17078
17062
17070
17071
17076
17074
17084
17080
17077
17088
17047
17044
17045
17038
17042
17041
17039
17043
17041
17040
17043
17036
17047
17040
17130
17098
17086
17081
17083
17086
17085
17079
17081
17073
17077
17079
17075
17069
17071
17065
17063
17061
17056
17057
17071
17073
17074
17119
17045
17049
17054
17054
17050
17063
17078
17094
17038
17039
17039
17038
17034
17037
17040
17039
17046
17044
17038
17034
17041
17041
17039
17066
17123
17084
17086
17094
17117
17087
17078
17082
17037
17037
17040
17039
17045
17060
17054
17055
17050
17055
17062
17050
17063
17054
17052
17052
17049
17039
17047
17051
17061
17063
17128
17037
17036
17036
17041
17042
17036
17038
17038
17039
17046
17054
17055
17047
17057
17047
17055
17048
17055
17068
17076
17079
17094
17092
17116
17036
17031
17039
17031
17033
17032
17039
17059
17061
17041
17044
17052
17060
17080
17108
17063
17028
17039
17040
17044
17060
17051
17054
17044
17055
17062
17069
17069
17073
17067
17064
17071
17071
17077
17074
17066
17067
17065
17062
17063
17059
17055
17055
17044
17038
17038
17061
17038
17044
17033
17028
17025
17033
17039
17036
17041
17042
17042
17040
17044
17039
17033
17026
17031
17030
17023
17030
17039
17041
17039
17059
17042
17039
17042
17045
17048
17053
17056
17053
17054
17060
17062
17065
17067
17084
17031
17027
17026
17025
17028
17027
17021
17024
17034
17030
17030
17035
17036
17045
17049
17048
17045
17046
17055
17060
17060
17058
17063
17059
17060
17066
17020
17027
17029
17027
17031
17039
17056
17047
17049
17063
17063
17111
17034
17023
17021
17030
17034
17055
17044
17036
17040
17053
17045
17046
17050
17049
17046
17040
17048
17047
17049
17042
17046
17044
17044
17044
17050
17050
17055
17064
17125
17029
17020
17023
17036
17054
17039
17044
17054
17054
17059
17073
17022
17025
17021
17021
17021
17042
17031
17031
17052
17071
17104
17023
17022
17022
17033
17053
17037
17041
17052
17059
17067
17013
17021
17027
17036
17044
17034
17037
17056
17055
17022
17019
17017
17027
17034
17055
17039
17041
17051
17056
17062
17092
17021
17012
17014
17020
17046
17031
17036
17044
17050
17050
17055
17055
17079
17023
17022
17031
17051
17036
17036
17042
17049
17052
17052
17116
17015
17014
17020
17037
17038
17036
17042
17044
17047
17053
17057
17080
17022
17011
17021
17031
17045
17023
17038
17045
17053
17048
17061
17071
17023
17016
17023
17034
17033
17044
17051
17037
17036
17041
17054
17062
17087
17012
17015
17015
17021
17013
17012
17020
17031
17050
17039
17049
17033
17038
17046
17044
17051
17057
17106
17018
17012
17014
17015
17014
17032
17044
17031
17031
17031
17029
17036
17041
17044
17040
17045
17052
17020
17020
17015
17018
17013
17011
17015
17013
17015
17033
17031
17032
17037
17043
17045
17049
17062
17017
17023
17016
17015
17020
17009
17012
17009
17012
17007
17012
17005
17001
17022
17017
17023
17034
17045
17031
17038
17048
17048
17051
17015
17012
17015
17016
17021
17029
17034
17021
17023
17025
17022
17026
17029
17031
17042
17054
17013
17013
17037
17025
17023
17029
17036
17044
17047
17007
17007
17009
17011
17032
17031
17029
17032
17041
17042
17049
17052
17048
17045
17015
17009
17012
17015
17014
17019
17039
17029
17029
17031
17041
17047
17044
17058
17059
17060
17101
17012
17017
17010
17009
17019
17022
17018
17041
17061
17028
17031
17037
17044
17043
17041
17051
17058
17075
17026
17020
17028
17027
17028
17038
17049
17037
17041
17047
17044
17062
17019
17019
17012
17017
17032
17028
17026
17034
17035
17043
17053
17052
17012
17021
17018
17023
17023
17031
17022
17021
17029
17036
17035
17035
17041
17038
17033
17037
17048
17011
17009
17007
17013
17012
17023
17015
17013
17020
17014
17022
17031
17031
17030
17039
17050
17009
17005
17005
17004
17002
17004
17009
17013
17007
17006
17009
17017
17010
17004
17007
17007
17009
17015
17010
17006
17004
17009
17007
17009
17012
17022
17028
17009
17014
17023
17029
17041
17001
16999
16999
16997
17004
17020
17019
17020
17022
17026
17039
17037
17054
17007
17002
17002
17003
17001
17005
16996
17006
17028
17006
17007
17020
17027
17030
17065
16990
16999
17010
16999
16996
17001
17014
17014
17024
17013
17014
17019
17019
17031
16996
16995
16997
17001
17023
17009
17017
17030
17050
16998
16996
17002
17011
17007
17018
17015
17014
17020
17035
17026
17023
17055
16997
16991
16986
16996
17015
17012
17021
17025
17032
17010
17001
16996
17004
17023
17010
17007
17022
17031
17031
17031
17039
16996
17084
16996
16995
16997
16999
17001
17021
17015
17015
17025
17035
17001
16999
16993
16991
17000
17020
17009
17021
17029
17083
16998
17007
17011
17019
17029
17047
17003
17000
17004
17000
16998
17000
16998
16995
16996
16989
16997
16996
16984
16995
16999
16996
16990
16996
17003
17003
16997
17006
16998
16999
16998
16999
16997
16998
17007
17014
17015
17051
16985
17006
17095
16996
16995
16997
16995
16997
16997
16996
17005
17031
17011
17015
17022
17030
17033
17100
16990
16993
16995
17011
16998
17017
17021
17037
17088
16990
17003
17032
17012
17017
17025
17028
17039
16996
16991
16991
17002
17013
17012
17013
17012
17012
17020
17023
17031
16998
16997
16990
16999
16999
16994
16999
17018
17022
17022
16999
17005
17011
17004
17010
17018
17016
17020
17026
17041
16989
16991
16996
17012
17020
17015
17010
16999
17000
17003
17008
17009
17011
17008
17007
17014
16985
16993
17001
17014
16989
16991
16991
16988
16988
16988
16994
17009
16999
17007
17015
17031
17071
16982
16984
17002
17005
17000
17002
17006
17006
17012
17017
17024
17052
16988
17062
17030
17070
16983
16981
16979
16980
16983
16983
16979
16979
16985
17036
17029
17016
17018
17019
17052
17057
16980
16989
16983
16980
16986
16977
16973
16983
16993
17007
16998
17002
17004
17013
17041
16980
16985
16996
16990
16991
16996
17004
17003
17006
17005
16987
16993
16996
16982
16973
16974
16981
16980
16983
16983
16986
16989
16984
16993
16995
17005
17004
16997
16990
16988
16998
17005
17010
17017
17062
17074
16978
16979
16977
16983
16979
16982
16983
16987
16980
17002
17001
17014
16976
16987
16997
17011
16982
16983
16995
17004
17007
17007
17010
17012
17012
17014
17015
17039
16980
16974
16971
16983
16977
16975
16969
16983
16997
16989
16994
17006
17013
17016
17021
17007
17018
17005
17007
17013
17009
17004
17004
17007
16993
16999
16998
16980
16983
16993
16982
17002
16999
17002
16988
16997
16996
16993
16997
16993
16999
17003
17010
17000
16996
16997
16995
16996
16997
16993
16998
17010
17006
17009
17011
16987
16983
16989
17005
17012
16975
16985
16988
16990
16983
16989
16991
16986
16996
17000
16996
16977
16986
16999
17000
17006
17028
16975
16976
16978
16979
16991
16985
16987
16996
16997
17006
17034
16966
16967
16970
16972
16968
16974
16985
16999
16990
16994
16997
17004
17010
17005
17048
16971
16961
16967
16977
16999
16982
16984
16983
16985
16988
16988
16997
16989
16996
16992
16992
16999
16995
16990
16999
17005
17053
16966
16962
16967
16972
16990
16995
16996
16982
16983
16985
16988
16994
16998
17005
17015
17024
17036
16967
16963
16969
16971
16967
16966
16966
16971
16975
16996
16999
16983
16993
16997
17007
17018
17007
17007
17006
17004
17035
17020
17039
16966
17068
16965
16957
16963
16961
16964
16965
16980
16996
16978
16988
16982
16982
16992
16992
16994
17009
16965
16971
16955
16963
16967
16964
16967
16969
16974
16995
16977
16978
16982
16989
16990
17010
16969
16967
16967
16964
16969
16973
16977
16978
16986
16991
16984
16976
16984
16990
16999
16998
16999
17004
17002
17041
16972
16968
16965
16965
16965
16955
16958
16963
16959
16966
16989
16979
16976
16988
16994
16996
17003
17010
17039
17008
17030
16967
16961
16959
16963
16958
16950
16956
16957
16952
16954
16958
16957
16955
17009
16998
16991
16991
16994
16996
16998
16960
16956
16959
16946
16956
16959
16955
16957
16956
16957
16957
16961
16958
16972
16986
16980
16973
16991
16993
17000
16964
16962
16964
16966
16964
16990
16995
16999
16980
16992
17000
17011
17092
16957
16961
16968
16993
17007
16986
16995
16994
17005
17011
17021
17034
17028
17029
17068
17025
16965
16966
16966
16975
16993
16990
16998
16980
16975
16974
16983
16981
16981
16983
16988
16993
16994
16990
16961
16966
16961
16965
16963
16967
16975
16973
16978
16977
16991
16987
16999
16967
16965
16961
16979
16972
16983
16986
16967
16951
16962
16963
16975
16969
16969
16977
16987
16987
16991
16996
16987
16983
16978
16973
16970
16976
16967
16965
16972
16975
16979
16981
16966
16967
16967
16967
16968
16975
16964
16978
16982
16979
16975
16974
16986
16983
16983
16985
16955
16947
16948
16951
16958
16951
16957
16967
16967
16964
16970
16978
16978
16962
16964
16966
16967
16964
16965
16976
16969
16961
16966
16960
16966
16968
16981
16991
16954
16947
16953
16956
16958
16955
16959
16967
16961
16959
16967
16962
16970
16977
16977
16989
16943
16949
16975
16964
16975
16999
16954
16967
16993
16947
16943
16950
16965
16967
16987
16942
16944
16958
16956
16966
16964
16973
17011
16944
16961
16949
16959
16959
16967
16976
16979
16945
16943
16946
16965
16967
16955
16961
16967
16981
16973
16975
16981
16983
16978
16992
16945
16940
16959
16962
16960
16970
16974
16975
16975
16975
16988
17005
16934
16946
16945
16967
16962
16979
17034
16938
16942
16946
16956
16955
16957
16963
16963
16968
16968
16975
17038
16938
16937
16941
16940
16936
16942
16949
16943
16953
16973
16962
16964
16977
16977
16969
16945
16940
16969
16960
16973
16934
16956
16958
16967
16972
16976
16980
17007
16943
16948
16958
16962
16968
16941
16977
16961
16972
16938
16966
16940
16958
16935
16956
17035
16959
16977
16962
16986
16996
16949
16938
16943
16945
16951
16965
16953
16966
16967
16978
16975
17009
16935
16937
16935
16938
16948
16948
16967
16949
16959
16968
16964
16962
16970
16977
16937
16933
16934
16943
16949
16959
16964
16965
16930
16935
16933
16933
16937
16946
16967
16950
16950
16956
16958
16961
16966
16980
16932
16930
16934
16926
16928
16926
16929
16929
16936
16963
16943
16954
16960
16975
16936
16934
16930
16928
16928
16935
16934
16929
16929
16929
16952
16943
16943
16951
16958
16949
16956
16945
16943
16940
16944
16949
16955
16943
16957
17004
16922
16923
16919
16928
16945
16940
16942
16946
16951
16961
16962
16973
16997
16931
16931
16926
16929
16937
16950
16939
16947
16943
16957
16955
16949
16967
16926
16924
16923
16924
16931
16948
16949
16939
16933
16939
16942
16934
16935
16932
16937
16938
16951
16963
16919
16919
16922
16927
16930
16942
16937
16947
16969
16926
16923
16923
16927
16943
16933
16932
16932
16934
16943
16944
16946
16970
17001
16916
16912
16929
16939
16948
16949
16936
16934
16941
16943
16943
16953
16968
16919
16929
16935
16919
16932
16918
16942
16949
16917
16945
16919
16940
16924
16935
16924
16935
16983
16936
16919
16912
16911
16918
16922
16938
16926
16932
16930
16932
16924
16938
16934
16922
16917
16918
16917
16919
16919
16922
16942
16930
16933
16936
16943
16948
16948
16987
16908
16911
16926
16930
16942
16948
16931
16929
16929
16945
16942
16921
16935
16930
16941
16940
16924
16932
16932
16933
16937
16931
16935
16929
16935
16935
16932
16934
16935
16935
16935
16939
16943
16943
16946
16946
16939
16935
16937
16930
16926
16932
16937
16934
16930
16933
16935
16940
16945
16935
16929
16926
16925
16927
16929
16931
16931
16927
16933
16935
16933
16945
16953
16951
16947
16955
16953
16948
16999
16919
16918
16910
16911
16910
16925
16932
16924
16927
16935
16934
16948
16956
16912
16911
16917
16934
16937
16924
16935
16940
16946
16964
16905
16908
16918
16909
16922
16916
16939
16903
16934
16927
16932
16937
16947
16956
16916
16914
16910
16913
16911
16906
16903
16906
16905
16934
16923
16933
16932
16933
16946
16997
16911
16909
16906
16921
16915
16931
16934
16925
16930
16932
16934
16940
16940
16947
16996
16903
16903
16902
16906
16925
16933
16933
16941
16929
16929
16938
16908
16915
16924
16929
16903
16902
16903
16908
16919
16934
16918
16919
16925
16925
16926
16927
16924
16925
16920
16926
16927
16922
16929
16926
16921
16918
16921
16924
16920
16927
16932
16937
16942
16901
16909
16903
16903
16912
16913
16916
16914
16933
16919
16925
16931
16935
16945
16938
16940
16972
16896
16901
16903
16903
16903
16910
16927
16933
16924
16932
16933
16932
16927
16914
16919
16914
16915
16919
16916
16918
16918
16922
16921
16929
16933
16923
16921
16913
16910
16922
16915
16907
16927
16933
16903
16914
16924
16910
16908
16907
16903
16899
16912
16912
16932
16917
16920
16922
16922
16930
16927
16934
16932
16935
16928
16933
16985
16903
16903
16918
16931
16897
16911
16924
16902
16911
16926
16949
16909
16910
16902
16907
16911
16906
16894
16898
16910
16897
16902
16902
16906
16938
16916
16935
16941
16946
16945
16959
16947
16948
16949
16958
16942
16939
16934
16929
16946
16923
16911
16904
16914
16916
16944
16981
16919
16917
16912
16915
16917
16922
16925
16924
16926
16927
16927
16923
16929
16928
16935
16933
16935
16937
16932
16927
16931
16931
16928
16934
16933
16929
16930
16927
16923
16918
16928
16929
16919
16911
16908
16907
16922
16919
16903
16899
16900
16901
16905
16908
16908
16914
16927
16915
16919
16911
16919
16917
16924
16924
16931
16931
16922
16933
16930
16933
16935
16980
16980
16943
16903
16938
16929
16930
16934
16941
16889
16890
16903
16924
16906
16910
16921
16929
16928
16930
16969
16895
16895
16901
16893
16897
16897
16889
16899
16894
16892
16895
16919
16903
16911
16914
16918
16929
16933
16947
16895
16892
16893
16897
16903
16907
16910
16919
16919
16903
16911
16902
16915
16901
16907
16903
16908
16913
16916
16924
16933
16895
16893
16895
16902
16901
16901
16912
16900
16903
16903
16905
16901
16903
16903
16908
16900
16903
16901
16908
16907
16913
16915
16916
16917
16914
16905
16913
16911
16919
16920
16922
16919
16920
16948
16948
16978
16975
16886
16887
16887
16890
16889
16895
16891
16887
16889
16885
16886
16887
16883
16886
16887
16881
16881
16988
16973
16932
16991
16884
16890
16886
16889
16888
16897
16891
16887
16889
16890
16885
16909
16914
16915
16914
16912
16895
16902
16902
16903
16906
16919
16917
16922
16925
16923
16922
16915
16907
16902
16909
16914
16914
16910
16909
16911
16925
16901
16892
16887
16887
16889
16893
16891
16887
16887
16890
16886
16887
16889
16897
16889
16884
16884
16954
16930
16884
16881
16910
16917
16913
16918
16908
16910
16902
16910
16905
16916
16895
16883
16881
16959
16919
16910
16907
16889
16884
16931
16916
16907
16903
16903
16899
16915
16903
16891
16893
16884
16886
16922
16866
16877
16884
16916
16900
16894
16903
16884
16878
16879
16878
16873
16914
16905
16899
16899
16888
16884
16878
16922
16896
16901
16877
16876
16876
16872
16932
16908
16900
16892
16887
16881
16878
16881
16914
16900
16892
16898
16882
16873
16871
16876
16915
16903
16895
16893
16877
16889
16873
16871
16871
16923
16921
16870
16874
16879
16873
16879
16910
16900
16901
16889
16885
16881
16894
16879
16872
16865
16869
16865
16870
16870
16870
16870
16911
16900
16899
16887
16882
16881
16887
16873
16863
16865
16865
16910
16902
16908
16893
16887
16889
16880
16882
16882
16875
16869
16870
16864
16871
16865
16935
16857
16903
16903
16891
16888
16869
16879
16870
16871
16865
16867
16869
16868
16936
16914
16903
16898
16898
16889
16878
16880
16886
16874
16860
16863
16902
16890
16882
16878
16897
16869
16870
16869
16870
16871
16919
16897
16897
16886
16877
16893
16868
16863
16861
16855
16865
16900
16903
16892
16893
16879
16877
16876
16879
16883
16877
16876
16879
16884
16878
16871
16882
16879
16868
16861
16861
16862
16857
16866
16870
16869
16877
16879
16885
16876
16882
16874
16877
16879
16876
16877
16865
16887
16871
16857
16855
16853
16919
16896
16889
16881
16885
16883
16878
16874
16871
16877
16879
16879
16869
16869
16863
16855
16853
16859
16859
16945
16948
16914
16902
16892
16901
16900
16895
16895
16895
16896
16898
16910
16903
16855
16849
16951
16853
16859
16849
16851
16855
16919
16895
16883
16875
16871
16871
16883
16863
16867
16860
16855
16855
16853
16885
16895
16887
16881
16868
16871
16865
16865
16879
16885
16880
16868
16869
16871
16873
16871
16877
16860
16864
16869
16875
16868
16868
16881
16899
16847
16849
16854
16882
16878
16885
16879
16872
16869
16872
16863
16865
16855
16859
16852
16857
16855
16853
16847
16850
16849
16899
16883
16881
16881
16879
16885
16876
16871
16873
16879
16860
16850
16850
16848
16855
16924
16889
16881
16877
16875
16869
16870
16868
16870
16874
16883
16891
16892
16923
16852
16871
16884
16848
16879
16882
16859
16855
16885
16849
16870
16852
16862
16882
16855
16882
16854
16876
16857
16866
16857
16865
16868
16870
16869
16883
16903
16847
16847
16844
16853
16850
16874
16864
16869
16885
16885
16901
16850
16855
16852
16855
16857
16879
16862
16870
16879
16867
16877
16887
16850
16844
16848
16861
16874
16873
16890
16928
16851
16857
16851
16849
16858
16878
16873
16862
16861
16860
16870
16867
16883
16878
16883
16876
16877
16874
16884
16883
16881
16890
16904
16846
16844
16849
16898
16911
16895
16882
16891
16887
16902
16929
16846
16839
16892
16847
16850
16847
16847
16853
16849
16853
16846
16847
16849
16855
16847
16854
16855
16869
16858
16857
16857
16868
16871
16879
16881
16893
16846
16838
16847
16849
16844
16863
16873
16860
16859
16863
16855
16861
16852
16865
16854
16866
16871
16871
16887
16899
16844
16846
16847
16860
16860
16860
16869
16874
16881
16932
16850
16840
16843
16850
16844
16845
16851
16850
16849
16849
16852
16851
16864
16892
16886
16874
16884
16896
16897
17076
16843
16848
16857
16894
16875
16869
16870
16879
16876
16878
16876
16875
16871
16878
16876
16877
16876
16874
16877
16872
16869
16870
16871
16873
16871
16873
16875
16871
16874
16870
16866
16867
16870
16869
16865
16869
16876
16886
16843
16847
16839
16837
16838
16843
16842
16845
16847
16846
16840
16846
16854
16845
16845
16849
16842
16836
16836
16836
16839
16838
16843
16837
16915
16925
16837
16838
16852
16887
16874
16870
16868
16860
16858
16851
16863
16862
16868
16863
16855
16842
16840
16835
16841
16837
16838
16836
16835
16839
16841
16839
16841
16843
16836
16838
16839
16836
16916
16914
16830
16839
16831
16833
16833
16903
16925
16837
16837
16833
16836
16837
16839
16842
16840
16835
16895
16871
16861
16856
16853
16849
16855
16858
16853
16851
16849
16849
16848
16849
16854
16852
16852
16851
16846
16841
16844
16845
16844
16844
16839
16857
16855
16847
16847
16839
16836
16836
16834
16903
16868
16865
16861
16858
16850
16847
16869
16844
16835
16834
16829
16831
16871
16871
16871
16867
16868
16862
16855
16859
16855
16854
16863
16858
16855
16862
16871
16862
16889
16839
16829
16828
16831
16828
16833
16836
16837
16859
16859
16850
16849
16859
16863
16853
16866
16863
16860
16860
16860
16866
16869
16871
16895
16826
16830
16831
16834
16837
16839
16928
16920
16913
16889
16929
16890
16869
16865
16861
16865
16861
16859
16860
16850
16844
16855
16869
16847
16870
16852
16854
16854
16852
16862
16866
16855
16852
16855
16846
16847
16850
16857
16855
16860
16866
16866
16860
16868
16869
16862
16863
16869
16876
16876
16877
16885
16916
16897
16887
16885
16828
16833
16833
16822
16847
16845
16853
16857
16865
16874
16869
16871
16880
16933
16838
16923
16839
16838
16915
16832
16841
16830
16831
16831
16830
16825
16833
16830
16828
16833
16837
16834
16831
16836
16833
16832
16843
16836
16831
16830
16833
16833
16833
16828
16832
16832
16828
16831
16826
16836
16830
16837
16834
16834
16837
16833
16833
16830
16829
16830
16835
16829
16852
16834
16839
16849
16852
16838
16844
16851
16850
16858
16870
16903
16826
16831
16830
16830
16829
16829
16818
16823
16827
16854
16865
16855
16875
16823
16833
16841
16842
16841
16837
16841
16846
16839
16836
16845
16839
16847
16850
16830
16836
16839
16845
16850
16835
16831
16823
16826
16826
16826
16825
16836
16826
16824
16828
16870
16864
16862
16857
16855
16855
16857
16917
16821
16877
16855
16854
16853
16844
16844
16839
16841
16839
16841
16844
16840
16829
16835
16827
16820
16817
16857
16854
16852
16848
16849
16848
16855
16857
16857
16862
16871
16889
16822
16826
16823
16815
16822
16818
16813
16815
16821
16808
16815
16817
16813
16826
16847
16852
16852
16847
16849
16834
16832
16831
16839
16842
16849
16854
16853
16855
16811
16812
16815
16813
16842
16916
16893
16819
16821
16817
16826
16819
16820
16903
16820
16819
16903
16818
16814
16817
16811
16815
16812
16817
16817
16821
16821
16836
16838
16840
16843
16841
16844
16843
16842
16849
16865
16813
16812
16817
16809
16813
16818
16821
16845
16835
16831
16838
16837
16838
16837
16847
16849
16879
16870
16815
16807
16815
16822
16839
16839
16853
16860
16872
16869
16882
16903
16901
16895
16868
16860
16870
16900
16817
16890
16815
16809
16812
16813
16809
16812
16815
16819
16813
16828
16831
16832
16845
16836
16837
16842
16838
16843
16844
16837
16839
16831
16823
16828
16825
16823
16827
16826
16828
16833
16825
16828
16830
16831
16836
16833
16836
16836
16844
16839
16839
16847
16849
16894
16807
16807
16903
16809
16807
16804
16813
16810
16811
16817
16837
16823
16830
16825
16839
16850
16845
16876
16865
16851
16842
16843
16847
16807
16807
16806
16809
16809
16805
16819
16812
16811
16812
16812
16808
16903
16846
16860
16899
16799
16804
16807
16804
16809
16825
16827
16834
16829
16823
16823
16821
16823
16821
16823
16817
16822
16828
16825
16830
16827
16828
16829
16828
16827
16828
16831
16823
16825
16826
16837
16845
16839
16841
16836
16836
16837
16841
16842
16835
16834
16839
16838
16857
16797
16801
16805
16804
16806
16806
16806
16807
16812
16820
16815
16823
16831
16837
16828
16837
16871
16799
16799
16800
16805
16805
16806
16810
16809
16807
16813
16814
16811
16807
16806
16815
16810
16800
16801
16797
16791
16792
16799
16796
16802
16810
16807
16823
16823
16812
16816
16822
16830
16818
16822
16828
16829
16828
16828
16831
16833
16825
16831
16825
16828
16835
16833
16822
16829
16831
16820
16828
16831
16831
16837
16842
16830
16829
16826
16832
16826
16801
16798
16793
16803
16798
16810
16815
16820
16816
16820
16816
16819
16815
16821
16816
16826
16838
16806
16791
16798
16819
16805
16811
16815
16822
16843
16795
16796
16806
16821
16807
16812
16820
16815
16814
16820
16827
16831
16855
16830
16793
16791
16791
16796
16805
16801
16823
16806
16812
16818
16819
16818
16817
16824
16833
16863
16796
16795
16791
16786
16793
16800
16807
16817
16811
16805
16804
16807
16817
16805
16810
16809
16807
16819
16811
16807
16809
16807
16810
16813
16806
16823
16823
16821
16821
16830
16856
16839
16788
16796
16793
16797
16788
16793
16799
16794
16791
16788
16789
16799
16837
16836
16821
16823
16816
16823
16823
16828
16824
16829
16828
16823
16821
16822
16822
16815
16814
16836
16832
16836
16822
16833
16827
16828
16837
16820
16822
16843
16837
16830
16824
16823
16813
16806
16809
16804
16805
16805
16801
16805
16801
16801
16803
16866
16831
16830
16832
16830
16833
16829
16827
16824
16824
16835
16805
16793
16802
16799
16796
16799
16806
16807
16809
16807
16805
16812
16818
16823
16826
16828
16820
16818
16815
16808
16809
16810
16813
16798
16796
16797
16797
16788
16806
16807
16802
16810
16811
16812
16816
16801
16809
16819
16819
16811
16801
16805
16802
16793
16804
16803
16801
16806
16801
16801
16801
16804
16808
16814
16801
16805
16805
16799
16815
16794
16794
16801
16788
16788
16785
16782
16799
16790
16791
16797
16807
16793
16803
16797
16806
16812
16819
16826
16818
16815
16812
16815
16814
16807
16799
16799
16797
16797
16796
16813
16807
16796
16795
16784
16790
16791
16800
16805
16805
16802
16812
16799
16807
16804
16805
16811
16785
16798
16796
16789
16796
16798
16799
16797
16797
16800
16804
16806
16798
16802
16797
16797
16799
16805
16804
16801
16806
16815
16838
16829
16785
16775
16780
16782
16785
16786
16785
16782
16785
16783
16787
16786
16788
16780
16784
16788
16797
16791
16798
16792
16797
16803
16802
16799
16805
16801
16797
16801
16796
16788
16805
16798
16788
16787
16779
16783
16802
16807
16792
16790
16796
16799
16803
16805
16804
16809
16815
16838
16791
16787
16782
16799
16798
16798
16807
16800
16791
16797
16803
16806
16799
16806
16813
16819
16822
16839
16788
16788
16787
16782
16785
16781
16781
16796
16798
16809
16809
16805
16809
16810
16809
16815
16801
16799
16798
16791
16785
16788
16782
16781
16783
16783
16785
16785
16793
16803
16791
16801
16799
16806
16818
16837
16783
16779
16793
16816
16807
16806
16821
16818
16779
16775
16778
16790
16792
16796
16799
16815
16828
16773
16784
16795
16815
16778
16807
16796
16801
16807
16819
16836
16777
16777
16775
16780
16780
16801
16790
16793
16785
16797
16790
16801
16804
16817
16862
16779
16781
16791
16797
16789
16791
16792
16803
16772
16767
16772
16805
16793
16794
16805
16857
16769
16775
16773
16774
16783
16780
16797
16783
16790
16790
16789
16789
16794
16803
16845
16761
16766
16765
16772
16783
16791
16790
16790
16788
16789
16793
16796
16792
16799
16774
16775
16767
16766
16772
16788
16779
16787
16797
16829
16774
16771
16788
16777
16783
16791
16787
16793
16796
16797
16800
16764
16765
16766
16779
16787
16787
16780
16785
16805
16812
16764
16767
16778
16799
16785
16794
16799
16771
16767
16774
16787
16781
16791
16855
16764
16762
16769
16775
16783
16788
16788
16800
16762
16765
16767
16780
16793
16774
16780
16796
16797
16759
16761
16767
16765
16765
16785
16793
16775
16771
16786
16791
16802
16764
16766
16774
16774
16783
16789
16769
16780
16780
16794
16852
16762
16762
16765
16775
16781
16772
16778
16783
16787
16797
16814
16766
16769
16772
16778
16788
16780
16775
16769
16780
16787
16793
16785
16756
16761
16765
16773
16788
16791
16766
16784
16764
16787
16800
16767
16779
16817
16763
16793
16776
16793
16755
16757
16780
16776
16778
16793
16799
16767
16761
16764
16780
16780
16779
16796
16757
16756
16762
16788
16771
16775
16780
16796
16807
16850
16759
16770
16775
16775
16794
16837
16759
16765
16787
16773
16779
16796
16858
16757
16751
16758
16787
16775
16783
16804
16764
16769
16773
16779
16789
16802
16767
16761
16761
16785
16775
16783
16793
16757
16750
16763
16783
16768
16774
16781
16791
16757
16758
16783
16771
16782
16799
16761
16767
16785
16769
16783
16793
16762
16751
16756
16765
16783
16769
16787
16793
16753
16746
16758
16768
16767
16759
16777
16789
16769
16773
16781
16790
16754
16751
16758
16767
16769
16773
16769
16770
16774
16782
16791
16831
16751
16756
16780
16771
16779
16781
16793
16748
16746
16753
16754
16757
16777
16770
16774
16775
16776
16779
16793
16840
16755
16758
16777
16781
16767
16768
16768
16775
16782
16805
16747
16755
16749
16772
16779
16769
16770
16782
16793
16759
16753
16757
16757
16772
16771
16774
16785
16801
16747
16750
16754
16775
16768
16778
16826
16748
16763
16778
16769
16779
16784
16813
16757
16759
16761
16759
16775
16778
16760
16766
16773
16782
16783
16788
16804
16749
16749
16753
16756
16767
16764
16774
16781
16797
16757
16749
16745
16772
16765
16774
16791
16837
16742
16750
16777
16768
16775
16823
16750
16756
16774
16772
16777
16783
16746
16746
16753
16775
16753
16767
16779
16815
16744
16743
16757
16761
16775
16823
16745
16751
16750
16754
16774
16768
16773
16777
16799
16745
16741
16746
16774
16761
16775
16807
16743
16743
16754
16770
16767
16773
16780
16750
16750
16748
16759
16771
16767
16779
16783
16743
16746
16753
16757
16763
16774
16784
16745
16740
16756
16759
16775
16778
16789
16749
16747
16759
16767
16753
16763
16781
16783
16738
16741
16740
16749
16760
16765
16774
16785
16838
16749
16743
16773
16766
16770
16775
16780
16744
16744
16772
16757
16767
16776
16745
16744
16767
16763
16761
16770
16785
16750
16747
16748
16772
16758
16759
16757
16772
16775
16782
16775
16742
16742
16741
16736
16745
16751
16763
16763
16769
16781
16781
16775
16777
16773
16780
16745
16740
16743
16743
16741
16739
16756
16765
16759
16762
16765
16783
16790
16738
16743
16758
16777
16753
16759
16773
16775
16779
16739
16740
16740
16747
16766
16762
16759
16760
16769
16770
16775
16775
16779
16799
16749
16743
16736
16740
16739
16737
16743
16738
16740
16743
16762
16761
16772
16755
16758
16777
16777
16780
16777
16777
16788
16783
16778
16779
16804
16803
16740
16741
16734
16741
16766
16751
16754
16755
16764
16766
16772
16774
16772
16774
16771
16772
16770
16769
16769
16767
16765
16761
16758
16761
16764
16775
16777
16786
16823
16746
16740
16746
16753
16762
16764
16778
16767
16782
16796
16804
16748
16740
16744
16763
16793
16773
16779
16793
16789
16796
16797
16792
16799
16799
16804
16810
16837
16757
16758
16752
16758
16764
16767
16767
16769
16791
16757
16750
16750
16749
16749
16751
16759
16751
16747
16759
16747
16745
16744
16743
16745
16749
16755
16744
16741
16743
16738
16748
16764
16764
16765
16769
16767
16764
16767
16754
16755
16758
16759
16759
16759
16759
16776
16771
16788
16782
16773
16789
16775
16779
16779
16778
16772
16769
16775
16739
16740
16741
16738
16739
16751
16753
16740
16745
16751
16745
16761
16759
16751
16750
16750
16739
16743
16737
16735
16741
16739
16734
16738
16735
16730
16826
16741
16726
16733
16734
16735
16804
16827
16805
16745
16809
16773
16765
16765
16768
16769
16772
16773
16768
16769
16780
16772
16761
16759
16755
16755
16757
16748
16755
16754
16753
16755
16754
16751
16745
16759
16745
16743
16742
16743
16738
16758
16756
16739
16742
16740
16729
16734
16734
16729
16736
16739
16742
16743
16748
16749
16750
16757
16758
16737
16740
16742
16740
16753
16739
16751
16756
16759
16757
16759
16763
16763
16765
16749
16735
16735
16721
16727
16727
16724
16724
16728
16727
16725
16734
16724
16729
16732
16729
16735
16737
16729
16734
16735
16730
16729
16730
16735
16733
16748
16756
16742
16748
16753
16757
16765
16767
16782
16818
16740
16737
16731
16734
16742
16744
16765
16751
16746
16742
16740
16750
16747
16750
16748
16747
16753
16751
16753
16755
16756
16754
16756
16748
16751
16749
16753
16775
16734
16755
16753
16760
16767
16766
16753
16755
16756
16753
16767
16769
16775
16776
16773
16772
16799
16813
16812
16799
16774
16765
16769
16772
16771
16775
16807
16793
16796
16789
16775
16772
16792
16788
16732
16738
16738
16732
16743
16734
16724
16737
16735
16735
16740
16755
16749
16756
16765
16730
16729
16732
16733
16731
16731
16730
16722
16727
16732
16730
16726
16723
16727
16745
16739
16739
16742
16743
16748
16757
16778
16716
16726
16728
16731
16731
16742
16751
16734
16735
16734
16747
16756
16713
16715
16721
16717
16714
16733
16739
16726
16735
16739
16743
16745
16742
16742
16744
16744
16741
16743
16753
16728
16716
16708
16734
16732
16727
16727
16739
16734
16735
16742
16747
16746
16755
16791
16719
16712
16713
16725
16717
16726
16745
16729
16730
16736
16747
16758
16771
16708
16714
16718
16721
16731
16730
16739
16740
16735
16748
16765
16781
16757
16751
16746
16738
16740
16735
16735
16732
16729
16734
16732
16725
16719
16732
16738
16738
16739
16739
16737
16741
16737
16743
16743
16804
16708
16710
16710
16711
16711
16711
16717
16713
16717
16712
16712
16715
16711
16710
16709
16710
16703
16712
16729
16732
16718
16724
16735
16744
16753
16758
16772
16753
16772
16716
16721
16710
16713
16711
16708
16710
16709
16722
16736
16719
16724
16738
16743
16742
16747
16711
16709
16712
16739
16724
16726
16731
16740
16749
16707
16706
16709
16718
16718
16729
16735
16747
16704
16705
16711
16729
16731
16725
16733
16738
16742
16743
16707
16703
16705
16707
16708
16722
16716
16719
16713
16711
16731
16725
16719
16714
16708
16719
16725
16741
16732
16735
16730
16711
16706
16713
16719
16726
16727
16727
16708
16719
16720
16724
16729
16732
16737
16743
16799
16705
16705
16710
16702
16706
16703
16699
16695
16703
16698
16700
16707
16695
16699
16699
16690
16796
16775
16789
16702
16702
16700
16698
16698
16695
16703
16743
16738
16741
16753
16751
16736
16785
16698
16697
16700
16703
16707
16700
16710
16703
16697
16707
16703
16700
16701
16699
16696
16699
16693
16698
16696
16696
16703
16699
16699
16702
16705
16703
16703
16700
16703
16701
16695
16695
16697
16694
16693
16695
16695
16699
16701
16703
16716
16724
16719
16729
16730
16727
16721
16716
16709
16714
16705
16700
16695
16696
16697
16702
16696
16698
16702
16695
16705
16710
16707
16713
16717
16713
16716
16721
16721
16717
16720
16722
16724
16725
16726
16722
16727
16724
16724
16723
16721
16714
16724
16723
16716
16725
16727
16733
16732
16738
16732
16733
16694
16689
16688
16690
16690
16695
16709
16711
16721
16715
16716
16718
16725
16712
16713
16710
16729
16727
16727
16729
16734
16724
16719
16722
16709
16703
16717
16709
16703
16700
16698
16698
16699
16692
16697
16697
16734
16728
16730
16724
16724
16721
16719
16709
16707
16709
16714
16717
16735
16687
16710
16708
16722
16697
16693
16692
16699
16697
16690
16722
16687
16743
16731
16723
16716
16704
16703
16706
16707
16698
16719
16713
16719
16707
16686
16688
16682
16727
16716
16708
16704
16718
16696
16684
16682
16687
16689
16680
16694
16687
16728
16727
16716
16711
16709
16702
16711
16706
16709
16707
16718
16718
16775
16684
16708
16705
16724
16684
16684
16684
16690
16696
16710
16708
16711
16716
16723
16690
16689
16682
16690
16705
16705
16707
16717
16716
16686
16683
16685
16699
16710
16699
16706
16719
16707
16695
16699
16706
16714
16711
16695
16700
16692
16687
16694
16700
16706
16692
16698
16697
16701
16706
16703
16703
16706
16700
16702
16706
16710
16707
16703
16705
16703
16696
16701
16699
16695
16695
16703
16703
16696
16703
16709
16713
16713
16710
16704
16706
16703
16707
16705
16709
16705
16709
16701
16703
16707
16708
16716
16771
16676
16680
16684
16681
16686
16695
16691
16710
16706
16688
16695
16694
16694
16695
16697
16708
16713
16715
16744
16678
16679
16679
16686
16678
16677
16679
16678
16677
16703
16703
16687
16689
16691
16692
16692
16696
16699
16704
16708
16705
16702
16711
16716
16677
16677
16679
16678
16690
16707
16689
16699
16703
16733
16671
16671
16663
16665
16675
16673
16677
16676
16682
16678
16680
16683
16697
16688
16688
16693
16686
16687
16693
16695
16694
16698
16697
16701
16698
16704
16707
16705
16697
16699
16708
16703
16701
16703
16709
16699
16708
16706
16706
16700
16697
16699
16706
16700
16703
16708
16693
16674
16666
16731
16670
16677
16685
16687
16690
16685
16683
16685
16689
16698
16708
16735
16668
16672
16665
16673
16674
16682
16717
16703
16716
16714
16743
16676
16671
16670
16674
16682
16690
16702
16719
16735
16805
16678
16677
16679
16676
16688
16718
16705
16715
16711
16725
16724
16727
16678
16686
16684
16686
16688
16692
16697
16703
16707
16676
16679
16688
16698
16692
16697
16703
16702
16721
16682
16679
16678
16676
16689
16681
16689
16695
16699
16697
16707
16730
16673
16673
16678
16694
16690
16691
16692
16702
16668
16675
16675
16685
16689
16679
16684
16688
16684
16693
16696
16699
16705
16743
16666
16670
16685
16694
16690
16690
16693
16709
16711
16664
16668
16693
16682
16681
16687
16697
16749
16660
16660
16660
16669
16682
16688
16684
16682
16700
16663
16671
16690
16676
16685
16694
16721
16661
16661
16669
16682
16675
16684
16692
16703
16663
16661
16668
16673
16680
16676
16689
16666
16663
16661
16664
16668
16678
16681
16686
16696
16664
16657
16661
16668
16681
16687
16677
16680
16689
16690
16699
16660
16661
16658
16661
16677
16671
16671
16691
16700
16748
16665
16662
16657
16660
16668
16666
16674
16686
16679
16679
16681
16695
16745
16704
16693
16691
16685
16677
16679
16676
16687
16692
16689
16669
16665
16667
16687
16677
16679
16687
16690
16695
16659
16656
16648
16663
16668
16680
16660
16674
16684
16684
16687
16710
16661
16660
16674
16679
16684
16695
16719
16655
16653
16660
16663
16658
16684
16677
16675
16676
16684
16692
16690
16706
16719
16666
16667
16664
16666
16668
16679
16677
16677
16686
16684
16690
16693
16695
16698
16724
16663
16658
16657
16668
16682
16685
16685
16687
16690
16699
16719
16659
16661
16658
16668
16679
16679
16683
16689
16702
16666
16663
16669
16684
16674
16685
16690
16684
16695
16701
16698
16700
16711
16700
16698
16693
16702
16698
16705
16696
16696
16701
16698
16697
16695
16698
16700
16700
16665
16666
16663
16665
16673
16688
16673
16675
16688
16740
16650
16659
16661
16672
16691
16678
16687
16680
16693
16661
16663
16660
16660
16671
16674
16679
16684
16707
16657
16654
16647
16661
16674
16678
16686
16690
16713
16657
16662
16664
16661
16674
16678
16689
16728
16652
16658
16668
16690
16695
16647
16650
16661
16684
16667
16674
16679
16699
16653
16653
16655
16660
16656
16669
16671
16663
16665
16667
16674
16684
16740
16645
16647
16645
16652
16662
16655
16650
16660
16648
16644
16655
16662
16664
16655
16665
16657
16660
16662
16673
16688
16646
16637
16647
16665
16663
16666
16667
16671
16671
16674
16680
16647
16647
16673
16659
16663
16665
16663
16657
16658
16663
16658
16662
16676
16675
16658
16663
16673
16676
16677
16655
16663
16644
16644
16645
16655
16667
16674
16669
16671
16664
16652
16659
16660
16657
16663
16665
16651
16643
16644
16642
16647
16676
16666
16660
16661
16653
16647
16671
16663
16661
16675
16679
16646
16641
16646
16680
16680
16668
16662
16663
16667
16648
16638
16639
16641
16684
16668
16663
16659
16658
16669
16649
16651
16647
16650
16641
16641
16650
16639
16639
16640
16636
16637
16639
16637
16635
16636
16634
16644
16667
16727
16639
16635
16638
16649
16672
16665
16674
16641
16644
16642
16639
16636
16634
16631
16633
16629
16638
16654
16651
16655
16656
16673
16675
16642
16641
16641
16645
16643
16647
16666
16657
16660
16671
16672
16688
16727
16636
16638
16632
16643
16644
16636
16643
16652
16653
16667
16663
16651
16651
16658
16663
16659
16659
16670
16676
16631
16633
16636
16635
16636
16639
16639
16641
16639
16645
16647
16650
16646
16660
16655
16657
16655
16654
16645
16641
16649
16644
16648
16655
16664
16670
16674
16683
16722
16634
16636
16637
16635
16636
16630
16644
16647
16650
16657
16659
16673
16685
16631
16628
16631
16633
16631
16636
16647
16638
16647
16646
16651
16652
16652
16656
16655
16655
16660
16673
16701
16713
16630
16654
16656
16713
16639
16653
16684
16641
16639
16647
16658
16648
16656
16655
16671
16725
16622
16625
16622
16623
16626
16630
16650
16644
16654
16665
16669
16670
16672
16676
16623
16631
16637
16652
16639
16649
16667
16628
16623
16626
16628
16639
16642
16656
16661
16692
16628
16634
16633
16634
16648
16647
16653
16639
16642
16640
16644
16655
16663
16716
16623
16623
16629
16623
16628
16628
16630
16628
16628
16630
16625
16626
16626
16636
16634
16647
16655
16650
16637
16645
16641
16641
16644
16655
16655
16657
16671
16625
16631
16633
16628
16640
16657
16639
16642
16645
16661
16662
16617
16617
16628
16639
16657
16644
16643
16646
16652
16658
16660
16665
16629
16628
16624
16627
16612
16626
16624
16614
16626
16643
16635
16636
16660
16663
16713
16631
16628
16652
16646
16647
16651
16658
16676
16623
16623
16621
16620
16628
16631
16660
16636
16644
16645
16663
16627
16625
16629
16654
16648
16657
16710
16626
16627
16641
16632
16645
16658
16677
16620
16621
16623
16619
16622
16625
16615
16627
16629
16629
16637
16641
16650
16638
16641
16645
16644
16649
16658
16679
16615
16618
16632
16647
16633
16637
16646
16654
16660
16707
16629
16623
16629
16644
16636
16640
16657
16711
16618
16627
16649
16634
16647
16655
16695
16610
16628
16644
16656
16633
16646
16644
16638
16654
16662
16667
16712
16618
16622
16615
16634
16638
16642
16645
16653
16656
16660
16719
16621
16623
16623
16623
16626
16623
16709
16663
16655
16647
16644
16652
16650
16652
16650
16654
16662
16694
16660
16660
16659
16661
16657
16660
16663
16717
16627
16619
16621
16631
16641
16632
16635
16650
16667
16621
16619
16623
16619
16626
16641
16651
16634
16638
16645
16645
16635
16656
16619
16612
16614
16619
16645
16631
16637
16642
16647
16655
16671
16622
16621
16623
16620
16629
16639
16632
16642
16641
16647
16654
16614
16612
16618
16618
16617
16636
16645
16649
16636
16637
16653
16691
16625
16619
16618
16627
16619
16623
16636
16647
16629
16629
16644
16642
16638
16644
16637
16645
16651
16657
16654
16681
16621
16615
16614
16611
16615
16618
16615
16609
16617
16614
16614
16614
16614
16612
16618
16618
16620
16621
16633
16635
16625
16625
16611
16616
16617
16607
16614
16611
16612
16685
16655
16651
16637
16638
16636
16638
16631
16650
16652
16655
16691
16705
16695
16694
16682
16677
16700
16617
16614
16607
16615
16613
16607
16615
16623
16612
16618
16615
16616
16620
16618
16623
16629
16631
16634
16634
16623
16626
16623
16627
16634
16647
16643
16655
16711
16705
16614
16619
16687
16666
16666
16663
16675
16656
16654
16646
16645
16649
16647
16647
16710
16613
16605
16610
16618
16610
16613
16619
16615
16634
16631
16633
16630
16638
16645
16640
16645
16644
16653
16676
16663
16653
16651
16663
16607
16615
16617
16616
16619
16627
16636
16636
16636
16636
16642
16651
16650
16641
16641
16628
16630
16637
16639
16643
16651
16676
16676
16677
16730
16612
16621
16620
16619
16621
16621
16616
16629
16626
16624
16626
16623
16640
16642
16654
16658
16645
16656
16669
16680
16695
16638
16630
16629
16636
16640
16639
16638
16635
16637
16643
16649
16653
16668
16621
16613
16622
16623
16619
16624
16621
16621
16629
16618
16618
16622
16614
16621
16625
16639
16617
16614
16616
16627
16636
16636
16623
16631
16637
16635
16641
16646
16670
16685
16615
16614
16607
16613
16614
16607
16611
16614
16613
16619
16623
16638
16627
16628
16628
16631
16636
16638
16632
16632
16639
16633
16637
16622
16625
16625
16643
16633
16623
16623
16626
16632
16631
16628
16624
16629
16635
16636
16637
16646
16644
16649
16607
16610
16610
16607
16618
16628
16635
16630
16631
16643
16652
16617
16612
16621
16612
16615
16635
16629
16621
16633
16631
16635
16632
16637
16639
16638
16642
16639
16643
16634
16636
16634
16631
16633
16639
16631
16630
16629
16643
16643
16644
16603
16610
16615
16637
16625
16629
16632
16632
16639
16663
16622
16608
16615
16614
16626
16627
16636
16625
16620
16623
16633
16640
16643
16651
16659
16666
16610
16607
16599
16607
16608
16611
16620
16632
16631
16628
16623
16624
16617
16629
16647
16668
16607
16599
16599
16602
16607
16628
16634
16629
16631
16632
16645
16647
16676
16610
16612
16606
16607
16605
16614
16603
16614
16621
16620
16636
16622
16623
16634
16655
16616
16613
16630
16639
16626
16625
16634
16646
16655
16702
16612
16609
16601
16610
16612
16620
16639
16623
16633
16635
16647
16661
16655
16658
16689
16612
16610
16618
16610
16606
16609
16614
16606
16623
16636
16636
16620
16618
16625
16643
16631
16633
16642
16628
16625
16636
16640
16647
16661
16612
16607
16604
16608
16599
16613
16620
16637
16622
16626
16631
16631
16629
16628
16633
16652
16661
16615
16602
16608
16616
16614
16631
16620
16617
16619
16631
16630
16628
16636
16648
16703
16610
16610
16613
16607
16610
16612
16617
16631
16631
16609
16617
16622
16616
16621
16617
16614
16616
16622
16621
16626
16626
16626
16627
16620
16617
16616
16619
16627
16628
16612
16618
16623
16632
16597
16599
16599
16598
16612
16629
16621
16615
16618
16619
16621
16617
16620
16615
16621
16623
16615
16611
16613
16615
16618
16620
16623
16637
16599
16610
16601
16606
16615
16622
16619
16620
16631
16635
16666
16596
16599
16594
16595
16682
16639
16636
16633
16640
16649
16686
16599
16598
16599
16588
16597
16673
16655
16668
16596
16597
16594
16590
16588
16591
16597
16593
16605
16610
16604
16602
16624
16625
16623
16608
16614
16622
16616
16625
16624
16630
16627
16625
16628
16631
16662
16588
16589
16599
16591
16593
16608
16617
16621
16618
16606
16603
16605
16610
16607
16607
16606
16605
16613
16620
16623
16636
16590
16589
16585
16590
16598
16594
16594
16610
16615
16607
16612
16616
16617
16617
16625
16665
16583
16665
16582
16589
16585
16593
16613
16612
16610
16607
16610
16614
16618
16654
16587
16582
16599
16601
16598
16601
16601
16602
16615
16579
16587
16590
16607
16612
16606
16605
16604
16618
16620
16588
16585
16593
16594
16598
16614
16622
16579
16582
16585
16611
16593
16604
16612
16641
16587
16582
16600
16596
16611
16615
16599
16612
16623
16662
16581
16573
16581
16577
16589
16593
16592
16603
16613
16626
16574
16580
16592
16611
16601
16607
16611
16659
16581
16587
16602
16594
16597
16601
16611
16617
16631
16580
16580
16581
16590
16599
16599
16612
16599
16599
16609
16610
16614
16652
16579
16579
16576
16583
16589
16591
16591
16604
16607
16593
16597
16599
16591
16606
16615
16615
16618
16631
16672
16575
16576
16576
16577
16604
16590
16604
16621
16579
16577
16609
16605
16662
16589
16597
16599
16607
16626
16580
16581
16579
16570
16583
16604
16591
16596
16615
16627
16674
16577
16577
16580
16582
16584
16594
16604
16574
16581
16602
16653
16570
16582
16576
16582
16604
16590
16593
16598
16600
16614
16611
16619
16623
16581
16578
16590
16607
16589
16597
16612
16601
16567
16573
16576
16575
16585
16602
16604
16593
16596
16609
16655
16576
16584
16605
16589
16594
16602
16617
16616
16565
16573
16592
16602
16589
16590
16597
16610
16575
16577
16576
16576
16591
16607
16596
16591
16591
16596
16592
16605
16612
16617
16625
16571
16571
16575
16591
16598
16598
16604
16614
16646
16580
16576
16582
16580
16591
16604
16592
16599
16591
16609
16614
16570
16566
16572
16593
16588
16589
16597
16596
16604
16609
16618
16577
16572
16577
16577
16573
16579
16580
16599
16589
16588
16588
16599
16607
16613
16571
16574
16574
16578
16578
16582
16595
16599
16591
16599
16603
16601
16607
16609
16570
16569
16588
16588
16597
16600
16605
16637
16570
16575
16581
16586
16595
16590
16597
16599
16600
16607
16614
16616
16567
16569
16567
16574
16569
16570
16574
16575
16572
16573
16583
16594
16583
16588
16593
16596
16599
16605
16609
16607
16569
16567
16565
16567
16576
16572
16568
16567
16567
16573
16578
16580
16596
16587
16586
16589
16593
16590
16595
16594
16595
16592
16590
16598
16594
16604
16604
16613
16611
16618
16658
16575
16575
16574
16573
16573
16570
16573
16569
16565
16574
16570
16577
16591
16586
16584
16593
16613
16569
16573
16572
16582
16598
16583
16591
16587
16594
16597
16591
16596
16564
16574
16582
16581
16597
16603
16582
16580
16591
16605
16625
16572
16571
16575
16562
16575
16585
16588
16590
16609
16566
16572
16583
16575
16581
16591
16590
16606
16613
16574
16573
16573
16591
16585
16590
16601
16604
16635
16564
16568
16562
16555
16569
16580
16593
16597
16581
16589
16599
16597
16646
16570
16570
16593
16588
16588
16588
16603
16633
16562
16566
16583
16580
16589
16588
16607
16565
16570
16572
16583
16583
16591
16599
16611
16645
16576
16569
16561
16564
16565
16565
16568
16580
16585
16585
16583
16582
16606
16650
16569
16569
16582
16582
16585
16585
16600
16603
16621
16657
16567
16556
16576
16580
16575
16585
16585
16577
16593
16606
16611
16567
16569
16571
16559
16580
16582
16609
16572
16583
16603
16602
16562
16559
16559
16562
16567
16570
16581
16582
16582
16584
16596
16605
16563
16566
16567
16565
16575
16586
16579
16582
16592
16597
16605
16561
16561
16555
16564
16578
16589
16580
16582
16582
16577
16582
16582
16583
16581
16601
16556
16558
16549
16570
16573
16589
16574
16575
16581
16596
16594
16594
16594
16593
16599
16601
16590
16558
16558
16557
16560
16582
16572
16575
16580
16587
16576
16581
16584
16586
16597
16627
16570
16569
16579
16582
16575
16579
16582
16604
16607
16556
16559
16583
16576
16589
16599
16561
16564
16573
16586
16597
16562
16564
16572
16582
16600
16560
16575
16607
16559
16577
16547
16575
16576
16552
16560
16641
16593
16574
16556
16561
16582
16578
16561
16588
16564
16597
16565
16556
16577
16552
16593
16591
16602
16562
16556
16564
16585
16573
16576
16590
16639
16561
16585
16581
16586
16583
16558
16552
16570
16590
16575
16578
16592
16600
16638
16555
16574
16600
16583
16593
16612
16641
16559
16567
16599
16593
16614
16557
16561
16582
16583
16599
16617
16669
16568
16574
16592
16602
16703
16578
16582
16589
16590
16606
16597
16629
16566
16568
16581
16580
16581
16582
16594
16569
16565
16577
16575
16585
16593
16570
16567
16580
16579
16581
16587
16562
16564
16571
16587
16599
16555
16560
16573
16583
16559
16562
16575
16587
16596
16573
16564
16565
16567
16581
16576
16567
16579
16575
16570
16580
16577
16581
16595
16624
16559
16562
16576
16573
16577
16588
16586
16561
16562
16577
16574
16578
16621
16558
16565
16565
16576
16633
16554
16567
16568
16587
16555
16559
16563
16568
16577
16576
16580
16575
16583
16585
16600
16612
16550
16549
16548
16553
16582
16567
16557
16575
16583
16590
16548
16556
16567
16564
16567
16574
16578
16634
16552
16550
16564
16556
16567
16566
16570
16584
16599
16545
16551
16557
16556
16558
16580
16569
16567
16569
16580
16637
16547
16546
16556
16566
16568
16582
16641
16544
16551
16549
16564
16573
16557
16567
16578
16576
16576
16580
16582
16589
16604
16546
16542
16551
16546
16550
16577
16559
16575
16581
16588
16633
16553
16550
16551
16563
16572
16569
16574
16587
16547
16548
16551
16575
16570
16573
16580
16543
16549
16551
16557
16559
16574
16573
16578
16583
16583
16603
16626
16605
16584
16580
16609
16541
16543
16551
16566
16553
16565
16575
16571
16574
16581
16607
16551
16553
16562
16561
16582
16563
16563
16575
16577
16587
16645
16543
16549
16553
16565
16578
16583
16580
16575
16577
16580
16583
16583
16566
16564
16567
16570
16571
16577
16582
16583
16584
16546
16546
16548
16557
16551
16551
16551
16565
16574
16587
16564
16569
16570
16575
16581
16580
16587
16545
16545
16543
16551
16577
16567
16580
16618
16550
16553
16578
16569
16576
16589
16554
16546
16565
16555
16568
16577
16624
16543
16545
16567
16557
16574
16586
16542
16547
16563
16560
16574
16583
16547
16544
16567
16558
16562
16569
16596
16546
16549
16552
16564
16588
16543
16551
16557
16565
16620
16542
16544
16557
16557
16561
16574
16617
16534
16534
16559
16556
16562
16581
16540
16535
16567
16553
16561
16620
16540
16542
16552
16562
16544
16554
16602
16533
16533
16537
16549
16557
16544
16554
16548
16552
16561
16565
16586
16530
16537
16535
16540
16548
16550
16542
16554
16558
16563
16574
16540
16529
16525
16527
16529
16527
16532
16565
16544
16550
16557
16556
16564
16615
16530
16532
16530
16526
16531
16529
16527
16545
16547
16537
16547
16553
16559
16574
16530
16533
16546
16543
16548
16559
16534
16528
16527
16547
16537
16541
16539
16562
16527
16518
16540
16545
16547
16550
16562
16526
16527
16527
16528
16538
16536
16542
16546
16550
16550
16562
16519
16519
16522
16532
16544
16551
16510
16523
16527
16540
16541
16549
16567
16529
16527
16537
16540
16553
16560
16519
16521
16524
16534
16543
16535
16545
16548
16551
16594
16520
16525
16521
16529
16545
16541
16535
16541
16541
16549
16549
16550
16603
16517
16523
16535
16532
16541
16546
16550
16613
16524
16527
16547
16535
16543
16551
16564
16519
16519
16519
16523
16525
16542
16535
16532
16548
16517
16519
16522
16546
16539
16546
16557
16522
16517
16521
16542
16535
16543
16548
16551
16516
16511
16541
16531
16535
16550
16609
16521
16524
16544
16541
16543
16552
16561
16521
16522
16545
16583
16530
16544
16514
16525
16549
16516
16511
16532
16529
16535
16546
16553
16507
16520
16517
16520
16525
16540
16547
16513
16542
16537
16567
16513
16522
16522
16530
16548
16516
16512
16537
16537
16552
16516
16524
16530
16532
16582
16511
16534
16527
16550
16561
16507
16519
16524
16529
16543
16568
16509
16511
16517
16525
16529
16531
16537
16551
16509
16510
16519
16521
16520
16535
16502
16503
16517
16532
16524
16541
16511
16511
16516
16531
16530
16543
16514
16505
16512
16535
16521
16529
16537
16601
16508
16507
16523
16517
16529
16543
16551
16500
16511
16535
16529
16536
16554
16503
16511
16517
16529
16564
16500
16491
16502
16507
16509
16522
16522
16521
16527
16534
16578
16505
16513
16538
16535
16519
16522
16520
16519
16515
16522
16536
16569
16495
16503
16503
16494
16506
16507
16517
16519
16528
16532
16549
16498
16508
16530
16511
16519
16525
16525
16527
16541
16551
16585
16495
16496
16499
16503
16497
16507
16505
16501
16506
16509
16516
16506
16515
16504
16503
16500
16498
16495
16529
16526
16519
16519
16525
16533
16543
16502
16503
16501
16506
16516
16527
16521
16512
16510
16518
16519
16515
16526
16526
16530
16526
16540
16529
16541
16541
16535
16543
16548
16503
16495
16498
16494
16495
16508
16519
16511
16506
16511
16519
16533
16545
16492
16501
16497
16500
16510
16511
16511
16514
16511
16511
16515
16530
16493
16491
16495
16510
16516
16530
16575
16492
16489
16511
16511
16522
16529
16566
16495
16498
16502
16515
16508
16510
16507
16510
16508
16510
16501
16505
16508
16504
16506
16506
16533
16561
16492
16495
16511
16525
16507
16511
16512
16515
16519
16529
16559
16495
16488
16486
16506
16519
16512
16541
16495
16522
16513
16519
16529
16549
16494
16493
16495
16499
16503
16517
16526
16489
16486
16488
16500
16511
16527
16537
16491
16488
16494
16495
16498
16511
16507
16508
16502
16515
16525
16525
16532
16491
16486
16485
16505
16501
16515
16519
16523
16559
16499
16494
16496
16518
16514
16515
16527
16486
16487
16491
16506
16513
16508
16507
16518
16520
16523
16526
16487
16490
16487
16500
16503
16512
16524
16578
16486
16493
16495
16511
16519
16481
16507
16507
16519
16482
16504
16505
16537
16484
16509
16508
16487
16489
16505
16503
16525
16483
16481
16499
16494
16511
16487
16487
16489
16495
16508
16534
16485
16497
16499
16516
16559
16491
16503
16503
16515
16572
16481
16509
16493
16515
16575
16479
16485
16507
16497
16511
16529
16483
16489
16511
16494
16505
16519
16483
16480
16475
16500
16495
16503
16516
16479
16480
16482
16498
16491
16514
16547
16486
16495
16492
16519
16482
16476
16485
16490
16497
16518
16480
16479
16485
16501
16517
16475
16479
16495
16495
16511
16569
16478
16483
16484
16486
16475
16487
16511
16487
16498
16516
16550
16570
16474
16472
16477
16483
16499
16492
16500
16518
16478
16485
16485
16500
16496
16501
16511
16515
16475
16474
16476
16494
16500
16524
16475
16478
16487
16499
16516
16478
16472
16479
16496
16494
16500
16531
16472
16475
16491
16487
16495
16545
16471
16482
16492
16493
16508
16551
16475
16475
16473
16471
16470
16481
16475
16491
16483
16491
16501
16510
16466
16469
16475
16493
16487
16499
16503
16506
16509
16509
16466
16476
16467
16470
16475
16493
16481
16476
16487
16492
16507
16541
16463
16471
16493
16485
16502
16515
16469
16463
16477
16487
16500
16533
16464
16473
16491
16484
16489
16502
16540
16460
16460
16485
16482
16492
16495
16529
16462
16467
16471
16469
16477
16490
16479
16481
16485
16488
16491
16492
16498
16461
16459
16458
16471
16482
16492
16488
16481
16481
16478
16481
16487
16485
16489
16499
16513
16463
16463
16470
16470
16482
16498
16484
16487
16497
16512
16559
16463
16470
16501
16479
16494
16503
16513
16521
16628
16462
16457
16460
16463
16463
16486
16519
16492
16503
16509
16530
16564
16477
16481
16486
16484
16494
16491
16503
16491
16495
16502
16468
16478
16477
16468
16475
16476
16483
16483
16486
16492
16494
16470
16479
16476
16491
16484
16486
16494
16530
16463
16492
16480
16483
16490
16470
16459
16463
16479
16487
16477
16481
16492
16487
16469
16466
16465
16473
16481
16492
16462
16459
16460
16487
16471
16476
16492
16539
16460
16463
16480
16473
16485
16487
16504
16465
16465
16458
16471
16485
16472
16477
16486
16550
16455
16455
16458
16464
16481
16478
16479
16486
16479
16476
16483
16487
16486
16499
16503
16455
16458
16471
16473
16482
16480
16484
16490
16489
16506
16535
16455
16458
16459
16457
16455
16461
16459
16453
16461
16471
16484
16468
16476
16486
16483
16451
16455
16470
16466
16476
16485
16495
16537
16456
16463
16467
16481
16471
16473
16486
16509
16447
16452
16471
16469
16495
16455
16471
16490
16452
16475
16465
16490
16452
16470
16486
16453
16477
16477
16503
16454
16460
16473
16522
16449
16476
16471
16478
16553
16454
16456
16465
16476
16470
16481
16486
16493
16449
16453
16463
16472
16476
16463
16465
16466
16467
16473
16476
16493
16542
16455
16455
16458
16455
16452
16470
16467
16482
16469
16470
16460
16466
16471
16474
16476
16476
16484
16479
16486
16503
16458
16453
16456
16465
16477
16468
16476
16485
16487
16494
16455
16450
16476
16458
16469
16486
16499
16450
16452
16484
16471
16473
16473
16482
16487
16485
16495
16500
16557
16445
16449
16460
16484
16462
16471
16482
16491
16495
16453
16447
16448
16481
16474
16476
16485
16491
16447
16453
16453
16462
16472
16491
16492
16445
16446
16459
16475
16469
16470
16492
16451
16461
16461
16478
16471
16481
16492
16457
16452
16446
16460
16479
16464
16470
16485
16446
16455
16455
16468
16462
16470
16480
16486
16491
16453
16453
16463
16465
16461
16468
16474
16485
16442
16439
16442
16447
16458
16455
16465
16471
16476
16501
16445
16442
16458
16461
16525
16447
16450
16454
16455
16463
16467
16473
16509
16439
16438
16441
16455
16453
16467
16460
16460
16463
16468
16468
16468
16521
16444
16446
16447
16459
16467
16503
16439
16426
16438
16447
16440
16468
16455
16463
16460
16478
16510
16433
16440
16441
16437
16441
16461
16447
16449
16454
16464
16465
16500
16436
16444
16451
16449
16453
16462
16455
16468
16468
16478
16434
16439
16433
16430
16447
16447
16446
16459
16468
16433
16433
16436
16434
16436
16437
16444
16461
16455
16455
16465
16517
16436
16429
16430
16435
16425
16434
16444
16458
16445
16453
16452
16458
16457
16457
16466
16501
16433
16431
16442
16452
16460
16465
16453
16428
16429
16430
16441
16444
16441
16454
16465
16482
16432
16433
16433
16466
16447
16443
16455
16450
16444
16451
16448
16451
16460
16461
16461
16467
16463
16466
16513
16430
16428
16431
16430
16428
16429
16442
16436
16442
16465
16437
16437
16441
16441
16454
16448
16453
16465
16501
16425
16427
16435
16442
16439
16458
16446
16449
16457
16466
16431
16422
16424
16431
16455
16440
16445
16455
16451
16456
16461
16467
16468
16481
16485
16518
16465
16433
16435
16427
16420
16423
16424
16421
16440
16438
16443
16442
16455
16455
16463
16525
16430
16427
16433
16426
16429
16435
16439
16458
16435
16443
16445
16455
16463
16472
16415
16419
16424
16426
16438
16434
16445
16447
16451
16446
16458
16468
16471
16423
16421
16423
16420
16428
16444
16436
16441
16453
16487
16423
16423
16431
16441
16455
16473
16422
16425
16450
16444
16445
16445
16453
16462
16420
16415
16415
16422
16425
16440
16433
16435
16445
16452
16423
16423
16426
16449
16432
16439
16451
16454
16446
16471
16415
16415
16414
16414
16415
16445
16435
16441
16441
16454
16423
16426
16446
16436
16446
16458
16421
16422
16453
16436
16453
16455
16413
16420
16431
16449
16415
16413
16419
16446
16433
16446
16466
16414
16420
16439
16430
16444
16476
16412
16413
16428
16429
16443
16457
16410
16421
16427
16442
16453
16416
16417
16426
16436
16423
16431
16440
16448
16506
16411
16404
16412
16411
16400
16407
16422
16428
16425
16434
16446
16414
16413
16436
16428
16431
16436
16459
16477
16487
16404
16401
16405
16404
16409
16422
16424
16422
16424
16434
16438
16444
16446
16411
16410
16412
16411
16433
16421
16425
16425
16428
16439
16453
16401
16411
16412
16439
16421
16434
16438
16447
16460
16409
16410
16413
16431
16428
16426
16430
16439
16443
16404
16401
16403
16429
16425
16410
16418
16438
16447
16480
16409
16407
16423
16421
16422
16424
16431
16439
16451
16487
16401
16407
16397
16402
16409
16426
16420
16417
16430
16425
16439
16444
16444
16451
16470
16406
16402
16401
16406
16415
16419
16413
16414
16415
16420
16434
16439
16447
16405
16406
16405
16424
16427
16479
16406
16421
16421
16434
16443
16399
16402
16408
16417
16421
16437
16455
16397
16405
16404
16397
16404
16411
16428
16421
16429
16437
16397
16397
16399
16407
16421
16415
16420
16430
16452
16393
16399
16412
16412
16417
16422
16427
16441
16400
16398
16397
16410
16424
16410
16423
16441
16391
16391
16395
16398
16420
16407
16428
16429
16424
16415
16415
16420
16422
16419
16426
16429
16437
16396
16393
16397
16411
16413
16427
16389
16395
16396
16409
16423
16431
16436
16395
16393
16406
16425
16415
16417
16430
16460
16389
16385
16401
16421
16414
16424
16391
16394
16418
16407
16410
16423
16434
16396
16395
16404
16405
16417
16423
16458
16380
16416
16406
16422
16443
16388
16390
16400
16409
16428
16431
16487
16397
16398
16407
16412
16428
16386
16390
16397
16400
16415
16402
16407
16413
16417
16431
16474
16385
16385
16391
16420
16405
16410
16417
16425
16456
16390
16386
16391
16421
16406
16419
16428
16385
16383
16381
16397
16408
16399
16412
16415
16423
16423
16424
16388
16387
16385
16400
16397
16410
16420
16385
16382
16382
16399
16407
16399
16408
16422
16439
16387
16387
16391
16400
16412
16400
16399
16399
16408
16415
16422
16426
16438
16377
16377
16382
16382
16391
16391
16412
16408
16404
16406
16417
16425
16435
16380
16380
16370
16380
16382
16379
16388
16409
16387
16391
16399
16400
16411
16406
16420
16455
16388
16380
16380
16384
16391
16411
16399
16391
16394
16397
16396
16399
16399
16399
16398
16405
16401
16403
16407
16410
16407
16409
16414
16415
16423
16461
16375
16373
16376
16377
16399
16397
16407
16423
16376
16383
16376
16378
16385
16403
16396
16397
16400
16405
16400
16409
16410
16373
16374
16369
16386
16391
16391
16396
16402
16399
16405
16408
16414
16414
16423
16458
16375
16381
16376
16373
16379
16381
16397
16388
16399
16407
16453
16379
16373
16374
16378
16372
16379
16375
16373
16371
16389
16391
16381
16390
16365
16383
16369
16410
16386
16367
16388
16365
16386
16370
16389
16374
16391
16381
16399
16407
16377
16409
16404
16374
16369
16402
16403
16447
16484
16433
16377
16371
16372
16383
16420
16400
16400
16421
16422
16436
16372
16373
16365
16373
16372
16405
16423
16394
16403
16405
16405
16407
16409
16420
16417
16429
16428
16475
16386
16386
16390
16404
16389
16399
16405
16410
16382
16376
16380
16380
16391
16390
16390
16391
16401
16411
16421
16417
16433
16379
16377
16378
