EDA
9791
9797
9799
9788
9779
9778
9794
9790
9771
9793
9780
9766
9766
9761
9763
9757
9757
9759
9910
9803
9801
9799
9783
9781
9771
9791
9766
9759
9758
9832
9812
9802
9798
9793
9790
9793
9793
9789
9787
9784
9779
9776
9774
9791
9772
9761
9760
9831
9794
9786
9783
9777
9780
9775
9773
9791
9788
9780
9769
9768
9758
9759
9758
9754
9811
9797
9791
9785
9775
9766
9789
9766
9759
9751
9753
9751
9755
9800
9789
9772
9777
9769
9775
9773
9767
9779
9788
9779
9774
9758
9757
9752
9753
9760
9750
9751
9751
9894
9796
9797
9790
9786
9777
9771
9770
9773
9775
9752
9751
9751
9793
9779
9775
9786
9791
9841
9750
9751
9758
9783
9784
9786
9768
9759
9789
9770
9768
9767
9772
9770
9782
9769
9758
9752
9751
9753
9879
9792
9783
9772
9767
9781
9754
9749
9755
9798
9781
9766
9759
9750
9750
9831
9795
9791
9777
9781
9775
9773
9765
9763
9786
9755
9753
9749
9747
9752
9806
9787
9777
9768
9764
9777
9746
9743
9810
9782
9770
9770
9765
9782
9755
9744
9750
9797
9793
9789
9780
9776
9765
9781
9751
9742
9830
9786
9767
9782
9751
9748
9742
9744
9796
9777
9766
9779
9752
9748
9745
9788
9785
9774
9767
9762
9766
9743
9743
9745
9884
9784
9785
9772
9770
9767
9763
9770
9751
9743
9743
9742
9800
9799
9787
9771
9764
9758
9763
9748
9743
9742
9809
9780
9765
9759
9766
9741
9744
9743
9746
9781
9771
9762
9758
9760
9749
9739
9740
9784
9771
9764
9757
9766
9740
9738
9743
9741
9783
9773
9763
9772
9758
9741
9741
9742
9783
9772
9764
9761
9768
9739
9737
9741
9741
9865
9786
9775
9768
9759
9753
9741
9741
9743
9748
9791
9781
9770
9759
9768
9751
9745
9747
9834
9787
9779
9770
9764
9764
9756
9764
9739
9737
9811
9775
9759
9779
9737
9733
9738
9786
9762
9771
9736
9737
9791
9765
9756
9764
9735
9738
9770
9747
9729
9858
9778
9762
9749
9737
9733
9735
9782
9777
9767
9763
9756
9756
9758
9737
9776
9758
9751
9738
9735
9779
9767
9759
9770
9734
9737
9767
9750
9738
9735
9735
9737
9739
9783
9766
9759
9753
9762
9738
9851
9768
9756
9757
9733
9734
9805
9768
9757
9765
9740
9738
9737
9791
9773
9762
9754
9770
9741
9736
9847
9775
9761
9754
9757
9738
9734
9738
9790
9783
9770
9766
9753
9743
9735
9802
9767
9760
9751
9765
9736
9731
9734
9855
9775
9768
9753
9772
9746
9732
9737
9786
9767
9753
9743
9738
9739
9871
9777
9758
9770
9735
9733
9793
9771
9753
9764
9741
9734
9738
9775
9761
9752
9766
9739
9734
9820
9778
9761
9754
9772
9739
9733
9733
9735
9785
9781
9766
9764
9756
9749
9747
9737
9735
9786
9767
9759
9769
9737
9734
9771
9751
9748
9732
9782
9761
9748
9739
9732
9735
9780
9758
9759
9738
9734
9804
9771
9761
9752
9735
9735
9775
9758
9750
9733
9734
9758
9733
9770
9776
9739
9763
9737
9755
9737
9771
9799
9771
9733
9759
9733
9785
9771
9755
9754
9751
9738
9733
9817
9772
9758
9769
9739
9738
9737
9850
9777
9760
9757
9771
9735
9734
9780
9765
9748
9733
9734
9778
9759
9771
9741
9733
9733
9779
9768
9756
9769
9736
9735
9864
9780
9767
9755
9751
9766
9735
9731
9793
9761
9746
9734
9734
9776
9757
9767
9732
9796
9768
9759
9744
9741
9731
9783
9759
9745
9734
9726
9778
9752
9765
9729
9727
9731
9787
9771
9764
9757
9751
9762
9739
9727
9722
9799
9759
9745
9742
9725
9775
9763
9746
9755
9727
9726
9802
9764
9746
9748
9724
9725
9766
9748
9757
9728
9724
9783
9762
9743
9744
9750
9721
9747
9761
9722
9751
9723
9747
9724
9743
9723
9756
9766
9721
9751
9718
9741
9841
9743
9758
9722
9742
9723
9758
9777
9728
9754
9721
9749
9718
9745
9721
9741
9762
9746
9733
9737
9716
9717
9768
9757
9747
9735
9734
9719
9717
9809
9757
9739
9743
9722
9712
9778
9761
9739
9733
9748
9735
9720
9716
9719
9836
9765
9759
9748
9743
9740
9735
9747
9725
9720
9715
9714
9791
9764
9755
9740
9735
9749
9721
9714
9718
9771
9753
9745
9739
9736
9743
9742
9735
9735
9734
9741
9719
9710
9712
9777
9758
9747
9743
9743
9740
9735
9749
9717
9716
9764
9752
9738
9734
9741
9725
9722
9712
9716
9712
9765
9751
9742
9733
9732
9748
9725
9718
9715
9714
9854
9758
9738
9729
9738
9733
9714
9711
9713
9867
9769
9754
9743
9735
9727
9732
9747
9720
9713
9710
9787
9751
9737
9749
9720
9713
9710
9765
9742
9730
9726
9745
9716
9711
9751
9731
9743
9719
9708
9859
9742
9729
9725
9711
9756
9733
9747
9709
9710
9755
9742
9720
9711
9704
9709
9715
9769
9751
9742
9735
9728
9749
9721
9708
9766
9735
9725
9716
9705
9705
9752
9729
9719
9708
9706
9817
9757
9736
9723
9728
9748
9731
9727
9719
9709
9750
9738
9730
9723
9724
9705
9706
9747
9730
9742
9714
9705
9709
9817
9750
9733
9729
9736
9703
9709
9708
9764
9751
9736
9732
9724
9721
9742
9718
9709
9704
9706
9784
9743
9728
9745
9709
9708
9705
9706
9748
9734
9722
9741
9710
9703
9706
9708
9809
9707
9706
9704
9753
9741
9729
9724
9736
9706
9851
9739
9722
9724
9703
9703
9780
9741
9727
9731
9702
9701
9743
9727
9723
9712
9705
9746
9722
9727
9719
9702
9704
9737
9724
9719
9699
9746
9725
9716
9711
9703
9700
9739
9719
9720
9703
9764
9728
9729
9698
9785
9732
9722
9738
9703
9700
9757
9727
9717
9715
9701
9699
9755
9729
9738
9702
9703
9763
9741
9722
9740
9707
9700
9819
9733
9723
9734
9709
9699
9700
9702
9702
9766
9742
9724
9719
9736
9712
9698
9701
9752
9734
9718
9730
9699
9697
9746
9726
9722
9729
9701
9701
9699
9735
9717
9713
9700
9701
9739
9720
9719
9700
9697
9745
9731
9717
9735
9698
9695
9836
9733
9713
9702
9699
9757
9734
9719
9733
9702
9698
9696
9745
9729
9718
9720
9709
9693
9694
9741
9723
9714
9734
9700
9698
9701
9755
9741
9731
9719
9717
9729
9711
9695
9702
9698
9742
9735
9727
9717
9718
9734
9722
9703
9705
9706
9780
9750
9735
9728
9724
9731
9713
9697
9690
9699
9743
9722
9735
9689
9700
9745
9732
9718
9710
9717
9717
9727
9695
9691
9751
9733
9714
9729
9687
9693
9727
9713
9708
9719
9695
9693
9694
9745
9720
9713
9726
9695
9696
9821
9739
9719
9713
9718
9703
9693
9693
9735
9724
9715
9711
9701
9695
9694
9814
9740
9734
9720
9714
9723
9699
9693
9696
9730
9718
9724
9695
9693
9738
9718
9711
9703
9692
9737
9733
9717
9734
9701
9698
9737
9735
9740
9761
9696
9694
9828
9733
9722
9715
9710
9719
9695
9695
9694
9744
9732
9726
9713
9710
9727
9700
9691
9814
9727
9710
9724
9698
9694
9735
9727
9722
9709
9729
9701
9696
9696
9694
9739
9723
9713
9714
9695
9699
9745
9720
9715
9712
9703
9691
9693
9735
9720
9710
9701
9693
9697
9737
9719
9711
9726
9698
9693
9700
9743
9718
9710
9718
9694
9692
9691
9753
9725
9724
9722
9710
9726
9698
9695
9737
9715
9716
9696
9694
9742
9732
9720
9709
9726
9698
9690
9690
9740
9728
9710
9719
9706
9697
9694
9691
9772
9737
9723
9713
9710
9727
9702
9692
9735
9716
9708
9703
9692
9693
9730
9713
9713
9697
9789
9730
9713
9730
9694
9695
9738
9714
9718
9695
9692
9697
9731
9715
9710
9729
9697
9690
9693
9822
9727
9711
9722
9694
9696
9732
9713
9725
9692
9694
9731
9713
9705
9691
9788
9725
9704
9697
9698
9693
9690
9742
9721
9708
9717
9707
9691
9695
9745
9727
9717
9706
9702
9687
9688
9687
9796
9728
9719
9711
9701
9692
9691
9742
9729
9711
9706
9706
9689
9683
9689
9801
9729
9715
9708
9707
9703
9723
9693
9686
9689
9691
9694
9759
9734
9727
9719
9718
9703
9702
9705
9716
9741
9687
9687
9705
9695
9687
9688
9758
9724
9711
9700
9690
9684
9829
9725
9717
9709
9699
9715
9698
9680
9683
9809
9727
9709
9717
9690
9683
9685
9794
9717
9705
9701
9689
9678
9681
9733
9711
9697
9714
9682
9682
9679
9729
9722
9703
9697
9686
9681
9678
9753
9724
9715
9701
9692
9689
9678
9677
9732
9710
9699
9695
9715
9690
9677
9677
9679
9730
9710
9703
9698
9700
9695
9694
9675
9676
9735
9714
9706
9700
9698
9712
9702
9685
9680
9674
9678
9721
9701
9697
9709
9681
9675
9757
9703
9692
9681
9674
9719
9700
9706
9679
9673
9711
9695
9702
9673
9679
9721
9701
9695
9711
9691
9673
9673
9743
9706
9690
9681
9670
9673
9714
9704
9692
9689
9702
9676
9670
9674
9712
9695
9685
9671
9671
9713
9699
9688
9682
9670
9790
9708
9695
9703
9673
9671
9754
9704
9694
9703
9678
9673
9712
9698
9692
9706
9671
9670
9670
9670
9819
9720
9709
9703
9700
9692
9684
9700
9673
9672
9670
9672
9790
9714
9708
9694
9687
9706
9674
9666
9668
9775
9705
9692
9704
9671
9671
9740
9703
9693
9689
9701
9676
9669
9670
9707
9692
9682
9672
9666
9797
9716
9707
9705
9695
9691
9683
9697
9668
9663
9737
9708
9701
9685
9690
9668
9669
9709
9692
9679
9679
9661
9729
9698
9687
9696
9665
9667
9708
9694
9685
9701
9673
9669
9661
9667
9732
9703
9697
9690
9685
9679
9677
9695
9665
9665
9663
9817
9711
9692
9690
9684
9702
9683
9671
9666
9669
9663
9662
9660
9745
9697
9683
9677
9680
9663
9660
9663
9712
9708
9697
9686
9678
9671
9668
9667
9665
9701
9690
9686
9681
9680
9681
9669
9699
9679
9679
9692
9695
9684
9682
9683
9668
9663
9660
9662
9705
9693
9685
9680
9675
9694
9661
9657
9663
9770
9705
9698
9683
9676
9674
9659
9720
9694
9681
9676
9658
9663
9710
9694
9682
9680
9677
9661
9660
9738
9701
9686
9673
9662
9657
9730
9686
9678
9676
9662
9660
9656
9693
9678
9680
9652
9658
9700
9684
9670
9676
9657
9658
9753
9690
9674
9659
9658
9692
9673
9660
9657
9701
9679
9678
9674
9655
9654
9701
9681
9670
9673
9658
9651
9658
9701
9693
9688
9672
9670
9674
9653
9806
9685
9676
9687
9658
9652
9695
9681
9690
9654
9652
9698
9679
9669
9677
9651
9652
9803
9686
9672
9668
9657
9651
9713
9687
9669
9661
9653
9653
9694
9677
9670
9656
9651
9695
9695
9676
9667
9661
9647
9650
9706
9679
9676
9665
9647
9793
9678
9665
9655
9649
9695
9671
9667
9659
9647
9651
9689
9674
9666
9663
9645
9791
9686
9675
9669
9684
9660
9652
9652
9684
9669
9670
9653
9650
9692
9671
9666
9654
9651
9693
9679
9670
9683
9663
9658
9651
9651
9654
9699
9689
9677
9669
9668
9693
9646
9643
9642
9642
9641
9746
9685
9676
9668
9662
9662
9675
9671
9661
9669
9642
9643
9800
9684
9671
9665
9658
9655
9638
9639
9756
9682
9675
9671
9657
9668
9639
9759
9679
9662
9676
9656
9645
9645
9647
9777
9679
9664
9659
9654
9641
9641
9721
9682
9666
9657
9646
9643
9753
9689
9673
9662
9678
9651
9644
9644
9773
9699
9684
9679
9664
9671
9647
9641
9760
9674
9660
9671
9648
9642
9644
9643
9695
9683
9683
9671
9661
9674
9652
9639
9639
9644
9679
9668
9662
9648
9645
9645
9695
9684
9670
9661
9672
9649
9637
9644
9644
9644
9684
9679
9671
9664
9659
9674
9642
9639
9705
9674
9662
9678
9653
9641
9643
9693
9682
9667
9659
9655
9641
9643
9684
9663
9660
9660
9654
9644
9637
9644
9706
9677
9668
9661
9651
9642
9641
9639
9642
9644
9657
9637
9699
9665
9657
9642
9637
9713
9670
9658
9656
9639
9640
9689
9645
9662
9641
9659
9638
9656
9642
9656
9636
9658
9638
9659
9646
9670
9735
9665
9681
9647
9671
9644
9667
9642
9661
9639
9659
9642
9654
9736
9663
9682
9646
9672
9637
9670
9641
9674
9642
9665
9639
9665
9642
9667
9642
9669
9639
9665
9638
9637
9637
9638
9637
9636
9703
9672
9661
9657
9652
9654
9674
9653
9643
9669
9654
9665
9679
9636
9637
9639
9652
9640
9631
9638
9689
9670
9663
9655
9658
9639
9644
9699
9672
9661
9676
9654
9663
9668
9668
9663
9655
9670
9637
9631
9636
9634
9635
9636
9638
9637
9682
9668
9655
9672
9648
9635
9637
9696
9676
9666
9652
9649
9664
9637
9635
9633
9636
9709
9676
9672
9663
9657
9654
9657
9652
9646
9670
9642
9634
9632
9630
9634
9692
9671
9658
9650
9656
9649
9638
9634
9628
9687
9669
9652
9648
9646
9636
9631
9679
9666
9652
9645
9655
9633
9628
9628
9713
9671
9661
9652
9649
9663
9650
9628
9635
9635
9631
9627
9624
9626
9759
9670
9662
9655
9648
9641
9650
9631
9629
9628
9674
9668
9652
9643
9630
9627
9669
9652
9663
9634
9623
9625
9669
9663
9653
9645
9640
9660
9636
9622
9622
9707
9661
9654
9645
9644
9658
9633
9621
9623
9745
9671
9669
9659
9647
9638
9642
9638
9623
9767
9669
9651
9646
9656
9629
9623
9676
9661
9648
9641
9646
9627
9626
9622
9630
9679
9663
9648
9639
9652
9628
9626
9627
9750
9664
9647
9640
9637
9651
9621
9623
9625
9661
9646
9655
9629
9621
9677
9646
9641
9630
9622
9628
9668
9647
9641
9635
9621
9623
9666
9650
9658
9621
9619
9666
9670
9647
9653
9630
9626
9765
9657
9641
9656
9631
9619
9623
9663
9646
9653
9622
9620
9663
9661
9648
9637
9655
9628
9622
9621
9688
9665
9650
9639
9634
9619
9620
9665
9643
9643
9620
9678
9663
9646
9643
9639
9639
9620
9620
9674
9658
9647
9641
9656
9623
9622
9671
9659
9654
9640
9632
9644
9620
9619
9671
9647
9629
9639
9621
9619
9703
9652
9638
9627
9623
9700
9660
9640
9642
9618
9727
9664
9657
9650
9649
9643
9635
9638
9645
9632
9625
9619
9622
9663
9650
9642
9638
9653
9626
9613
9619
9618
9659
9643
9628
9625
9620
9618
9670
9651
9642
9636
9654
9628
9619
9617
9617
9681
9647
9638
9642
9616
9621
9666
9640
9637
9623
9615
9622
9663
9654
9643
9637
9629
9623
9618
9619
9677
9652
9637
9638
9620
9618
9617
9669
9656
9641
9636
9653
9629
9618
9619
9678
9652
9637
9652
9619
9621
9667
9651
9641
9635
9636
9621
9615
9619
9663
9657
9645
9640
9635
9638
9619
9619
9662
9649
9637
9637
9637
9618
9614
9669
9653
9646
9639
9639
9639
9633
9632
9637
9654
9650
9647
9638
9639
9631
9626
9622
9618
9615
9617
9614
9614
9616
9618
9660
9647
9638
9637
9642
9649
9650
9634
9620
9621
9620
9697
9656
9646
9641
9633
9633
9632
9651
9644
9615
9617
9689
9651
9639
9650
9618
9617
9705
9654
9643
9633
9652
9623
9613
9618
9660
9646
9636
9635
9634
9634
9636
9637
9647
9635
9631
9621
9618
9620
9615
9617
9614
9757
9668
9660
9649
9647
9657
9614
9614
9620
9613
9621
9615
9617
9669
9655
9646
9640
9637
9637
9639
9617
9620
9617
9614
9609
9613
9613
9668
9655
9640
9637
9649
9623
9612
9620
9661
9648
9638
9634
9651
9623
9617
9620
9619
9663
9655
9641
9635
9632
9623
9624
9623
9687
9665
9654
9639
9639
9622
9620
9619
9663
9656
9640
9656
9634
9621
9613
9613
9613
9619
9615
9809
9672
9663
9653
9649
9642
9635
9655
9627
9612
9618
9618
9670
9651
9635
9633
9638
9652
9634
9627
9618
9615
9617
9657
9643
9639
9652
9623
9618
9616
9614
9663
9652
9639
9648
9627
9615
9615
9687
9654
9646
9643
9637
9637
9637
9657
9623
9618
9618
9668
9656
9643
9637
9635
9621
9615
9757
9664
9651
9645
9641
9651
9648
9629
9627
9622
9623
9622
9623
9718
9664
9654
9652
9647
9636
9650
9637
9621
9620
9620
9621
9664
9658
9646
9637
9652
9629
9621
9622
9729
9663
9647
9638
9637
9617
9625
9676
9661
9654
9645
9645
9643
9635
9657
9634
9628
9623
9623
9623
9669
9647
9641
9655
9627
9628
9620
9624
9679
9658
9646
9642
9647
9624
9623
9627
9668
9659
9652
9639
9659
9627
9625
9624
9666
9649
9645
9643
9656
9639
9627
9627
9620
9628
9691
9670
9657
9653
9642
9654
9637
9621
9622
9762
9662
9651
9643
9647
9621
9736
9658
9643
9656
9636
9629
9628
9686
9664
9647
9639
9644
9631
9632
9628
9622
9625
9668
9663
9648
9661
9639
9631
9631
9624
9631
9676
9662
9649
9644
9641
9646
9663
9670
9665
9658
9659
9664
9657
9651
9644
9642
9651
9662
9640
9631
9628
9628
9716
9673
9670
9651
9645
9660
9658
9630
9626
9626
9695
9666
9658
9648
9646
9641
9664
9664
9648
9646
9641
9633
9628
9627
9629
9625
9622
9627
9626
9628
9625
9625
9625
9630
9629
9778
9675
9670
9666
9655
9649
9658
9633
9627
9622
9680
9659
9649
9643
9639
9642
9628
9625
9677
9662
9653
9645
9660
9660
9634
9625
9628
9621
9765
9670
9658
9650
9641
9630
9621
9717
9659
9645
9640
9637
9628
9626
9623
9628
9719
9676
9663
9655
9640
9642
9656
9633
9623
9620
9622
9671
9654
9650
9644
9638
9653
9655
9656
9647
9654
9645
9629
9623
9621
9621
9619
9674
9660
9645
9638
9639
9620
9623
9668
9649
9637
9633
9626
9623
9772
9662
9646
9641
9657
9638
9622
9620
9618
9621
9764
9665
9664
9657
9646
9643
9655
9622
9621
9713
9655
9643
9634
9647
9621
9617
9695
9657
9636
9652
9642
9619
9617
9618
9668
9652
9643
9642
9623
9623
9622
9673
9654
9639
9635
9630
9613
9620
9677
9664
9652
9641
9633
9652
9635
9616
9622
9622
9622
9714
9671
9663
9665
9661
9650
9643
9637
9642
9628
9620
9619
9615
9616
9719
9665
9656
9650
9648
9642
9639
9636
9634
9615
9615
9616
9617
9618
9686
9677
9661
9660
9658
9661
9669
9663
9657
9647
9637
9636
9646
9644
9627
9626
9621
9616
9615
9613
9615
9741
9657
9649
9638
9630
9636
9620
9621
9620
9619
9621
9623
9621
9620
9615
9615
9615
9721
9657
9645
9635
9629
9650
9621
9613
9617
9613
9659
9659
9652
9646
9648
9644
9642
9630
9635
9647
9622
9615
9613
9610
9611
9613
9614
9762
9657
9668
9662
9660
9659
9660
9651
9638
9640
9636
9638
9637
9639
9643
9645
9636
9631
9627
9647
9631
9614
9612
9609
9614
9611
9744
9655
9648
9639
9628
9639
9614
9609
9608
9607
9655
9642
9635
9629
9638
9615
9610
9612
9613
9669
9648
9638
9637
9627
9630
9617
9620
9633
9633
9627
9630
9628
9641
9607
9669
9650
9634
9643
9611
9747
9650
9631
9646
9617
9605
9610
9659
9647
9629
9625
9639
9624
9619
9607
9610
9659
9647
9630
9629
9642
9631
9618
9609
9610
9610
9659
9645
9639
9635
9633
9627
9646
9620
9604
9605
9608
9608
9606
9681
9666
9668
9647
9638
9640
9629
9628
9642
9607
9604
9672
9643
9627
9642
9610
9607
9607
9606
9682
9652
9639
9634
9634
9637
9631
9630
9638
9614
9609
9606
9605
9611
9604
9607
9677
9647
9637
9637
9632
9633
9629
9627
9625
9638
9642
9642
9641
9621
9638
9633
9617
9608
9607
9607
9605
9607
9718
9653
9640
9635
9623
9641
9612
9607
9608
9606
9637
9628
9624
9613
9605
9606
9652
9639
9625
9623
9628
9625
9626
9625
9623
9623
9641
9609
9607
9605
9606
9703
9647
9634
9634
9634
9630
9627
9628
9621
9621
9621
9620
9638
9634
9639
9637
9640
9626
9615
9607
9611
9606
9606
9601
9603
9606
9604
9604
9626
9653
9642
9633
9627
9620
9641
9614
9608
9610
9606
9608
9609
9607
9706
9668
9655
9665
9655
9654
9655
9654
9648
9642
9639
9644
9644
9642
9635
9630
9623
9628
9628
9625
9625
9628
9626
9623
9621
9620
9639
9635
9631
9610
9608
9605
9602
9606
9605
9604
9601
9606
9623
9620
9606
9610
9622
9615
9634
9627
9620
9626
9628
9631
9636
9647
9647
9652
9646
9639
9635
9632
9631
9630
9626
9625
9622
9626
9619
9634
9607
9602
9600
9605
9601
9606
9606
9605
9606
9604
9604
9605
9603
9685
9650
9641
9641
9638
9637
9636
9635
9631
9630
9630
9626
9625
9631
9627
9636
9631
9629
9624
9629
9620
9615
9618
9616
9617
9618
9617
9615
9619
9617
9636
9626
9621
9606
9607
9605
9603
9607
9606
9702
9647
9646
9631
9627
9619
9621
9604
9606
9603
9671
9638
9622
9618
9619
9617
9607
9604
9607
9677
9638
9633
9623
9617
9620
9603
9604
9604
9661
9645
9630
9627
9637
9612
9605
9605
9611
9650
9636
9627
9623
9632
9607
9601
9604
9647
9633
9627
9621
9611
9605
9601
9698
9651
9641
9631
9621
9619
9638
9615
9611
9605
9603
9603
9604
9706
9646
9637
9621
9636
9605
9605
9642
9627
9628
9632
9630
9606
9604
9602
9603
9599
9604
9604
9604
9602
9604
9600
9604
9605
9676
9651
9651
9649
9646
9641
9646
9643
9640
9636
9634
9629
9631
9623
9621
9619
9620
9614
9633
9607
9604
9601
9605
9674
9646
9639
9636
9631
9624
9628
9604
9603
9601
9603
9604
9744
9658
9644
9639
9633
9625
9628
9613
9607
9604
9605
9605
9656
9653
9642
9638
9622
9620
9621
9634
9602
9601
9601
9642
9633
9620
9635
9605
9604
9663
9639
9624
9630
9605
9601
9602
9647
9637
9627
9620
9621
9608
9602
9599
9597
9599
9603
9602
9605
9623
9616
9627
9606
9602
9601
9599
9599
9683
9661
9638
9638
9634
9627
9625
9624
9619
9615
9615
9626
9614
9606
9599
9597
9601
9711
9641
9633
9619
9613
9623
9604
9594
9594
9599
9707
9663
9638
9629
9621
9635
9617
9604
9598
9596
9601
9599
9643
9629
9615
9622
9634
9621
9603
9598
9594
9594
9599
9596
9601
9640
9629
9619
9630
9599
9594
9638
9624
9614
9631
9597
9592
9590
9595
9642
9634
9627
9613
9618
9595
9596
9637
9625
9615
9611
9622
9595
9594
9660
9634
9620
9607
9620
9612
9598
9592
9595
9595
9637
9631
9614
9633
9598
9589
9594
9597
9646
9635
9633
9623
9626
9625
9624
9617
9613
9607
9620
9599
9595
9599
9597
9594
9594
9596
9675
9633
9631
9626
9620
9612
9609
9606
9621
9599
9591
9590
9594
9716
9668
9636
9634
9627
9614
9613
9628
9612
9596
9592
9591
9650
9628
9618
9615
9607
9606
9609
9631
9606
9591
9593
9596
9649
9640
9630
9617
9629
9601
9590
9591
9591
9596
9638
9633
9622
9617
9610
9607
9609
9605
9602
9602
9595
9594
9593
9596
9732
9707
9651
9675
9655
9591
9591
9595
9593
9590
9588
9589
9593
9708
9638
9626
9626
9626
9616
9613
9609
9615
9617
9596
9587
9594
9659
9630
9612
9607
9623
9596
9591
9590
9594
9708
9636
9627
9618
9608
9607
9591
9586
9634
9627
9614
9608
9607
9607
9626
9602
9587
9589
9596
9642
9625
9615
9610
9625
9601
9593
9653
9631
9615
9608
9619
9598
9590
9590
9636
9614
9608
9620
9597
9590
9593
9649
9624
9616
9607
9619
9588
9591
9634
9624
9612
9607
9615
9587
9586
9587
9590
9619
9609
9621
9625
9635
9628
9614
9612
9607
9627
9604
9608
9601
9595
9599
9595
9590
9591
9636
9624
9608
9630
9590
9594
9741
9636
9636
9629
9627
9621
9617
9613
9615
9618
9604
9591
9591
9591
9636
9620
9612
9614
9591
9591
9649
9636
9635
9640
9628
9618
9619
9612
9607
9618
9594
9590
9589
9676
9632
9623
9614
9611
9606
9614
9595
9587
9588
9637
9613
9605
9591
9588
9591
9630
9617
9612
9604
9608
9588
9588
9593
9636
9620
9607
9623
9600
9591
9588
9636
9616
9611
9607
9623
9612
9596
9589
9591
9586
9590
9589
9588
9592
9588
9590
9592
9590
9589
9589
9590
9635
9623
9619
9607
9608
9615
9601
9589
9588
9589
9706
9630
9627
9619
9608
9614
9598
9590
9590
9591
9633
9629
9616
9614
9608
9599
9605
9588
9584
9590
9633
9610
9615
9593
9592
9642
9620
9610
9601
9589
9639
9615
9606
9626
9594
9590
9588
9588
9595
9591
9693
9637
9630
9616
9619
9599
9591
9697
9635
9623
9615
9611
9617
9601
9594
9594
9691
9647
9643
9645
9590
9592
9597
9594
9586
9589
9648
9627
9615
9627
9583
9586
9641
9628
9609
9605
9607
9582
9639
9615
9606
9605
9584
9589
9588
9666
9625
9607
9620
9585
9587
9590
9637
9587
9586
9629
9623
9616
9607
9609
9616
9622
9600
9595
9591
9596
9652
9630
9616
9607
9605
9627
9607
9594
9592
9593
9658
9634
9626
9615
9613
9611
9610
9607
9621
9598
9596
9594
9594
9700
9634
9624
9610
9622
9593
9589
9654
9629
9615
9607
9615
9591
9593
9651
9628
9614
9617
9592
9591
9652
9625
9617
9611
9609
9626
9605
9593
9595
9592
9587
9591
9681
9636
9636
9623
9615
9611
9607
9624
9618
9599
9595
9595
9720
9590
9595
9595
9589
9596
9635
9623
9617
9620
9608
9596
9599
9640
9595
9591
9665
9628
9617
9629
9615
9593
9591
9597
9734
9636
9621
9610
9625
9596
9596
9597
9637
9625
9625
9609
9605
9607
9618
9628
9615
9623
9623
9605
9596
9594
9592
9594
9596
9598
9653
9638
9637
9627
9627
9624
9617
9609
9628
9599
9595
9592
9589
9647
9634
9616
9605
9603
9597
9601
9640
9623
9615
9610
9636
9610
9596
9594
9599
9651
9633
9622
9609
9630
9614
9593
9597
9596
9599
9595
9639
9643
9636
9633
9630
9619
9615
9613
9613
9623
9615
9604
9596
9598
9664
9637
9625
9621
9614
9631
9600
9595
9599
9661
9638
9624
9615
9630
9615
9599
9598
9732
9626
9616
9627
9594
9740
9630
9612
9613
9606
9601
9599
9599
9601
9682
9633
9624
9609
9607
9593
9591
9636
9623
9614
9633
9599
9594
9593
9597
9597
9670
9651
9642
9637
9633
9651
9592
9616
9617
9637
9594
9599
9597
9593
9590
9592
9593
9594
9591
9592
9595
9599
9594
9591
9590
9592
9596
9593
9588
9589
9589
9591
9592
9591
9591
9657
9636
9625
9623
9620
9609
9592
9591
9647
9631
9613
9607
9618
9627
9601
9593
9591
9657
9624
9607
9622
9598
9592
9592
9591
9593
9636
9619
9609
9615
9588
9591
9691
9631
9613
9615
9588
9588
9743
9623
9618
9603
9612
9592
9590
9655
9622
9613
9609
9627
9593
9583
9591
9634
9614
9605
9615
9592
9587
9591
9635
9626
9612
9609
9593
9589
9631
9612
9612
9583
9591
9640
9621
9607
9605
9585
9588
9589
9647
9626
9607
9621
9594
9586
9691
9636
9637
9631
9629
9608
9604
9588
9587
9588
9628
9611
9601
9611
9586
9582
9634
9625
9614
9611
9598
9593
9588
9590
9650
9625
9619
9612
9600
9621
9626
9620
9608
9584
9583
9588
9684
9628
9615
9607
9623
9604
9591
9590
9629
9609
9614
9623
9591
9587
9584
9646
9623
9613
9604
9611
9587
9584
9588
9629
9620
9608
9626
9612
9584
9606
9590
9607
9588
9599
9587
9601
9585
9604
9623
9587
9607
9587
9622
9642
9620
9635
9619
9592
9600
9583
9607
9676
9620
9647
9602
9627
9593
9620
9583
9619
9607
9615
9588
9587
9625
9605
9607
9589
9587
9650
9625
9607
9599
9597
9582
9694
9623
9609
9599
9592
9582
9583
9732
9649
9626
9612
9604
9606
9599
9601
9614
9620
9601
9589
9585
9581
9605
9628
9612
9601
9607
9580
9582
9580
9585
9664
9628
9612
9600
9604
9585
9584
9630
9615
9597
9589
9581
9637
9608
9615
9587
9584
9636
9612
9603
9619
9591
9586
9584
9580
9586
9628
9613
9607
9602
9600
9610
9612
9587
9583
9580
9585
9663
9631
9622
9620
9608
9599
9598
9585
9584
9585
9626
9610
9611
9605
9617
9583
9580
9581
9724
9621
9604
9614
9581
9584
9583
9644
9634
9633
9623
9607
9599
9599
9613
9604
9588
9585
9580
9585
9623
9609
9602
9612
9585
9585
9683
9610
9599
9591
9581
9629
9607
9601
9608
9589
9579
9579
9583
9627
9612
9604
9625
9582
9580
9630
9622
9606
9607
9617
9626
9618
9613
9603
9613
9596
9585
9584
9614
9623
9614
9602
9610
9582
9583
9584
9656
9615
9602
9602
9593
9585
9582
9622
9605
9593
9586
9580
9720
9612
9596
9585
9581
9618
9606
9599
9603
9589
9585
9586
9587
9638
9619
9604
9597
9593
9575
9579
9623
9607
9607
9581
9579
9623
9605
9602
9602
9593
9579
9647
9616
9607
9606
9581
9657
9615
9603
9594
9603
9579
9582
9621
9608
9603
9607
9590
9582
9583
9700
9627
9607
9598
9614
9582
9579
9579
9583
9582
9577
9645
9622
9617
9606
9601
9599
9619
9611
9599
9591
9583
9582
9631
9607
9598
9592
9582
9587
9622
9604
9605
9588
9590
9624
9607
9624
9593
9585
9633
9610
9623
9588
9580
9632
9617
9602
9604
9573
9714
9613
9601
9586
9575
9580
9626
9608
9619
9582
9577
9617
9599
9596
9577
9618
9593
9584
9575
9606
9574
9596
9575
9598
9578
9605
9612
9581
9601
9578
9609
9620
9580
9603
9604
9597
9588
9578
9581
9637
9618
9609
9606
9604
9597
9616
9595
9583
9583
9583
9583
9703
9629
9621
9610
9606
9596
9587
9582
9580
9674
9619
9607
9603
9615
9592
9587
9585
9622
9605
9612
9586
9582
9718
9622
9601
9601
9590
9582
9722
9627
9611
9599
9583
9580
9665
9611
9599
9588
9583
9667
9614
9607
9616
9589
9582
9578
9621
9608
9601
9618
9580
9582
9633
9613
9602
9616
9609
9594
9582
9584
9583
9586
9583
9585
9683
9707
9623
9617
9611
9604
9601
9612
9588
9583
9582
9640
9631
9617
9605
9604
9601
9599
9615
9589
9578
9583
9625
9610
9605
9602
9600
9599
9615
9602
9596
9598
9589
9587
9583
9586
9586
9589
9587
9702
9640
9625
9621
9614
9609
9604
9609
9614
9591
9585
9588
9583
9586
9586
9628
9612
9601
9592
9586
9588
9629
9621
9615
9608
9604
9599
9595
9586
9583
9637
9623
9610
9602
9602
9583
9587
9639
9622
9615
9601
9618
9590
9583
9730
9620
9604
9620
9588
9588
9666
9623
9615
9608
9625
9588
9587
9590
9631
9614
9605
9615
9591
9587
9586
9641
9622
9613
9602
9590
9586
9644
9619
9602
9591
9586
9631
9609
9619
9584
9581
9637
9616
9606
9625
9593
9582
9587
9630
9619
9607
9600
9599
9581
9587
9633
9616
9607
9604
9594
9585
9585
9639
9625
9610
9599
9605
9580
9582
9629
9607
9605
9588
9583
9735
9627
9609
9607
9604
9619
9583
9581
9627
9612
9607
9604
9600
9618
9585
9583
9575
9594
9582
9583
9619
9604
9599
9593
9581
9585
9654
9618
9612
9602
9614
9581
9579
9579
9682
9628
9614
9605
9625
9580
9577
9612
9601
9613
9619
9577
9575
9588
9591
9603
9621
9580
9574
9586
9598
9598
9593
9605
9611
9620
9634
9575
9580
9591
9613
9600
9598
9607
9575
9572
9612
9597
9611
9575
9575
9620
9601
9593
9595
9606
9578
9590
9631
9589
9618
9575
9601
9573
9590
9576
9605
9612
9573
9596
9575
9607
9573
9591
9655
9579
9602
9673
9583
9610
9576
9588
9613
9575
9607
9607
9574
9604
9607
9574
9589
9621
9575
9597
9575
9593
9610
9574
9591
9573
9605
9620
9573
9602
9574
9594
9573
9596
9603
9576
9604
9607
9573
9597
9572
9595
9573
9583
9604
9573
9591
9617
9573
9594
9573
9591
9714
9585
9602
9573
9593
9575
9602
9609
9573
9592
9574
9576
9594
9627
9574
9590
9659
9569
9585
9607
9567
9607
9605
9568
9589
9619
9573
9600
9571
9596
9573
9603
9571
9590
9573
9602
9620
9604
9614
9594
9600
9567
9593
9570
9597
9568
9593
9569
9599
9571
9599
9573
9589
9709
9587
9610
9573
9596
9566
9606
9611
9573
9608
9568
9594
9568
9589
9569
9589
9609
9573
9604
9570
9593
9571
9586
9719
9606
9639
9592
9612
9585
9608
9588
9607
9571
9601
9567
9603
9569
9605
9580
9617
9582
9611
9580
9596
9563
9593
9567
9581
9588
9567
9562
9571
9610
9588
9591
9602
9566
9568
9618
9597
9588
9578
9572
9586
9609
9563
9582
9566
9582
9562
9582
9565
9605
9581
9565
9606
9568
9595
9567
9589
9615
9570
9598
9566
9591
9559
9587
9564
9584
9628
9570
9594
9564
9597
9599
9563
9583
9608
9567
9584
9567
9598
9605
9565
9587
9562
9589
9620
9572
9601
9596
9574
9566
9567
9599
9577
9572
9563
9565
9692
9621
9635
9659
9702
9565
9614
9594
9577
9581
9569
9558
9604
9583
9575
9565
9621
9601
9593
9583
9574
9557
9612
9591
9572
9569
9559
9561
9599
9587
9579
9588
9566
9561
9561
9556
9603
9591
9583
9575
9582
9568
9565
9564
9564
9628
9607
9597
9595
9581
9581
9579
9573
9586
9567
9565
9558
9557
9604
9580
9596
9563
9558
9591
9572
9559
9559
9596
9590
9574
9567
9557
9558
9603
9591
9579
9589
9572
9558
9558
9602
9590
9573
9569
9557
9554
9597
9583
9569
9561
9553
9638
9595
9574
9577
9557
9553
9599
9580
9584
9556
9647
9591
9572
9561
9554
9598
9580
9590
9553
9555
9591
9576
9575
9572
9569
9558
9558
9601
9584
9573
9561
9553
9555
9600
9591
9580
9578
9555
9551
9599
9578
9567
9562
9554
9596
9575
9573
9556
9557
9606
9581
9570
9559
9553
9655
9588
9575
9668
9588
9592
9558
9592
9564
9599
9564
9591
9558
9580
9559
9573
9602
9562
9579
9558
9573
9594
9554
9575
9555
9576
9551
9569
9647
9573
9591
9546
9576
9553
9593
9597
9556
9583
9543
9566
9548
9582
9592
9545
9567
9637
9556
9570
9551
9572
9592
9549
9577
9543
9570
9548
9567
9596
9551
9567
9655
9564
9583
9545
9572
9572
9566
9580
9558
9547
9547
9548
9636
9591
9578
9574
9567
9575
9551
9548
9658
9578
9570
9569
9575
9549
9554
9584
9569
9580
9590
9643
9550
9549
9551
9570
9567
9570
9576
9587
9613
9548
9543
9548
9548
9587
9571
9562
9574
9548
9548
9583
9550
9565
9607
9567
9591
9561
9588
9551
9581
9546
9577
9545
9557
9637
9553
9581
9543
9561
9593
9552
9581
9547
9561
9550
9567
9547
9581
9589
9543
9571
9545
9563
9547
9561
9682
9562
9641
9579
9614
9563
9585
9553
9579
9547
9567
9544
9572
9545
9543
9588
9572
9562
9557
9556
9543
9545
9591
9580
9568
9582
9558
9543
9612
9580
9570
9580
9549
9545
9631
9573
9559
9551
9545
9585
9569
9558
9557
9544
9543
9595
9577
9568
9561
9552
9546
9543
9585
9568
9577
9547
9540
9606
9569
9569
9549
9544
9685
9577
9561
9571
9548
9547
9590
9567
9578
9544
9545
9694
9590
9582
9570
9562
9578
9547
9542
9544
9543
9654
9588
9573
9575
9570
9566
9567
9569
9551
9543
9542
9610
9584
9570
9557
9571
9552
9540
9593
9567
9557
9545
9547
9576
9557
9545
9545
9586
9571
9560
9550
9538
9541
9572
9561
9541
9683
9566
9572
9557
9590
9551
9578
9543
9577
9543
9564
9541
9555
9579
9536
9559
9650
9549
9567
9539
9553
9537
9555
9542
9554
9542
9561
9578
9545
9575
9542
9573
9539
9557
9537
9571
9580
9542
9562
9535
9562
9534
9575
9542
9577
9538
9558
9536
9552
9537
9541
9588
9572
9564
9563
9548
9550
9534
9530
9686
9575
9566
9565
9552
9548
9541
9534
9634
9570
9559
9556
9548
9555
9565
9541
9527
9670
9575
9572
9558
9546
9557
9535
9523
9645
9574
9558
9552
9548
9558
9539
9530
9529
9573
9552
9544
9530
9547
9526
9542
9627
9556
9572
9538
9556
9526
9552
9577
9537
9564
9530
9555
9525
9556
9526
9552
9522
9545
9529
9541
9552
9524
9541
9569
9532
9555
9523
9548
9552
9545
9558
9530
9527
9657
9563
9544
9538
9525
9567
9551
9559
9524
9522
9567
9549
9540
9543
9522
9522
9570
9549
9543
9552
9529
9523
9523
9573
9554
9542
9556
9518
9521
9606
9566
9552
9538
9543
9524
9522
9570
9549
9547
9557
9525
9521
9625
9557
9545
9548
9521
9520
9599
9552
9535
9543
9514
9574
9551
9557
9525
9521
9519
9518
9565
9544
9541
9549
9517
9518
9515
9519
9565
9552
9545
9537
9548
9530
9524
9519
9524
9521
9523
9567
9553
9546
9535
9535
9535
9534
9520
9513
9519
9599
9556
9541
9532
9521
9518
9521
9559
9541
9541
9554
9524
9515
9514
9513
9517
9574
9551
9540
9528
9552
9523
9511
9513
9557
9541
9551
9515
9515
9552
9537
9533
9512
9512
9556
9545
9538
9529
9524
9510
9516
9560
9549
9540
9529
9544
9519
9514
9516
9512
9552
9547
9537
9528
9550
9519
9511
9574
9540
9528
9542
9513
9510
9505
9559
9543
9533
9528
9546
9532
9520
9513
9512
9511
9557
9548
9531
9525
9526
9511
9508
9511
9562
9544
9533
9524
9515
9510
9641
9543
9532
9537
9506
9615
9537
9524
9515
9510
9649
9542
9535
9538
9523
9506
9510
9573
9548
9535
9525
9515
9509
9558
9531
9522
9518
9502
9548
9532
9524
9538
9514
9505
9508
9552
9538
9522
9542
9513
9505
9562
9536
9523
9532
9503
9507
9549
9525
9540
9504
9505
9557
9532
9520
9514
9505
9503
9554
9540
9533
9521
9512
9507
9500
9545
9530
9517
9540
9506
9505
9551
9532
9515
9510
9502
9501
9604
9538
9520
9526
9503
9637
9543
9531
9524
9519
9524
9502
9498
9503
9547
9540
9538
9527
9530
9511
9506
9499
9632
9545
9533
9522
9527
9501
9500
9543
9531
9514
9510
9497
9543
9520
9522
9495
9501
9548
9540
9524
9513
9530
9509
9497
9501
9533
9521
9524
9506
9499
9498
9528
9512
9501
9495
9542
9530
9511
9500
9499
9534
9520
9536
9499
9499
9541
9518
9510
9549
9506
9532
9497
9519
9495
9513
9495
9516
9497
9512
9593
9530
9550
9530
9511
9533
9505
9495
9494
9542
9536
9524
9511
9516
9492
9641
9527
9510
9503
9495
9526
9532
9499
9513
9500
9524
9550
9510
9528
9501
9520
9497
9537
9541
9503
9514
9536
9509
9494
9597
9534
9518
9532
9498
9497
9562
9523
9510
9495
9495
9545
9522
9527
9495
9490
9526
9511
9518
9497
9495
9538
9516
9527
9492
9492
9551
9527
9492
9487
9511
9490
9509
9488
9506
9492
9503
9631
9514
9537
9508
9527
9496
9513
9495
9491
9580
9515
9502
9497
9486
9533
9514
9506
9486
9557
9526
9509
9509
9492
9593
9519
9526
9490
9490
9528
9510
9506
9491
9492
9492
9623
9530
9515
9509
9524
9485
9583
9520
9506
9495
9491
9592
9519
9510
9495
9489
9588
9522
9511
9506
9515
9489
9484
9489
9545
9522
9504
9517
9488
9614
9523
9506
9488
9493
9530
9511
9517
9487
9489
9525
9501
9495
9486
9532
9516
9504
9511
9487
9489
9527
9510
9506
9490
9537
9511
9490
9485
9518
9522
9486
9532
9506
9495
9489
9513
9516
9486
9485
9532
9513
9505
9518
9492
9486
9533
9514
9502
9485
9549
9522
9502
9495
9485
9516
9499
9484
9486
9524
9506
9502
9493
9487
9487
9531
9509
9501
9493
9487
9483
9544
9513
9499
9506
9482
9556
9512
9500
9500
9481
9540
9510
9503
9488
9501
9602
9506
9572
9519
9521
9485
9510
9481
9497
9603
9517
9525
9488
9519
9481
9483
9570
9520
9506
9515
9487
9485
9548
9519
9514
9508
9500
9489
9480
9609
9484
9496
9581
9506
9526
9486
9513
9482
9509
9481
9499
9482
9496
9480
9502
9476
9480
9483
9521
9503
9517
9481
9485
9479
9534
9507
9500
9510
9484
9481
9587
9520
9510
9503
9497
9487
9479
9479
9516
9508
9500
9494
9494
9479
9478
9567
9519
9507
9494
9486
9477
9475
9477
9515
9505
9490
9510
9489
9471
9477
9477
9520
9515
9508
9500
9495
9497
9481
9477
9474
9618
9519
9500
9494
9497
9474
9473
9509
9493
9493
9473
9476
9477
9541
9518
9519
9557
9542
9571
9558
9620
9473
9471
9469
9471
9472
9469
9471
9469
9615
9516
9511
9513
9503
9495
9496
9498
9491
9488
9509
9502
9497
9488
9487
9484
9481
9505
9486
9469
9465
9465
9464
9471
9516
9509
9509
9501
9494
9491
9482
9479
9467
9524
9511
9495
9489
9483
9491
9472
9464
9466
9465
9540
9505
9488
9501
9476
9463
9616
9510
9489
9496
9468
9465
9462
9465
9463
9596
9509
9506
9495
9489
9487
9481
9498
9475
9470
9482
9473
9468
9458
9463
9465
9605
9509
9500
9492
9484
9480
9485
9483
9467
9458
9465
9511
9489
9479
9468
9462
9508
9487
9479
9494
9463
9458
9493
9473
9471
9460
9457
9513
9493
9485
9478
9500
9480
9466
9457
9461
9512
9500
9477
9476
9456
9463
9502
9482
9495
9460
9564
9503
9481
9487
9482
9460
9462
9510
9493
9477
9487
9467
9456
9457
9458
9503
9495
9487
9475
9484
9470
9459
9459
9508
9495
9481
9474
9475
9471
9459
9458
9507
9488
9476
9484
9455
9454
9521
9490
9485
9474
9466
9490
9453
9452
9455
9459
9506
9498
9495
9500
9560
9527
9457
9453
9598
9485
9470
9464
9450
9559
9490
9475
9467
9459
9452
9453
9487
9471
9459
9454
9502
9481
9467
9454
9452
9581
9495
9478
9471
9467
9450
9454
9491
9482
9468
9469
9452
9450
9449
9499
9493
9476
9466
9472
9451
9448
9452
9507
9487
9471
9479
9453
9450
9449
9554
9506
9493
9473
9467
9477
9447
9447
9449
9490
9471
9481
9447
9452
9489
9474
9465
9466
9447
9447
9593
9491
9475
9484
9455
9446
9588
9481
9465
9460
9446
9449
9477
9464
9449
9447
9478
9463
9472
9445
9444
9489
9472
9464
9470
9446
9445
9485
9479
9466
9462
9481
9470
9451
9445
9445
9546
9488
9476
9463
9471
9452
9445
9444
9446
9495
9477
9464
9478
9451
9441
9443
9445
9487
9474
9456
9467
9446
9443
9444
9449
9573
9487
9480
9476
9465
9465
9458
9477
9443
9444
9443
9520
9479
9467
9474
9447
9443
9443
9493
9480
9465
9457
9455
9444
9445
9588
9488
9477
9461
9453
9447
9442
9441
9441
9488
9471
9459
9470
9441
9441
9439
9490
9478
9471
9465
9457
9478
9443
9437
9439
9550
9484
9479
9475
9459
9471
9446
9438
9439
9441
9564
9487
9475
9463
9460
9469
9451
9437
9435
9436
9476
9464
9454
9459
9463
9478
9523
9441
9436
9439
9448
9463
9465
9452
9471
9443
9436
9438
9479
9463
9455
9453
9448
9448
9462
9440
9438
9436
9438
9437
9439
9442
9443
9563
9539
9501
9492
9506
9487
9486
9480
9476
9474
9469
9457
9462
9463
9452
9474
9461
9446
9439
9446
9439
9449
9442
9443
9441
9442
9431
9440
9436
9431
9432
9434
9432
9434
9431
9510
9491
9476
9479
9467
9455
9454
9447
9468
9447
9435
9431
9429
9432
9508
9471
9454
9447
9453
9435
9434
9434
9432
9432
9551
9526
9490
9478
9474
9471
9467
9461
9448
9464
9436
9431
9430
9432
9484
9455
9449
9449
9431
9432
9502
9477
9460
9450
9457
9430
9431
9477
9465
9447
9433
9433
9563
9471
9468
9451
9447
9445
9458
9438
9435
9439
9433
9432
9439
9479
9471
9461
9451
9458
9446
9438
9424
9435
9430
9507
9470
9455
9446
9463
9459
9440
9434
9433
9428
9434
9429
9431
9505
9471
9457
9449
9462
9439
9431
9431
9434
9432
9434
9508
9473
9461
9452
9445
9453
9431
9431
9474
9469
9454
9445
9464
9452
9443
9430
9429
9512
9474
9474
9470
9461
9452
9446
9450
9468
9453
9438
9431
9428
9427
9427
9469
9455
9445
9461
9438
9428
9429
9428
9555
9471
9456
9451
9445
9447
9430
9425
9577
9490
9469
9459
9447
9452
9432
9429
9428
9495
9463
9454
9444
9463
9456
9432
9430
9474
9451
9462
9428
9429
9509
9462
9447
9462
9484
9461
9471
9433
9455
9428
9447
9432
9447
9428
9467
9476
9429
9462
9441
9449
9443
9441
9428
9425
9526
9476
9461
9452
9445
9465
9442
9430
9428
9432
9481
9472
9458
9448
9442
9461
9430
9425
9428
9425
9490
9468
9461
9454
9444
9442
9454
9435
9427
9424
9530
9469
9465
9446
9458
9431
9424
9423
9423
9423
9498
9468
9457
9453
9449
9446
9460
9453
9439
9428
9425
9423
9423
9422
9423
9539
9478
9466
9457
9446
9438
9440
9453
9455
9440
9434
9422
9423
9423
9533
9460
9445
9434
9437
9418
9416
9418
9478
9463
9453
9445
9437
9441
9420
9412
9415
9463
9449
9438
9439
9436
9419
9423
9420
9417
9535
9459
9437
9430
9427
9414
9414
9463
9446
9438
9451
9421
9415
9416
9468
9445
9433
9443
9420
9415
9410
9464
9447
9432
9443
9414
9415
9453
9431
9421
9414
9563
9458
9446
9438
9427
9427
9412
9416
9454
9442
9429
9418
9409
9500
9442
9443
9414
9462
9440
9444
9415
9412
9452
9438
9434
9427
9447
9418
9410
9413
9481
9450
9441
9431
9425
9445
9411
9411
9459
9441
9432
9428
9412
9412
9463
9443
9430
9417
9409
9410
9462
9435
9426
9443
9418
9409
9408
9409
9408
9552
9455
9445
9440
9430
9426
9446
9423
9409
9408
9409
9405
9408
9407
9411
9471
9447
9439
9431
9425
9445
9410
9411
9507
9441
9425
9444
9417
9409
9410
9406
9479
9446
9435
9426
9421
9431
9410
9406
9407
9411
9559
9452
9449
9440
9433
9430
9426
9425
9422
9443
9405
9404
9406
9455
9451
9439
9434
9428
9422
9444
9406
9407
9409
9453
9437
9429
9423
9420
9404
9401
9445
9429
9436
9403
9404
9447
9439
9425
9422
9436
9412
9407
9403
9406
9406
9409
9449
9445
9430
9424
9418
9416
9432
9435
9434
9417
9404
9405
9400
9404
9446
9438
9430
9422
9420
9436
9405
9399
9401
9397
9474
9447
9443
9437
9422
9421
9415
9416
9415
9436
9414
9406
9401
9400
9400
9397
9405
9401
9399
9481
9510
9471
9484
9519
9447
9444
9429
9422
9419
9421
9408
9398
9400
9400
9448
9431
9419
9412
9414
9418
9398
9396
9400
9444
9427
9418
9434
9405
9396
9453
9430
9414
9405
9403
9445
9424
9414
9420
9397
9397
9434
9416
9418
9396
9398
9428
9413
9413
9403
9398
9396
9447
9426
9411
9421
9399
9471
9425
9412
9402
9399
9440
9414
9410
9396
9399
9437
9422
9426
9402
9398
9399
9453
9434
9425
9413
9424
9405
9395
9396
9517
9440
9423
9417
9431
9397
9395
9436
9417
9430
9404
9396
9401
9452
9429
9414
9412
9395
9437
9418
9427
9397
9391
9440
9421
9414
9408
9392
9398
9437
9423
9412
9415
9393
9396
9449
9419
9420
9397
9395
9437
9415
9417
9400
9392
9393
9431
9414
9397
9393
9436
9422
9410
9419
9391
9396
9439
9417
9409
9410
9391
9462
9427
9411
9428
9406
9394
9391
9542
9428
9416
9428
9397
9392
9392
9457
9430
9417
9410
9406
9402
9392
9393
9509
9425
9410
9401
9391
9538
9424
9418
9418
9394
9439
9419
9423
9392
9397
9422
9410
9412
9387
9537
9425
9416
9408
9399
9393
9396
9441
9425
9415
9411
9416
9399
9390
9392
9453
9428
9410
9395
9391
9533
9426
9412
9425
9399
9392
9456
9429
9418
9419
9400
9458
9429
9418
9396
9396
9440
9430
9416
9421
9411
9387
9390
9568
9434
9413
9428
9388
9391
9444
9435
9415
9409
9398
9388
9391
9391
9446
9431
9415
9412
9409
9404
9407
9393
9384
9388
9391
9448
9431
9417
9413
9405
9413
9391
9392
9452
9437
9441
9429
9423
9428
9415
9407
9421
9414
9395
9393
9396
9397
9438
9421
9413
9426
9420
9400
9396
9395
9391
9392
9434
9423
9412
9406
9427
9401
9390
9396
9438
9424
9416
9408
9413
9393
9392
9447
9429
9420
9412
9406
9428
9399
9392
9391
9393
9389
9492
9441
9438
9439
9434
9428
9419
9410
9419
9404
9393
9391
9390
9461
9431
9430
9418
9412
9413
9409
9427
9413
9410
9399
9395
9391
9391
9390
9391
9486
9453
9433
9418
9411
9420
9407
9393
9389
9390
9445
9430
9415
9412
9410
9428
9408
9399
9393
9391
9391
9483
9434
9436
9433
9425
9415
9407
9422
9402
9390
9391
9436
9418
9413
9409
9405
9390
9393
9432
9426
9417
9407
9418
9397
9389
9389
9391
9435
9428
9418
9413
9426
9402
9393
9397
9453
9435
9423
9411
9401
9396
9391
9389
9397
9418
9417
9390
9391
9433
9416
9418
9399
9393
9394
9475
9441
9441
9423
9412
9413
9420
9399
9396
9389
9470
9434
9428
9423
9417
9414
9413
9412
9412
9412
9409
9431
9397
9393
9390
9393
9391
9389
9445
9439
9430
9429
9421
9414
9408
9413
9401
9391
9392
9391
9481
9436
9421
9405
9430
9406
9389
9389
9390
9389
9452
9424
9413
9403
9423
9399
9396
9388
9394
9436
9421
9409
9420
9396
9391
9388
9391
9481
9428
9422
9419
9411
9406
9426
9390
9390
9436
9421
9407
9419
9391
9388
9387
9491
9443
9430
9432
9429
9416
9407
9400
9412
9403
9389
9385
9388
9387
9388
9399
9407
9408
9423
9475
9388
9386
9395
9401
9414
9438
9382
9421
9412
9436
9382
9394
9399
9414
9430
9527
9386
9388
9417
9400
9400
9402
9414
9390
9380
9383
9434
9415
9410
9406
9402
9403
9415
9411
9386
9387
9383
9528
9436
9423
9406
9397
9413
9394
9381
9381
9498
9423
9409
9401
9414
9393
9381
9380
9383
9514
9425
9420
9407
9407
9416
9383
9383
9380
9534
9429
9415
9407
9395
9415
9398
9381
9381
9388
9448
9422
9414
9410
9406
9417
9412
9389
9381
9376
9478
9422
9525
9481
9417
9402
9395
9399
9380
9381
9425
9412
9401
9405
9380
9382
9423
9406
9398
9399
9376
9379
9431
9417
9406
9397
9413
9383
9380
9533
9426
9407
9396
9397
9395
9411
9391
9382
9381
9382
9473
9414
9410
9403
9395
9413
9383
9379
9379
9443
9423
9414
9413
9403
9410
9407
9381
9379
9444
9413
9395
9382
9377
9415
9398
9412
9378
9378
9434
9415
9415
9404
9404
9396
9409
9384
9376
9378
9426
9414
9404
9395
9410
9380
9373
9377
9437
9414
9409
9396
9409
9390
9375
9378
9466
9420
9412
9399
9401
9406
9421
9376
9374
9393
9387
9402
9395
9410
9382
9378
9376
9426
9420
9414
9402
9398
9393
9399
9380
9373
9372
9373
9420
9416
9401
9393
9391
9411
9384
9374
9375
9415
9409
9394
9395
9373
9445
9413
9391
9385
9377
9370
9433
9403
9391
9373
9375
9431
9406
9392
9389
9379
9377
9415
9401
9395
9388
9395
9375
9374
9499
9406
9389
9385
9375
9370
9376
9375
9423
9408
9397
9390
9393
9373
9371
9373
9372
9373
9471
9430
9421
9413
9406
9393
9387
9388
9371
9371
9414
9402
9391
9398
9372
9371
9413
9397
9407
9369
9370
9404
9390
9409
9398
9366
9440
9400
9385
9382
9369
9443
9403
9391
9408
9372
9374
9424
9399
9391
9401
9376
9373
9439
9410
9395
9383
9381
9370
9417
9406
9395
9395
9392
9386
9407
9388
9374
9371
9373
9367
9369
9427
9413
9410
9411
9410
9403
9404
9398
9389
9381
9387
9375
9371
9367
9368
9370
9467
9414
9411
9410
9399
9389
9389
9387
9384
9381
9383
9384
9383
9386
9384
9385
9386
9386
9398
9388
9382
9384
9389
9394
9403
9388
9372
9366
9363
9359
9365
9365
9364
9361
9365
9367
9365
9367
9365
9367
9367
9364
9440
9396
9385
9381
9380
9376
9379
9364
9359
9365
9511
9410
9395
9385
9389
9390
9364
9364
9364
9423
9403
9391
9388
9380
9387
9383
9374
9372
9362
9360
9429
9405
9391
9385
9381
9398
9372
9357
9365
9473
9404
9391
9381
9382
9390
9362
9362
9402
9393
9385
9397
9413
9365
9364
9361
9367
9417
9400
9390
9385
9394
9373
9365
9364
9365
9367
9367
9372
9369
9368
9370
9367
9368
9365
9367
9361
9446
9407
9389
9383
9381
9357
9358
9360
9445
9406
9383
9377
9398
9361
9358
9356
9438
9407
9393
9391
9383
9381
9377
9378
9377
9357
9359
9355
9358
9355
9450
9401
9389
9379
9383
9365
9367
9359
9356
9359
9500
9415
9400
9392
9388
9378
9372
9390
9375
9364
9364
9359
9357
9359
9359
9362
9385
9388
9372
9364
9359
9358
9357
9361
9411
9396
9389
9382
9373
9383
9363
9359
9358
9405
9396
9382
9382
9383
9375
9388
9369
9362
9359
9406
9391
9385
9381
9392
9371
9373
9367
9358
9358
9358
9359
9494
9431
9402
9401
9398
9391
9384
9377
9383
9374
9380
9379
9370
9383
9360
9356
9354
9359
9403
9385
9381
9372
9374
9359
9360
9354
9411
9494
9356
9359
9355
9358
9452
9394
9385
9372
9379
9355
9354
9357
9356
9455
9402
9398
9382
9379
9375
9389
9373
9361
9356
9354
9356
9356
9356
9353
9460
9395
9388
9382
9371
9378
9359
9359
9359
9357
9410
9393
9379
9386
9359
9352
9399
9380
9374
9392
9360
9355
9410
9389
9381
9383
9363
9356
9359
9394
9390
9382
9372
9386
9359
9359
9356
9417
9388
9380
9373
9380
9355
9353
9391
9375
9365
9362
9466
9388
9377
9370
9357
9359
9465
9401
9383
9388
9359
9355
9432
9402
9396
9394
9391
9390
9388
9386
9375
9387
9368
9358
9355
9358
9400
9386
9372
9385
9369
9354
9353
9358
9355
9393
9379
9380
9373
9387
9382
9361
9359
9355
9355
9354
9352
9403
9390
9382
9372
9380
9364
9354
9355
9391
9381
9376
9363
9359
9353
9357
9439
9395
9382
9371
9377
9352
9351
9421
9399
9396
9383
9375
9369
9356
9351
9351
9431
9388
9379
9388
9356
9349
9351
9411
9385
9377
9368
9379
9354
9350
9348
9350
9352
9410
9395
9386
9377
9368
9387
9357
9353
9351
9351
9390
9374
9365
9366
9346
9351
9348
9348
9349
9393
9381
9373
9365
9362
9348
9349
9394
9378
9368
9381
9353
9346
9413
9384
9374
9359
9354
9346
9349
9389
9371
9381
9344
9345
9405
9384
9372
9370
9362
9370
9348
9348
9393
9377
9362
9378
9350
9343
9346
9389
9380
9369
9360
9361
9359
9366
9381
9365
9356
9352
9343
9342
9398
9390
9384
9382
9371
9359
9369
9355
9340
9345
9381
9377
9363
9379
9356
9345
9346
9345
9385
9364
9368
9341
9341
9397
9383
9367
9359
9358
9355
9379
9363
9353
9343
9340
9345
9343
9342
9343
9342
9368
9355
9377
9346
9339
9342
9383
9365
9367
9347
9336
9336
9342
9427
9414
9387
9379
9371
9358
9357
9352
9368
9354
9354
9344
9337
9339
9384
9373
9374
9366
9358
9373
9354
9342
9340
9336
9343
9340
9407
9380
9366
9355
9354
9335
9336
9392
9372
9357
9354
9374
9359
9342
9337
9339
9446
9382
9372
9365
9359
9354
9359
9356
9336
9333
9336
9414
9383
9375
9372
9370
9368
9360
9351
9343
9335
9338
9383
9367
9357
9352
9364
9349
9334
9330
9337
9379
9368
9353
9367
9345
9332
9333
9380
9364
9359
9365
9343
9335
9339
9407
9384
9368
9365
9358
9351
9353
9370
9347
9335
9333
9470
9381
9357
9349
9353
9374
9358
9349
9367
9332
9333
9379
9365
9361
9350
9349
9366
9342
9331
9332
9394
9373
9366
9353
9350
9348
9360
9339
9331
9335
9376
9357
9353
9333
9329
9398
9367
9351
9346
9336
9333
9330
9378
9359
9354
9351
9332
9420
9360
9343
9334
9326
9439
9357
9344
9335
9330
9369
9354
9351
9351
9332
9332
9378
9356
9366
9329
9428
9367
9368
9372
9458
9325
9327
9329
9372
9351
9344
9346
9365
9354
9367
9333
9332
9374
9357
9355
9330
9328
9391
9367
9349
9359
9332
9329
9325
9383
9367
9350
9359
9327
9328
9378
9362
9350
9365
9336
9329
9330
9329
9389
9369
9355
9347
9348
9331
9327
9373
9354
9343
9335
9329
9479
9363
9349
9361
9329
9324
9371
9357
9326
9341
9382
9355
9441
9365
9391
9353
9372
9329
9357
9327
9351
9328
9358
9374
9360
9358
9352
9347
9352
9332
9327
9428
9361
9351
9344
9362
9326
9327
9372
9352
9344
9344
9332
9327
9326
9373
9351
9340
9329
9322
9368
9348
9334
9322
9432
9371
9355
9342
9349
9322
9327
9369
9353
9342
9351
9345
9327
9327
9475
9366
9347
9337
9340
9332
9321
9323
9391
9357
9345
9343
9352
9328
9325
9327
9366
9349
9343
9359
9326
9321
9377
9366
9346
9364
9332
9327
9332
9441
9377
9369
9361
9358
9349
9346
9344
9366
9363
9339
9325
9321
9317
9321
9380
9367
9357
9341
9357
9329
9324
9322
9478
9365
9345
9338
9333
9324
9416
9363
9353
9345
9340
9337
9346
9333
9319
9319
9400
9356
9343
9358
9331
9324
9324
9322
9385
9372
9358
9344
9340
9350
9346
9328
9315
9319
9321
9376
9368
9361
9359
9352
9347
9346
9344
9340
9348
9348
9333
9327
9325
9316
9319
9451
9364
9345
9349
9324
9321
9364
9351
9342
9341
9340
9321
9322
9320
9377
9359
9346
9342
9335
9341
9319
9322
9413
9357
9338
9353
9317
9322
9366
9370
9379
9324
9321
9327
9320
9321
9384
9349
9333
9318
9338
9319
9335
9363
9325
9349
9317
9343
9319
9353
9365
9326
9351
9320
9344
9319
9341
9318
9339
9321
9333
9317
9334
9376
9335
9356
9331
9353
9318
9351
9319
9341
9323
9356
9371
9350
9417
9356
9373
9329
9360
9322
9345
9318
9340
9317
9339
9336
9355
9340
9322
9321
9447
9345
9336
9316
9317
9317
9356
9346
9333
9321
9317
9359
9341
9337
9335
9317
9316
9323
9357
9342
9333
9321
9321
9356
9341
9333
9329
9315
9319
9403
9354
9340
9334
9333
9318
9319
9365
9352
9350
9345
9339
9336
9328
9319
9322
9317
9367
9356
9345
9335
9346
9322
9316
9321
9354
9341
9350
9321
9319
9319
9356
9344
9350
9321
9316
9318
9365
9349
9339
9333
9319
9316
9316
9317
9316
9316
9319
9319
9328
9317
9318
9450
9361
9356
9345
9334
9351
9321
9317
9309
9367
9343
9331
9348
9321
9317
9316
9361
9342
9341
9335
9318
9312
9317
9315
9343
9314
9335
9314
9332
9394
9342
9357
9317
9342
9316
9332
9359
9319
9346
9317
9331
9358
9319
9346
9313
9334
9462
9331
9351
9314
9333
9317
9329
9313
9340
9419
9341
9359
9324
9354
9316
9350
9315
9350
9323
9354
9334
9361
9345
9362
9358
9346
9327
9343
9318
9311
9315
9311
9391
9349
9341
9332
9339
9324
9316
9311
9308
9364
9340
9327
9323
9319
9308
9307
9367
9341
9347
9309
9409
9338
9324
9321
9309
9310
9358
9335
9325
9315
9306
9304
9306
9310
9305
9308
9313
9358
9340
9307
9307
9327
9324
9335
9307
9311
9395
9339
9327
9339
9313
9304
9381
9335
9330
9305
9317
9353
9311
9335
9308
9327
9303
9324
9303
9326
9303
9322
9303
9327
9335
9324
9337
9310
9301
9301
9354
9341
9332
9326
9340
9321
9300
9303
9374
9337
9332
9318
9316
9307
9302
9347
9330
9326
9319
9303
9404
9338
9324
9343
9306
9307
9347
9329
9338
9300
9303
9345
9331
9319
9316
9300
9305
9365
9342
9325
9318
9333
9312
9304
9305
9356
9334
9318
9303
9303
9345
9324
9319
9324
9304
9300
9304
9333
9317
9304
9358
9327
9319
9310
9302
9399
9342
9322
9311
9301
9301
9348
9329
9318
9318
9302
9297
9391
9338
9321
9334
9301
9300
9435
9353
9341
9329
9320
9335
9311
9301
9301
9343
9329
9317
9329
9318
9302
9298
9301
9301
9363
9340
9335
9329
9318
9336
9302
9299
9346
9339
9334
9324
9316
9316
9316
9295
9377
9347
9338
9326
9321
9336
9322
9310
9311
9303
9299
9302
9299
9379
9337
9333
9324
9319
9318
9319
9330
9305
9299
9300
9341
9333
9317
9325
9327
9305
9297
9298
9332
9315
9343
9296
9302
9332
9313
9295
9295
9416
9337
9330
9324
9324
9316
9325
9319
9325
9332
9311
9295
9295
9292
9296
9297
9297
9293
9353
9334
9321
9315
9313
9313
9301
9298
9295
9425
9350
9345
9341
9343
9330
9325
9321
9315
9327
9300
9294
9297
9422
9383
9354
9341
9337
9322
9317
9314
9333
9305
9294
9294
9438
9367
9339
9337
9324
9310
9323
9293
9293
9296
9294
9337
9335
9330
9319
9314
9331
9301
9295
9292
9293
9350
9335
9321
9317
9314
9316
9311
9312
9310
9326
9299
9297
9294
9298
9342
9324
9314
9321
9293
9297
9293
9355
9333
9322
9318
9311
9304
9290
9295
9341
9326
9312
9308
9326
9305
9295
9295
9340
9322
9310
9323
9300
9317
9321
9313
9318
9307
9322
9300
9289
9292
9293
9294
9341
9331
9311
9303
9288
9291
9355
9332
9317
9304
9302
9290
9292
9291
9289
9433
9337
9332
9316
9315
9308
9314
9293
9290
9341
9323
9308
9315
9295
9286
9290
9294
9290
9333
9325
9309
9324
9301
9291
9291
9291
9395
9342
9334
9320
9318
9314
9313
9310
9305
9326
9300
9294
9292
9292
9375
9340
9331
9317
9313
9311
9300
9296
9342
9322
9312
9327
9304
9286
9291
9355
9331
9323
9320
9308
9333
9306
9289
9290
9378
9339
9330
9318
9307
9316
9287
9287
9425
9320
9305
9306
9282
9398
9319
9304
9294
9285
9349
9318
9309
9308
9319
9293
9285
9339
9318
9310
9290
9291
9327
9308
9292
9427
9319
9305
9315
9291
9309
9341
9295
9305
9336
9299
9318
9292
9307
9359
9292
9319
9287
9313
9288
9305
9292
9321
9330
9296
9335
9297
9326
9303
9335
9307
9338
9302
9332
9293
9315
9295
9323
9343
9319
9333
9319
9335
9301
9321
9295
9338
9319
9341
9312
9334
9298
9293
9297
9351
9329
9319
9316
9316
9309
9315
9299
9297
9329
9313
9303
9293
9336
9317
9307
9293
9363
9323
9307
9299
9291
9295
9335
9319
9311
9318
9295
9295
9331
9319
9312
9314
9295
9293
9339
9321
9314
9331
9309
9291
9292
9383
9330
9317
9316
9311
9291
9293
9291
9340
9329
9316
9315
9315
9322
9295
9296
9333
9310
9318
9294
9348
9317
9319
9292
9297
9343
9324
9331
9295
9301
9348
9326
9329
9306
9335
9303
9334
9313
9350
9332
9432
9318
9298
9319
9295
9326
9298
9328
9300
9318
9324
9325
9301
9298
9299
9301
9447
9342
9322
9318
9335
9321
9301
9296
9298
9372
9339
9327
9317
9318
9300
9299
9415
9340
9320
9337
9302
9302
9343
9330
9319
9333
9302
9303
9342
9332
9322
9319
9316
9326
9305
9301
9305
9418
9351
9342
9336
9330
9320
9317
9311
9301
9298
9301
9371
9346
9338
9325
9317
9319
9302
9407
9331
9335
9311
9300
9300
9301
9410
9339
9324
9319
9335
9330
9316
9301
9296
9302
9345
9326
9336
9303
9300
9305
9388
9343
9332
9336
9342
9327
9337
9342
9348
9331
9325
9317
9339
9308
9300
9446
9336
9316
9319
9304
9343
9343
9325
9321
9315
9314
9301
9299
9447
9343
9330
9319
9312
9301
9303
9303
9343
9334
9324
9320
9313
9323
9302
9302
9301
9361
9351
9341
9332
9333
9324
9317
9328
9327
9311
9307
9308
9301
9301
9356
9345
9340
9342
9329
9326
9319
9324
9320
9323
9329
9336
9339
9338
9342
9346
9343
9343
9345
9343
9340
9339
9328
9324
9318
9316
9316
9305
9302
9307
9355
9335
9329
9324
9319
9340
9324
9307
9308
9307
9400
9349
9337
9327
9327
9322
9320
9306
9303
9303
9304
9383
9342
9329
9322
9316
9307
9304
9376
9349
9348
9336
9328
9319
9343
9312
9306
9303
9305
9306
9308
9308
9307
9305
9308
9310
9308
9311
9309
9311
9311
9308
9311
9308
9441
9361
9351
9349
9346
9337
9331
9325
9323
9311
9310
9307
9312
9393
9356
9348
9344
9336
9332
9332
9326
9324
9309
9309
9313
9307
9311
9311
9313
9311
9416
9357
9345
9341
9335
9331
9345
9323
9313
9312
9317
9355
9351
9334
9332
9332
9324
9314
9316
9364
9348
9331
9322
9317
9370
9349
9335
9347
9324
9315
9318
9361
9347
9340
9339
9330
9328
9312
9318
9463
9356
9348
9343
9333
9334
9316
9317
9383
9365
9352
9343
9339
9336
9334
9342
9319
9317
9388
9363
9354
9342
9337
9343
9317
9318
9400
9356
9339
9356
9322
9319
9363
9352
9338
9336
9348
9320
9318
9319
9319
9372
9360
9353
9346
9343
9340
9345
9338
9322
9321
9324
9321
9322
9320
9326
9409
9370
9364
9364
9352
9353
9343
9341
9360
9339
9331
9326
9326
9419
9365
9354
9344
9350
9351
9335
9330
9327
9327
9324
9447
9389
9370
9371
9370
9364
9367
9361
9349
9350
9368
9335
9330
9474
9379
9373
9364
9350
9348
9360
9350
9359
9353
9359
9373
9380
9334
9335
9332
9332
9335
9333
9335
9355
9351
9359
9368
9375
9387
9445
9339
9334
9332
9334
9337
9337
9338
9383
9371
9356
9370
9333
9335
9402
9368
9358
9352
9361
9336
9339
9337
9382
9366
9356
9362
9377
9356
9341
9339
9339
9338
9343
9337
9338
9339
9339
9336
9340
9335
9336
9338
9343
9482
9391
9383
9373
9366
9356
9378
9360
9344
9342
9341
9343
9344
9418
9377
9367
9362
9359
9366
9350
9343
9347
9409
9383
9371
9363
9364
9348
9347
9345
9344
9388
9373
9362
9351
9342
9348
9500
9393
9387
9385
9375
9374
9365
9382
9350
9350
9447
9379
9368
9378
9347
9348
9397
9389
9379
9367
9383
9375
9367
9354
9354
9353
9351
9351
9351
9356
9412
9391
9384
9377
9374
9370
9367
9374
9367
9353
9351
9356
9403
9381
9375
9380
9358
9356
9362
9421
9399
9388
9386
9383
9375
9397
9363
9364
9362
9421
9400
9387
9384
9378
9371
9368
9368
9452
9412
9405
9395
9388
9400
9364
9357
9532
9412
9394
9380
9375
9354
9358
9414
9396
9382
9394
9367
9367
9424
9397
9383
9376
9395
9367
9363
9359
9361
9411
9392
9389
9381
9381
9381
9402
9388
9381
9372
9370
9370
9497
9427
9415
9410
9406
9404
9401
9396
9390
9383
9396
9379
9369
9377
9422
9407
9394
9393
9377
9382
9414
9375
9378
9377
9426
9405
9395
9408
9393
9380
9375
9374
9379
9432
9414
9407
9395
9410
9404
9382
9383
9451
9423
9421
9414
9398
9414
9391
9381
9382
9382
9429
9421
9412
9401
9407
9402
9400
9413
9393
9385
9384
9387
9482
9423
9412
9413
9410
9407
9402
9422
9406
9405
9407
9402
9405
9427
9404
9396
9404
9413
9424
9422
9424
9408
9412
9407
9412
9410
9423
9425
9405
9407
9401
9396
9396
9397
9397
9398
9394
9398
9402
9397
9399
9405
9406
9414
9435
9432
9413
9414
9421
9429
9434
9441
9447
9454
9452
9446
9456
9487
9408
9408
9404
9407
9468
9442
9426
9421
9438
9416
9404
9406
9449
9437
9426
9425
9415
9413
9405
9482
9445
9437
9430
9447
9419
9409
9410
9485
9458
9446
9438
9433
9447
9418
9414
9416
9454
9444
9434
9432
9414
9418
9417
9454
9441
9431
9448
9440
9423
9425
9427
9415
9421
9417
9420
9489
9468
9456
9455
9459
9452
9451
9448
9440
9442
9428
9421
9421
9423
9463
9457
9444
9441
9436
9425
9423
9424
9432
9490
9475
9450
9443
9442
9431
9425
9477
9456
9449
9459
9435
9431
9435
9430
9429
9431
9577
9490
9482
9480
9471
9475
9456
9447
9443
9427
9491
9467
9448
9463
9436
9432
9524
9468
9449
9444
9432
9439
9473
9462
9452
9447
9434
9554
9467
9457
9450
9449
9431
9436
9503
9474
9455
9476
9437
9435
9491
9475
9468
9458
9473
9442
9437
9512
9473
9462
9451
9458
9439
9435
9441
9438
9503
9504
9520
9439
9583
9569
9484
9475
9466
9458
9467
9466
9457
9443
9440
9440
9441
9505
9483
9471
9467
9460
9461
9474
9455
9444
9445
9557
9484
9466
9475
9454
9446
9445
9487
9468
9461
9456
9445
9447
9508
9491
9485
9470
9465
9468
9453
9450
9451
9448
9585
9496
9482
9472
9464
9463
9481
9483
9473
9449
9455
9450
9452
9449
9598
9498
9487
9476
9471
9490
9469
9455
9452
9449
9547
9493
9481
9473
9474
9476
9459
9454
9457
9455
9507
9499
9486
9486
9484
9481
9479
9478
9471
9493
9491
9471
9465
9462
9456
9458
9461
9460
9463
9459
9463
9460
9459
9463
9465
9459
9457
9462
9460
9460
9460
9462
9463
9540
9511
9495
9488
9481
9499
9475
9467
9464
9615
9509
9496
9485
9493
9472
9465
9582
9513
9508
9490
9481
9480
9503
9480
9467
9470
9468
9467
9519
9507
9496
9489
9485
9507
9482
9473
9473
9471
9472
9471
9606
9529
9525
9518
9511
9513
9508
9498
9499
9494
9504
9502
9475
9473
9474
9472
9477
9473
9591
9535
9522
9501
9499
9492
9495
9478
9475
9474
9476
9479
9546
9519
9508
9495
9500
9503
9475
9478
9478
9532
9516
9510
9507
9500
9497
9488
9481
9480
9545
9511
9498
9495
9478
9629
9521
9506
9504
9511
9484
9481
9479
9483
9527
9516
9500
9511
9487
9483
9484
9535
9511
9505
9500
9486
9482
9539
9508
9485
9529
9517
9500
9493
9485
9537
9514
9518
9487
9487
9523
9524
9488
9488
9527
9506
9487
9557
9525
9510
9509
9517
9493
9488
9495
9537
9529
9515
9508
9496
9491
9496
9530
9517
9529
9501
9493
9491
9546
9532
9519
9516
9518
9518
9519
9511
9502
9496
9495
9498
9645
9541
9531
9529
9529
9524
9514
9529
9504
9500
9498
9518
9559
9542
9538
9534
9532
9527
9530
9526
9529
9526
9516
9524
9500
9503
9541
9528
9518
9541
9503
9503
9508
9563
9542
9540
9522
9529
9522
9506
9511
9548
9531
9526
9545
9521
9510
9508
9585
9551
9542
9532
9527
9545
9514
9509
9509
9510
9555
9539
9534
9527
9543
9518
9512
9510
9511
9629
9546
9536
9526
9545
9534
9518
9514
9511
9513
9561
9543
9535
9521
9515
9519
9620
9570
9553
9539
9537
9549
9526
9518
9516
9518
9617
9560
9547
9545
9543
9547
9549
9540
9539
9556
9553
9545
9525
9519
9525
9655
9566
9558
9549
9543
9541
9534
9526
9525
9592
9527
9534
9531
9532
9571
9564
9551
9549
9556
9530
9528
9580
9562
9551
9548
9567
9548
9535
9530
9534
9535
9532
9538
9585
9572
9575
9574
9569
9560
9557
9554
9561
9545
9537
9542
9587
9574
9572
9568
9562
9560
9549
9549
9671
9596
9580
9573
9564
9551
9543
9543
9594
9581
9566
9580
9553
9542
9543
9546
9725
9596
9582
9567
9567
9560
9544
9547
9551
9597
9583
9570
9573
9559
9543
9546
9544
9547
9552
9549
9549
9604
9594
9593
9589
9586
9571
9570
9577
9575
9568
9554
9550
9555
9553
9681
9669
9598
9586
9574
9573
9572
9582
9586
9604
9599
9583
9575
9577
9560
9556
9558
9560
9557
9675
9622
9592
9584
9588
9590
9593
9593
9598
9595
9594
9595
9590
9593
9583
9583
9578
9591
9572
9558
9561
9692
9593
9580
9581
9562
9566
9638
9607
9597
9589
9601
9571
9568
9567
9606
9601
9588
9578
9587
9567
9564
9566
9615
9604
9592
9587
9602
9575
9568
9569
9660
9613
9601
9588
9603
9572
9567
9655
9605
9592
9586
9582
9600
9598
9598
9585
9572
9573
9569
9571
9655
9612
9605
9591
9588
9602
9599
9589
9589
9579
9573
9570
9573
9573
9572
9574
9573
9574
9630
9612
9606
9599
9593
9589
9588
9590
9607
9596
9574
9573
9573
9671
9625
9614
9599
9591
9583
9579
9576
9580
9636
9626
9623
9613
9602
9601
9590
9580
9577
9574
9578
9585
9621
9615
9607
9594
9593
9582
9583
9650
9627
9615
9607
9606
9597
9597
9597
9598
9609
9583
9582
9583
9584
9636
9615
9606
9618
9586
9585
9584
9645
9626
9623
9619
9617
9606
9607
9603
9604
9586
9583
9583
9634
9615
9604
9600
9607
9604
9605
9606
9607
9588
9609
9591
9606
9588
9603
9639
9600
9666
9602
9701
9615
9637
9598
9631
9630
9613
9605
9592
9591
9620
9619
9593
9646
9618
9615
9607
9615
9625
9610
9605
9627
9616
9594
9591
9738
9634
9620
9618
9615
9625
9593
9595
9625
9615
9606
9615
9595
9587
9693
9643
9627
9619
9605
9607
9596
9593
9599
9636
9622
9628
9590
9614
9596
9621
9637
9607
9634
9594
9631
9609
9655
9612
9595
9623
9596
9627
9599
9650
9633
9617
9612
9626
9603
9592
9594
9596
9645
9631
9620
9610
9602
9599
9593
9598
9644
9634
9622
9615
9622
9596
9599
9664
9641
9628
9618
9621
9595
9599
9652
9635
9620
9617
9614
9597
9644
9617
9614
9601
9671
9633
9618
9614
9596
9750
9639
9631
9617
9634
9607
9600
9602
9639
9621
9634
9604
9605
9649
9631
9630
9620
9606
9661
9639
9621
9613
9605
9657
9637
9623
9640
9605
9608
9647
9632
9626
9607
9636
9659
9612
9646
9611
9641
9606
9642
9611
9638
9607
9642
9614
9647
9753
9659
9649
9638
9639
9635
9631
9628
9646
9628
9618
9608
9606
9612
9610
9719
9663
9651
9650
9643
9632
9631
9624
9628
9648
9644
9639
9629
9643
9646
9645
9630
9627
9617
9612
9613
9666
9636
9639
9614
9609
9736
9660
9644
9636
9635
9623
9615
9612
9670
9648
9637
9631
9652
9614
9608
9753
9652
9644
9630
9627
9615
9617
9661
9646
9637
9650
9618
9615
9620
9667
9648
9638
9639
9638
9639
9616
9615
9618
9733
9654
9647
9637
9656
9629
9619
9618
9621
9621
9621
9717
9674
9666
9649
9650
9639
9637
9652
9633
9620
9619
9614
9676
9663
9660
9650
9635
9655
9640
9618
9619
9621
9669
9656
9641
9648
9633
9623
9622
9619
9755
9664
9659
9660
9667
9673
9686
9667
9662
9655
9660
9653
9654
9642
9636
9639
9655
9627
9622
9618
9622
9694
9668
9655
9647
9639
9633
9623
9626
9626
9669
9663
9647
9639
9656
9647
9625
9620
9622
9666
9648
9642
9633
9627
9623
9624
9626
9623
9625
9627
9623
9625
9707
9669
9663
9654
9647
9639
9666
9645
9637
9630
9627
9626
9689
9664
9653
9651
9643
9647
9631
9630
9626
9631
9669
9650
9640
9658
9633
9623
9624
9631
9771
9688
9673
9669
9660
9662
9663
9655
9651
9646
9646
9647
9647
9642
9641
9642
9644
9661
9647
9652
9649
9645
9649
9654
9647
9666
9650
9632
9628
9630
9631
9723
9671
9667
9662
9654
9650
9662
9656
9654
9659
9655
9652
9652
9653
9655
9650
9650
9655
9659
9647
9643
9642
9633
9636
9637
9639
9642
9667
9647
9650
9652
9649
9663
9667
9643
9637
9636
9636
9634
9714
9680
9676
9668
9663
9657
9649
9654
9649
9666
9645
9633
9634
9633
9719
9675
9667
9665
9653
9647
9655
9668
9645
9642
9638
9635
9633
9632
9706
9669
9655
9654
9658
9637
9636
9637
9635
9637
9636
9636
9681
9672
9659
9653
9670
9638
9633
9752
9681
9663
9650
9655
9637
9637
9686
9677
9668
9661
9669
9642
9639
9636
9639
9681
9669
9667
9655
9647
9639
9639
9685
9671
9668
9663
9675
9651
9640
9637
9638
9639
9692
9681
9667
9653
9655
9659
9643
9641
9637
9640
9640
9700
9687
9672
9667
9659
9658
9677
9642
9637
9639
9693
9682
9663
9657
9658
9674
9653
9638
9642
9638
9683
9671
9666
9663
9665
9667
9675
9681
9682
9692
9780
9642
9642
9639
9686
9675
9659
9657
9658
9675
9655
9643
9639
9644
9644
9644
9641
9640
9643
9644
9640
9639
9642
9641
9639
9638
9638
9639
9642
9644
9644
9642
9647
9702
9687
9686
9687
9683
9685
9678
9671
9663
9657
9666
9652
9647
9639
9646
9682
9671
9672
9658
9662
9652
9645
9643
9646
9765
9681
9675
9670
9663
9654
9642
9642
9646
9687
9683
9674
9667
9675
9661
9647
9645
9687
9674
9667
9679
9671
9659
9644
9647
9643
9644
9710
9687
9674
9671
9672
9668
9668
9669
9658
9647
9649
9761
9693
9695
9680
9684
9670
9661
9678
9652
9644
9652
9647
9688
9688
9670
9668
9666
9670
9682
9698
9648
9649
9695
9685
9684
9685
9678
9681
9677
9678
9679
9682
9679
9679
9671
9674
9671
9670
9678
9685
9674
9669
9655
9656
9652
9653
9651
9654
9649
9651
9658
9762
9700
9689
9688
9681
9676
9671
9686
9666
9654
9654
9654
9714
9696
9681
9680
9673
9681
9682
9655
9653
9700
9684
9678
9673
9693
9657
9655
9657
9657
9655
9700
9687
9675
9668
9649
9655
9695
9678
9673
9684
9654
9654
9717
9694
9673
9670
9671
9652
9657
9700
9683
9675
9670
9667
9653
9652
9657
9709
9694
9685
9672
9676
9665
9655
9656
9663
9655
9657
9706
9694
9679
9674
9689
9660
9654
9655
9724
9689
9680
9672
9670
9685
9678
9670
9660
9655
9657
9655
9651
9654
9722
9694
9677
9669
9667
9682
9665
9674
9666
9663
9659
9657
9656
9653
9655
9650
9654
9650
9647
9651
9652
9700
9695
9691
9689
9685
9679
9679
9676
9669
9671
9667
9691
9674
9671
9679
9664
9653
9651
9649
9650
9740
9692
9670
9661
9652
9648
9647
9696
9676
9672
9665
9671
9653
9645
9653
9700
9689
9679
9666
9668
9669
9649
9648
9651
9738
9693
9688
9675
9674
9666
9664
9673
9650
9646
9709
9692
9681
9669
9669
9663
9671
9646
9647
9642
9645
9647
9689
9672
9660
9645
9646
9699
9673
9665
9659
9649
9791
9686
9672
9659
9665
9648
9644
9643
9646
9766
9687
9683
9674
9687
9682
9677
9669
9665
9661
9667
9675
9675
9679
9670
9647
9641
9641
9641
9644
9643
9701
9688
9682
9672
9665
9677
9669
9676
9671
9666
9663
9671
9647
9642
9746
9683
9670
9658
9674
9649
9643
9642
9647
9683
9667
9655
9670
9644
9646
9710
9676
9668
9677
9653
9642
9644
9711
9681
9666
9656
9654
9643
9637
9702
9677
9668
9662
9641
9644
9687
9690
9647
9644
9691
9676
9670
9657
9658
9638
9642
9693
9676
9669
9661
9678
9660
9647
9643
9642
9644
9642
9691
9681
9671
9663
9676
9646
9637
9786
9684
9678
9670
9663
9663
9655
9674
9654
9640
9641
9639
9737
9685
9683
9675
9664
9657
9676
9654
9638
9636
9638
9737
9677
9668
9664
9659
9655
9653
9671
9656
9642
9639
9639
9639
9639
9694
9678
9676
9667
9668
9662
9655
9655
9655
9652
9652
9674
9667
9668
9678
9667
9641
9642
9637
9638
9754
9681
9671
9669
9664
9654
9663
9669
9670
9649
9637
9643
9639
9639
9637
9639
9644
9641
9639
9638
9638
9635
9637
9762
9684
9669
9656
9650
9662
9643
9636
9637
9637
9641
9702
9690
9639
9633
9638
9635
9637
9782
9681
9686
9703
9683
9636
9632
9633
9637
9655
9649
9657
9667
9686
9640
9634
9635
9640
9714
9678
9673
9670
9661
9654
9652
9649
9669
9648
9647
9635
9640
9637
9638
9637
9634
9637
9639
9775
9683
9678
9659
9653
9669
9643
9632
9633
9676
9658
9651
9636
9635
9682
9659
9650
9635
9637
9675
9663
9648
9654
9629
9631
9682
9660
9652
9639
9631
9778
9671
9649
9664
9638
9630
9635
9694
9675
9670
9665
9660
9655
9651
9644
9668
9636
9629
9628
9629
9630
9741
9678
9671
9669
9659
9651
9647
9645
9643
9647
9651
9639
9631
9635
9637
9633
9630
9628
9629
9623
9628
9629
9626
9633
9631
9630
9671
9667
9660
9660
9650
9643
9644
9630
9632
9629
9630
9627
9625
9625
9629
9625
9628
9671
9659
9647
9652
9636
9631
9631
9630
9690
9683
9666
9658
9647
9652
9630
9631
9633
9719
9674
9669
9662
9658
9656
9649
9647
9650
9668
9637
9628
9628
9628
9630
9725
9718
9686
9682
9668
9661
9649
9644
9651
9633
9626
9625
9625
9627
9625
9622
9628
9626
9720
9673
9666
9660
9655
9653
9649
9645
9642
9656
9644
9636
9629
9627
9628
9626
9622
9626
9675
9665
9666
9665
9667
9665
9667
9664
9660
9660
9658
9656
9652
9645
9639
9631
9625
9628
9630
9668
9659
9649
9646
9658
9637
9627
9628
9694
9663
9647
9643
9643
9631
9627
9625
9626
9668
9659
9653
9641
9647
9634
9623
9622
9684
9662
9648
9644
9642
9640
9659
9651
9637
9628
9625
9628
9666
9653
9642
9634
9625
9626
9688
9656
9645
9644
9655
9637
9627
9626
9756
9665
9665
9653
9650
9643
9635
9627
9629
9630
9630
9628
9636
9663
9652
9637
9628
9625
9624
9628
9625
9624
9756
9671
9670
9665
9651
9652
9645
9661
9630
9627
9629
9626
9629
9694
9661
9655
9642
9641
9643
9643
9642
9661
9664
9655
9640
9627
9631
9690
9669
9655
9641
9635
9626
9767
9661
9647
9661
9636
9626
9631
9670
9659
9661
9652
9649
9646
9667
9647
9633
9625
9628
9676
9665
9660
9650
9645
9666
9641
9636
9633
9629
9631
9635
9675
9668
9668
9658
9655
9649
9647
9646
9645
9665
9662
9644
9628
9627
9631
9743
9633
9682
9671
9667
9662
9653
9655
9642
9635
9633
9629
9627
9635
9763
9708
9688
9679
9783
9632
9633
9630
9631
9630
9631
9636
9633
9638
9632
9722
9685
9678
9670
9668
9665
9666
9663
9666
9665
9668
9663
9655
9652
9656
9651
9636
9637
9637
9635
9635
9636
9637
9639
9643
9637
9652
9658
9643
9633
9631
9695
9686
9678
9680
9671
9678
9676
9678
9679
9676
9675
9669
9672
9669
9663
9653
9647
9649
9652
9659
9640
9639
9637
9633
9631
9632
9633
9775
9679
9669
9658
9650
9661
9644
9636
9628
9634
9632
9632
9702
9720
9746
9697
9682
9677
9670
9666
9656
9653
9647
9653
9643
9633
9631
9628
9693
9679
9663
9662
9658
9650
9647
9655
9662
9640
9636
9633
9635
9634
9633
9639
9635
9634
9782
9678
9675
9670
9654
9666
9639
9636
9634
9639
9687
9674
9663
9660
9650
9670
9638
9633
9636
9679
9667
9657
9648
9652
9642
9637
9636
9638
9638
9639
9641
9750
9781
9718
9764
9681
9679
9675
9669
9661
9654
9648
9639
9636
9682
9668
9660
9654
9652
9636
9639
9703
9687
9674
9666
9655
9658
9643
9638
9638
9774
9681
9671
9660
9654
9657
9645
9639
9642
9641
9643
9725
9687
9681
9673
9673
9671
9669
9668
9662
9657
9645
9641
9641
9647
9722
9683
9684
9674
9672
9667
9659
9688
9676
9675
9655
9647
9649
9652
9652
9697
9681
9673
9683
9693
9649
9645
9649
9648
9651
9798
9695
9685
9670
9682
9672
9655
9652
9653
9689
9675
9669
9679
9653
9647
9652
9652
9698
9692
9682
9670
9663
9653
9700
9681
9675
9692
9656
9659
9729
9685
9679
9674
9677
9677
9658
9654
9654
9658
9722
9693
9682
9673
9677
9670
9660
9657
9660
9661
9660
9716
9701
9689
9679
9678
9690
9669
9662
9661
9663
9734
9701
9695
9689
9681
9677
9682
9670
9667
9666
9725
9740
9722
9707
9698
9693
9689
9688
9685
9687
9689
9701
9702
9700
9704
9700
9700
9701
9701
9695
9691
9685
9682
9689
9695
9682
9670
9671
9671
9814
9714
9707
9700
9702
9694
9690
9709
9678
9669
9676
9673
9718
9706
9703
9692
9687
9674
9673
9716
9701
9696
9714
9707
9682
9681
9675
9681
9743
9719
9713
9695
9710
9694
9678
9676
9731
9708
9703
9701
9716
9699
9690
9682
9687
9732
9719
9706
9719
9689
9683
9683
9682
9763
9728
9713
9706
9703
9703
9709
9713
9705
9695
9685
9690
9734
9726
9719
9719
9711
9708
9705
9700
9717
9704
9702
9702
9705
9705
9703
9724
9727
9718
9697
9693
9694
9692
9693
9694
9795
9750
9748
9733
9725
9730
9717
9710
9729
9701
9695
9695
9756
9738
9733
9727
9727
9719
9715
9719
9719
9716
9726
9740
9743
9737
9732
9733
9740
9700
9702
9710
9704
9702
9701
9703
9702
9835
9831
9795
9753
9746
9744
9749
9743
9739
9738
9741
9740
9744
9747
9756
9780
9707
9702
9708
9764
9752
9749
9738
9729
9724
9743
9724
9708
9708
9767
9749
9744
9739
9730
9748
9723
9709
9712
9770
9747
9735
9746
9723
9713
9713
9713
9761
9746
9738
9732
9734
9719
9713
9717
9719
9826
9765
9753
9748
9742
9750
9756
9767
9768
9826
9724
9723
9727
9758
9741
9751
9755
9751
9751
9749
9747
9746
9744
9755
9767
9764
9753
9733
9724
9724
9721
9733
9745
9759
9771
9768
9760
9756
9749
9769
9738
9724
9725
9803
9775
9766
9753
9746
9768
9764
9754
9737
9724
9729
9728
9728
9733
9729
9735
9785
9774
9775
9773
9766
9761
9751
9751
9740
9736
9737
9742
9740
9739
9744
9738
9741
9827
9784
9777
9769
9761
9772
9745
9747
9749
9878
9793
9783
9777
9772
9774
9768
9764
9775
9764
9755
9752
9749
9746
9752
9799
9796
9794
9786
9776
9775
9766
9772
9764
9783
9753
9773
9761
9749
9749
9801
9788
9775
9774
9768
9790
9769
9757
9756
9764
9797
9788
9776
9771
9785
9757
9752
9860
9792
9788
9785
9777
9767
9756
9765
9794
9783
9788
9775
9764
9762
9888
9807
9799
9784
9778
9796
9770
9763
9764
9898
9815
9798
9791
9799
9777
9768
9768
9767
9771
9812
9807
9797
9787
9794
9786
9770
9770
9770
9829
9809
9797
9788
9802
9775
9768
9843
9813
9803
9794
9790
9781
9773
9771
9824
9815
9799
9795
9800
9773
9773
9776
9825
9818
9800
9798
9796
9815
9791
9779
9777
9780
9781
9903
9823
9820
9805
9799
9794
9796
9812
9796
9779
9781
9842
9810
9798
9806
9786
9784
9861
9824
9811
9803
9816
9809
9809
9787
9781
9789
9823
9807
9804
9813
9799
9789
9789
9847
9838
9828
9820
9809
9821
9794
9788
9790
9834
9817
9805
9819
9795
9791
9794
9793
9788
9793
9909
9845
9837
9829
9823
9813
9807
9827
9794
9791
9791
9791
9797
9796
9797
9818
9828
9796
9795
9796
9849
9833
9824
9818
9820
9814
9815
9812
9810
9829
9813
9799
9794
9796
9793
9865
9854
9831
9830
9822
9824
9818
9817
9832
9800
9797
9796
9795
9796
9796
9843
9829
9819
9815
9812
9799
9796
9799
9863
9843
9842
9839
9834
9826
9823
9826
9802
9801
9803
9887
9831
9821
9828
9799
9799
9798
9867
9838
9829
9818
9836
9809
9803
9801
9801
9804
9801
9798
9798
9802
9852
9838
9836
9820
9820
9835
9810
9802
9806
9802
9804
9924
9844
9853
9872
9847
9833
9822
9818
9805
9804
9805
9905
9849
9835
9834
9827
9823
9821
9826
9837
9814
9807
9809
9861
9842
9831
9826
9832
9842
9832
9816
9807
9804
9853
9847
9829
9847
9811
9812
9863
9837
9841
9811
9809
9856
9847
9835
9829
9834
9850
9822
9813
9813
9812
9811
9873
9847
9837
9833
9827
9825
9819
9812
9862
9847
9839
9839
9835
9836
9834
9836
9837
9836
9837
9838
9845
9846
9847
9852
9845
9845
9843
9842
9843
9835
9836
9841
9825
9822
9820
9815
9819
9865
9857
9851
9850
9850
9839
9837
9853
9833
9828
9821
9824
9913
9865
9853
9844
9839
9841
9847
9838
9828
9823
9822
9823
9826
9829
9873
9857
9842
9863
9828
9830
9965
9860
9857
9849
9844
9865
9842
9830
9831
9828
9823
9874
9860
9850
9850
9867
9837
9830
9830
9892
9868
9851
9844
9835
9828
9917
9861
9846
9843
9859
9836
9829
9828
9894
9863
9854
9870
9847
9837
9829
9831
9835
9913
9874
9873
9862
9855
9849
9863
9850
9836
9831
9829
9834
9927
9878
9871
9861
9852
9871
9841
9839
9831
9833
9834
9836
9837
9881
9876
9869
9874
9873
9868
9859
9855
9857
9871
9868
9861
9847
9840
9836
9838
9834
9835
9837
9835
9836
9837
9837
9836
9833
9839
9838
9841
9840
9839
9981
9841
9843
9942
9909
9963
9979
9915
9884
9882
9882
9885
9986
9843
9993
9884
9888
9879
9876
9869
9873
9868
9866
9861
9860
9857
9870
9850
9854
9849
9859
9853
9847
9857
9865
9852
9843
9841
9847
9846
9955
9887
9876
9875
9868
9860
9879
9863
9843
9840
9845
9841
9981
9895
9881
9872
9870
9865
9860
9868
9848
9844
9844
9895
9885
9869
9861
9871
9874
9868
9853
9844
9842
9895
9884
9879
9875
9878
9864
9869
9885
9858
9849
9849
9895
9880
9873
9861
9873
9848
9844
9844
9882
9861
9861
9862
9860
9876
9861
9850
9847
9853
9894
9884
9869
9865
9870
9874
9845
9847
9845
9846
9848
9934
9885
9874
9869
9866
9865
9863
9862
9877
9862
9843
9849
9843
9847
9916
9887
9877
9866
9863
9877
9845
9845
9849
9887
9869
9862
9854
9848
9847
9893
9878
9862
9871
9850
9849
9843
9847
9879
9877
9873
9866
9860
9881
9850
9847
9845
9847
9847
9846
9907
9892
9886
9887
9888
9881
9875
9866
9863
9879
9851
9844
9843
9890
9878
9863
9873
9853
9847
9849
9931
9886
9874
9881
9886
9896
9846
9844
9844
9848
9847
9847
9846
9847
9848
9851
9931
9884
9885
9884
9872
9872
9869
9874
9848
9850
9910
9890
9887
9876
9866
9885
9860
9850
9850
9852
9902
9896
9894
9887
9894
9893
9894
9898
9895
9911
9893
9887
9881
9876
9872
9872
9868
9867
9867
9870
9871
9867
9863
9883
9876
9862
9874
9872
9862
9855
9843
9843
9845
9839
9845
9843
9842
9888
9881
9883
9877
9868
9859
9867
9847
9847
9901
9895
9889
9882
9870
9857
9867
9853
9845
9846
9907
9884
9881
9867
9862
9879
9876
9857
9847
9850
9919
9893
9885
9876
9864
9863
9863
9863
9862
9862
9863
9866
9883
9880
9870
9858
9850
9847
9848
9845
9903
9887
9873
9869
9863
9874
9860
9847
9845
9847
9849
9842
9850
9846
9847
9901
9893
9879
9871
9863
9883
9859
9850
9847
9850
9847
9847
9846
9851
9846
9894
9890
9888
9879
9870
9870
9869
9873
9863
9846
9850
9847
9933
9888
9874
9868
9865
9878
9860
9851
9847
9846
9851
9848
9847
9848
9847
9849
9843
9913
9961
9917
9897
9904
9940
9896
9886
9879
9877
9867
9863
9862
9864
9872
9853
9847
9933
9884
9869
9862
9882
9878
9869
9858
9849
9847
9845
9848
9844
9849
9911
9891
9877
9876
9876
9874
9870
9868
9866
9863
9865
9874
9853
9845
9847
9902
9890
9882
9875
9876
9882
9878
9884
9885
9886
9884
9872
9869
9875
9860
9846
9848
9845
9847
9846
9841
9846
9844
9849
9844
9844
9848
9958
9899
9893
9884
9874
9865
9868
9856
9847
9921
9882
9868
9873
9857
9843
9845
9885
9875
9855
9855
9845
9845
9924
9880
9866
9869
9841
9906
9882
9862
9859
9843
9844
9922
9882
9865
9860
9859
9865
9847
9846
9845
9898
9876
9869
9863
9859
9850
9844
9847
9921
9885
9870
9868
9865
9856
9870
9844
9838
9839
9949
9889
9879
9870
9863
9857
9862
9845
9842
9836
9902
9881
9865
9858
9855
9839
9833
9832
9975
9879
9868
9855
9868
9840
9834
9833
9880
9869
9858
9855
9869
9847
9833
9833
9878
9884
9876
9863
9854
9863
9831
9834
9834
9878
9869
9853
9851
9849
9830
9834
9960
9862
9852
9846
9857
9829
9829
9829
9874
9861
9855
9852
9848
9855
9835
9829
9828
9882
9867
9859
9844
9837
9830
9865
9849
9859
9826
9826
9871
9860
9850
9840
9831
9844
9831
9852
9828
9847
9830
9850
9828
9847
9909
9861
9873
9841
9868
9837
9866
9826
9858
9833
9869
9861
9827
9849
9829
9850
9825
9860
9826
9857
9829
9863
9922
9866
9862
9845
9842
9858
9837
9824
9822
9871
9858
9842
9857
9837
9828
9847
9860
9825
9823
9893
9858
9844
9834
9839
9825
9823
9894
9860
9846
9840
9839
9820
9827
9869
9849
9836
9831
9825
9820
9828
9896
9953
9815
9824
9824
9818
9878
9859
9847
9844
9841
9840
9833
9847
9823
9821
9819
9818
9817
9819
9823
9823
9858
9847
9839
9838
9838
9829
9830
9815
9818
9817
9819
9918
9862
9857
9845
9831
9844
9839
9817
9819
9814
9866
9862
9846
9839
9831
9824
9815
9816
9821
9817
9817
9870
9857
9852
9839
9833
9828
9849
9830
9813
9811
9874
9855
9851
9845
9830
9837
9832
9819
9809
9893
9864
9851
9845
9839
9831
9828
9842
9820
9804
9809
9812
9858
9847
9837
9830
9828
9839
9815
9806
9809
9809
9936
9853
9842
9837
9824
9833
9813
9804
9807
9807
9896
9852
9846
9841
9831
9831
9831
9835
9840
9835
9828
9815
9806
9804
9802
9803
9802
9804
9808
9890
9839
9830
9829
9822
9840
9827
9808
9817
9806
9806
9803
9801
9802
9802
9941
9843
9828
9819
9822
9819
9823
9823
9821
9836
9818
9802
9798
9803
9807
9846
9829
9821
9837
9804
9798
9900
9843
9830
9821
9829
9814
9802
9798
9797
9919
9863
9843
9824
9818
9819
9818
9792
9799
9900
9841
9830
9829
9825
9819
9812
9833
9816
9823
9825
9815
9807
9798
9796
9794
9855
9830
9825
9819
9814
9808
9811
9797
9796
9794
9792
9794
9794
9797
9797
9799
9899
9840
9835
9828
9821
9816
9815
9812
9814
9808
9817
9792
9790
9791
9871
9822
9815
9805
9824
9796
9793
9793
9839
9820
9808
9802
9791
9838
9817
9801
9791
9784
9789
9831
9824
9812
9809
9819
9813
9790
9788
9792
9834
9813
9802
9787
9785
9786
9919
9829
9823
9813
9804
9802
9819
9791
9783
9788
9838
9823
9811
9801
9796
9786
9926
9828
9811
9803
9808
9783
9781
9781
9820
9802
9798
9804
9784
9778
9783
9784
9788
9887
9825
9817
9801
9814
9787
9781
9779
9783
9777
9775
9791
9812
9797
9820
9779
9778
9784
9781
9780
9804
9801
9808
9811
9803
9790
9780
9775
9778
9908
9865
9822
9808
9805
9798
9813
9777
9776
9831
9806
9797
9792
9795
9774
9773
9836
9811
9795
9793
9781
9771
9775
9806
9793
9791
9789
9775
9777
9827
9797
9806
9777
9780
9777
9780
9826
9816
9813
9807
9810
9804
9805
9801
9799
9793
9786
9787
9771
9775
9775
9771
9774
9769
9766
9765
9764
9765
9768
9820
9812
9806
9796
9794
9791
9783
9796
9765
9764
9815
9806
9794
9789
9786
9783
9800
9777
9769
9768
9772
9770
9767
9764
9765
9767
9769
9828
9804
9795
9791
9786
9782
9770
9769
9766
9839
9799
9796
9790
9783
9796
9768
9765
9765
9765
9805
9797
9789
9781
9781
9794
9797
9782
9783
9796
9768
9765
9762
9766
9812
9805
9805
9808
9836
9843
9812
9806
9798
9789
9788
9785
9783
9777
9801
9798
9797
9776
9770
9774
9765
9765
9766
9771
9765
9767
9767
9767
9769
9768
9766
9766
9764
9895
9806
9799
9791
9785
9777
9795
9784
9767
9764
9761
9761
9761
9761
9763
9762
9762
9762
9822
9801
9799
9801
9802
9805
9799
9797
9789
9791
9782
9778
9775
9775
9785
9775
9761
9762
9762
9768
9769
9777
9792
9776
9779
9783
9793
9796
9800
9801
9802
9803
9804
9803
9823
9759
9757
9762
9769
9775
9778
9775
9776
9773
9773
9770
9768
9764
9759
9767
9772
9777
9765
9763
9760
9758
9757
9755
9759
9759
9758
9759
9756
9756
9753
9755
9753
9754
9754
9754
9758
9806
9798
9797
9788
9784
9778
9775
9775
9774
9777
9777
9780
9777
9781
9780
9772
9771
9771
9773
9769
9789
9771
9770
9788
9778
9769
9763
9760
9753
9759
9758
9900
9842
9799
9797
9796
9781
9770
9777
9753
9751
9797
9789
9780
9776
9771
9767
9756
9753
9753
9759
9758
9751
9754
9757
9754
9752
9751
9751
9748
9751
9749
9751
9749
9752
9809
9794
9781
9773
9768
9778
9755
9748
9748
9750
9750
9807
9790
9777
9766
9765
9766
9752
9748
9748
9750
9753
9802
9785
9781
9775
9769
9779
9757
9746
9748
9809
9790
9783
9779
9774
9768
9762
9763
9770
9777
9753
9767
9767
9761
9750
9750
9745
9747
9749
9742
9741
9743
9879
9784
9773
9769
9768
9765
9759
9759
9759
9759
9760
9758
9779
9773
9767
9771
9768
9742
9737
9743
9741
9738
9735
9738
9737
9735
9823
9808
9786
9778
9780
9781
9786
9735
9767
9758
9754
9757
9765
9757
9742
9739
9734
9735
9791
9767
9754
9770
9754
9758
9740
9734
9739
9735
9840
9796
9783
9780
9773
9764
9762
9760
9754
9750
9753
9747
9738
9735
9735
9737
9741
9781
9774
9770
9766
9757
9759
9757
9757
9749
9750
9735
9734
9731
9733
9732
9735
9735
9727
9738
9732
9782
9777
9772
9760
9758
9751
9747
9755
9739
9732
9731
9729
9734
9730
9830
9795
9772
9770
9769
9766
9757
9754
9749
9740
9730
9733
9783
9770
9755
9747
9764
9738
9732
9729
9732
9776
9769
9759
9753
9744
9729
9735
9783
9765
9754
9750
9759
9730
9730
9727
9779
9767
9765
9762
9756
9753
9745
9748
9763
9755
9732
9735
9728
9732
9727
9729
9727
9724
9728
9803
9801
9778
9769
9759
9747
9766
9753
9743
9730
9727
9731
9812
9783
9774
9767
9765
9753
9764
9730
9726
9726
9726
9731
9857
9775
9772
9767
9768
9759
9751
9748
9765
9756
9734
9733
9727
9725
9726
9773
9771
9759
9746
9746
9733
9725
9723
9729
9769
9765
9750
9743
9756
9732
9726
9727
9727
9862
9769
9762
9752
9743
9750
9745
9737
9740
9727
9726
9810
9767
9753
9743
9741
9754
9733
9723
9724
9771
9748
9743
9736
9756
9736
9727
9723
9722
9721
9789
9772
9765
9765
9752
9756
9749
9742
9741
9747
9759
9753
9740
9741
9741
9736
9750
9759
9735
9748
9761
9724
9722
9758
9755
9766
9771
9778
9775
9798
9797
9802
9766
9765
9762
9763
9765
9768
9766
9803
9829
9832
9807
9721
9720
9723
9726
9724
9719
9863
9786
9780
9767
9767
9717
9721
9743
9735
9737
9738
9735
9757
9742
9722
9719
9722
9718
9861
9766
9762
9753
9743
9738
9742
9743
9742
9743
9745
9749
9751
9753
9753
9758
9771
9722
9712
9721
9743
9738
9743
9753
9755
9755
9755
9759
9760
9753
9751
9745
9743
9742
9741
9741
9739
9737
9738
9739
9737
9730
9733
9736
9734
9738
9733
9734
9737
9736
9743
9747
9746
9754
9762
9763
9763
9761
9761
9759
9759
9763
9755
9748
9738
9729
9748
9731
9731
9742
9748
9734
9714
9719
9714
9713
9714
9763
9751
9753
9761
9825
9759
9712
9711
9717
9711
9712
9770
9756
9752
9744
9732
9733
9729
9729
9749
9722
9713
9713
9754
9745
9737
9726
9750
9717
9715
9707
9711
9763
9739
9729
9729
9711
9714
9765
9751
9739
9734
9726
9724
9711
9709
9704
9754
9730
9730
9738
9719
9710
9714
9766
9744
9743
9737
9727
9747
9750
9737
9726
9719
9716
9715
9713
9713
9877
9794
9762
9753
9743
9737
9731
9728
9721
9709
9705
9709
9713
9782
9762
9755
9737
9737
9727
9740
9721
9717
9710
9706
9708
9707
9704
9708
9704
9711
9831
9779
9753
9735
9736
9728
9727
9711
9707
9708
9710
9756
9745
9737
9734
9725
9727
9727
9729
9725
9727
9726
9734
9731
9727
9744
9708
9705
9795
9741
9732
9727
9727
9719
9735
9707
9703
9702
9705
9828
9738
9729
9723
9720
9724
9724
9735
9717
9708
9703
9701
9708
9777
9747
9743
9735
9729
9729
9728
9731
9723
9719
9715
9717
9708
9706
9702
9702
9770
9746
9745
9741
9737
9728
9721
9720
9712
9702
9703
9756
9737
9724
9718
9714
9705
9705
9749
9732
9727
9723
9713
9711
9701
9701
9743
9734
9719
9718
9738
9715
9702
9701
9703
9703
9703
9701
9784
9747
9735
9726
9716
9735
9719
9705
9700
9698
9752
9735
9730
9727
9719
9716
9717
9734
9702
9698
9701
9743
9725
9714
9723
9715
9698
9698
9700
9844
9777
9786
9769
9758
9743
9735
9734
9731
9730
9727
9716
9714
9710
9718
9698
9694
9698
9695
9699
9743
9738
9739
9734
9737
9727
9724
9717
9713
9724
9714
9700
9695
9695
9695
9783
9734
9723
9714
9732
9709
9700
9693
9695
9750
9734
9721
9714
9727
9702
9695
9694
9695
9693
9712
9752
9772
9750
9751
9740
9737
9732
9730
9727
9726
9727
9716
9712
9710
9711
9716
9713
9706
9707
9731
9709
9694
9698
9737
9724
9716
9710
9709
9729
9700
9693
9694
9695
9695
9694
9698
9693
9691
9693
9691
9693
9783
9726
9717
9711
9707
9722
9716
9709
9708
9703
9715
9727
9729
9726
9718
9726
9702
9700
9690
9689
9687
9693
9740
9730
9727
9725
9722
9715
9712
9705
9719
9693
9689
9687
9690
9689
9686
9687
9763
9727
9721
9716
9715
9716
9711
9709
9705
9703
9700
9716
9686
9685
9685
9686
9685
9690
9687
9725
9726
9719
9715
9702
9704
9698
9717
9715
9711
9706
9690
9687
9686
9683
9684
9686
9684
9685
9777
9722
9722
9708
9701
9698
9711
9686
9678
9680
9681
9755
9723
9717
9716
9711
9703
9701
9696
9713
9687
9681
9678
9761
9718
9709
9703
9699
9706
9685
9683
9678
9733
9710
9702
9701
9677
9677
9774
9712
9701
9699
9715
9676
9675
9736
9709
9699
9703
9678
9672
9813
9747
9722
9722
9709
9702
9695
9703
9693
9711
9687
9678
9671
9672
9722
9714
9705
9700
9700
9697
9695
9692
9707
9679
9691
9687
9689
9692
9692
9678
9672
9676
9823
9724
9714
9701
9689
9691
9675
9669
9670
9717
9707
9698
9692
9709
9688
9671
9669
9670
9716
9703
9691
9706
9682
9670
9673
9715
9705
9697
9697
9684
9669
9671
9813
9716
9702
9689
9687
9669
9670
9672
9714
9701
9692
9688
9701
9669
9669
9742
9710
9695
9685
9705
9676
9676
9679
9670
9669
9670
9670
9729
9711
9702
9693
9689
9685
9701
9668
9667
9669
9670
9722
9708
9705
9700
9687
9687
9701
9693
9678
9669
9663
9666
9668
9665
9668
9710
9704
9700
9690
9684
9671
9663
9731
9705
9690
9683
9686
9689
9671
9665
9804
9704
9693
9683
9683
9662
9663
9664
9809
9715
9708
9700
9687
9678
9699
9692
9665
9660
9666
9712
9702
9703
9692
9688
9684
9678
9679
9680
9678
9679
9681
9676
9674
9678
9683
9690
9666
9663
9660
9662
9721
9701
9695
9686
9679
9677
9680
9663
9663
9729
9701
9693
9687
9681
9679
9695
9671
9661
9662
9660
9666
9722
9718
9696
9686
9684
9678
9696
9677
9657
9660
9663
9663
9799
9710
9701
9692
9679
9677
9674
9693
9679
9660
9659
9655
9705
9697
9699
9690
9691
9690
9679
9679
9676
9679
9655
9659
9710
9700
9684
9676
9674
9689
9663
9652
9763
9684
9677
9671
9667
9690
9663
9663
9656
9655
9658
9707
9697
9679
9677
9675
9671
9674
9671
9670
9672
9670
9668
9682
9685
9683
9688
9687
9673
9678
9677
9665
9654
9649
9652
9753
9691
9675
9668
9686
9663
9657
9650
9651
9653
9656
9699
9684
9674
9670
9661
9656
9653
9649
9651
9654
9652
9650
9732
9697
9703
9700
9698
9692
9695
9690
9684
9676
9669
9672
9669
9669
9670
9671
9666
9684
9686
9682
9686
9687
9685
9687
9673
9657
9663
9660
9650
9652
9650
9652
9651
9721
9697
9695
9684
9677
9669
9664
9666
9667
9663
9669
9667
9669
9668
9666
9678
9669
9655
9653
9653
9649
9651
9655
9655
9653
9798
9700
9694
9693
9690
9690
9701
9697
9692
9696
9702
9702
9696
9691
9686
9674
9670
9669
9664
9689
9668
9648
9650
9745
9687
9671
9679
9654
9644
9647
9653
9693
9686
9687
9679
9677
9685
9681
9672
9664
9679
9657
9651
9644
9646
9763
9689
9686
9675
9670
9669
9668
9665
9681
9659
9655
9648
9647
9645
9645
9651
9644
9700
9687
9687
9682
9672
9668
9669
9668
9671
9665
9661
9662
9666
9659
9674
9665
9677
9678
9671
9665
9667
9662
9647
9645
9645
9645
9646
9646
9645
9643
9648
9647
9647
9703
9772
9779
9702
9678
9676
9671
9671
9674
9671
9669
9670
9668
9658
9664
9682
9653
9642
9647
9719
9686
9683
9672
9669
9666
9663
9663
9660
9663
9666
9664
9670
9673
9672
9679
9674
9676
9668
9670
9666
9666
9663
9663
9658
9678
9674
9676
9646
9647
9641
9637
9644
9643
9691
9679
9670
9663
9659
9671
9660
9645
9641
9643
9687
9673
9667
9662
9657
9658
9645
9638
9642
9643
9643
9764
9649
9646
9645
9645
9750
9691
9689
9682
9682
9678
9668
9672
9672
9672
9675
9666
9666
9657
9672
9678
9665
9671
9646
9640
9643
9642
9639
9785
9702
9754
9712
9781
9638
9695
9682
9684
9676
9671
9673
9668
9666
9663
9662
9660
9659
9659
9678
9644
9642
9643
9717
9683
9669
9661
9662
9672
9656
9641
9644
9641
9703
9700
9681
9671
9656
9665
9646
9639
9640
9639
9637
9643
9639
9639
9643
9692
9678
9663
9658
9678
9644
9641
9638
9638
9686
9669
9663
9661
9662
9656
9657
9656
9667
9657
9645
9638
9636
9639
9783
9671
9657
9675
9664
9651
9638
9634
9637
9635
9636
9638
9639
9636
9631
9635
9636
9638
9637
9640
9641
9643
9641
9642
9660
9650
9657
9667
9671
9674
9673
9634
9636
9665
9654
9678
9635
9636
9647
9660
9709
9633
9661
9655
9674
9684
9775
9774
9632
9627
9629
9633
9772
9631
9757
9634
9765
9717
9707
9627
9627
9633
9629
9633
9638
9636
9630
9628
9628
9624
9629
9630
9627
9768
9674
9663
9660
9661
9671
9671
9668
9668
9670
9674
9681
9672
9667
9663
9655
9654
9666
9663
9668
9665
9670
9670
9663
9669
9686
9679
9674
9670
9665
9657
9643
9660
9646
9645
9645
9638
9632
9631
9623
9622
9624
9623
9767
9699
9687
9678
9728
9629
9626
9629
9630
9660
9642
9646
9642
9642
9641
9636
9637
9656
9656
9649
9637
9627
9622
9620
9620
9766
9670
9662
9654
9655
9650
9644
9642
9642
9643
9637
9637
9660
9637
9622
9619
9617
9620
9670
9660
9651
9639
9635
9634
9639
9658
9648
9629
9616
9619
9617
9613
9622
9620
9619
9707
9673
9667
9655
9643
9634
9638
9623
9622
9620
9619
9692
9668
9662
9657
9651
9650
9650
9643
9634
9639
9631
9652
9627
9617
9614
9617
9619
9615
9615
9617
9615
9747
9661
9665
9674
9666
9659
9655
9656
9654
9649
9639
9640
9635
9635
9638
9636
9639
9635
9649
9624
9613
9612
9613
9609
9607
9607
9611
9609
9608
9610
9611
9610
9613
9619
9618
9611
9608
9612
9616
9617
9611
9609
9608
9611
9607
9610
9607
9656
9646
9644
9637
9637
9636
9641
9632
9634
9634
9631
9636
9628
9629
9627
9625
9625
9625
9623
9622
9620
9624
9625
9624
9626
9626
9644
9622
9644
9634
9636
9643
9630
9622
9621
9623
9621
9639
9621
9638
9644
9619
9631
9612
9607
9604
9695
9649
9649
9647
9642
9635
9627
9637
9624
9607
9605
9605
9600
9606
9608
9754
9660
9642
9634
9632
9631
9633
9631
9627
9629
9625
9630
9632
9639
9644
9638
9636
9636
9636
9637
9639
9633
9625
9617
9617
9639
9619
9620
9622
9621
9639
9639
9631
9630
9619
9615
9612
9612
9600
9602
9600
9602
9604
9746
9647
9643
9633
9627
9620
9633
9604
9600
9597
9672
9638
9631
9620
9616
9614
9611
9598
9603
9644
9628
9618
9616
9611
9603
9598
9604
9602
9646
9634
9628
9620
9615
9599
9601
9600
9599
9651
9638
9627
9620
9619
9638
9617
9607
9602
9601
9646
9636
9626
9617
9615
9595
9590
9672
9637
9614
9617
9595
9595
9641
9635
9620
9623
9607
9599
9599
9649
9629
9628
9617
9611
9611
9598
9591
9643
9641
9637
9630
9623
9618
9615
9628
9612
9602
9596
9597
9602
9707
9658
9639
9641
9630
9622
9611
9606
9592
9596
9654
9626
9620
9617
9596
9599
9692
9636
9620
9623
9604
9596
9599
9662
9637
9628
9621
9616
9617
9615
9604
9600
9601
9721
9645
9642
9628
9625
9631
9628
9602
9596
9596
9596
9802
9645
9631
9615
9637
9601
9591
9596
9650
9637
9621
9612
9617
9603
9595
9594
9670
9643
9640
9635
9622
9614
9606
9611
9596
9590
9591
9591
9595
9671
9655
9639
9634
9625
9614
9610
9631
9625
9599
9598
9591
9593
9595
9737
9633
9621
9621
9614
9620
9631
9657
9591
9602
9629
9618
9643
9597
9594
9594
9593
9591
9588
9593
9592
9675
9639
9624
9614
9610
9622
9594
9590
9596
9636
9619
9611
9622
9592
9593
9593
9637
9621
9611
9606
9625
9597
9588
9592
9633
9610
9629
9611
9591
9594
9591
9596
9685
9636
9630
9620
9610
9607
9624
9606
9592
9590
9596
9717
9647
9631
9630
9624
9630
9634
9630
9628
9631
9627
9659
9637
9627
9618
9610
9611
9605
9622
9600
9591
9590
9590
9588
9589
9596
9593
9637
9635
9623
9610
9610
9614
9594
9591
9587
9591
9591
9591
9589
9713
9646
9638
9635
9633
9628
9623
9617
9609
9609
9607
9605
9607
9626
9621
9589
9588
9590
9636
9631
9623
9619
9620
9615
9612
9606
9615
9596
9591
9591
9590
9588
9592
9588
9637
9631
9629
9625
9615
9614
9614
9606
9606
9613
9620
9619
9619
9611
9612
9618
9597
9594
9591
9591
9594
9666
9631
9626
9617
9608
9626
9595
9588
9659
9633
9626
9618
9610
9620
9595
9589
9590
9592
9593
9628
9618
9611
9610
9606
9606
9625
9614
9598
9593
9589
9588
9595
9641
9630
9633
9634
9622
9615
9617
9613
9607
9605
9617
9598
9588
9589
9591
9679
9634
9630
9618
9609
9620
9603
9588
9590
9584
9585
9586
9583
9584
9585
9739
9641
9634
9622
9613
9605
9615
9600
9585
9586
9589
9630
9619
9607
9614
9586
9586
9621
9599
9599
9583
9636
9617
9605
9606
9585
9583
9585
9655
9622
9610
9604
9613
9602
9584
9587
9656
9610
9598
9599
9586
9579
9627
9618
9606
9596
9617
9587
9584
9635
9610
9601
9598
9581
9583
9623
9606
9599
9607
9584
9579
9583
9581
9650
9623
9607
9597
9601
9585
9580
9694
9619
9598
9596
9583
9583
9622
9605
9593
9600
9581
9575
9577
9621
9607
9596
9592
9578
9581
9577
9581
9625
9607
9597
9585
9581
9630
9610
9595
9591
9576
9573
9624
9607
9599
9611
9584
9581
9579
9580
9629
9614
9603
9619
9578
9577
9682
9620
9607
9599
9611
9585
9577
9580
9617
9607
9598
9615
9583
9582
9574
9578
9732
9669
9623
9607
9603
9590
9607
9592
9577
9575
9577
9622
9612
9601
9592
9615
9586
9581
9575
9577
9700
9623
9605
9599
9591
9607
9583
9574
9575
9638
9619
9607
9596
9610
9581
9578
9658
9606
9594
9599
9578
9580
9687
9622
9607
9596
9590
9598
9574
9573
9679
9615
9603
9593
9598
9579
9578
9655
9617
9600
9596
9612
9577
9572
9687
9614
9589
9583
9575
9659
9610
9594
9585
9575
9635
9617
9599
9607
9580
9577
9655
9606
9593
9581
9574
9618
9599
9593
9574
9576
9618
9603
9593
9577
9579
9621
9605
9599
9606
9574
9577
9625
9604
9596
9597
9577
9573
9676
9613
9601
9598
9591
9604
9580
9574
9574
9631
9613
9600
9592
9591
9591
9575
9576
9573
9610
9589
9579
9569
9670
9612
9600
9594
9613
9583
9576
9573
9577
9650
9619
9609
9602
9592
9601
9579
9577
9575
9571
9573
9577
9573
9573
9576
9630
9605
9597
9588
9591
9575
9575
9625
9612
9594
9589
9599
9574
9574
9572
9615
9606
9598
9594
9591
9607
9607
9601
9590
9577
9575
9576
9577
9612
9595
9607
9635
9574
9574
9576
9631
9609
9605
9593
9611
9580
9571
9573
9585
9591
9591
9595
9611
9603
9586
9577
9572
9573
9695
9604
9588
9579
9589
9605
9604
9598
9578
9572
9572
9674
9628
9618
9608
9601
9590
9603
9580
9576
9571
9570
9572
9626
9611
9594
9591
9594
9582
9574
9573
9623
9610
9598
9596
9596
9575
9570
9573
9636
9621
9614
9603
9595
9596
9589
9586
9590
9606
9604
9582
9577
9575
9576
9574
9574
9570
9572
9573
9614
9603
9592
9586
9599
9607
9602
9579
9571
9571
9572
9572
9579
9711
9705
9629
9615
9608
9596
9591
9587
9601
9585
9577
9574
9581
9585
9587
9573
9576
9572
9573
9573
9573
9713
9651
9613
9610
9603
9593
9585
9607
9583
9572
9572
9573
9573
9618
9611
9600
9594
9594
9592
9588
9604
9577
9575
9572
9572
9574
9572
9617
9615
9606
9605
9605
9596
9596
9588
9599
9581
9580
9581
9617
9613
9607
9602
9598
9612
9589
9574
9572
9696
9621
9613
9603
9593
9591
9607
9581
9571
9572
9632
9619
9602
9590
9592
9572
9569
9568
9573
9570
9647
9674
9569
9580
9578
9573
9569
9570
9703
9628
9611
9605
9589
9590
9602
9584
9579
9578
9575
9571
9573
9659
9613
9593
9605
9580
9570
9572
9574
9625
9614
9615
9610
9605
9590
9596
9588
9580
9573
9572
9572
9572
9572
9694
9619
9611
9605
9599
9597
9596
9589
9590
9594
9590
9600
9606
9586
9583
9588
9599
9611
9674
9574
9574
9575
9608
9585
9588
9589
9586
9600
9593
9591
9592
9586
9606
9589
9574
9572
9631
9604
9597
9589
9587
9580
9576
9570
9570
9572
9627
9603
9593
9607
9605
9581
9574
9571
9572
9572
9570
9572
9573
9569
9575
9574
9651
9626
9619
9634
9617
9615
9611
9607
9602
9592
9605
9575
9572
9574
9629
9606
9591
9605
9572
9574
9621
9608
9596
9607
9583
9585
9580
9576
9574
9575
9573
9653
9612
9600
9594
9583
9592
9573
9572
9620
9607
9599
9595
9604
9593
9575
9577
9636
9608
9599
9590
9596
9572
9574
9636
9606
9599
9592
9604
9577
9574
9573
9669
9621
9609
9602
9593
9606
9580
9574
9574
9573
9617
9601
9590
9589
9577
9572
9574
9573
9617
9604
9595
9592
9577
9575
9633
9607
9598
9590
9607
9573
9573
9576
9631
9615
9604
9604
9592
9605
9582
9574
9572
9636
9613
9601
9598
9593
9588
9573
9575
9660
9613
9607
9598
9590
9607
9581
9573
9632
9605
9593
9589
9591
9574
9575
9573
9574
9624
9615
9606
9599
9595
9607
9597
9574
9576
9575
9573
9574
9572
9572
9573
9658
9620
9606
9598
9593
9589
9597
9571
9574
9570
9571
9574
9691
9614
9612
9609
9604
9601
9598
9592
9600
9588
9573
9574
9572
9570
9571
9570
9689
9615
9606
9606
9598
9587
9586
9606
9597
9596
9591
9588
9578
9578
9586
9572
9571
9570
9566
9569
9567
9615
9610
9607
9606
9604
9599
9598
9591
9589
9595
9607
9607
9603
9598
9595
9590
9590
9583
9580
9603
9585
9582
9579
9583
9578
9575
9574
9572
9569
9569
9569
9564
9567
9567
9567
9564
9681
9566
9565
9702
9615
9613
9623
9611
9604
9602
9591
9587
9582
9580
9567
9566
9612
9596
9583
9582
9562
9564
9679
9606
9596
9581
9594
9583
9561
9563
9636
9593
9589
9582
9574
9592
9569
9567
9564
9565
9564
9564
9558
9561
9695
9606
9598
9581
9580
9578
9594
9583
9569
9561
9563
9562
9563
9619
9602
9585
9597
9566
9562
9560
9623
9596
9583
9596
9567
9557
9625
9591
9582
9596
9573
9562
9563
9559
9562
9615
9605
9595
9587
9583
9581
9574
9575
9596
9598
9567
9561
9704
9601
9583
9581
9600
9565
9563
9562
9605
9588
9575
9590
9567
9559
9557
9615
9591
9580
9574
9572
9571
9563
9559
9561
9559
9604
9589
9577
9578
9560
9557
9557
9606
9589
9574
9594
9566
9587
9572
9574
9556
9689
9594
9580
9572
9590
9566
9559
9560
9558
9600
9589
9578
9579
9563
9554
9556
9559
9604
9596
9580
9574
9593
9569
9559
9554
9557
9605
9586
9580
9574
9583
9577
9563
9553
9554
9551
9553
9602
9596
9583
9587
9583
9578
9575
9589
9586
9578
9577
9573
9572
9583
9557
9553
9554
9551
9606
9597
9589
9579
9572
9592
9554
9552
9599
9580
9573
9562
9558
9588
9574
9575
9553
9554
9603
9584
9573
9562
9552
9628
9595
9580
9567
9570
9553
9553
9554
9605
9590
9576
9570
9582
9553
9549
9552
9605
9585
9570
9576
9562
9548
9551
9601
9581
9570
9583
9550
9554
9597
9574
9566
9552
9549
9553
9596
9583
9571
9566
9581
9577
9566
9551
9551
9631
9589
9571
9589
9555
9553
9620
9582
9574
9585
9549
9551
9583
9572
9574
9547
9547
9600
9583
9574
9567
9574
9548
9551
9584
9568
9559
9548
9614
9587
9574
9565
9567
9548
9676
9579
9563
9554
9546
9625
9579
9566
9581
9554
9549
9545
9548
9611
9581
9567
9563
9563
9579
9548
9543
9547
9611
9588
9583
9575
9566
9570
9573
9576
9558
9555
9551
9551
9545
9544
9546
9546
9547
9643
9597
9599
9602
9596
9589
9588
9597
9548
9609
9597
9588
9546
9545
9567
9566
9580
9601
9545
9551
9560
9564
9568
9578
9593
9546
9545
9564
9565
9578
9596
9545
9546
9546
9547
9591
9569
9580
9546
9542
9544
9601
9581
9579
9573
9566
9573
9555
9548
9541
9545
9545
9583
9574
9572
9561
9581
9543
9539
9617
9576
9561
9560
9549
9543
9546
9540
9669
9589
9575
9564
9550
9543
9546
9607
9585
9577
9564
9579
9550
9545
9543
9600
9596
9586
9583
9588
9575
9573
9569
9565
9576
9565
9553
9540
9542
9539
9591
9574
9560
9577
9541
9537
9537
9605
9580
9564
9579
9563
9544
9546
9577
9556
9562
9565
9555
9571
9541
9534
9538
9577
9562
9554
9566
9542
9537
9537
9639
9578
9559
9557
9563
9542
9538
9592
9577
9567
9563
9550
9550
9540
9534
9537
9583
9574
9564
9554
9552
9536
9543
9635
9578
9575
9569
9564
9559
9557
9555
9559
9544
9537
9536
9629
9574
9566
9554
9566
9545
9541
9542
9539
9538
9643
9578
9568
9557
9551
9566
9555
9540
9537
9536
9596
9575
9567
9555
9549
9542
9538
9583
9567
9557
9552
9555
9538
9538
9578
9571
9560
9550
9554
9540
9535
9531
9574
9557
9562
9538
9538
9581
9570
9553
9561
9535
9535
9580
9564
9548
9541
9532
9573
9552
9541
9536
9584
9563
9551
9546
9534
9664
9567
9556
9552
9535
9614
9570
9549
9538
9531
9569
9551
9549
9547
9533
9531
9598
9567
9555
9549
9539
9536
9572
9549
9538
9534
9673
9576
9564
9557
9556
9548
9546
9539
9535
9537
9567
9556
9549
9541
9535
9536
9575
9562
9553
9567
9535
9532
9537
9617
9573
9557
9550
9537
9532
9572
9561
9553
9548
9550
9539
9535
9595
9574
9556
9550
9554
9530
9532
9573
9558
9567
9535
9531
9566
9555
9555
9533
9573
9553
9575
9534
9562
9533
9550
9573
9529
9549
9653
9546
9564
9532
9554
9533
9546
9534
9576
9568
9561
9549
9549
9561
9541
9529
9527
9679
9574
9561
9547
9545
9549
9540
9535
9528
9530
9531
9590
9573
9562
9553
9561
9550
9548
9561
9544
9532
9530
9671
9573
9557
9546
9536
9527
9599
9553
9547
9530
9525
9590
9561
9547
9557
9530
9550
9532
9537
9557
9527
9555
9567
9533
9561
9521
9539
9525
9538
9574
9538
9563
9525
9554
9524
9542
9623
9531
9547
9518
9535
9567
9525
9553
9520
9546
9519
9535
9671
9541
9523
9537
9514
9537
9521
9538
9518
9548
9519
9548
9519
9556
9515
9519
9563
9556
9542
9539
9538
9553
9541
9519
9511
9515
9516
9519
9561
9545
9535
9543
9522
9511
9513
9516
9643
9553
9535
9526
9518
9510
9514
9627
9587
9584
9554
9550
9544
9538
9531
9531
9529
9510
9510
9513
9553
9534
9545
9511
9510
9557
9545
9530
9540
9513
9515
9515
9551
9534
9529
9526
9515
9508
9509
9509
9548
9537
9525
9513
9508
9581
9573
9557
9543
9534
9527
9543
9516
9507
9638
9558
9540
9532
9522
9524
9511
9507
9506
9507
9552
9536
9531
9525
9533
9509
9509
9509
9509
9544
9524
9532
9503
9510
9550
9531
9522
9519
9500
9504
9627
9555
9548
9534
9525
9518
9514
9509
9509
9610
9548
9528
9522
9541
9513
9506
9503
9502
9595
9543
9535
9531
9524
9511
9506
9585
9558
9549
9545
9541
9532
9523
9515
9537
9535
9534
9530
9517
9503
9501
9502
9502
9546
9529
9522
9542
9513
9502
9499
9603
9544
9525
9517
9525
9504
9500
9589
9541
9527
9518
9528
9500
9503
9536
9522
9536
9504
9502
9555
9535
9519
9538
9509
9499
9502
9530
9567
9543
9537
9536
9524
9518
9522
9518
9517
9532
9534
9506
9498
9502
9550
9545
9537
9519
9517
9513
9532
9502
9495
9564
9541
9529
9519
9519
9513
9513
9529
9510
9502
9503
9511
9499
9495
9497
9581
9536
9525
9516
9508
9523
9521
9511
9509
9532
9526
9535
9532
9529
9529
9511
9501
9495
9493
9494
9496
9497
9613
9553
9537
9533
9524
9524
9516
9509
9517
9519
9509
9495
9496
9493
9588
9542
9532
9515
9521
9517
9509
9524
9503
9493
9493
9491
9491
9494
9555
9529
9516
9509
9505
9490
9492
9491
9487
9560
9539
9535
9530
9520
9508
9507
9522
9503
9505
9504
9491
9489
9488
9490
9490
9487
9488
9493
9490
9489
9573
9535
9521
9513
9501
9521
9505
9493
9486
9485
9488
9488
9579
9527
9533
9531
9530
9533
9529
9515
9509
9501
9510
9501
9485
9484
9484
9487
9556
9532
9514
9508
9512
9516
9495
9485
9489
9489
9541
9521
9509
9506
9500
9502
9503
9504
9503
9505
9500
9498
9516
9511
9502
9500
9487
9485
9483
9489
9481
9481
9484
9481
9479
9481
9478
9479
9482
9479
9481
9482
9483
9482
9629
9537
9524
9518
9514
9507
9507
9507
9502
9502
9498
9500
9500
9495
9513
9499
9506
9504
9517
9494
9496
9511
9510
9493
9484
9484
9479
9481
9484
9489
9500
9487
9479
9475
9481
9475
9479
9530
9515
9506
9506
9495
9501
9495
9508
9507
9497
9477
9477
9476
9472
9476
9474
9476
9622
9622
9479
9478
9479
9479
9478
9479
9480
9479
9481
9474
9479
9478
9478
9534
9522
9509
9508
9503
9503
9500
9495
9517
9490
9482
9482
9475
9481
9478
9541
9526
9514
9509
9505
9503
9504
9498
9497
9493
9505
9503
9476
9477
9469
9466
9466
9468
9636
9520
9508
9495
9487
9483
9467
9463
9464
9609
9517
9500
9486
9482
9492
9506
9482
9470
9465
9579
9512
9503
9495
9490
9492
9497
9488
9488
9489
9482
9485
9474
9472
9471
9530
9511
9509
9514
9509
9509
9510
9500
9496
9492
9487
9503
9495
9497
9495
9477
9468
9469
9467
9467
9466
9471
9512
9511
9507
9501
9498
9502
9500
9506
9508
9502
9511
9517
9469
9467
9464
9469
9483
9498
9482
9488
9484
9491
9492
9492
9495
9498
9498
9499
9498
9503
9499
9506
9496
9487
9486
9477
9474
9466
9469
9468
9523
9508
9496
9486
9500
9479
9466
9465
9464
9467
9516
9506
9501
9491
9488
9483
9480
9480
9504
9502
9483
9469
9468
9466
9469
9468
9538
9503
9496
9487
9488
9482
9503
9482
9469
9465
9465
9518
9502
9488
9482
9479
9465
9465
9506
9484
9484
9487
9486
9500
9463
9466
9504
9485
9483
9487
9465
9467
9465
9525
9507
9493
9485
9487
9465
9463
9520
9494
9482
9466
9468
9562
9497
9484
9488
9485
9468
9463
9602
9510
9508
9501
9482
9483
9478
9466
9470
9504
9490
9490
9491
9499
9481
9495
9463
9462
9605
9508
9493
9483
9500
9476
9464
9465
9470
9518
9501
9497
9491
9489
9481
9501
9481
9462
9464
9461
9463
9567
9504
9487
9483
9477
9501
9485
9467
9467
9468
9505
9498
9490
9477
9475
9461
9464
9557
9501
9489
9476
9468
9458
9462
9509
9494
9486
9481
9488
9460
9462
9502
9492
9472
9465
9457
9533
9503
9491
9476
9490
9461
9459
9570
9498
9485
9477
9484
9463
9458
9453
9549
9502
9484
9475
9473
9467
9456
9452
9495
9476
9484
9466
9455
9450
9531
9495
9485
9479
9472
9469
9455
9453
9490
9478
9489
9473
9462
9486
9476
9482
9474
9473
9467
9490
9468
9449
9452
9452
9534
9494
9473
9463
9468
9445
9450
9468
9451
9450
9449
9489
9483
9480
9470
9461
9467
9451
9446
9499
9477
9463
9477
9448
9447
9550
9488
9479
9470
9463
9450
9446
9498
9478
9466
9479
9447
9449
9466
9446
9462
9447
9480
9494
9463
9495
9454
9481
9445
9471
9444
9462
9555
9479
9502
9484
9511
9480
9497
9471
9489
9447
9479
9446
9476
9494
9445
9469
9444
9461
9487
9447
9479
9445
9467
9442
9463
9441
9476
9485
9442
9458
9489
9452
9459
9450
9442
9440
9495
9473
9459
9474
9448
9442
9442
9445
9489
9472
9462
9462
9441
9445
9530
9481
9463
9457
9440
9442
9487
9463
9449
9445
9482
9468
9476
9447
9440
9500
9479
9462
9479
9476
9444
9440
9443
9490
9470
9459
9471
9441
9439
9439
9441
9573
9471
9461
9474
9449
9441
9439
9501
9471
9459
9461
9449
9442
9437
9439
9482
9470
9457
9470
9443
9437
9441
9515
9476
9471
9459
9455
9459
9470
9452
9437
9441
9443
9582
9439
9481
9468
9461
9468
9445
9435
9439
9440
9514
9483
9479
9475
9473
9467
9461
9463
9460
9457
9458
9456
9454
9450
9470
9442
9437
9438
9436
9443
9510
9479
9463
9457
9450
9458
9439
9435
9435
9535
9480
9479
9466
9453
9453
9458
9462
9471
9476
9474
9478
9506
9507
9479
9473
9466
9460
9461
9446
9447
9503
9470
9491
9452
9477
9437
9465
9431
9465
9432
9457
9438
9461
9445
9481
9465
9456
9455
9452
9451
9448
9470
9460
9445
9435
9431
9432
9435
9434
9434
9434
9434
9438
9432
9539
9506
9484
9478
9435
9435
9451
9461
9471
9515
9434
9430
9431
9434
9433
9430
9435
9434
9435
9433
9435
9488
9477
9465
9454
9451
9448
9470
9443
9433
9430
9434
9581
9551
9483
9487
9478
9474
9475
9475
9477
9476
9465
9460
9455
9452
9448
9469
9440
9433
9438
9475
9457
9447
9438
9435
9476
9453
9460
9441
9433
9431
9432
9492
9470
9450
9466
9434
9434
9505
9465
9454
9446
9460
9470
9438
9434
9433
9435
9434
9490
9465
9455
9450
9449
9451
9445
9436
9434
9434
9429
9430
9433
9435
9585
9521
9482
9479
9470
9457
9454
9449
9466
9467
9453
9437
9435
9432
9431
9429
9433
9431
9434
9522
9484
9468
9462
9453
9469
9450
9435
9431
9438
9431
9575
9479
9459
9454
9449
9465
9455
9440
9430
9490
9470
9459
9456
9431
9430
9433
9434
9477
9469
9460
9448
9448
9433
9431
9426
9428
9432
9433
9479
9475
9466
9463
9462
9449
9462
9439
9434
9431
9481
9461
9450
9461
9427
9433
9473
9452
9449
9469
9438
9432
9434
9430
9433
9477
9462
9453
9464
9433
9436
9501
9473
9463
9455
9449
9447
9455
9434
9437
9432
9434
9519
9471
9460
9456
9457
9458
9458
9464
9454
9440
9439
9440
9485
9469
9458
9454
9457
9441
9435
9430
9581
9473
9454
9444
9431
9426
9483
9468
9457
9451
9462
9440
9431
9427
9428
9428
9481
9469
9461
9457
9453
9445
9465
9451
9438
9442
9438
9429
9431
9434
9489
9464
9465
9455
9455
9449
9445
9436
9431
9437
9496
9477
9466
9459
9453
9467
9447
9440
9435
9437
9564
9477
9474
9462
9462
9454
9447
9460
9438
9434
9434
9492
9468
9463
9457
9446
9463
9469
9446
9439
9442
9436
9437
9431
9438
9434
9536
9484
9476
9465
9469
9457
9457
9454
9451
9455
9474
9468
9448
9445
9437
9443
9437
9438
9436
9435
9436
9581
9491
9479
9482
9478
9476
9518
9541
9491
9486
9527
9489
9483
9484
9474
9469
9461
9455
9452
9455
9455
9441
9435
9443
9501
9481
9470
9461
9458
9470
9443
9439
9438
9476
9463
9454
9468
9445
9437
9439
9483
9463
9457
9449
9439
9442
9482
9462
9468
9454
9443
9439
9442
9439
9507
9483
9478
9470
9460
9454
9456
9448
9441
9444
9443
9442
9505
9476
9465
9461
9454
9441
9442
9489
9467
9461
9452
9437
9441
9493
9484
9475
9463
9460
9479
9463
9453
9446
9444
9445
9442
9506
9487
9485
9473
9462
9476
9461
9451
9446
9443
9445
9444
9442
9543
9487
9469
9467
9463
9478
9479
9475
9458
9450
9446
9445
9444
9444
9446
9579
9484
9471
9468
9479
9457
9447
9445
9575
9489
9476
9463
9478
9465
9448
9445
9442
9445
9443
9487
9463
9463
9447
9548
9477
9470
9459
9464
9447
9445
9504
9478
9471
9463
9471
9447
9588
9487
9473
9461
9478
9457
9444
9445
9444
9449
9492
9476
9463
9478
9446
9446
9445
9487
9479
9467
9458
9475
9452
9447
9445
9445
9501
9484
9471
9462
9467
9451
9446
9449
9588
9492
9479
9459
9473
9448
9446
9441
9441
9446
9494
9491
9474
9462
9463
9460
9471
9448
9444
9441
9483
9459
9472
9441
9442
9509
9472
9463
9458
9473
9461
9453
9452
9447
9441
9444
9439
9440
9443
9440
9442
9442
9441
9441
9459
9459
9475
9454
9446
9439
9439
9438
9445
9443
9536
9494
9479
9469
9458
9472
9451
9444
9438
9444
9441
9509
9489
9482
9481
9473
9468
9461
9453
9457
9472
9445
9441
9442
9505
9483
9474
9466
9458
9472
9446
9439
9442
9438
9437
9575
9477
9443
9471
9441
9474
9441
9471
9440
9460
9441
9467
9444
9471
9446
9478
9442
9476
9436
9470
9440
9478
9459
9443
9459
9442
9467
9443
9476
9457
9525
9460
9444
9445
9442
9439
9439
9585
9487
9474
9461
9463
9476
9455
9447
9439
9440
9440
9442
9444
9440
9444
9439
9441
9441
9441
9439
9445
9435
9442
9439
9439
9441
9440
9435
9441
9441
9515
9491
9482
9479
9484
9484
9483
9484
9479
9473
9468
9458
9461
9460
9463
9476
9475
9475
9473
9479
9485
9487
9492
9518
9443
9441
9439
9438
9510
9523
9483
9463
9464
9450
9438
9439
9563
9483
9475
9466
9475
9447
9440
9439
9443
9495
9477
9471
9458
9451
9452
9475
9473
9479
9454
9449
9449
9441
9443
9442
9587
9500
9490
9482
9473
9472
9469
9462
9459
9460
9459
9453
9454
9471
9477
9466
9463
9445
9445
9443
9445
9441
9439
9441
9441
9440
9485
9470
9455
9451
9450
9437
9439
9580
9487
9472
9465
9460
9461
9458
9472
9464
9447
9441
9437
9441
9439
9525
9481
9472
9461
9457
9452
9466
9455
9473
9451
9447
9442
9437
9443
9443
9543
9487
9480
9466
9456
9469
9460
9445
9439
9437
9439
9439
9490
9474
9467
9453
9457
9446
9439
9440
9440
9446
9526
9484
9470
9455
9470
9444
9438
9439
9486
9464
9454
9457
9442
9439
9441
9489
9475
9462
9478
9442
9441
9515
9482
9469
9457
9454
9463
9442
9436
9442
9444
9489
9443
9437
9544
9484
9468
9460
9480
9444
9442
9584
9486
9464
9455
9466
9454
9442
9439
9587
9480
9471
9460
9461
9472
9454
9446
9442
9444
9442
9441
9440
9443
9500
9477
9473
9468
9465
9457
9458
9457
9461
9477
9456
9445
9442
9444
9443
9582
9502
9486
9473
9463
9459
9449
9439
9441
9491
9477
9471
9467
9469
9457
9440
9445
9588
9492
9476
9479
9471
9465
9476
9465
9444
9436
9439
9441
9442
9501
9484
9484
9483
9471
9466
9477
9452
9446
9446
9444
9441
9442
9441
9442
9531
9487
9483
9483
9471
9461
9459
9459
9476
9450
9442
9444
9591
9483
9475
9459
9471
9457
9446
9439
9443
9443
9495
9479
9464
9459
9456
9462
9440
9441
9445
9443
9443
9444
9443
9443
9443
9445
9440
9444
9447
9508
9498
9489
9481
9483
9485
9486
9483
9485
9482
9490
9479
9476
9479
9476
9486
9476
9476
9477
9467
9476
9474
9479
9475
9473
9468
9464
9465
9462
9470
9456
9444
9442
9446
9519
9484
9470
9462
9453
9444
9445
9442
9491
9479
9471
9455
9467
9447
9443
9444
9490
9479
9470
9466
9459
9468
9447
9443
9471
9482
9475
9465
9461
9467
9446
9444
9445
9510
9487
9480
9478
9470
9471
9468
9467
9461
9478
9457
9444
9448
9490
9469
9463
9481
9452
9446
9446
9445
9500
9479
9473
9462
9468
9449
9447
9447
9539
9491
9477
9468
9466
9474
9480
9477
9481
9473
9466
9459
9451
9449
9447
9450
9447
9553
9492
9491
9489
9490
9492
9495
9488
9485
9476
9476
9473
9469
9468
9465
9461
9455
9450
9447
9452
9452
9541
9500
9491
9479
9472
9467
9467
9461
9449
9446
9447
9451
9448
9445
9451
9481
9469
9476
9485
9455
9456
9452
9593
9495
9488
9485
9480
9481
9480
9481
9481
9481
9482
9481
9481
9483
9483
9479
9473
9467
9485
9462
9455
9458
9453
9453
9454
9451
9451
9504
9495
9485
9481
9475
9471
9470
9470
9489
9475
9460
9455
9457
9454
9455
9542
9518
9499
9487
9477
9473
9492
9471
9463
9457
9459
9458
9456
9457
9516
9500
9500
9492
9487
9486
9483
9478
9479
9475
9474
9477
9475
9477
9476
9475
9476
9488
9471
9476
9464
9463
9466
9463
9461
9463
9487
9475
9487
9503
9548
9455
9459
9489
9479
9483
9499
9536
9460
9461
9463
9461
9460
9463
9460
9461
9460
9460
9462
9518
9506
9503
9500
9493
9494
9487
9491
9505
9503
9505
9489
9493
9484
9479
9497
9474
9465
9465
9464
9460
9455
9459
9457
9459
9459
9456
9461
9463
9462
9462
9511
9510
9503
9503
9507
9501
9489
9481
9479
9491
9483
9475
9464
9463
9457
9460
9458
9458
9461
9460
9461
9463
9523
9515
9510
9505
9506
9506
9491
9485
9477
9494
9466
9460
9458
9599
9500
9479
9474
9462
9456
9461
9586
9501
9485
9480
9472
9485
9455
9455
9457
9451
9463
9490
9472
9486
9481
9472
9489
9469
9457
9458
9454
9455
9454
9456
9455
9514
9496
9493
9481
9484
9478
9474
9470
9487
9488
9470
9460
9456
9454
9455
9522
9505
9495
9499
9484
9479
9471
9484
9473
9454
9453
9454
9456
9549
9494
9484
9476
9478
9470
9492
9487
9468
9455
9455
9451
9452
9454
9504
9487
9480
9463
9482
9450
9451
9507
9491
9482
9466
9463
9456
9451
9518
9498
9485
9470
9468
9468
9459
9452
9452
9447
9452
9496
9485
9468
9489
9453
9450
9451
9592
9492
9477
9468
9469
9487
9451
9449
9449
9493
9482
9470
9481
9448
9445
9446
9493
9483
9474
9465
9489
9461
9453
9447
9493
9478
9461
9474
9447
9444
9447
9473
9454
9450
9446
9446
9581
9491
9471
9464
9473
9445
9449
9535
9486
9461
9460
9445
9527
9486
9467
9478
9454
9445
9447
9492
9479
9469
9462
9474
9465
9449
9447
9445
9498
9477
9466
9479
9447
9445
9473
9444
9465
9437
9471
9445
9470
9445
9462
9447
9461
9445
9475
9445
9462
9463
9461
9473
9451
9440
9445
9519
9489
9484
9468
9463
9457
9469
9448
9441
9444
9495
9482
9475
9465
9457
9460
9458
9455
9462
9446
9438
9436
9440
9483
9473
9461
9455
9470
9439
9445
9490
9470
9461
9474
9442
9438
9439
9493
9485
9468
9457
9462
9444
9442
9483
9468
9457
9471
9442
9439
9522
9471
9462
9476
9452
9439
9439
9585
9465
9472
9440
9441
9541
9481
9467
9455
9472
9442
9438
9437
9521
9486
9477
9466
9461
9457
9451
9469
9444
9437
9438
9434
9436
9541
9483
9479
9480
9478
9483
9484
9480
9479
9477
9471
9471
9469
9462
9449
9467
9435
9434
9482
9462
9450
9465
9440
9434
9588
9474
9462
9455
9475
9437
9437
9436
9549
9493
9472
9473
9468
9464
9456
9451
9451
9442
9436
9434
9440
9531
9478
9466
9463
9454
9449
9469
9431
9431
9487
9517
9474
9465
9461
9457
9456
9451
9447
9469
9445
9434
9436
9436
9488
9480
9469
9458
9451
9467
9445
9448
9433
9431
9428
9430
9429
9573
9473
9461
9458
9444
9466
9445
9468
9458
9451
9432
9430
9428
9583
9475
9468
9455
9445
9458
9444
9431
9431
9478
9461
9446
9447
9449
9435
9429
9430
9431
9562
9472
9453
9447
9444
9462
9430
9425
9429
9427
9485
9470
9457
9454
9463
9481
9424
9426
9478
9469
9452
9443
9449
9426
9423
9424
9428
9474
9461
9451
9447
9442
9457
9430
9428
9423
9425
9547
9469
9449
9440
9460
9431
9423
9420
9423
9501
9510
9424
9425
9549
9423
9422
9429
9430
9425
9529
9495
9468
9467
9457
9460
9455
9446
9445
9459
9461
9456
9428
9420
9420
9419
9508
9473
9470
9469
9472
9471
9468
9462
9455
9455
9444
9448
9444
9444
9439
9437
9458
9436
9430
9420
9419
9420
9549
9455
9445
9446
9443
9436
9441
9429
9449
9426
9421
9423
9421
9416
9419
9420
9420
9473
9471
9461
9454
9454
9443
9439
9438
9435
9446
9419
9414
9418
9419
9472
9455
9453
9445
9441
9435
9444
9423
9416
9417
9422
9463
9449
9440
9454
9422
9415
9417
9420
9459
9446
9436
9446
9426
9418
9419
9417
9525
9460
9449
9442
9436
9445
9421
9443
9417
9433
9552
9445
9460
9431
9452
9417
9439
9420
9450
9457
9422
9449
9519
9449
9437
9450
9423
9415
9416
9541
9460
9453
9439
9433
9445
9412
9415
9468
9456
9451
9431
9436
9417
9417
9555
9464
9451
9445
9437
9434
9449
9433
9420
9418
9413
9560
9446
9436
9428
9413
9417
9473
9438
9434
9434
9413
9414
9469
9443
9450
9413
9433
9553
9418
9438
9413
9435
9415
9431
9415
9431
9416
9431
9414
9444
9513
9446
9474
9441
9459
9444
9455
9417
9453
9429
9452
9423
9447
9412
9442
9413
9459
9437
9452
9420
9412
9418
9457
9447
9439
9433
9425
9433
9415
9411
9413
9460
9446
9436
9434
9423
9413
9478
9445
9435
9441
9418
9412
9556
9453
9445
9437
9428
9445
9421
9413
9415
9413
9466
9445
9437
9431
9447
9419
9409
9414
9467
9449
9430
9430
9441
9415
9413
9412
9410
9504
9463
9451
9433
9427
9425
9413
9413
9506
9444
9431
9429
9408
9406
9444
9427
9413
9404
9463
9433
9442
9412
9404
9470
9451
9446
9429
9440
9416
9406
9408
9541
9450
9436
9421
9434
9407
9405
9407
9408
9462
9449
9449
9444
9440
9435
9426
9426
9441
9415
9403
9403
9406
9474
9451
9447
9454
9445
9431
9420
9420
9439
9421
9405
9403
9404
9463
9442
9427
9432
9407
9404
9400
9445
9425
9423
9429
9418
9435
9394
9402
9461
9431
9421
9431
9415
9402
9401
9400
9446
9433
9420
9433
9406
9396
9394
9399
9444
9424
9413
9434
9406
9393
9399
9397
9439
9429
9421
9412
9436
9417
9404
9397
9399
9400
9397
9393
9481
9428
9414
9427
9397
9395
9395
9490
9435
9418
9412
9398
9469
9434
9417
9412
9400
9393
9392
9396
9481
9433
9422
9410
9403
9393
9398
9478
9426
9413
9405
9393
9396
9439
9427
9418
9410
9407
9393
9391
9392
9433
9423
9413
9424
9391
9391
9393
9454
9434
9418
9418
9399
9392
9394
9437
9422
9408
9393
9389
9436
9415
9420
9390
9391
9434
9423
9420
9411
9411
9395
9395
9388
9390
9393
9432
9422
9413
9406
9404
9418
9414
9417
9412
9395
9387
9388
9390
9463
9434
9431
9422
9412
9411
9428
9394
9390
9391
9497
9425
9418
9407
9415
9415
9393
9385
9388
9390
9441
9417
9413
9423
9393
9389
9433
9419
9409
9420
9399
9386
9486
9423
9406
9423
9386
9387
9455
9416
9407
9416
9392
9387
9436
9406
9421
9390
9383
9386
9433
9418
9412
9406
9418
9388
9383
9388
9426
9419
9408
9410
9401
9385
9514
9422
9412
9404
9406
9383
9385
9433
9414
9404
9408
9385
9381
9529
9422
9415
9404
9419
9383
9527
9423
9411
9400
9385
9382
9384
9428
9416
9405
9404
9419
9415
9381
9381
9526
9430
9409
9399
9394
9380
9383
9407
9396
9383
9381
9419
9396
9389
9379
9421
9406
9413
9382
9381
9461
9417
9413
9404
9397
9386
9382
9442
9413
9399
9411
9379
9383
9381
9412
9423
9382
9408
9378
9403
9381
9399
9382
9402
9380
9410
9381
9410
9381
9399
9381
9379
9378
9452
9416
9407
9396
9397
9376
9454
9414
9399
9412
9387
9381
9380
9428
9413
9404
9414
9379
9383
9414
9400
9392
9374
9379
9433
9404
9391
9399
9377
9381
9422
9407
9403
9412
9389
9378
9379
9427
9415
9398
9394
9386
9375
9378
9429
9407
9390
9392
9378
9381
9420
9407
9397
9409
9377
9381
9410
9393
9390
9375
9522
9415
9394
9382
9378
9406
9389
9375
9508
9414
9399
9378
9375
9444
9420
9402
9412
9373
9419
9396
9406
9379
9431
9404
9412
9377
9380
9413
9398
9409
9382
9375
9444
9408
9395
9392
9373
9376
9434
9405
9391
9382
9375
9474
9410
9391
9392
9376
9375
9418
9405
9391
9391
9377
9375
9416
9394
9399
9375
9474
9403
9414
9373
9389
9373
9388
9423
9402
9434
9402
9435
9392
9417
9382
9416
9381
9414
9415
9407
9391
9390
9374
9373
9419
9401
9392
9402
9379
9378
9431
9407
9393
9375
9372
9419
9406
9396
9391
9408
9384
9373
9372
9378
9443
9416
9414
9406
9395
9412
9377
9381
9419
9407
9400
9399
9380
9478
9413
9396
9396
9408
9382
9372
9374
9422
9401
9406
9383
9371
9433
9413
9395
9404
9371
9373
9441
9412
9391
9411
9376
9369
9373
9419
9413
9401
9388
9405
9372
9371
9414
9399
9389
9390
9371
9371
9372
9416
9405
9392
9386
9390
9380
9370
9497
9412
9392
9390
9378
9375
9428
9406
9378
9392
9375
9389
9373
9393
9373
9390
9376
9387
9436
9387
9430
9383
9410
9374
9397
9518
9407
9409
9375
9394
9376
9393
9404
9374
9399
9374
9391
9375
9390
9375
9391
9375
9390
9377
9397
9375
9412
9384
9419
9382
9407
9375
9402
9373
9393
9374
9392
9369
9388
9501
9395
9417
9382
9412
9375
9409
9374
9397
9376
9388
9377
9391
9375
9388
9374
9405
9416
9383
9412
9377
9418
9382
9414
9383
9407
9375
9391
9375
9391
9437
9394
9514
9402
9417
9373
9399
9371
9395
9372
9391
9375
9374
9510
9413
9407
9409
9406
9405
9399
9391
9389
9411
9382
9379
9373
9374
9373
9371
9375
9377
9424
9415
9404
9393
9403
9382
9379
9377
9436
9413
9404
9395
9413
9389
9375
9376
9377
9429
9412
9391
9405
9380
9372
9444
9412
9392
9384
9376
9380
9423
9402
9391
9392
9375
9378
9415
9402
9390
9405
9375
9374
9373
9375
9429
9412
9398
9412
9387
9375
9379
9375
9418
9407
9397
9394
9391
9399
9381
9372
9377
9515
9439
9417
9403
9403
9393
9412
9382
9383
9374
9379
9380
9420
9415
9399
9394
9402
9377
9377
9480
9414
9402
9401
9383
9378
9377
9485
9421
9406
9396
9395
9399
9379
9395
9377
9412
9521
9405
9446
9412
9413
9375
9396
9374
9388
9422
9387
9419
9406
9431
9411
9377
9389
9375
9395
9375
9391
9372
9399
9373
9414
9378
9412
9394
9373
9370
9425
9407
9396
9391
9401
9373
9370
9367
9374
9420
9400
9388
9390
9373
9419
9397
9384
9407
9374
9370
9371
9375
9416
9405
9397
9389
9385
9392
9378
9370
9365
9368
9370
9409
9406
9404
9399
9396
9390
9385
9395
9372
9369
9371
9369
9368
9410
9391
9385
9397
9390
9381
9375
9364
9363
9367
9372
9381
9381
9401
9404
9403
9369
9365
9372
9412
9400
9400
9401
9396
9386
9382
9388
9374
9374
9365
9360
9364
9410
9395
9381
9383
9369
9367
9366
9413
9398
9386
9382
9380
9396
9371
9359
9363
9363
9413
9400
9402
9391
9385
9382
9376
9364
9363
9365
9403
9386
9401
9363
9362
9402
9380
9367
9361
9405
9387
9375
9365
9412
9385
9388
9364
9366
9405
9393
9378
9398
9376
9364
9361
9365
9414
9408
9399
9393
9385
9389
9389
9379
9380
9383
9390
9370
9363
9362
9430
9405
9396
9390
9383
9377
9381
9368
9358
9360
9397
9386
9378
9376
9361
9359
9361
9361
9411
9396
9377
9378
9381
9381
9385
9383
9383
9386
9375
9371
9361
9429
9400
9387
9380
9370
9359
9469
9391
9386
9394
9359
9358
9360
9399
9388
9377
9381
9357
9354
9400
9382
9368
9359
9357
9359
9431
9402
9390
9380
9377
9380
9377
9374
9390
9360
9355
9360
9408
9397
9387
9388
9375
9390
9356
9356
9437
9394
9381
9377
9372
9372
9353
9427
9394
9374
9367
9354
9355
9462
9392
9366
9362
9354
9401
9379
9393
9359
9353
9494
9391
9375
9382
9352
9353
9393
9370
9358
9351
9399
9382
9366
9357
9354
9398
9379
9391
9385
9378
9351
9390
9391
9353
9380
9350
9377
9349
9364
9400
9365
9388
9362
9387
9353
9391
9361
9399
9369
9350
9383
9360
9394
9374
9413
9381
9400
9364
9399
9437
9380
9365
9368
9355
9349
9399
9379
9385
9354
9351
9392
9381
9367
9383
9354
9350
9396
9383
9375
9364
9367
9349
9345
9349
9408
9383
9369
9383
9356
9352
9355
9396
9377
9379
9351
9351
9349
9422
9392
9377
9364
9370
9350
9348
9411
9392
9382
9370
9367
9380
9351
9348
9397
9374
9364
9351
9349
9404
9389
9379
9370
9383
9355
9349
9413
9388
9370
9365
9383
9357
9346
9351
9383
9366
9360
9382
9356
9345
9344
9390
9370
9366
9345
9347
9383
9367
9381
9355
9348
9349
9386
9369
9372
9364
9342
9443
9382
9369
9361
9362
9368
9352
9349
9343
9341
9417
9376
9362
9352
9343
9392
9369
9363
9347
9340
9393
9371
9365
9367
9346
9338
9344
9387
9375
9361
9355
9343
9348
9378
9360
9353
9344
9404
9375
9359
9371
9343
9343
9389
9375
9341
9340
9491
9379
9365
9372
9341
9347
9395
9376
9358
9360
9343
9394
9371
9357
9350
9340
9383
9365
9373
9339
9341
9375
9359
9348
9341
9410
9371
9357
9354
9342
9342
9370
9358
9352
9341
9402
9371
9359
9341
9340
9381
9370
9372
9348
9349
9413
9384
9373
9362
9369
9342
9345
9445
9380
9359
9376
9340
9339
9391
9363
9350
9338
9382
9367
9359
9348
9334
9391
9362
9378
9335
9405
9372
9353
9339
9336
9335
9365
9335
9373
9344
9375
9335
9381
9369
9485
9352
9390
9348
9374
9336
9364
9355
9366
9343
9334
9337
9428
9375
9367
9355
9371
9345
9335
9340
9338
9383
9374
9369
9357
9351
9354
9343
9335
9335
9341
9411
9381
9374
9366
9358
9354
9372
9350
9340
9339
9341
9382
9375
9367
9358
9371
9335
9335
9380
9364
9354
9367
9335
9342
9375
9362
9349
9346
9337
9444
9375
9359
9357
9374
9346
9336
9337
9340
9375
9364
9350
9359
9338
9335
9334
9335
9388
9368
9363
9351
9364
9341
9336
9337
9414
9379
9359
9351
9366
9331
9338
9391
9367
9358
9352
9370
9346
9337
9337
9338
9398
9381
9375
9364
9359
9356
9351
9350
9341
9333
9381
9359
9352
9349
9335
9337
9381
9367
9362
9351
9348
9335
9332
9390
9372
9361
9349
9343
9335
9333
9473
9350
9334
9359
9354
9333
9353
9335
9351
9339
9372
9407
9370
9388
9353
9373
9339
9356
9337
