EDA
35519
35527
35516
35509
35516
35516
35519
35513
35513
35517
35511
35516
35516
35527
35519
35489
35516
35517
35510
35514
35514
35524
35518
35501
35508
35505
35513
35519
35509
35511
35511
35511
35511
35516
35501
35506
35511
35512
35495
35503
35503
35507
35514
35509
35507
35517
35502
35505
35511
35516
35489
35511
35512
35517
35519
35503
35515
35509
35509
35477
35509
35513
35515
35510
35510
35509
35509
35500
35514
35517
35508
35514
35505
35517
35511
35509
35514
35505
35518
35516
35509
35514
35516
35523
35515
35515
35513
35515
35513
35506
35511
35515
35519
35516
35503
35512
35516
35511
35504
35507
35511
35521
35516
35497
35521
35506
35511
35518
35508
35511
35509
35521
35510
35514
35515
35515
35518
35517
35513
35516
35516
35508
35514
35510
35511
35503
35511
35508
35515
35502
35501
35507
35501
35505
35501
35514
35497
35500
35503
35496
35496
35501
35510
35498
35501
35501
35501
35508
35498
35498
35501
35511
35471
35494
35503
35509
35508
35493
35503
35503
35506
35500
35477
35492
35494
35502
35486
35495
35501
35503
35499
35504
35471
35487
35495
35505
35501
35501
35494
35495
35495
35503
35494
35509
35468
35500
35495
35501
35500
35498
35492
35500
35500
35479
35500
35500
35495
35492
35503
35488
35489
35489
35500
35497
35469
35486
35493
35496
35502
35501
35495
35492
35501
35492
35500
35488
35500
35499
35503
35509
35494
35495
35500
35473
35493
35503
35494
35501
35503
35511
35485
35511
35513
35512
35519
35517
35516
35524
35524
35528
35527
35526
35532
35546
35536
35557
35556
35558
35560
35569
35579
35575
35580
35573
35575
35572
35558
35546
35555
35554
35548
35551
35508
35540
35538
35543
35523
35531
35528
35532
35527
35527
35526
35519
35529
35540
35522
35527
35525
35523
35525
35524
35521
35526
35524
35501
35519
35519
35523
35531
35528
35527
35527
35525
35527
35527
35527
35525
35519
35523
35519
35519
35519
35525
35501
35518
35527
35524
35519
35521
35525
35518
35511
35527
35525
35519
35511
35516
35513
35516
35507
35505
35522
35522
35524
35527
35519
35519
35525
35524
35522
35524
35493
35508
35523
35525
35517
35522
35518
35527
35486
35516
35521
35527
35512
35510
35522
35505
35518
35521
35527
35518
35527
35522
35517
35519
35519
35515
35519
35516
35519
35489
35521
35518
35527
35514
35519
35523
35521
35525
35520
35511
35522
35516
35490
35521
35518
35527
35519
35488
35525
35519
35521
35509
35521
35525
35519
35525
35500
35524
35531
35519
35527
35527
35498
35525
35524
35522
35510
35522
35524
35485
35527
35532
35527
35523
35525
35530
35519
35532
35511
35520
35500
35527
35528
35533
35537
35503
35535
35531
35530
35535
35524
35539
35529
35535
35532
35546
35528
35537
35540
35540
35541
35514
35535
35526
35541
35543
35549
35531
35538
35532
35519
35536
35553
35543
35539
35540
35549
35548
35548
35508
35543
35550
35551
35545
35548
35550
35551
35535
35553
35551
35546
35557
35551
35559
35523
35518
35519
35527
35524
35551
35557
35564
35564
35559
35565
35563
35559
35543
35541
35556
35559
35564
35559
35556
35563
35561
35558
35559
35564
35564
35557
35559
35565
35564
35570
35569
35571
35556
35559
35570
35559
35561
35574
35563
35566
35567
35564
35566
35567
35554
35572
35566
35564
35570
35566
35567
35565
35569
35535
35543
35555
35564
35567
35567
35564
35570
35565
35569
35559
35565
35565
35565
35563
35564
35563
35567
35557
35558
35556
35566
35562
35564
35561
35559
35545
35559
35559
35558
35561
35564
35565
35566
35558
35565
35559
35559
35559
35549
35558
35565
35559
35557
35556
35555
35558
35567
35567
35535
35557
35566
35566
35566
35563
35559
35540
35564
35559
35561
35565
35560
35567
35564
35559
35559
35565
35561
35561
35559
35567
35564
35534
35567
35567
35572
35564
35573
35572
35575
35549
35572
35567
35567
35575
35572
35572
35563
35566
35575
35575
35573
35559
35564
35580
35572
35577
35573
35575
35565
35572
35583
35570
35580
35564
35572
35575
35575
35573
35575
35575
35579
35582
35591
35576
35589
35564
35578
35588
35581
35591
35567
35583
35582
35583
35588
35585
35591
35588
35590
35582
35591
35591
35590
35590
35559
35585
35586
35591
35591
35591
35591
35597
35599
35591
35596
35598
35591
35591
35573
35581
35601
35598
35605
35599
35596
35601
35598
35601
35607
35607
35610
35574
35587
35609
35606
35615
35607
35604
35613
35610
35583
35599
35614
35622
35614
35617
35615
35623
35620
35613
35621
35626
35621
35623
35619
35604
35626
35623
35622
35625
35591
35617
35631
35627
35623
35621
35599
35623
35629
35622
35631
35631
35601
35612
35631
35634
35637
35634
35631
35635
35633
35634
35646
35637
35636
35609
35639
35644
35645
35633
35637
35651
35614
35636
35641
35640
35652
35644
35645
35645
35647
35641
35657
35659
35644
35655
35647
35661
35620
35648
35652
35648
35655
35657
35652
35655
35647
35658
35654
35664
35665
35663
35662
35668
35663
35647
35665
35671
35665
35668
35669
35666
35671
35671
35671
35679
35679
35683
35659
35671
35679
35675
35685
35684
35686
35680
35677
35683
35687
35684
35681
35679
35684
35684
35685
35687
35695
35679
35679
35687
35699
35700
35702
35701
35695
35702
35683
35694
35697
35701
35706
35703
35711
35698
35706
35700
35684
35711
35716
35717
35713
35706
35714
35690
35711
35717
35716
35714
35715
35716
35685
35719
35724
35724
35731
35728
35729
35719
35727
35735
35738
35733
35711
35729
35735
35736
35737
35743
35736
35741
35741
35743
35746
35743
35742
35743
35719
35749
35747
35761
35761
35759
35748
35753
35759
35759
35740
35751
35751
35766
35762
35764
35763
35749
35768
35781
35781
35772
35758
35770
35773
35772
35772
35754
35780
35777
35771
35779
35780
35786
35783
35783
35784
35786
35793
35788
35783
35791
35785
35795
35788
35793
35793
35790
35775
35798
35797
35796
35798
35794
35799
35804
35796
35798
35805
35806
35804
35804
35806
35772
35805
35814
35814
35812
35815
35818
35819
35818
35806
35814
35814
35815
35819
35822
35821
35823
35821
35803
35823
35821
35822
35830
35831
35831
35823
35831
35822
35836
35815
35839
35839
35831
35836
35839
35828
35839
35842
35847
35839
35847
35847
35842
35847
35847
35829
35841
35847
35847
35847
35852
35847
35847
35858
35847
35863
35847
35865
35826
35835
35865
35873
35871
35876
35876
35870
35871
35871
35871
35878
35876
35876
35877
35886
35847
35847
35876
35881
35886
35902
35892
35895
35903
35901
35903
35904
35905
35908
35914
35913
35919
35925
35927
35935
35942
35947
35950
35964
35964
35972
35977
35977
35988
35983
35988
35945
35943
35964
35974
35967
35959
35956
35959
35959
35949
35956
35930
35948
35959
35957
35945
35948
35954
35951
35956
35962
35956
35956
35959
35956
35963
35952
35959
35964
35967
35935
35958
35964
35972
35972
35967
35970
35975
35967
35970
35972
35975
35981
35975
35969
35975
35975
35975
35973
35980
35973
35972
35956
35974
35983
35991
35985
35981
35990
35975
35977
35981
35947
35975
35991
35983
35989
35990
35985
35989
35999
35966
35975
35997
35991
35972
35974
35975
36005
36001
36005
36007
36007
35998
36006
36004
35996
36007
36012
36001
36007
36002
36010
35980
36005
36013
36012
36007
36015
36015
35974
36009
36015
36014
36020
36023
36014
36012
36019
36021
35997
36015
36024
36028
36028
36031
36039
36036
36028
36031
36033
36023
36028
36036
36026
36032
36035
36037
36007
36004
36039
36039
36044
36038
36050
36047
36041
36047
36037
36041
36047
36047
36052
36015
36046
36063
36052
36055
36055
36023
36047
36057
36056
36052
36063
36061
36061
36068
36071
36065
36071
36071
36027
36044
36028
36081
36074
36071
36075
36048
36044
36078
36060
36042
36063
36076
36084
36084
36087
36084
36086
36094
36079
36091
36085
36093
36095
36086
36095
36087
36055
36078
36082
36102
36103
36097
36111
36111
36103
36115
36112
36113
36111
36103
36103
36103
36108
36103
36119
36107
36116
36109
36116
36119
36084
36111
36124
36123
36122
36119
36125
36118
36122
36133
36127
36121
36125
36125
36129
36130
36111
36103
36121
36132
36131
36133
36119
36135
36129
36135
36133
36132
36135
36135
36138
36135
36135
36134
36134
36140
36139
36142
36141
36143
36140
36143
36142
36136
36141
36139
36133
36141
36142
36137
36125
36134
36135
36143
36143
36143
36137
36139
36136
36141
36119
36123
36143
36145
36145
36143
36133
36135
36141
36132
36126
36129
36101
36102
36135
36134
36138
36137
36132
36130
36137
36131
36132
36141
36137
36135
36128
36135
36135
36147
36132
36134
36093
36103
36100
36102
36118
36132
36136
36143
36138
36135
36143
36141
36139
36134
36133
36129
36135
36101
36125
36128
36135
36143
36143
36135
36127
36138
36140
36140
36132
36133
36100
36103
36119
36133
36139
36132
36129
36135
36135
36129
36103
36132
36138
36130
36135
36133
36135
36141
36102
36140
36140
36135
36135
36135
36134
36135
36125
36135
36143
36135
36138
36136
36134
36127
36128
36139
36143
36136
36132
36135
36142
36130
36140
36133
36133
36135
36135
36143
36135
36141
36142
36110
36139
36139
36135
36142
36145
36139
36146
36130
36142
36132
36140
36135
36137
36143
36135
36143
36132
36135
36141
36135
36103
36135
36134
36143
36140
36143
36139
36134
36141
36140
36135
36103
36116
36135
36137
36139
36142
36143
36143
36134
36138
36127
36143
36137
36123
36111
36130
36133
36140
36133
36137
36139
36135
36132
36143
36103
36132
36135
36143
36136
36143
36135
36141
36141
36137
36143
36136
36103
36134
36129
36139
36135
36143
36135
36135
36135
36103
36133
36133
36136
36135
36136
36134
36135
36127
36135
36141
36134
36130
36132
36112
36097
36132
36135
36124
36126
36132
36135
36133
36103
36135
36141
36140
36127
36135
36135
36122
36095
36124
36130
36127
36124
36131
36127
36127
36121
36124
36129
36121
36129
36095
36126
36132
36130
36135
36133
36124
36133
36131
36103
36125
36120
36127
36121
36103
36121
36125
36127
36123
36103
36124
36129
36127
36126
36125
36099
36116
36123
36119
36122
36122
36117
36119
36118
36116
36122
36118
36118
36124
36125
36084
36097
36119
36117
36127
36116
36118
36117
36114
36119
36119
36111
36111
36099
36116
36119
36109
36123
36119
36119
36103
36111
36116
36114
36119
36111
36119
36112
36109
36114
36077
36103
36103
36113
36116
36119
36103
36111
36103
36116
36109
36111
36084
36100
36116
36119
36111
36116
36106
36109
36103
36119
36115
36084
36112
36116
36115
36108
36103
36102
36103
36103
36103
36114
36103
36103
36103
36111
36103
36070
36102
36103
36103
36103
36111
36100
36071
36097
36117
36111
36103
36103
36087
36108
36103
36100
36103
36077
36101
36092
36096
36103
36096
36101
36103
36103
36103
36098
36103
36096
36074
36097
36102
36101
36100
36087
36095
36088
36094
36057
36087
36092
36095
36095
36090
36084
36085
36084
36084
36087
36092
36089
36085
36070
36087
36081
36079
36089
36082
36084
36081
36079
36076
36079
36084
36077
36079
36079
36057
36063
36071
36075
36077
36084
36076
36071
36079
36077
36076
36051
36073
36069
36077
36077
36066
36070
36064
36071
36071
36059
36070
36068
36071
36071
36061
36068
36065
36067
36060
36066
36063
36055
36031
36057
36069
36065
36063
36063
36058
36066
36063
36036
36047
36063
36055
36063
36069
36057
36057
36063
36020
36056
36062
36063
36046
36063
36052
36053
36059
36055
36055
36031
36050
36053
36058
36050
36055
36055
36057
36061
36026
36051
36053
36060
36056
36060
36053
36051
36055
36065
36064
36063
36071
36077
36084
36084
36084
36087
36088
36094
36100
36116
36114
36110
36103
36101
36095
36092
36095
36054
36079
36077
36071
36070
36069
36063
36035
36055
36057
36063
36052
36052
36054
36062
36039
36049
36052
36047
36036
36051
36040
36052
36039
36019
36042
36046
36058
36049
36012
36059
36049
36045
36047
36047
36036
36036
36037
36043
36044
36037
36042
36039
36031
36038
36034
36028
36039
36028
36037
36031
36036
36036
36020
36031
36026
36024
36024
36026
36030
36006
36018
36028
36025
36022
36021
36015
36015
36023
36015
36015
36022
35981
35991
36004
36011
36010
36009
36014
36011
36007
36007
36015
35980
36007
36007
35993
36007
36007
36007
36007
35973
36010
36007
36012
36007
35998
36003
35979
36002
35996
35992
35991
35990
35973
35998
36004
35985
36001
35996
35956
35994
36002
35995
35997
35993
35998
35996
35999
35995
35995
35982
35981
35989
35999
35988
35988
35988
35991
35969
35999
35988
35983
35992
35965
35986
35983
35981
35981
35981
35988
35966
35979
35980
35975
35985
35984
35980
35954
35985
35980
35981
35975
35975
35989
35986
35975
35975
35945
35981
35982
35983
35982
35978
35990
35978
35980
35983
35943
35959
35982
35976
35975
35983
35975
35975
35973
35974
35981
35978
35975
35975
35978
35964
35981
35980
35980
35975
35975
35937
35972
35981
35975
35973
35966
35975
35932
35963
35975
35982
35975
35975
35969
35975
35973
35975
35978
35975
35975
35972
35965
35969
35971
35972
35932
35968
35965
35965
35967
35967
35966
35967
35959
35975
35963
35972
35957
35966
35956
35967
35967
35961
35921
35959
35956
35966
35956
35958
35951
35958
35935
35955
35951
35950
35954
35954
35934
35954
35953
35945
35950
35948
35934
35951
35937
35943
35945
35918
35936
35948
35929
35927
35941
35934
35943
35936
35943
35933
35935
35943
35938
35926
35924
35935
35908
35927
35919
35929
35923
35911
35916
35916
35910
35916
35916
35919
35909
35911
35883
35905
35910
35909
35903
35909
35900
35899
35892
35893
35902
35900
35887
35892
35898
35902
35891
35888
35879
35884
35887
35886
35884
35881
35863
35878
35879
35883
35879
35882
35871
35871
35871
35872
35839
35873
35871
35871
35871
35874
35866
35863
35863
35867
35868
35825
35847
35871
35864
35862
35858
35847
35847
35859
35861
35859
35865
35860
35826
35847
35857
35863
35846
35845
35839
35836
35847
35823
35847
35847
35847
35847
35844
35843
35842
35803
35841
35842
35845
35841
35844
35834
35839
35839
35836
35828
35832
35831
35822
35796
35831
35839
35823
35828
35829
35823
35823
35824
35818
35799
35829
35826
35830
35818
35813
35809
35812
35815
35804
35810
35796
35815
35814
35818
35814
35808
35812
35813
35809
35788
35814
35805
35804
35805
35801
35799
35799
35801
35796
35806
35804
35809
35812
35789
35803
35785
35797
35791
35800
35791
35796
35759
35793
35793
35796
35792
35783
35781
35777
35781
35785
35780
35786
35783
35783
35778
35780
35783
35774
35773
35783
35770
35767
35771
35743
35764
35771
35767
35769
35769
35765
35766
35765
35758
35765
35769
35749
35762
35757
35765
35743
35759
35765
35764
35756
35759
35751
35756
35746
35757
35751
35748
35753
35748
35719
35745
35751
35735
35744
35753
35754
35743
35745
35743
35735
35743
35736
35737
35724
35740
35743
35740
35740
35739
35706
35719
35737
35735
35720
35727
35733
35726
35719
35729
35730
35732
35724
35724
35724
35709
35719
35724
35733
35727
35708
35727
35719
35715
35709
35718
35718
35719
35714
35719
35687
35698
35705
35703
35707
35700
35709
35709
35710
35713
35697
35701
35703
35700
35691
35679
35673
35692
35703
35700
35700
35691
35689
35695
35693
35697
35692
35692
35686
35694
35655
35687
35692
35691
35691
35684
35687
35687
35687
35668
35686
35686
35685
35682
35690
35684
35682
35687
35677
35676
35676
35687
35676
35680
35676
35684
35662
35679
35675
35675
35684
35679
35681
35679
35674
35631
35661
35676
35670
35665
35669
35663
35671
35659
35662
35659
35663
35660
35654
35661
35659
35628
35663
35665
35662
35658
35653
35657
35654
35655
35663
35655
35633
35622
35629
35637
35642
35652
35654
35640
35660
35651
35648
35652
35638
35641
35643
35644
35643
35651
35610
35637
35633
35639
35634
35628
35625
35633
35631
35631
35606
35615
35633
35625
35621
35627
35623
35629
35633
35622
35623
35621
35623
35623
35608
35620
35618
35621
35621
35622
35616
35621
35610
35615
35612
35614
35613
35607
35591
35605
35612
35605
35612
35608
35607
35599
35602
35605
35599
35591
35607
35603
35594
35597
35591
35591
35591
35591
35591
35582
35586
35589
35591
35591
35559
35579
35582
35591
35583
35591
35581
35585
35582
35581
35583
35580
35583
35553
35574
35574
35572
35580
35574
35565
35575
35565
35578
35568
35567
35542
35556
35567
35571
35573
35572
35572
35567
35567
35567
35575
35565
35567
35567
35568
35565
35571
35564
35567
35566
35567
35556
35566
35553
35559
35552
35566
35556
35565
35562
35566
35568
35576
35580
35580
35589
35584
35585
35589
35596
35597
35612
35609
35615
35617
35611
35605
35598
35593
35588
35588
35591
35585
35583
35572
35578
35575
35570
35570
35563
35543
35540
35557
35559
35561
35551
35547
35551
35548
35544
35537
35546
35546
35549
35548
35514
35546
35556
35548
35548
35551
35545
35543
35538
35540
35505
35524
35523
35535
35541
35530
35525
35535
35530
35535
35540
35498
35534
35535
35532
35525
35527
35491
35517
35521
35527
35522
35521
35522
35516
35485
35521
35521
35522
35519
35508
35513
35517
35494
35519
35517
35494
35509
35510
35469
35503
35506
35497
35509
35501
35502
35504
35503
35500
35500
35500
35500
35499
35470
35505
35501
35503
35495
35500
35495
35484
35491
35495
35492
35497
35478
35455
35482
35490
35492
35492
35492
35479
35483
35489
35484
35484
35484
35487
35486
35485
35479
35447
35477
35484
35476
35483
35476
35474
35479
35473
35439
35479
35469
35478
35476
35473
35463
35475
35471
35471
35468
35471
35460
35467
35437
35455
35460
35457
35463
35468
35460
35463
35463
35463
35463
35463
35461
35427
35458
35462
35460
35463
35459
35459
35447
35430
35415
35447
35457
35452
35461
35463
35462
35461
35452
35461
35455
35460
35420
35450
35454
35455
35453
35439
35453
35457
35448
35453
35425
35439
35453
35454
35453
35455
35453
35412
35447
35463
35452
35445
35453
35455
35455
35415
35431
35454
35447
35451
35452
35439
35456
35451
35410
35437
35452
35455
35450
35451
35453
35439
35447
35439
35439
35441
35445
35439
35439
35436
35439
35438
35407
35439
35436
35438
35447
35437
35431
35435
35431
35429
35431
35426
35433
35444
35421
35424
35422
35423
35428
35424
35417
35426
35423
35420
35407
35418
35421
35423
35419
35414
35415
35415
35412
35401
35409
35413
35404
35413
35409
35402
35401
35392
35412
35407
35401
35407
35396
35397
35402
35397
35385
35391
35390
35392
35397
35388
35359
35379
35385
35386
35405
35395
35388
35383
35380
35387
35383
35378
35380
35380
35348
35375
35376
35372
35372
35367
35367
35365
35367
35373
35345
35371
35361
35365
35358
35365
35366
35359
35351
35359
35356
35358
35354
35331
35351
35349
35349
35348
35351
35345
35345
35343
35343
35345
35324
35317
35335
35346
35334
35335
35335
35335
35332
35332
35335
35334
35332
35335
35327
35329
35302
35324
35330
35331
35324
35326
35327
35335
35333
35328
35332
35313
35319
35322
35314
35324
35317
35327
35319
35318
35324
35319
35290
35317
35319
35316
35318
35321
35309
35315
35310
35327
35302
35311
35314
35306
35311
35313
35303
35311
35308
35306
35308
35311
35311
35300
35302
35298
35299
35295
35302
35302
35301
35274
35299
35306
35303
35303
35300
35297
35300
35301
35295
35297
35289
35295
35288
35293
35293
35293
35290
35270
35262
35273
35292
35289
35295
35295
35293
35287
35279
35285
35283
35284
35285
35267
35275
35270
35280
35294
35287
35278
35276
35278
35274
35270
35276
35271
35271
35271
35273
35254
35271
35271
35279
35270
35272
35278
35279
35274
35271
35255
35271
35262
35265
35263
35255
35268
35268
35260
35259
35261
35239
35268
35263
35257
35261
35260
35255
35257
35253
35250
35252
35255
35255
35252
35253
35253
35228
35247
35255
35236
35247
35247
35249
35251
35255
35247
35242
35240
35238
35241
35252
35239
35241
35238
35243
35219
35236
35244
35247
35252
35246
35239
35237
35239
35239
35244
35215
35239
35234
35237
35237
35224
35238
35231
35238
35231
35220
35228
35238
35231
35238
35239
35235
35239
35239
35228
35225
35231
35223
35228
35228
35228
35210
35231
35229
35230
35221
35222
35228
35222
35191
35220
35222
35228
35216
35223
35223
35215
35213
35194
35215
35215
35209
35213
35215
35220
35207
35215
35205
35207
35223
35212
35215
35212
35207
35207
35212
35215
35207
35207
35207
35213
35206
35206
35209
35183
35199
35204
35213
35207
35191
35207
35207
35207
35204
35195
35209
35212
35205
35212
35204
35207
35204
35204
35175
35203
35205
35206
35203
35198
35196
35186
35190
35199
35202
35197
35198
35199
35189
35199
35193
35189
35199
35195
35196
35169
35185
35193
35196
35193
35189
35180
35183
35188
35183
35186
35191
35183
35191
35181
35183
35156
35180
35180
35180
35189
35180
35177
35179
35176
35177
35173
35174
35180
35172
35151
35169
35153
35155
35156
35149
35159
35150
35162
35172
35166
35167
35167
35161
35164
35167
35166
35177
35172
35170
35166
35171
35167
35167
35169
35170
35157
35167
35167
35159
35167
35153
35173
35170
35164
35167
35161
35164
35167
35161
35156
35156
35165
35166
35159
35161
35156
35159
35155
35150
35124
35143
35151
35156
35156
35162
35156
35155
35151
35151
35143
35146
35146
35151
35150
35126
35143
35149
35148
35145
35148
35155
35147
35149
35145
35151
35143
35145
35146
35143
35148
35146
35143
35149
35147
35147
35143
35143
35140
35143
35134
35136
35134
35140
35145
35147
35143
35150
35146
35148
35150
35153
35150
35161
35156
35164
35162
35161
35163
35169
35175
35172
35183
35188
35197
35202
35206
35209
35213
35206
35204
35207
35201
35195
35191
35180
35180
35183
35172
35180
35151
35167
35164
35164
35156
35155
35159
35146
35131
35154
35159
35151
35151
35151
35149
35148
35142
35142
35143
35143
35141
35140
35138
35147
35140
35138
35140
35125
35131
35138
35143
35130
35142
35135
35138
35131
35135
35140
35127
35133
35127
35126
35138
35131
35126
35135
35132
35127
35130
35140
35124
35097
35125
35127
35125
35120
35125
35124
35127
35117
35111
35112
35121
35113
35124
35124
35125
35124
35111
35113
35109
35111
35116
35111
35113
35115
35113
35111
35110
35117
35089
35111
35118
35118
35114
35103
35110
35111
35102
35111
35103
35109
35114
35108
35109
35105
35094
35103
35108
35110
35107
35094
35097
35102
35097
35100
35109
35104
35104
35093
35103
35108
35101
35100
35095
35084
35079
35101
35095
35103
35067
35098
35100
35098
35100
35095
35099
35094
35063
35089
35094
35098
35095
35103
35099
35095
35095
35093
35088
35092
35090
35086
35095
35095
35095
35079
35097
35079
35087
35090
35090
35054
35071
35084
35087
35094
35099
35089
35089
35092
35087
35093
35092
35095
35099
35079
35079
35085
35086
35087
35058
35077
35089
35086
35087
35092
35087
35089
35092
35095
35085
35094
35095
35085
35084
35092
35095
35086
35071
35058
35062
35087
35085
35092
35092
35085
35087
35091
35090
35087
35086
35095
35087
35099
35092
35087
35091
35079
35079
35078
35079
35087
35094
35092
35092
35087
35084
35093
35085
35079
35071
35079
35092
35092
35084
35090
35091
35090
35085
35086
35093
35091
35073
35063
35079
35087
35095
35084
35087
35084
35079
35079
35079
35078
35077
35076
35079
35079
35079
35077
35068
35069
35079
35076
35069
35076
35070
35071
35071
35066
35041
35034
35070
35069
35074
35072
35077
35075
35070
35068
35076
35068
35063
35061
35053
35061
35062
35052
35058
35059
35055
35052
35056
35052
35055
35055
35044
35053
35059
35050
35055
35047
35051
35044
35044
35045
35045
35047
35045
35041
35047
35042
35047
35051
35047
35039
35042
35039
35040
35038
35039
35033
35029
35029
35028
35032
35025
35031
35032
35031
35028
35033
35031
35029
35031
35023
35020
35027
35035
35026
35022
35027
35023
35030
34999
35005
35031
35020
35026
35020
35026
35025
35015
35023
35014
35019
35017
35014
35020
35018
35019
35015
35010
35014
35023
35013
35015
35015
35015
35015
35015
35014
35015
35012
35015
35013
35008
35008
35004
34986
34997
35015
35012
35015
34999
34996
35008
34999
35009
35007
35009
35015
35014
35001
35012
35007
35004
35012
35013
35015
35012
35010
35011
35000
35002
34999
34996
35007
35004
35005
34997
34982
34997
35004
35004
35002
34996
35002
34993
35001
34999
35004
34999
35002
34990
34993
34994
34991
34996
34996
34993
34996
34995
35003
35001
34997
35003
34999
34989
34990
34995
34985
34987
34988
34988
34994
34988
34989
34988
34991
34988
34989
34996
34999
34993
34991
34986
34991
34988
34988
34988
34984
34986
34986
34983
34983
34988
34985
34959
34990
34982
34983
34977
34986
34984
34989
34952
34982
34989
34986
34979
34951
34978
34983
34983
34983
34983
34983
34980
34983
34983
34983
34982
34981
34983
34983
34974
34975
34975
34974
34978
34975
34975
34982
34947
34965
34973
34979
34975
34974
34971
34958
34951
34967
34979
34979
34975
34975
34979
34977
34979
34980
34974
34970
34979
34968
34951
34950
34942
34941
34935
34973
34966
34955
34966
34961
34959
34967
34935
34932
34965
34967
34965
34959
34964
34959
34961
34965
34964
34971
34961
34970
34964
34956
34967
34969
34975
34964
34973
34971
34962
34965
34958
34958
34967
34956
34967
34962
34956
34941
34941
34960
34964
34961
34965
34964
34960
34959
34964
34965
34958
34963
34953
34959
34966
34967
34953
34956
34953
34951
34951
34929
34947
34956
34959
34959
34959
34952
34964
34959
34956
34951
34951
34951
34951
34958
34949
34948
34951
34951
34926
34932
34941
34949
34951
34948
34959
34951
34950
34951
34951
34949
34951
34943
34951
34949
34922
34921
34934
34951
34948
34943
34948
34943
34941
34949
34945
34950
34951
34951
34950
34951
34919
34939
34941
34946
34943
34943
34945
34943
34945
34943
34940
34943
34933
34943
34941
34940
34940
34932
34932
34943
34926
34935
34918
34905
34915
34943
34943
34942
34939
34935
34935
34938
34943
34935
34918
34919
34935
34937
34942
34938
34935
34935
34927
34935
34924
34932
34930
34929
34925
34926
34927
34939
34918
34931
34941
34935
34929
34930
34938
34939
34933
34932
34938
34927
34921
34935
34927
34930
34932
34927
34932
34914
34930
34937
34927
34935
34936
34940
34917
34935
34938
34950
34944
34942
34945
34951
34951
34944
34955
34964
34967
34973
34981
34981
34980
34995
35002
34996
35000
35010
35013
35014
35009
34970
34997
34999
34981
34974
34968
34978
34967
34973
34949
34975
34959
34964
34943
34956
34951
34947
34940
34951
34951
34943
34948
34947
34950
34945
34940
34947
34949
34945
34949
34943
34932
34928
34940
34945
34946
34943
34950
34945
34940
34934
34937
34935
34907
34937
34933
34939
34933
34937
34935
34905
34934
34934
34936
34940
34938
34908
34935
34935
34930
34933
34927
34933
34907
34935
34919
34933
34933
34902
34935
34929
34935
34929
34932
34932
34934
34922
34932
34919
34932
34933
34919
34917
34918
34927
34927
34927
34912
34904
34925
34927
34927
34919
34925
34931
34924
34919
34894
34919
34922
34922
34913
34918
34915
34909
34919
34925
34924
34919
34919
34924
34919
34919
34908
34927
34919
34918
34914
34919
34924
34889
34918
34925
34919
34917
34917
34916
34918
34924
34919
34914
34919
34887
34917
34918
34911
34917
34918
34917
34921
34916
34919
34908
34918
34907
34913
34903
34916
34906
34921
34916
34915
34916
34909
34914
34913
34915
34917
34922
34900
34914
34916
34887
34919
34925
34917
34917
34919
34924
34926
34920
34918
34918
34887
34923
34923
34916
34919
34919
34903
34924
34918
34921
34919
34897
34918
34924
34929
34911
34925
34919
34892
34905
34927
34921
34925
34921
34922
34918
34917
34927
34919
34935
34927
34927
34924
34927
34894
34919
34927
34919
34925
34895
34930
34927
34926
34926
34913
34932
34927
34922
34925
34909
34927
34924
34924
34933
34933
34933
34927
34920
34903
34935
34933
34931
34907
34933
34925
34924
34925
34917
34927
34927
34925
34927
34927
34924
34929
34927
34921
34932
34900
34931
34929
34932
34927
34905
34921
34924
34919
34918
34918
34912
34919
34912
34919
34908
34914
34911
34916
34926
34918
34922
34892
34921
34919
34911
34915
34909
34919
34917
34914
34903
34886
34908
34914
34906
34908
34908
34900
34905
34881
34900
34892
34897
34903
34893
34903
34906
34900
34893
34889
34894
34879
34900
34895
34894
34886
34897
34893
34892
34870
34898
34892
34899
34887
34885
34886
34891
34884
34881
34890
34869
34881
34892
34884
34879
34867
34889
34890
34885
34879
34895
34884
34894
34882
34874
34881
34877
34880
34879
34883
34854
34883
34878
34878
34883
34862
34885
34887
34887
34884
34878
34885
34884
34876
34884
34875
34885
34877
34880
34865
34881
34880
34866
34869
34875
34879
34881
34863
34884
34884
34876
34865
34871
34882
34879
34875
34867
34874
34874
34871
34869
34876
34869
34867
34858
34844
34862
34864
34875
34879
34868
34869
34868
34868
34874
34871
34870
34871
34871
34870
34865
34870
34879
34861
34868
34868
34865
34863
34871
34855
34868
34870
34871
34865
34863
34860
34865
34848
34863
34866
34868
34868
34853
34863
34863
34865
34871
34869
34839
34862
34866
34855
34839
34861
34855
34865
34871
34868
34863
34856
34870
34863
34863
34837
34863
34864
34858
34860
34854
34862
34855
34858
34838
34853
34860
34868
34864
34861
34860
34865
34840
34859
34861
34860
34855
34855
34854
34860
34855
34823
34831
34855
34854
34860
34863
34853
34855
34851
34852
34845
34859
34842
34831
34849
34854
34855
34855
34860
34862
34845
34847
34852
34855
34855
34849
34854
34839
34857
34856
34853
34855
34848
34847
34854
34848
34854
34823
34848
34855
34853
34859
34862
34855
34851
34853
34855
34823
34847
34855
34855
34850
34853
34846
34844
34845
34846
34823
34836
34855
34848
34853
34853
34853
34839
34848
34845
34848
34850
34842
34839
34844
34846
34847
34846
34839
34847
34845
34839
34846
34841
34845
34844
34847
34822
34841
34844
34848
34849
34838
34843
34841
34841
34840
34847
34846
34852
34839
34848
34851
34845
34847
34842
34839
34853
34845
34842
34844
34844
34847
34842
34851
34847
34845
34835
34846
34847
34847
34847
34846
34839
34844
34845
34840
34847
34831
34842
34847
34845
34839
34844
34847
34850
34845
34845
34838
34845
34845
34839
34847
34853
34846
34846
34840
34843
34839
34823
34839
34823
34836
34832
34837
34830
34846
34833
34831
34843
34837
34838
34823
34836
34838
34839
34834
34839
34836
34839
34839
34834
34823
34823
34812
34823
34836
34832
34823
34823
34834
34834
34839
34834
34823
34836
34805
34836
34830
34823
34834
34823
34839
34823
34823
34823
34822
34837
34823
34830
34801
34807
34823
34823
34823
34823
34823
34831
34823
34831
34823
34828
34823
34823
34823
34823
34831
34823
34823
34815
34823
34823
34837
34823
34823
34823
34803
34823
34823
34823
34823
34823
34823
34823
34802
34820
34823
34823
34823
34829
34837
34823
34823
34823
34836
34823
34823
34788
34830
34823
34837
34822
34837
34837
34820
34833
34847
34837
34836
34848
34845
34852
34849
34855
34860
34863
34871
34874
34876
34886
34887
34881
34895
34904
34901
34898
34900
34890
34891
34889
34885
34878
34861
34860
34870
34866
34865
34853
34855
34850
34847
34851
34843
34843
34846
34843
34846
34850
34847
34845
34841
34850
34828
34844
34848
34847
34847
34844
34838
34820
34845
34847
34839
34853
34847
34847
34840
34844
34849
34847
34844
34844
34809
34847
34845
34839
34836
34839
34845
34843
34839
34836
34839
34823
34831
34837
34843
34839
34839
34836
34847
34837
34836
34839
34819
34837
34839
34834
34830
34838
34823
34830
34837
34823
34845
34837
34832
34823
34831
34831
34831
34830
34836
34823
34821
34834
34843
34820
34823
34823
34799
34823
34839
34839
34823
34823
34831
34823
34833
34799
34828
34836
34831
34823
34837
34820
34823
34823
34823
34830
34823
34808
34823
34823
34833
34823
34823
34833
34823
34823
34823
34823
34823
34823
34810
34830
34823
34823
34823
34835
34834
34823
34823
34823
34823
34823
34823
34837
34823
34812
34823
34836
34823
34819
34823
34823
34839
34838
34833
34823
34823
34823
34823
34796
34806
34819
34837
34833
34839
34837
34836
34836
34837
34831
34832
34823
34837
34847
34839
34839
34837
34841
34831
34838
34839
34837
34839
34842
34833
34831
34836
34837
34839
34844
34828
34841
34831
34809
34836
34844
34839
34847
34831
34833
34836
34844
34801
34837
34845
34846
34845
34844
34845
34859
34839
34845
34845
34851
34854
34823
34845
34848
34849
34847
34852
34837
34847
34820
34836
34847
34847
34854
34851
34847
34846
34855
34851
34848
34853
34817
34815
34842
34847
34844
34845
34854
34847
34842
34847
34850
34822
34836
34849
34855
34852
34850
34851
34849
34847
34847
34839
34838
34841
34839
34841
34851
34838
34851
34844
34855
34845
34836
34839
34846
34844
34844
34839
34839
34836
34838
34832
34830
34830
34839
34823
34823
34823
34838
34839
34831
34839
34823
34833
34823
34823
34822
34822
34820
34823
34817
34823
34819
34823
34821
34823
34820
34793
34809
34805
34817
34808
34812
34821
34814
34823
34804
34812
34814
34815
34807
34815
34809
34805
34786
34799
34799
34804
34791
34799
34800
34805
34810
34813
34805
34802
34811
34797
34807
34804
34807
34805
34807
34805
34775
34797
34794
34799
34801
34801
34807
34799
34804
34804
34799
34796
34799
34774
34798
34803
34798
34793
34807
34799
34791
34791
34793
34793
34797
34775
34776
34779
34762
34786
34788
34805
34802
34796
34805
34799
34805
34796
34791
34791
34789
34792
34791
34796
34791
34791
34791
34775
34792
34793
34794
34793
34786
34791
34791
34790
34789
34788
34759
34782
34791
34791
34787
34795
34789
34789
34794
34794
34773
34791
34796
34794
34797
34775
34788
34791
34783
34786
34790
34791
34791
34763
34788
34790
34790
34790
34797
34791
34789
34791
34788
34790
34796
34780
34786
34788
34787
34791
34759
34789
34783
34786
34784
34784
34789
34794
34783
34785
34783
34761
34780
34785
34783
34784
34781
34782
34787
34779
34784
34782
34789
34779
34778
34774
34780
34782
34764
34782
34783
34789
34786
34786
34779
34778
34772
34780
34780
34775
34759
34780
34783
34777
34777
34775
34775
34772
34772
34783
34761
34774
34776
34787
34781
34775
34774
34775
34775
34775
34772
34751
34775
34780
34780
34778
34774
34759
34777
34768
34781
34772
34744
34775
34774
34776
34780
34783
34774
34775
34776
34781
34783
34788
34769
34775
34774
34779
34772
34777
34761
34773
34764
34783
34783
34781
34773
34772
34759
34763
34772
34767
34770
34780
34750
34758
34772
34772
34772
34768
34768
34772
34772
34775
34769
34779
34774
34769
34776
34772
34769
34774
34766
34781
34773
34775
34771
34775
34767
34779
34769
34744
34772
34767
34772
34759
34775
34771
34763
34772
34772
34764
34756
34766
34759
34740
34740
34756
34766
34767
34767
34765
34760
34761
34767
34742
34754
34765
34762
34756
34771
34757
34767
34769
34761
34775
34769
34769
34762
34765
34765
34766
34756
34770
34775
34765
34767
34742
34766
34762
34767
34759
34752
34758
34762
34759
34756
34739
34764
34760
34759
34764
34765
34762
34755
34761
34759
34763
34764
34766
34764
34764
34759
34758
34765
34756
34763
34763
34762
34725
34749
34757
34756
34756
34756
34756
34751
34758
34753
34751
34757
34759
34748
34753
34755
34752
34755
34754
34759
34758
34722
34754
34753
34756
34749
34758
34756
34756
34748
34746
34751
34759
34751
34741
34753
34756
34756
34744
34727
34733
34750
34749
34748
34754
34751
34749
34747
34753
34747
34758
34751
34751
34754
34756
34755
34751
34727
34733
34755
34759
34764
34761
34758
34756
34758
34755
34756
34727
34759
34754
34763
34763
34756
34760
34756
34756
34766
34765
34759
34761
34783
34776
34783
34786
34788
34796
34791
34793
34805
34804
34810
34822
34823
34815
34815
34816
34811
34804
34774
34796
34804
34799
34799
34790
34781
34779
34780
34783
34773
34775
34780
34771
34775
34773
34775
34757
34763
34774
34772
34779
34769
34772
34774
34775
34770
34782
34746
34766
34775
34775
34772
34773
34772
34767
34775
34773
34769
34774
34756
34773
34772
34769
34775
34783
34763
34769
34767
34767
34765
34764
34761
34767
34767
34762
34764
34773
34739
34762
34765
34760
34780
34764
34767
34767
34764
34764
34765
34766
34770
34759
34767
34758
34764
34767
34756
34762
34759
34765
34757
34761
34758
34762
34756
34756
34764
34767
34756
34759
34765
34724
34749
34740
34753
34762
34761
34759
34765
34767
34766
34759
34762
34765
34758
34763
34767
34774
34767
34758
34760
34767
34751
34764
34750
34757
34755
34751
34738
34750
34759
34756
34765
34766
34757
34764
34765
34761
34764
34756
34759
34757
34749
34754
34748
34759
34756
34758
34758
34756
34724
34766
34766
34759
34750
34759
34753
34762
34759
34751
34757
34762
34758
34759
34759
34757
34764
34759
34756
34759
34759
34758
34756
34758
34764
34765
34765
34763
34767
34771
34766
34763
34735
34736
34759
34769
34766
34767
34767
34769
34775
34767
34772
34762
34767
34767
34771
34764
34764
34767
34774
34764
34769
34769
34770
34772
34775
34772
34772
34772
34770
34772
34775
34770
34768
34769
34775
34772
34771
34773
34775
34775
34774
34779
34775
34780
34777
34783
34745
34764
34773
34781
34777
34774
34774
34776
34782
34780
34778
34744
34770
34779
34775
34778
34775
34779
34778
34772
34774
34776
34775
34773
34767
34774
34770
34765
34768
34774
34772
34769
34764
34765
34769
34770
34766
34765
34767
34762
34775
34765
34746
34748
34753
34757
34759
34758
34767
34761
34753
34763
34757
34762
34762
34761
34759
34758
34751
34759
34753
34751
34757
34757
34759
34756
34756
34727
34745
34748
34748
34756
34750
34758
34748
34734
34747
34748
34751
34751
34749
34748
34751
34745
34749
34745
34737
34736
34734
34737
34743
34735
34711
34727
34734
34737
34735
34746
34735
34743
34737
34740
34734
34732
34736
34733
34735
34732
34702
34731
34730
34734
34731
34739
34732
34737
34740
34728
34729
34733
34729
34726
34727
34725
34735
34733
34726
34727
34727
34732
34731
34727
34730
34733
34725
34711
34722
34721
34731
34732
34732
34730
34701
34711
34726
34727
34729
34719
34727
34733
34727
34731
34726
34735
34735
34721
34726
34724
34727
34725
34722
34725
34728
34727
34727
34700
34717
34725
34721
34730
34727
34727
34731
34721
34726
34732
34727
34724
34724
34727
34727
34724
34727
34731
34726
34727
34727
34716
34725
34717
34725
34730
34711
34729
34726
34723
34717
34723
34719
34715
34719
34695
34709
34719
34726
34717
34718
34720
34716
34723
34724
34695
34717
34719
34716
34721
34717
34717
34717
34714
34718
34717
34713
34723
34725
34717
34711
34717
34716
34719
34695
34725
34716
34716
34718
34717
34713
34713
34679
34703
34714
34710
34719
34716
34719
34719
34711
34712
34717
34716
34711
34694
34709
34718
34722
34719
34707
34710
34714
34712
34713
34690
34702
34711
34719
34717
34716
34709
34703
34717
34708
34706
34711
34693
34705
34715
34708
34704
34711
34695
34710
34707
34711
34711
34695
34705
34708
34705
34708
34710
34712
34705
34710
34714
34701
34709
34710
34710
34710
34702
34710
34708
34713
34709
34695
34708
34711
34711
34708
34694
34706
34698
34703
34708
34705
34708
34708
34700
34697
34702
34706
34695
34707
34695
34701
34701
34700
34703
34701
34707
34703
34674
34682
34695
34703
34679
34681
34695
34697
34708
34707
34708
34709
34709
34700
34709
34700
34706
34710
34699
34702
34708
34699
34703
34695
34703
34707
34697
34700
34695
34676
34690
34707
34695
34695
34707
34707
34708
34698
34694
34695
34695
34700
34703
34702
34669
34700
34695
34701
34700
34695
34703
34685
34695
34696
34693
34695
34695
34695
34695
34692
34695
34677
34692
34692
34694
34694
34695
34695
34695
34690
34695
34693
34692
34695
34695
34695
34689
34703
34694
34682
34693
34698
34690
34687
34695
34687
34687
34692
34695
34695
34695
34689
34689
34693
34690
34695
34687
34695
34695
34692
34695
34693
34688
34694
34690
34695
34668
34686
34690
34685
34693
34687
34684
34693
34694
34666
34692
34695
34688
34695
34692
34695
34692
34694
34683
34690
34681
34687
34684
34690
34668
34686
34692
34687
34692
34695
34695
34686
34686
34689
34691
34692
34685
34692
34687
34679
34687
34688
34685
34692
34679
34683
34695
34695
34685
34695
34655
34683
34686
34692
34695
34691
34684
34687
34694
34689
34687
34687
34695
34695
34692
34695
34701
34692
34695
34694
34703
34699
34705
34705
34711
34709
34716
34713
34725
34725
34731
34733
34735
34732
34730
34748
34753
34758
34748
34740
34743
34738
34735
34732
34726
34739
34732
34723
34719
34719
34719
34716
34697
34713
34703
34701
34700
34711
34703
34711
34708
34698
34708
34707
34711
34681
34703
34703
34702
34710
34697
34711
34717
34705
34703
34702
34703
34700
34701
34699
34700
34697
34702
34705
34701
34671
34701
34705
34700
34700
34703
34690
34694
34692
34697
34703
34677
34692
34695
34695
34695
34693
34695
34676
34669
34694
34694
34695
34685
34695
34695
34700
34695
34695
34692
34689
34686
34695
34690
34693
34694
34676
34669
34695
34692
34698
34681
34687
34687
34695
34671
34687
34694
34686
34672
34690
34693
34687
34689
34687
34689
34690
34660
34693
34695
34693
34683
34691
34657
34682
34691
34695
34679
34688
34686
34693
34693
34687
34665
34693
34687
34693
34690
34684
34695
34691
34692
34687
34687
34690
34687
34673
34690
34687
34693
34687
34685
34685
34681
34687
34695
34689
34690
34695
34664
34679
34684
34694
34695
34687
34686
34685
34681
34675
34671
34692
34689
34694
34691
34687
34682
34684
34663
34692
34693
34690
34687
34690
34684
34685
34694
34676
34680
34684
34694
34692
34693
34683
34695
34695
34692
34692
34657
34695
34688
34685
34692
34695
34693
34663
34695
34695
34695
34694
34701
34692
34695
34692
34692
34695
34694
34698
34666
34695
34695
34683
34695
34695
34684
34695
34703
34682
34695
34695
34675
34695
34701
34695
34687
34701
34703
34704
34694
34675
34686
34702
34703
34700
34692
34690
34703
34695
34695
34695
34695
34695
34701
34689
34703
34703
34695
34703
34679
34697
34695
34695
34701
34693
34695
34692
34695
34691
34694
34694
34695
34691
34691
34700
34690
34695
34690
34695
34676
34692
34684
34693
34692
34689
34695
34663
34680
34686
34695
34687
34686
34687
34687
34680
34685
34658
34679
34676
34684
34678
34687
34677
34678
34676
34679
34681
34671
34675
34684
34677
34667
34676
34677
34677
34666
34664
34673
34665
34666
34662
34649
34665
34663
34668
34661
34660
34666
34631
34663
34665
34666
34652
34655
34663
34645
34663
34670
34653
34649
34659
34663
34663
34663
34650
34659
34661
34660
34655
34653
34656
34658
34660
34661
34655
34655
34654
34654
34654
34655
34655
34647
34654
34657
34654
34647
34654
34626
34650
34644
34653
34655
34652
34645
34647
34645
34653
34647
34645
34630
34647
34650
34645
34649
34647
34651
34647
34645
34655
34650
34653
34642
34639
34644
34647
34637
34643
34634
34639
34652
34639
34639
34642
34642
34647
34636
34639
34621
34644
34647
34646
34645
34643
34632
34643
34643
34643
34643
34634
34636
34615
34637
34633
34624
34628
34633
34636
34635
34631
34635
34631
34638
34633
34631
34631
34630
34631
34629
34628
34634
34630
34627
34635
34628
34636
34631
34606
34618
34639
34629
34636
34630
34623
34630
34634
34623
34631
34631
34628
34631
34628
34615
34626
34634
34630
34622
34631
34630
34631
34629
34630
34631
34628
34629
34631
34622
34625
34628
34623
34623
34629
34609
34602
34606
34598
34602
34621
34630
34623
34619
34620
34631
34623
34629
34630
34631
34628
34607
34603
34620
34621
34629
34621
34620
34621
34621
34620
34620
34625
34621
34631
34616
34628
34623
34613
34623
34616
34621
34628
34620
34623
34596
34617
34608
34626
34615
34618
34615
34618
34615
34616
34623
34606
34613
34620
34619
34615
34623
34615
34612
34612
34612
34585
34617
34618
34620
34617
34620
34623
34614
34612
34615
34616
34623
34599
34618
34621
34619
34618
34604
34614
34612
34614
34623
34614
34615
34615
34607
34615
34607
34609
34613
34612
34611
34596
34613
34615
34624
34613
34623
34606
34621
34618
34587
34615
34615
34614
34612
34610
34613
34615
34607
34598
34614
34623
34615
34620
34616
34609
34604
34612
34612
34607
34615
34612
34609
34607
34591
34598
34602
34613
34622
34622
34612
34612
34607
34612
34614
34581
34611
34615
34612
34615
34610
34604
34605
34605
34610
34591
34612
34615
34614
34604
34612
34609
34599
34611
34609
34607
34610
34591
34596
34595
34613
34604
34588
34582
34575
34586
34594
34580
34596
34602
34604
34607
34601
34600
34602
34593
34602
34594
34602
34600
34605
34615
34598
34596
34604
34599
34598
34599
34604
34604
34602
34604
34599
34604
34572
34575
34584
34584
34603
34601
34597
34607
34601
34603
34597
34599
34597
34601
34592
34593
34605
34599
34589
34585
34590
34599
34606
34600
34599
34596
34598
34604
34592
34591
34594
34599
34602
34599
34596
34597
34591
34602
34596
34597
34598
34594
34604
34608
34599
34604
34565
34602
34602
34605
34607
34600
34604
34606
34587
34599
34596
34615
34601
34605
34608
34606
34606
34615
34612
34609
34612
34619
34628
34620
34615
34628
34624
34633
34635
34638
34653
34653
34654
34663
34664
34669
34644
34652
34673
34667
34668
34665
34660
34655
34639
34645
34647
34639
34635
34623
34631
34631
34632
34629
34637
34631
34621
34622
34621
34620
34620
34615
34615
34615
34599
34613
34621
34618
34620
34612
34621
34615
34618
34614
34623
34591
34615
34621
34620
34605
34614
34612
34606
34615
34605
34599
34608
34607
34605
34607
34614
34609
34605
34606
34605
34604
34595
34605
34612
34607
34567
34596
34603
34611
34619
34607
34612
34603
34606
34562
34594
34611
34605
34613
34599
34609
34607
34609
34602
34610
34599
34602
34588
34607
34604
34591
34599
34601
34603
34575
34603
34604
34607
34601
34596
34599
34601
34599
34594
34606
34602
34591
34599
34599
34598
34594
34599
34605
34599
34596
34575
34599
34602
34598
34599
34583
34603
34602
34596
34597
34607
34574
34599
34598
34599
34607
34599
34590
34599
34596
34598
34567
34585
34597
34599
34599
34603
34596
34596
34591
34597
34599
34593
34599
34599
34583
34565
34581
34597
34599
34599
34604
34605
34596
34599
34599
34591
34597
34596
34580
34596
34574
34586
34599
34597
34598
34595
34599
34596
34573
34596
34594
34597
34602
34605
34598
34606
34595
34598
34601
34607
34599
34597
34606
34561
34599
34599
34607
34596
34607
34604
34599
34601
34598
34567
34605
34596
34609
34611
34603
34596
34601
34602
34601
34601
34581
34607
34599
34609
34599
34606
34603
34606
34607
34613
34607
34576
34615
34615
34612
34617
34601
34607
34607
34615
34613
34602
34610
34618
34615
34614
34612
34607
34607
34604
34606
34607
34611
34614
34596
34601
34607
34613
34613
34607
34612
34607
34613
34602
34602
34608
34613
34607
34614
34607
34612
34599
34605
34608
34613
34605
34605
34603
34599
34596
34603
34603
34603
34600
34567
34596
34596
34606
34602
34596
34596
34598
34598
34594
34597
34596
34594
34597
34562
34588
34593
34591
34596
34599
34573
34577
34595
34587
34591
34591
34590
34594
34583
34557
34575
34583
34585
34580
34582
34588
34578
34580
34572
34581
34587
34564
34582
34579
34585
34580
34578
34567
34580
34567
34564
34582
34581
34572
34567
34575
34567
34572
34573
34577
34559
34567
34564
34567
34575
34567
34561
34567
34572
34583
34559
34559
34567
34567
34567
34564
34548
34567
34564
34567
34566
34565
34563
34567
34551
34564
34563
34567
34557
34561
34564
34563
34564
34556
34561
34562
34560
34561
34567
34567
34556
34559
34558
34567
34567
34534
34564
34567
34563
34567
34566
34561
34563
34567
34534
34559
34559
34556
34563
34564
34559
34566
34564
34557
34567
34556
34556
34567
34564
34546
34556
34563
34550
34554
34559
34559
34535
34549
34558
34557
34567
34559
34554
34552
34527
34548
34567
34548
34559
34560
34556
34550
34550
34553
34546
34559
34558
34556
34554
34556
34553
34559
34559
34528
34556
34550
34559
34541
34545
34558
34526
34559
34554
34549
34553
34546
34548
34537
34554
34559
34545
34544
34513
34559
34559
34557
34555
34554
34549
34545
34552
34551
34554
34559
34548
34538
34545
34548
34549
34551
34543
34552
34554
34549
34550
34548
34549
34529
34542
34548
34556
34541
34540
34547
34550
34556
34551
34526
34551
34545
34543
34545
34555
34524
34543
34551
34545
34543
34533
34545
34545
34541
34543
34542
34545
34541
34537
34540
34549
34538
34545
34546
34548
34549
34548
34547
34545
34522
34527
34550
34551
34532
34543
34535
34540
34519
34526
34541
34542
34542
34537
34536
34548
34535
34542
34545
34542
34540
34543
34541
34548
34533
34540
34543
34540
34535
34540
34514
34542
34545
34537
34535
34533
34535
34530
34535
34540
34541
34535
34532
34534
34514
34543
34540
34540
34537
34535
34519
34533
34540
34527
34534
34530
34542
34544
34543
34540
34532
34527
34543
34541
34532
34539
34550
34530
34545
34543
34534
34534
34543
34540
34540
34533
34535
34545
34540
34535
34535
34546
34535
34534
34536
34529
34533
34543
34538
34532
34543
34530
34533
34543
34543
34540
34538
34535
34532
34527
34530
34536
34535
34527
34529
34532
34534
34535
34535
34535
34543
34530
34539
34528
34535
34533
34517
34538
34537
34537
34530
34535
34535
34534
34523
34533
34535
34523
34532
34532
34510
34534
34531
34529
34535
34537
34534
34520
34531
34537
34533
34523
34532
34533
34529
34532
34519
34530
34535
34525
34531
34532
34532
34516
34529
34543
34538
34534
34524
34538
34534
34539
34539
34514
34532
34527
34503
34538
34533
34525
34529
34506
34527
34532
34529
34527
34535
34525
34535
34528
34535
34531
34533
34530
34526
34533
34535
34531
34529
34535
34535
34533
34527
34534
34525
34502
34525
34532
34535
34537
34542
34540
34540
34534
34530
34530
34540
34542
34539
34543
34551
34545
34550
34549
34549
34564
34560
34567
34558
34567
34581
34580
34581
34591
34593
34599
34590
34607
34609
34580
34590
34604
34605
34592
34598
34588
34583
34585
34583
34577
34580
34574
34567
34567
34545
34567
34553
34559
34559
34550
34556
34556
34556
34554
34559
34526
34556
34554
34559
34553
34556
34550
34548
34549
34540
34551
34550
34548
34559
34553
34535
34548
34550
34551
34554
34554
34553
34542
34543
34557
34558
34550
34549
34548
34553
34549
34549
34546
34541
34542
34540
34546
34543
34543
34549
34541
34541
34538
34543
34543
34543
34542
34549
34540
34539
34541
34543
34543
34532
34537
34537
34540
34544
34535
34543
34543
34548
34540
34540
34536
34536
34511
34541
34545
34535
34535
34542
34519
34535
34538
34540
34510
34548
34535
34540
34519
34548
34543
34548
34534
34537
34535
34545
34541
34534
34535
34534
34513
34535
34538
34535
34537
34541
34518
34543
34537
34543
34537
34538
34528
34534
34533
34535
34524
34535
34541
34535
34511
34535
34532
34532
34541
34535
34543
34539
34537
34520
34535
34535
34534
34541
34534
34524
34530
34538
34537
34526
34534
34539
34538
34535
34537
34534
34533
34541
34516
34533
34537
34539
34538
34539
34539
34535
34538
34543
34536
34540
34535
34543
34510
34535
34541
34546
34543
34540
34541
34513
34536
34543
34542
34538
34545
34541
34535
34516
34534
34535
34538
34541
34540
34543
34535
34543
34535
34545
34540
34543
34537
34549
34533
34541
34543
34525
34543
34544
34536
34551
34513
34533
34551
34545
34532
34524
34552
34556
34551
34545
34530
34556
34548
34548
34553
34543
34551
34550
34548
34545
34526
34549
34551
34542
34551
34525
34551
34554
34546
34543
34542
34551
34556
34555
34551
34548
34551
34538
34548
34548
34548
34535
34546
34522
34543
34542
34543
34545
34535
34552
34527
34533
34541
34543
34551
34543
34539
34535
34527
34535
34535
34533
34535
34535
34535
34511
34522
34533
34535
34531
34532
34527
34532
34535
34534
34516
34525
34529
34532
34502
34523
34533
34528
34526
34524
34519
34527
34520
34526
34527
34512
34524
34520
34515
34527
34510
34517
34524
34514
34519
34518
34523
34519
34495
34513
34517
34516
34495
34516
34514
34517
34513
34519
34515
34512
34516
34514
34515
34505
34513
34516
34510
34506
34514
34516
34516
34508
34511
34489
34503
34516
34516
34508
34519
34508
34516
34506
34515
34509
34500
34515
34518
34511
34508
34501
34501
34519
34511
34511
34503
34516
34510
34514
34508
34503
34515
34505
34506
34507
34487
34504
34511
34505
34503
34511
34505
34505
34502
34510
34496
34511
34503
34503
34506
34503
34509
34501
34503
34503
34492
34503
34509
34510
34503
34503
34508
34505
34503
34508
34501
34502
34506
34502
34490
34509
34510
34508
34511
34506
34506
34500
34496
34503
34501
34498
34502
34501
34503
34485
34500
34502
34489
34500
34503
34476
34500
34503
34503
34508
34499
34500
34505
34500
34503
34505
34498
34501
34497
34499
34499
34500
34492
34499
34502
34476
34499
34500
34502
34502
34500
34495
34500
34495
34498
34497
34501
34499
34497
34503
34500
34494
34499
34502
34503
34503
34471
34463
34486
34499
34501
34494
34496
34498
34495
34507
34502
34497
34493
34492
34500
34497
34503
34501
34477
34501
34495
34494
34492
34502
34498
34498
34488
34492
34495
34500
34500
34462
34462
34493
34498
34493
34501
34492
34500
34502
34495
34494
34495
34487
34498
34484
34495
34493
34495
34485
34487
34488
34492
34490
34482
34492
34502
34498
34472
34492
34492
34486
34489
34498
34491
34479
34492
34493
34489
34490
34501
34495
34484
34493
34495
34489
34492
34486
34487
34490
34495
34490
34486
34484
34492
34482
34487
34489
34480
34498
34492
34489
34479
34495
34493
34486
34487
34483
34484
34489
34478
34486
34485
34489
34485
34483
34487
34487
34486
34487
34478
34482
34495
34495
34487
34489
34488
34485
34491
34470
34486
34494
34487
34491
34481
34478
34482
34480
34484
34483
34487
34482
34495
34467
34484
34484
34484
34487
34485
34485
34483
34485
34483
34479
34456
34468
34480
34484
34484
34476
34478
34478
34475
34477
34485
34483
34479
34480
34485
34472
34485
34458
34487
34487
34483
34481
34479
34471
34483
34476
34477
34479
34481
34476
34481
34479
34484
34463
34476
34479
34487
34481
34471
34479
34474
34478
34470
34485
34476
34483
34476
34451
34473
34477
34470
34471
34447
34476
34487
34470
34475
34479
34475
34458
34453
34471
34474
34478
34475
34479
34471
34447
34471
34480
34468
34478
34478
34452
34470
34476
34481
34483
34464
34468
34476
34441
34473
34478
34469
34471
34469
34477
34473
34461
34479
34479
34476
34484
34480
34481
34474
34481
34471
34461
34470
34476
34475
34476
34476
34482
34470
34477
34474
34447
34483
34480
34484
34471
34476
34485
34479
34477
34474
34476
34480
34481
34479
34482
34479
34471
34487
34482
34485
34495
34500
34497
34502
34505
34513
34516
34521
34523
34521
34533
34535
34540
34551
34555
34548
34540
34534
34534
34534
34529
34524
34497
34520
34513
34516
34511
34506
34501
34503
34502
34507
34493
34482
34494
34495
34497
34503
34465
34500
34492
34501
34497
34494
34496
34494
34500
34497
34495
34498
34500
34493
34495
34503
34497
34503
34460
34474
34493
34495
34494
34492
34495
34491
34490
34495
34495
34464
34492
34492
34500
34500
34487
34495
34499
34486
34482
34484
34486
34485
34491
34479
34490
34494
34495
34473
34491
34487
34484
34487
34491
34460
34487
34485
34486
34480
34484
34482
34485
34493
34460
34491
34489
34493
34495
34492
34491
34479
34491
34484
34455
34468
34485
34495
34485
34486
34480
34479
34494
34487
34490
34481
34491
34484
34484
34484
34486
34482
34484
34457
34470
34478
34487
34482
34484
34491
34484
34477
34481
34488
34484
34485
34476
34463
34485
34492
34487
34486
34487
34473
34484
34477
34484
34484
34484
34482
34469
34492
34489
34484
34487
34487
34482
34474
34488
34493
34490
34492
34478
34484
34484
34481
34484
34486
34486
34454
34486
34494
34487
34475
34499
34478
34491
34476
34484
34487
34487
34460
34487
34495
34496
34495
34488
34492
34485
34493
34492
34495
34493
34493
34462
34492
34503
34494
34491
34489
34500
34483
34468
34472
34497
34495
34496
34496
34501
34502
34494
34501
34495
34502
34496
34498
34500
34500
34501
34502
34497
34480
34497
34498
34503
34502
34500
34498
34501
34506
34503
34484
34488
34496
34508
34500
34498
34504
34471
34501
34502
34515
34510
34500
34503
34495
34511
34503
34497
34497
34500
34502
34510
34471
34484
34499
34507
34502
34500
34498
34503
34499
34494
34487
34498
34503
34495
34494
34488
34490
34489
34492
34494
34471
34479
34488
34497
34493
34491
34486
34490
34487
34486
34479
34486
34491
34481
34484
34484
34489
34484
34479
34487
34487
34474
34460
34485
34481
34484
34473
34478
34476
34476
34482
34473
34476
34468
34468
34471
34476
34471
34471
34467
34470
34468
34476
34473
34475
34453
34465
34470
34476
34468
34472
34469
34469
34463
34463
34468
34463
34468
34470
34439
34463
34463
34471
34453
34460
34459
34438
34463
34458
34466
34468
34462
34462
34463
34439
34452
34463
34463
34444
34460
34455
34455
34465
34457
34447
34460
34458
34463
34455
34459
34457
34455
34455
34454
34420
34444
34453
34452
34456
34455
34449
34459
34457
34461
34426
34431
34460
34452
34458
34453
34441
34451
34452
34455
34461
34435
34458
34455
34454
34455
34455
34460
34452
34431
34446
34455
34447
34456
34455
34449
34443
34444
34449
34443
34448
34452
34451
34457
34431
34423
34447
34453
34452
34455
34457
34439
34454
34446
34444
34455
34447
34448
34428
34444
34447
34448
34455
34457
34458
34451
34452
34452
34450
34438
34448
34441
34426
34428
34446
34447
34439
34444
34447
34438
34442
34447
34453
34435
34439
34442
34442
34447
34439
34453
34446
34436
34447
34445
34447
34413
34433
34436
34441
34442
34440
34450
34439
34442
34439
34439
34445
34442
34418
34439
34442
34446
34436
34440
34435
34439
34436
34448
34412
34423
34438
34437
34438
34428
34439
34439
34439
34436
34439
34420
34436
34438
34439
34429
34436
34443
34439
34439
34419
34437
34440
34436
34439
34439
34433
34439
34437
34437
34431
34439
34439
34431
34436
34438
34434
34424
34439
34433
34431
34427
34428
34428
34425
34436
34439
34415
34436
34434
34436
34429
34425
34439
34413
34439
34432
34424
34442
34430
34432
34431
34436
34407
34434
34433
34432
34426
34439
34433
34412
34439
34428
34431
34423
34431
34411
34425
34437
34428
34437
34429
34423
34429
34426
34422
34399
34423
34430
34431
34431
34428
34428
34430
34431
34409
34431
34420
34428
34431
34410
34429
34428
34407
34428
34420
34428
34434
34428
34431
34429
34426
34427
34429
34407
34434
34431
34428
34431
34405
34424
34428
34429
34423
34428
34420
34431
34418
34430
34430
34412
34420
34427
34420
34424
34407
34420
34427
34423
34407
34427
34415
34418
34420
34421
34407
34425
34422
34412
34420
34422
34423
34413
34423
34420
34427
34416
34421
34406
34420
34420
34409
34409
34420
34424
34420
34413
34420
34409
34414
34416
34392
34420
34419
34420
34407
34415
34415
34420
34412
34415
34408
34415
34418
34421
34415
34409
34422
34409
34407
34415
34422
34409
34415
34411
34422
34417
34420
34413
34396
34399
34385
34397
34391
34414
34417
34413
34391
34402
34419
34404
34410
34414
34404
34407
34413
34415
34420
34415
34415
34410
34401
34412
34385
34407
34407
34414
34410
34407
34410
34415
34413
34409
34404
34415
34414
34412
34417
34409
34402
34412
34415
34406
34404
34412
34415
34412
34416
34420
34418
34412
34407
34415
34406
34413
34413
34410
34411
34417
34415
34415
34413
34412
34416
34415
34420
34415
34402
34416
34423
34420
34417
34424
34428
34434
34439
34439
34415
34439
34450
34455
34455
34455
34460
34468
34471
34482
34456
34467
34470
34470
34463
34463
34460
34452
34446
34447
34445
34440
34437
34439
34420
34415
34415
34409
34418
34412
34407
34421
34403
34412
34433
34438
34430
34416
34429
34425
34430
34423
34439
34436
34431
34434
34427
34425
34431
34430
34431
34428
34435
34399
34399
34422
34428
34428
34434
34430
34430
34425
34423
34429
34428
34407
34426
34423
34422
34423
34413
34417
34426
34429
34399
34415
34420
34426
34417
34420
34422
34417
34420
34394
34415
34423
34420
34423
34419
34415
34417
34420
34417
34418
34391
34415
34428
34416
34420
34417
34415
34406
34414
34420
34414
34412
34412
34413
34391
34412
34413
34420
34415
34412
34415
34410
34415
34421
34415
34421
34408
34415
34417
34414
34415
34398
34413
34418
34412
34415
34412
34413
34414
34406
34412
34413
34412
34410
34415
34415
34419
34380
34420
34407
34415
34421
34415
34419
34417
34419
34415
34415
34407
34404
34414
34408
34416
34415
34412
34415
34413
34417
34390
34382
34400
34391
34412
34415
34410
34413
34420
34419
34414
34420
34410
34417
34421
34418
34417
34413
34415
34420
34420
34418
34423
34420
34420
34421
34422
34423
34421
34422
34423
34420
34428
34421
34415
34423
34423
34415
34420
34415
34423
34423
34423
34423
34431
34426
34420
34431
34428
34426
34429
34434
34425
34431
34424
34423
34421
34399
34424
34431
34424
34431
34426
34428
34425
34428
34426
34428
34431
34425
34429
34428
34431
34431
34430
34428
34431
34428
34428
34428
34428
34429
34430
34423
34412
34421
34424
34425
34428
34431
34423
34428
34428
34423
34426
34429
34425
34405
34409
34426
34421
34423
34428
34417
34421
34422
34414
34420
34415
34423
34396
34421
34420
34426
34413
34410
34412
34413
34412
34420
34419
34405
34417
34415
34415
34421
34412
34415
34410
34415
34411
34411
34407
34413
34397
34405
34407
34407
34410
34400
34401
34403
34402
34406
34397
34400
34399
34400
34402
34403
34399
34394
34404
34399
34375
34396
34396
34388
34390
34401
34395
34360
34375
34390
34390
34381
34391
34396
34391
34394
34381
34391
34391
34390
34385
34383
34389
34388
34389
34394
34395
34384
34384
34381
34383
34381
34383
34375
34362
34382
34388
34385
34380
34386
34380
34375
34379
34378
34383
34381
34380
34375
34381
34387
34383
34351
34363
34370
34382
34366
34367
34381
34383
34387
34372
34373
34375
34379
34374
34369
34370
34370
34373
34375
34372
34372
34374
34375
34375
34376
34382
34350
34370
34375
34378
34372
34372
34375
34372
34373
34375
34366
34365
34369
34369
34351
34375
34374
34380
34369
34367
34372
34369
34359
34372
34378
34362
34372
34373
34374
34362
34370
34373
34372
34365
34364
34363
34364
34372
34351
34364
34373
34373
34369
34366
34364
34359
34364
34359
34360
34372
34342
34346
34348
34348
34362
34362
34361
34365
34364
34362
34360
34362
34364
34362
34359
34357
34362
34356
34357
34357
34328
34337
34352
34366
34366
34356
34353
34363
34364
34364
34364
34374
34362
34357
34363
34352
34356
34356
34354
34359
34359
34362
34359
34358
34340
34330
34343
34338
34349
34338
34359
34359
34355
34363
34353
34348
34350
34354
34338
34351
34362
34357
34352
34350
34351
34350
34351
34340
34342
34359
34356
34350
34356
34356
34349
34357
34346
34348
34350
34351
34335
34348
34359
34352
34350
34348
34346
34351
34342
34351
34349
34356
34353
34352
34340
34355
34340
34350
34351
34343
34351
34353
34348
34352
34350
34348
34335
34343
34349
34347
34342
34343
34346
34351
34335
34320
34341
34347
34345
34351
34351
34343
34347
34342
34343
34341
34351
34351
34340
34344
34348
34345
34348
34347
34337
34343
34342
34343
34343
34345
34342
34345
34343
34340
34329
34335
34347
34343
34345
34343
34347
34343
34343
34343
34343
34340
34343
34343
34321
34343
34335
34339
34340
34342
34347
34345
34332
34330
34337
34340
34339
34331
34337
34343
34339
34340
34341
34338
34340
34332
34309
34323
34329
34342
34332
34342
34341
34327
34335
34335
34340
34336
34331
34311
34327
34330
34338
34337
34340
34334
34332
34335
34334
34332
34334
34340
34343
34338
34336
34334
34334
34333
34332
34330
34331
34335
34311
34335
34341
34332
34332
34328
34331
34335
34311
34327
34335
34337
34334
34333
34337
34311
34335
34332
34325
34335
34333
34332
34333
34331
34334
34332
34327
34330
34327
34337
34325
34331
34327
34329
34331
34333
34302
34334
34335
34330
34327
34327
34297
34331
34330
34331
34324
34331
34327
34322
34311
34335
34329
34323
34322
34327
34328
34319
34335
34325
34321
34326
34339
34323
34333
34318
34319
34305
34323
34325
34323
34332
34330
34320
34323
34319
34328
34311
34322
34330
34324
34327
34324
34316
34311
34324
34309
34325
34324
34324
34327
34327
34327
34324
34325
34325
34334
34291
34324
34335
34332
34321
34321
34324
34320
34320
34321
34327
34325
34330
34326
34328
34327
34322
34335
34340
34342
34341
34341
34350
34347
34340
34349
34352
34363
34362
34364
34372
34376
34377
34385
34388
34386
34369
34373
34378
34375
34369
34369
34361
34362
34359
34331
34342
34351
34355
34346
34336
34346
34342
34343
34343
34337
34346
34350
34348
34335
34349
34325
34342
34345
34341
34350
34339
34340
34340
34343
34311
34321
34341
34343
34348
34342
34341
34347
34334
34343
34340
34338
34311
34340
34340
34336
34330
34337
34334
34311
34343
34333
34342
34340
34336
34335
34343
34339
34335
34334
34324
34332
34335
34340
34341
34326
34330
34327
34331
34324
34324
34334
34321
34322
34324
34337
34327
34327
34326
34324
34325
34327
34327
34330
34310
34301
34308
34329
34323
34332
34329
34331
34328
34325
34319
34321
34321
34324
34327
34326
34327
34327
34319
34311
34303
34287
34298
34292
34322
34293
34294
34320
34318
34321
34324
34324
34297
34311
34323
34325
34327
34318
34318
34325
34327
34325
34327
34310
34317
34320
34317
34302
34326
34324
34323
34318
34322
34324
34327
34327
34327
34325
34325
34316
34311
34319
34311
34311
34311
34311
34311
34311
34311
34317
34320
34322
34311
34322
34330
34325
34330
34327
34321
34324
34321
34323
34332
34324
34328
34324
34299
34311
34325
34330
34325
34327
34324
34329
34311
34325
34324
34327
34302
34329
34334
34335
34332
34333
34332
34332
34327
34335
34325
34333
34331
34339
34303
34295
34311
34335
34332
34343
34335
34335
34337
34332
34303
34300
34327
34311
34327
34334
34337
34339
34335
34333
34334
34332
34335
34336
34331
34335
34330
34340
34335
34330
34322
34326
34335
34335
34334
34343
34324
34332
34327
34334
34329
34331
34337
34333
34334
34330
34334
34332
34331
34328
34310
34324
34327
34331
34322
34324
34326
34330
34324
34327
34320
34324
34321
34311
34326
34327
34311
34299
34311
34311
34326
34320
34324
34311
34332
34322
34318
34311
34311
34311
34311
34311
34308
34311
34308
34311
34310
34309
34308
34309
34309
34308
34308
34303
34308
34308
34308
34309
34311
34308
34302
34311
34308
34298
34308
34303
34308
34295
34302
34303
34300
34305
34282
34295
34295
34295
34308
34295
34285
34299
34295
34294
34292
34295
34295
34295
34290
34294
34271
34292
34292
34298
34292
34293
34276
34287
34280
34285
34285
34284
34290
34286
34295
34285
34271
34284
34286
34287
34286
34284
34292
34287
34282
34283
34284
34287
34289
34276
34269
34279
34287
34284
34280
34294
34283
34286
34293
34284
34285
34286
34268
34285
34281
34279
34261
34284
34283
34276
34276
34279
34284
34287
34279
34290
34293
34279
34279
34274
34276
34279
34284
34279
34277
34276
34278
34283
34286
34283
34273
34263
34255
34276
34278
34277
34286
34274
34277
34276
34277
34250
34274
34279
34279
34274
34277
34275
34276
34261
34273
34272
34274
34279
34277
34274
34279
34275
34276
34279
34278
34279
34270
34277
34269
34263
34274
34274
34268
34270
34262
34275
34268
34283
34273
34268
34269
34276
34273
34273
34266
34268
34279
34255
34271
34261
34258
34271
34270
34269
34271
34266
34267
34252
34251
34239
34237
34248
34242
34244
34248
34247
34263
34260
34260
34255
34268
34257
34274
34263
34271
34269
34264
34270
34245
34263
34262
34271
34263
34260
34263
34265
34262
34271
34261
34268
34264
34270
34269
34271
34268
34267
34263
34263
34261
34260
34255
34259
34260
34265
34271
34260
34254
34257
34250
34259
34252
34260
34255
34253
34266
34257
34259
34264
34250
34236
34252
34257
34258
34260
34263
34252
34260
34249
34255
34255
34231
34263
34257
34271
34263
34244
34248
34257
34257
34255
34239
34250
34263
34260
34252
34247
34247
34257
34238
34255
34255
34254
34254
34245
34251
34253
34247
34253
34249
34263
34254
34234
34260
34260
34253
34251
34249
34260
34247
34251
34255
34253
34255
34246
34229
34244
34252
34255
34231
34235
34245
34253
34250
34247
34248
34253
34255
34251
34259
34247
34254
34241
34247
34244
34239
34247
34247
34247
34236
34248
34239
34236
34249
34244
34255
34255
34252
34241
34243
34244
34244
34241
34247
34245
34246
34247
34229
34230
34246
34249
34256
34244
34253
34240
34236
34244
34251
34246
34246
34239
34244
34229
34254
34257
34244
34247
34247
34241
34223
34244
34247
34247
34244
34244
34245
34249
34244
34245
34239
34243
34239
34247
34237
34249
34249
34231
34236
34247
34241
34237
34246
34247
34245
34241
34240
34240
34223
34243
34245
34242
34246
34241
34237
34244
34236
34243
34233
34243
34244
34245
34225
34236
34234
34239
34241
34223
34231
34236
34242
34239
34246
34241
34235
34238
34241
34236
34245
34242
34234
34239
34236
34240
34245
34244
34245
34244
34239
34237
34244
34241
34239
34238
34244
34228
34239
34244
34245
34231
34234
34239
34236
34239
34236
34236
34242
34239
34239
34231
34221
34231
34239
34239
34239
34239
34213
34247
34242
34237
34243
34239
34245
34243
34237
34234
34234
34239
34237
34247
34246
34239
34243
34236
34245
34244
34250
34252
34245
34258
34260
34270
34266
34271
34278
34277
34269
34281
34287
34290
34294
34305
34276
34311
34311
34308
34305
34285
34295
34295
34288
34279
34287
34283
34279
34279
34263
34275
34266
34273
34267
34249
34260
34270
34265
34260
34252
34260
34243
34260
34262
34263
34263
34258
34247
34250
34260
34262
34258
34239
34262
34254
34261
34251
34260
34251
34252
34253
34228
34251
34252
34256
34254
34247
34252
34254
34245
34252
34261
34242
34244
34244
34228
34250
34246
34239
34244
34247
34243
34244
34238
34241
34247
34244
34244
34245
34212
34221
34221
34222
34226
34239
34231
34239
34243
34241
34241
34238
34238
34237
34236
34243
34212
34236
34245
34239
34247
34241
34244
34239
34231
34238
34232
34239
34231
34247
34217
34212
34234
34239
34239
34234
34244
34236
34239
34253
34232
34238
34235
34239
34231
34207
34237
34239
34238
34247
34234
34225
34229
34225
34237
34231
34234
34229
34228
34230
34231
34231
34237
34228
34226
34226
34225
34223
34230
34212
34223
34231
34225
34236
34239
34235
34229
34231
34231
34236
34228
34232
34223
34206
34207
34221
34228
34231
34235
34234
34237
34236
34239
34223
34239
34227
34234
34234
34237
34236
34219
34233
34228
34236
34243
34239
34237
34234
34245
34237
34223
34233
34232
34231
34237
34231
34244
34236
34236
34236
34239
34233
34239
34234
34237
34231
34234
34239
34228
34236
34236
34236
34244
34220
34216
34233
34240
34239
34239
34246
34245
34239
34239
34239
34237
34236
34242
34228
34218
34212
34213
34239
34233
34238
34235
34247
34243
34245
34251
34244
34234
34239
34243
34239
34236
34239
34243
34237
34223
34230
34236
34239
34237
34247
34241
34241
34239
34239
34234
34226
34213
34214
34212
34231
34234
34236
34239
34239
34231
34232
34241
34231
34238
34236
34237
34239
34237
34228
34239
34236
34236
34223
34228
34227
34223
34228
34217
34228
34225
34235
34228
34228
34229
34225
34205
34216
34225
34229
34231
34217
34225
34215
34218
34215
34213
34214
34215
34217
34220
34213
34212
34211
34214
34215
34207
34207
34213
34213
34215
34205
34210
34213
34204
34202
34205
34206
34213
34212
34212
34207
34215
34215
34212
34199
34205
34201
34196
34204
34206
34207
34204
34199
34204
34205
34197
34176
34196
34196
34199
34178
34199
34191
34201
34196
34196
34194
34196
34192
34199
34197
34189
34199
34194
34185
34198
34196
34195
34190
34203
34188
34193
34194
34195
34199
34199
34203
34193
34199
34196
34197
34193
34199
34180
34199
34184
34190
34193
34189
34188
34191
34196
34188
34191
34183
34170
34199
34189
34195
34195
34196
34191
34187
34186
34199
34189
34189
34191
34187
34193
34187
34183
34190
34191
34188
34184
34191
34189
34187
34183
34186
34187
34181
34183
34187
34190
34183
34191
34193
34188
34180
34181
34187
34183
34183
34183
34180
34164
34172
34168
34168
34167
34163
34180
34181
34182
34172
34183
34183
34182
34183
34178
34179
34183
34178
34178
34182
34178
34181
34164
34175
34182
34172
34157
34151
34175
34181
34181
34181
34164
34167
34165
34163
34156
34169
34180
34180
34182
34183
34182
34181
34177
34175
34173
34171
34157
34165
34175
34173
34163
34164
34172
34167
34173
34169
34180
34172
34177
34172
34176
34180
34180
34175
34177
34169
34174
34177
34165
34167
34174
34174
34175
34177
34169
34165
34173
34174
34175
34154
34169
34170
34173
34172
34171
34172
34180
34166
34160
34167
34179
34172
34172
34171
34173
34169
34172
34167
34174
34175
34166
34161
34167
34175
34165
34168
34161
34165
34167
34164
34167
34169
34167
34164
34175
34177
34180
34177
34169
34175
34159
34172
34165
34159
34161
34175
34167
34151
34151
34167
34157
34171
34173
34163
34145
34167
34163
34143
34159
34157
34170
34165
34157
34159
34167
34163
34157
34167
34159
34164
34141
34135
34172
34165
34165
34164
34165
34160
34166
34164
34159
34165
34151
34156
34159
34159
34163
34163
34159
34165
34163
34161
34167
34159
34164
34164
34167
34167
34159
34161
34153
34159
34159
34157
34158
34159
34162
34166
34156
34156
34159
34156
34154
34156
34164
34159
34151
34167
34161
34156
34154
34162
34151
34159
34154
34157
34159
34157
34159
34154
34148
34132
34141
34151
34143
34142
34151
34159
34158
34164
34156
34156
34159
34159
34159
34159
34159
34161
34149
34159
34162
34156
34154
34153
34156
34158
34165
34159
34158
34154
34159
34148
34150
34155
34156
34151
34155
34143
34145
34136
34135
34154
34156
34158
34150
34150
34149
34157
34156
34151
34149
34151
34153
34149
34148
34148
34150
34145
34154
34150
34159
34148
34153
34164
34158
34164
34149
34161
34143
34151
34156
34142
34143
34150
34159
34153
34152
34159
34159
34158
34167
34169
34173
34175
34175
34176
34189
34190
34188
34200
34201
34204
34205
34205
34215
34229
34220
34223
34229
34230
34223
34191
34191
34210
34204
34199
34196
34205
34195
34193
34190
34188
34191
34183
34167
34162
34173
34179
34154
34155
34159
34175
34173
34175
34172
34174
34162
34164
34170
34170
34171
34162
34167
34167
34173
34169
34165
34157
34167
34167
34159
34167
34159
34167
34166
34165
34166
34165
34161
34141
34151
34159
34162
34171
34167
34166
34151
34159
34159
34155
34154
34157
34152
34154
34165
34157
34135
34141
34158
34159
34160
34160
34159
34155
34159
34163
34165
34157
34159
34152
34151
34164
34124
34151
34157
34156
34157
34159
34143
34158
34151
34150
34148
34155
34154
34148
34150
34148
34151
34150
34151
34151
34151
34149
34151
34153
34124
34145
34143
34144
34151
34154
34151
34151
34151
34149
34133
34149
34148
34149
34149
34151
34143
34148
34143
34154
34150
34152
34140
34151
34142
34151
34150
34150
34156
34155
34151
34151
34159
34155
34159
34143
34149
34144
34150
34151
34151
34148
34134
34139
34149
34149
34150
34148
34150
34143
34147
34148
34149
34151
34145
34133
34141
34118
34145
34148
34151
34151
34151
34155
34150
34151
34138
34154
34154
34156
34156
34150
34156
34151
34151
34148
34151
34151
34157
34157
34153
34152
34154
34164
34156
34155
34163
34159
34159
34155
34151
34153
34151
34156
34151
34159
34151
34156
34149
34157
34156
34158
34157
34165
34158
34163
34164
34153
34157
34164
34133
34159
34166
34148
34163
34156
34162
34156
34165
34160
34159
34163
34158
34156
34164
34151
34165
34143
34159
34167
34159
34159
34164
34159
34157
34165
34159
34159
34157
34164
34162
34166
34140
34137
34155
34153
34154
34153
34165
34156
34151
34166
34156
34158
34157
34155
34163
34164
34156
34149
34154
34158
34155
34132
34148
34148
34151
34153
34144
34150
34151
34151
34151
34150
34144
34145
34150
34141
34136
34141
34145
34143
34145
34140
34135
34136
34138
34137
34141
34141
34141
34140
34130
34115
34132
34132
34137
34124
34126
34132
34132
34134
34133
34138
34108
34126
34132
34135
34133
34126
34125
34127
34128
34125
34130
34119
34127
34116
34126
34126
34118
34103
34103
34103
34118
34118
34120
34123
34126
34121
34124
34116
34122
34113
34122
34118
34111
34119
34123
34122
34119
34113
34119
34119
34123
34118
34125
34117
34119
34115
34118
34118
34117
34116
34117
34111
34116
34118
34112
34119
34113
34123
34112
34113
34119
34116
34113
34113
34108
34105
34108
34110
34105
34095
34095
34097
34097
34111
34114
34111
34109
34119
34113
34098
34115
34110
34104
34105
34107
34113
34116
34098
34115
34111
34118
34116
34115
34113
34111
34111
34106
34107
34092
34101
34092
34087
34100
34111
34106
34106
34105
34116
34110
34113
34111
34115
34106
34115
34112
34115
34110
34108
34109
34106
34104
34110
34119
34109
34110
34105
34111
34096
34111
34106
34109
34092
34100
34106
34102
34108
34105
34103
34107
34102
34085
34086
34103
34087
34087
34084
34092
34093
34102
34098
34100
34101
34100
34105
34106
34106
34095
34095
34092
34103
34103
34092
34100
34098
34103
34100
34099
34092
34093
34093
34098
34095
34104
34106
34103
34103
34098
34100
34097
34102
34100
34095
34100
34092
34095
34091
34089
34090
34076
34092
34101
34092
34099
34090
34101
34098
34089
34092
34093
34093
34086
34092
34095
34094
34091
34100
34067
34087
34092
34089
34090
34090
34087
34093
34095
34088
34095
34095
34094
34099
34096
34092
34091
34094
34099
34087
34092
34086
34087
34087
34085
34093
34095
34093
34098
34085
34087
34092
34083
34087
34092
34084
34082
34064
34071
34079
34083
34076
34087
34084
34086
34095
34094
34084
34080
34081
34092
34084
34079
34092
34082
34084
34092
34083
34082
34087
34084
34065
34091
34087
34087
34087
34082
34078
34089
34087
34082
34090
34087
34089
34082
34085
34089
34086
34087
34087
34086
34095
34074
34081
34086
34087
34086
34082
34076
34070
34079
34085
34087
34084
34087
34083
34080
34086
34080
34071
34087
34086
34076
34085
34087
34081
34086
34074
34072
34084
34076
34087
34079
34082
34079
34069
34054
34060
34076
34081
34079
34087
34079
34081
34065
34076
34082
34078
34076
34080
34079
34071
34070
34084
34085
34078
34084
34082
34089
34076
34067
34085
34071
34077
34074
34072
34079
34073
34071
34066
34079
34078
34079
34076
34083
34087
34055
34071
34076
34073
34061
34074
34077
34071
34071
34076
34075
34073
34071
34071
34076
34071
34071
34069
34077
34082
34078
34055
34053
34063
34044
34061
34066
34071
34055
34075
34076
34071
34055
34078
34071
34083
34073
34052
34076
34071
34079
34076
34071
34042
34069
34076
34076
34079
34076
34058
34077
34076
34072
34076
34081
34085
34081
34073
34076
34077
34075
34085
34079
34073
34076
34085
34084
34062
34062
34081
34087
34086
34089
34084
34092
34099
34094
34108
34108
34108
34118
34126
34119
34125
34127
34130
34145
34145
34146
34146
34150
34134
34135
34141
34124
34129
34117
34123
34119
34118
34090
34106
34116
34103
34100
34111
34100
34100
34097
34095
34087
34095
34088
34096
34101
34101
34094
34099
34098
34096
34094
34097
34092
34101
34080
34103
34106
34100
34097
34086
34092
34092
34099
34090
34092
34065
34092
34095
34103
34095
34103
34102
34096
34092
34097
34085
34087
34093
34087
34084
34090
34087
34093
34091
34086
34087
34086
34092
34080
34084
34087
34092
34092
34087
34087
34089
34088
34090
34086
34095
34095
34086
34090
34087
34087
34093
34087
34084
34077
34091
34087
34085
34082
34084
34086
34087
34076
34086
34091
34079
34091
34087
34084
34089
34093
34087
34088
34089
34084
34087
34095
34083
34083
34086
34088
34089
34079
34078
34068
34053
34061
34079
34092
34090
34095
34090
34089
34087
34085
34085
34084
34084
34082
34092
34084
34085
34081
34086
34085
34087
34079
34088
34089
34087
34089
34093
34088
34087
34086
34090
34081
34091
34087
34055
34071
34086
34091
34089
34095
34081
34087
34089
34095
34092
34102
34082
34093
34099
34093
34097
34101
34103
34100
34093
34102
34092
34093
34103
34095
34109
34100
34099
34097
34100
34101
34103
34071
34097
34100
34104
34095
34100
34100
34108
34070
34098
34111
34108
34108
34109
34100
34111
34115
34113
34111
34119
34113
34077
34100
34117
34119
34112
34108
34116
34115
34111
34112
34113
34115
34117
34116
34117
34117
34123
34119
34119
34100
34118
34114
34119
34120
34127
34121
34110
34118
34114
34119
34119
34110
34118
34124
34119
34121
34127
34123
34105
34119
34116
34118
34113
34113
34118
34111
34113
34110
34113
34115
34111
34110
34111
34097
34110
34116
34112
34117
34109
34105
34110
34117
34088
34103
34092
34101
34108
34116
34115
34102
34112
34108
34109
34108
34105
34103
34102
34112
34080
34113
34084
34095
34087
34079
34087
34080
34105
34087
34084
34088
34090
34088
34102
34103
34103
34106
34100
34095
34094
34092
34094
34089
34092
34090
34094
34089
34087
34095
34107
34092
34093
34076
34076
34087
34093
34099
34092
34093
34087
34089
34090
34095
34097
34087
34094
34082
34084
34082
34084
34087
34087
34098
34095
34091
34093
34090
34092
34089
34095
34095
34093
34087
34078
34091
34081
34085
34078
34081
34077
34067
34069
34072
34078
34087
34089
34100
34099
34095
34092
34095
34087
34090
34092
34092
34085
34095
34094
34092
34071
34084
34077
34095
34095
34095
34087
34094
34085
34077
34093
34094
34085
34099
34090
34095
34094
34079
34087
34096
34095
34093
34092
34094
34088
34084
34089
34092
34093
34091
34093
34087
34094
34092
34094
34093
34079
34084
34091
34093
34097
34085
34084
34093
34095
34092
34087
34101
34100
34095
34092
34096
34095
34087
34087
34095
34091
34092
34090
34098
34087
34100
34105
34102
34092
34093
34106
34076
34092
34100
34082
34093
34095
34095
34100
34095
34073
34095
34094
34095
34096
34100
34096
34077
34102
34107
34101
34089
34097
34087
34090
34097
34101
34094
34094
34098
34100
34096
34094
34098
34084
34087
34091
34100
34100
34089
34100
34097
34103
34076
34103
34100
34101
34087
34095
34097
34095
34100
34100
34101
34105
34082
34079
34076
34079
34078
34092
34098
34085
34082
34085
34094
34091
34093
34095
34094
34104
34104
34107
34103
34108
34100
34093
34096
34102
34107
34081
34101
34107
34106
34110
34103
34102
34105
34110
34111
34108
34107
34105
34097
34087
34103
34087
34095
34111
34108
34100
34108
34110
34105
34115
34103
34108
34108
34100
34110
34106
34114
34108
34106
34101
34103
34100
34110
34105
34103
34108
34108
34102
34113
34112
34113
34115
34111
34108
34110
34113
34108
34111
34111
34111
34117
34090
34115
34118
34113
34119
34108
34112
34122
34111
34114
34116
34110
34113
34110
34111
34113
34110
34118
34114
34113
34113
34101
34116
34118
34119
34118
34113
34111
34112
34116
34097
34116
34117
34117
34103
34111
34119
34119
34118
34102
34119
34121
34120
34114
34116
34119
34119
34118
34106
34094
34102
34100
34093
34116
34105
34117
34117
34125
34119
34122
34122
34103
34108
34119
34119
34126
34122
34120
34126
34121
34121
34122
34118
34122
34097
34116
34125
34127
34126
34121
34124
34122
34124
34120
34106
34126
34129
34117
34122
34122
34119
34123
34127
34124
34124
34116
34128
34127
34130
34129
34127
34132
34125
34119
34125
34119
34130
34127
34127
34132
34103
34108
34105
34113
34135
34131
34131
34134
34135
34121
34124
34134
34135
34127
34132
34127
34132
34119
34141
34127
34134
34130
34133
34133
34138
34132
34129
34132
34140
34147
34133
34132
34137
34140
34118
34138
34138
34142
34140
34136
34135
34143
34145
34140
34143
34145
34140
34146
34150
34150
34156
34151
34156
34167
34164
34172
34167
34178
34170
34191
34196
34199
34204
34196
34217
34215
34215
34214
34212
34201
34206
34199
34199
34192
34192
34191
34175
34170
34179
34181
34174
34183
34177
34173
34175
34175
34175
34172
34175
34175
34175
34183
34173
34144
34170
34181
34179
34183
34167
34175
34177
34177
34183
34175
34153
34177
34181
34183
34180
34174
34178
34181
34177
34180
34183
34174
34174
34180
34183
34173
34183
34164
34177
34175
34180
34180
34182
34175
34175
34169
34175
34180
34151
34173
34180
34180
34186
34171
34180
34179
34180
34182
34175
34166
34183
34182
34176
34174
34183
34182
34174
34181
34183
34176
34153
34173
34175
34185
34183
34183
34183
34183
34159
34181
34180
34169
34180
34183
34182
34170
34177
34189
34188
34183
34183
34183
34183
34189
34175
34183
34195
34188
34193
34183
34183
34183
34183
34183
34188
34189
34188
34188
34187
34184
34188
34156
34168
34183
34184
34191
34195
34196
34192
34195
34181
34191
34199
34192
34199
34191
34199
34199
34195
34202
34182
34183
34196
34202
34199
34204
34198
34212
34204
34197
34201
34197
34207
34202
34199
34203
34207
34206
34204
34204
34204
34205
34205
34212
34178
34207
34212
34215
34212
34212
34214
34215
34207
34212
34209
34209
34213
34215
34212
34218
34215
34223
34220
34223
34217
34222
34223
34223
34227
34223
34229
34228
34228
34229
34223
34225
34229
34226
34231
34231
34233
34229
34234
34231
34212
34198
34231
34238
34239
34239
34241
34245
34238
34236
34234
34239
34244
34209
34230
34235
34236
34237
34253
34244
34237
34238
34244
34244
34239
34217
34237
34244
34232
34233
34247
34239
34241
34238
34241
34223
34238
34244
34236
34241
34241
34244
34233
34245
34245
34242
34247
34233
34239
34237
34233
34245
34238
34239
34238
34240
34235
34239
34239
34234
34237
34237
34215
34221
34231
34231
34236
34242
34235
34247
34231
34236
34236
34228
34234
34231
34229
34228
34236
34239
34215
34239
34236
34238
34236
34239
34231
34236
34225
34232
34231
34228
34227
34223
34236
34224
34226
34225
34231
34226
34229
34223
34215
34223
34229
34231
34217
34222
34225
34223
34212
34223
34228
34229
34221
34223
34225
34212
34225
34217
34225
34213
34222
34231
34220
34226
34230
34219
34215
34222
34218
34221
34223
34225
34220
34216
34221
34218
34216
34199
34213
34221
34215
34213
34222
34220
34204
34227
34228
34215
34221
34225
34203
34222
34231
34228
34228
34229
34220
34220
34222
34209
34223
34220
34227
34221
34220
34214
34212
34224
34205
34214
34223
34225
34204
34228
34218
34223
34223
34196
34222
34221
34225
34220
34227
34220
34223
34223
34228
34227
34231
34213
34226
34228
34231
34217
34220
34229
34239
34225
34226
34221
34229
34219
34225
34237
34221
34227
34216
34226
34230
34235
34215
34223
34222
34227
34223
34228
34233
34233
34221
34220
34229
34231
34227
34223
34225
34233
34231
34223
34220
34225
34228
34222
34220
34228
34223
34235
34216
34223
34230
34229
34223
34236
34223
34225
34229
34228
34213
34207
34227
34225
34226
34228
34233
34228
34230
34231
34225
34228
34211
34228
34231
34231
34230
34224
34229
34231
34228
34222
34228
34223
34221
34223
34221
34207
34229
34228
34239
34228
34221
34228
34228
34222
34222
34222
34238
34229
34230
34231
34223
34228
34222
34229
34230
34223
34239
34231
34215
34223
34229
34229
34231
34231
34204
34231
34236
34231
34238
34225
34228
34223
34229
34231
34229
34231
34205
34213
34223
34237
34229
34235
34227
34221
34227
34228
34200
34216
34222
34231
34222
34219
34218
34223
34226
34213
34221
34228
34230
34219
34222
34220
34228
34235
34225
34234
34231
34229
34201
34223
34221
34228
34226
34228
34220
34217
34226
34225
34223
34231
34226
34223
34223
34223
34223
34196
34228
34223
34231
34225
34225
34199
34221
34218
34223
34220
34204
34215
34233
34223
34228
34231
34217
34228
34223
34231
34220
34213
34231
34228
34231
34222
34230
34228
34217
34229
34220
34226
34223
34230
34228
34222
34226
34234
34228
34218
34226
34207
34224
34231
34226
34224
34223
34222
34225
34220
34223
34225
34228
34218
34223
34217
34223
34207
34214
34225
34223
34223
34218
34224
34199
34226
34223
34223
34223
34229
34227
34215
34220
34220
34229
34229
34199
34221
34223
34220
34220
34223
34219
34222
34221
34220
34221
34217
34223
34223
34225
34223
34220
34219
34224
34225
34220
34227
34204
34214
34223
34218
34218
34223
34220
34216
34225
34221
34202
34217
34223
34218
34225
34226
34216
34221
34223
34221
34220
34214
34205
34223
34221
34215
34224
34204
34218
34221
34223
34228
34222
34214
34219
34222
34223
34223
34229
34215
34215
34217
34227
34214
34227
34218
34213
34215
34223
34206
34220
34221
34212
34219
34223
34198
34222
34228
34209
34215
34228
34221
34185
34228
34226
34230
34214
34223
34222
34226
34196
34221
34230
34228
34220
34233
34223
34228
34224
34240
34245
34244
34250
34247
34258
34255
34256
34266
34271
34268
34265
34279
34287
34266
34291
34285
34290
34273
34275
34266
34271
34271
34260
34254
34262
34249
34249
34240
34247
34246
34243
34247
34227
34239
34239
34243
34239
34249
34245
34238
34223
34239
34239
34246
34241
34236
34234
34231
34238
34225
34242
34244
34242
34230
34233
34233
34225
34243
34241
34234
34234
34237
34210
34237
34234
34231
34227
34231
34231
34225
34230
34239
34245
34223
34239
34233
34231
34239
34231
34229
34231
34229
34228
34238
34227
34223
34228
34228
34223
34223
34229
34231
34222
34216
34226
34230
34223
34194
34228
34231
34235
34215
34219
34220
34226
34213
34225
34220
34215
34223
34221
34225
34221
34213
34219
34205
34225
34216
34218
34222
34215
34221
34215
34218
34223
34220
34214
34212
34217
34214
34220
34223
34215
34223
34212
34223
34199
34207
34225
34219
34228
34223
34221
34217
34219
34214
34216
34205
34216
34220
34223
34227
34215
34220
34219
34219
34204
34215
34218
34220
34223
34223
34212
34218
34218
34216
34199
34215
34215
34224
34223
34218
34223
34221
34194
34222
34229
34214
34220
34223
34223
34212
34227
34223
34221
34196
34215
34217
34223
34231
34229
34223
34225
34228
34222
34222
34225
34223
34223
34228
34205
34230
34228
34228
34223
34227
34228
34231
34231
34220
34198
34215
34231
34237
34228
34235
34227
34228
34231
34233
34231
34202
34220
34227
34236
34236
34231
34228
34214
34228
34224
34236
34230
34199
34221
34236
34231
34238
34230
34231
34236
34234
34204
34228
34231
34237
34240
34236
34233
34238
34234
34228
34236
34233
34234
34243
34230
34235
34223
34227
34217
34237
34238
34230
34228
34214
34231
34229
34231
34226
34228
34222
34230
34225
34225
34218
34223
34226
34226
34220
34213
34201
34218
34218
34214
34204
34212
34223
34215
34213
34207
34215
34186
34199
34183
34191
34188
34182
34197
34191
34213
34204
34205
34207
34210
34187
34207
34212
34202
34207
34205
34207
34202
34201
34172
34199
34199
34196
34201
34197
34180
34188
34187
34190
34194
34180
34189
34186
34195
34196
34193
34183
34193
34190
34186
34182
34157
34183
34189
34191
34183
34182
34183
34180
34176
34173
34183
34182
34183
34164
34172
34183
34175
34180
34186
34183
34183
34175
34180
34183
34180
34181
34167
34182
34182
34180
34161
34164
34183
34175
34180
34177
34175
34171
34178
34150
34169
34179
34177
34164
34167
34167
34166
34167
34177
34167
34167
34169
34167
34151
34170
34164
34172
34171
34166
34167
34162
34148
34163
34167
34164
34166
34161
34167
34172
34166
34170
34172
34159
34159
34164
34163
34159
34157
34165
34157
34166
34167
34165
34159
34159
34156
34157
34159
34159
34156
34159
34159
34170
34167
34158
34158
34167
34154
34143
34160
34163
34163
34158
34165
34150
34159
34159
34159
34159
34159
34151
34159
34133
34157
34166
34161
34164
34159
34160
34165
34155
34157
34156
34153
34156
34126
34156
34153
34156
34148
34149
34151
34152
34157
34156
34149
34127
34127
34129
34129
34132
34154
34146
34152
34148
34136
34147
34142
34143
34143
34147
34151
34151
34142
34150
34143
34143
34147
34146
34143
34145
34137
34140
34141
34141
34145
34140
34122
34125
34117
34124
34115
34132
34127
34135
34143
34144
34135
34149
34139
34136
34132
34140
34134
34140
34127
34138
34142
34143
34129
34123
34130
34128
34143
34134
34132
34135
34143
34143
34135
34138
34135
34138
34127
34130
34132
34124
34127
34127
34132
34127
34123
34126
34132
34124
34118
34125
34134
34133
34133
34135
34127
34119
34127
34127
34131
34114
34103
34110
34127
34123
34133
34116
34125
34126
34118
34099
34127
34121
34121
34124
34119
34119
34121
34122
34125
34103
34107
34120
34116
34124
34109
34116
34119
34119
34112
34119
34100
34119
34119
34118
34116
34120
34115
34118
34116
34103
34116
34114
34114
34106
34116
34090
34105
34117
34108
34111
34106
34114
34116
34105
34103
34115
34119
34114
34115
34111
34117
34108
34116
34106
34116
34106
34109
34108
34107
34106
34089
34107
34107
34111
34118
34106
34104
34116
34083
34103
34108
34106
34102
34093
34102
34103
34103
34102
34096
34081
34108
34100
34111
34100
34100
34097
34100
34097
34086
34103
34102
34101
34101
34093
34102
34085
34097
34101
34101
34103
34096
34094
34094
34100
34065
34095
34095
34095
34100
34091
34087
34091
34084
34093
34088
34095
34095
34103
34091
34087
34092
34092
34090
34066
34068
34067
34079
34068
34090
34082
34084
34084
34087
34091
34086
34087
34081
34081
34081
34084
34087
34055
34087
34087
34087
34079
34083
34080
34079
34085
34086
34084
34087
34087
34082
34076
34079
34079
34082
34082
34078
34087
34081
34087
34079
34081
34055
34055
34054
34055
34055
34079
34076
34071
34089
34068
34076
34074
34069
34083
34077
34055
34078
34085
34084
34084
34079
34078
34061
34086
34085
34081
34072
34077
34071
34055
34074
34072
34075
34074
34084
34087
34084
34086
34076
34078
34090
34088
34095
34090
34084
34100
34111
34106
34112
34117
34116
34127
34122
34126
34131
34141
34140
34139
34143
34132
34121
34125
34119
34119
34108
34108
34113
34103
34103
34103
34096
34095
34094
34093
34091
34079
34095
34095
34078
34084
34087
34092
34075
34083
34099
34087
34097
34079
34087
34085
34084
34060
34089
34086
34092
34087
34088
34081
34082
34087
34078
34087
34063
34080
34085
34084
34078
34077
34084
34076
34079
34047
34077
34083
34074
34075
34073
34074
34048
34071
34071
34081
34065
34068
34071
34065
34070
34074
34068
34055
34071
34074
34074
34068
34055
34060
34059
34061
34079
34065
34046
34049
34074
34060
34079
34068
34065
34063
34062
34063
34055
34052
34061
34064
34055
34047
34063
34071
34071
34065
34063
34068
34069
34055
34055
34055
34058
34055
34054
34036
34055
34063
34062
34063
34055
34054
34055
34037
34054
34069
34055
34055
34054
34055
34055
34048
34055
34055
34055
34055
34052
34055
34023
34047
34050
34052
34050
34049
34052
34055
34053
34055
34041
34046
34055
34044
34044
34053
34023
34039
34055
34053
34052
34049
34055
34022
34054
34048
34055
34055
34047
34048
34055
34054
34021
34050
34053
34063
34063
34062
34048
34047
34055
34050
34052
34055
34055
34030
34055
34055
34055
34061
34055
34058
34055
34055
34055
34055
34055
34062
34055
34054
34055
34029
34055
34054
34067
34063
34063
34062
34071
34055
34055
34050
34055
34055
34044
34055
34055
34055
34061
34054
34055
34055
34055
34065
34031
34063
34068
34065
34069
34055
34055
34065
34063
34063
34037
34052
34060
34039
34042
34063
34055
34055
34055
34054
34055
34041
34055
34063
34065
34063
34060
34054
34054
34055
34054
34042
34063
34055
34055
34048
34055
34035
34054
34055
34049
34055
34045
34044
34050
34049
34047
34040
34047
34044
34050
34027
34035
34042
34039
34041
34042
34035
34022
34039
34047
34047
34031
34024
34029
34035
34015
34037
34039
34036
34031
34030
34031
34022
34025
34031
34025
34022
34031
34020
34027
34026
34010
34023
34018
33999
34021
34023
34019
34007
34014
34018
34018
34014
34015
34022
34010
34016
34017
34017
33991
34015
34013
34021
33997
34012
34006
34007
34002
33983
34003
34013
33998
34007
34009
33989
34004
34001
34001
34001
34004
33999
34004
33991
34000
34013
34007
34006
33998
34001
33993
33995
33994
33985
34000
34001
34002
33986
33993
33994
33999
33996
33990
33978
33995
34003
34002
33998
33999
33988
33990
33991
33991
33997
33974
33990
33993
33997
33991
33989
33991
33991
33967
33990
33991
33996
33993
33994
33994
33984
33983
33981
33991
33962
33987
33985
33990
33980
33982
33982
33985
33991
33991
33959
33986
33990
33972
33975
33983
33986
33974
33988
33988
33987
33972
33976
33977
33983
33981
33981
33982
33978
33975
33953
33977
33984
33978
33979
33968
33975
33978
33962
33971
33975
33975
33973
33972
33955
33978
33980
33967
33973
33974
33950
33979
33975
33975
33980
33967
33965
33965
33967
33956
33966
33975
33957
33966
33964
33974
33973
33960
33968
33979
33964
33967
33958
33962
33959
33960
33967
33966
33963
33958
33959
33967
33965
33963
33961
33962
33961
33963
33966
33951
33959
33959
33962
33962
33956
33954
33946
33949
33959
33957
33943
33959
33964
33956
33958
33954
33956
33956
33946
33947
33948
33955
33958
33937
33951
33951
33951
33946
33948
33940
33948
33951
33948
33950
33944
33949
33952
33933
33948
33945
33945
33947
33951
33943
33948
33938
33927
33948
33948
33942
33941
33941
33944
33940
33940
33940
33946
33932
33939
33948
33946
33949
33950
33943
33935
33941
33943
33935
33933
33941
33941
33943
33938
33935
33930
33935
33940
33943
33935
33943
33935
33943
33942
33938
33942
33935
33935
33932
33927
33934
33938
33938
33933
33925
33933
33935
33915
33921
33935
33929
33939
33927
33935
33927
33919
33908
33934
33940
33932
33924
33927
33927
33924
33925
33917
33927
33927
33935
33929
33923
33930
33927
33924
33901
33927
33924
33932
33927
33916
33918
33922
33925
33925
33901
33917
33916
33919
33927
33927
33926
33914
33919
33926
33921
33900
33903
33908
33905
33927
33926
33924
33925
33921
33927
33917
33920
33917
33919
33900
33921
33924
33916
33916
33918
33913
33916
33914
33911
33906
33908
33924
33922
33910
33917
33916
33908
33919
33916
33911
33908
33903
33911
33910
33913
33918
33915
33911
33913
33905
33903
33903
33908
33915
33915
33911
33916
33911
33908
33914
33911
33889
33908
33909
33914
33897
33903
33906
33903
33910
33887
33905
33906
33911
33914
33905
33909
33902
33902
33911
33903
33908
33900
33909
33909
33903
33903
33898
33888
33903
33909
33908
33903
33903
33900
33900
33895
33889
33902
33903
33904
33900
33895
33903
33903
33897
33897
33901
33900
33902
33898
33903
33902
33899
33901
33878
33895
33895
33903
33902
33896
33901
33896
33896
33871
33901
33915
33910
33900
33900
33898
33903
33906
33899
33903
33910
33902
33905
33916
33908
33919
33914
33916
33917
33926
33927
33935
33934
33941
33939
33935
33947
33959
33955
33948
33945
33967
33967
33962
33963
33953
33949
33955
33937
33923
33942
33938
33935
33932
33932
33923
33927
33919
33919
33919
33922
33915
33917
33916
33896
33907
33919
33926
33912
33909
33918
33911
33919
33915
33915
33916
33911
33922
33917
33910
33911
33911
33895
33917
33922
33910
33911
33917
33912
33891
33911
33919
33911
33905
33901
33907
33907
33902
33910
33908
33908
33893
33907
33903
33903
33881
33911
33906
33900
33895
33910
33895
33909
33885
33902
33897
33901
33900
33868
33903
33903
33893
33895
33902
33903
33903
33894
33898
33897
33879
33896
33902
33892
33898
33900
33894
33903
33895
33893
33900
33892
33889
33892
33892
33897
33895
33895
33893
33894
33894
33893
33890
33890
33873
33895
33894
33889
33894
33895
33890
33895
33894
33887
33892
33894
33871
33892
33894
33882
33887
33889
33890
33894
33879
33890
33895
33885
33885
33870
33893
33884
33887
33879
33885
33892
33893
33893
33889
33887
33876
33885
33890
33889
33885
33887
33871
33894
33884
33888
33887
33879
33886
33895
33895
33887
33888
33889
33888
33865
33898
33894
33890
33891
33885
33889
33876
33886
33892
33871
33891
33889
33886
33890
33885
33887
33891
33877
33892
33895
33886
33887
33898
33883
33890
33892
33883
33893
33895
33891
33892
33895
33871
33891
33900
33882
33895
33890
33895
33861
33890
33899
33893
33897
33893
33895
33890
33884
33895
33887
33899
33902
33880
33897
33895
33895
33889
33895
33895
33898
33873
33901
33898
33907
33897
33894
33895
33893
33898
33903
33900
33884
33893
33894
33895
33895
33883
33894
33909
33891
33894
33895
33888
33895
33891
33895
33871
33895
33887
33893
33891
33895
33895
33891
33895
33883
33884
33884
33887
33887
33887
33879
33887
33881
33865
33883
33887
33873
33882
33882
33883
33873
33876
33877
33879
33883
33861
33878
33879
33876
33869
33863
33868
33874
33863
33876
33876
33863
33863
33842
33861
33871
33863
33866
33868
33862
33841
33867
33861
33860
33860
33839
33861
33847
33862
33859
33851
33860
33852
33856
33856
33863
33860
33853
33859
33842
33852
33855
33845
33855
33847
33855
33847
33855
33841
33855
33852
33844
33847
33844
33840
33852
33847
33853
33846
33843
33831
33850
33853
33841
33845
33844
33842
33847
33831
33842
33841
33821
33839
33851
33845
33834
33836
33838
33847
33817
33841
33841
33839
33847
33844
33836
33841
33840
33840
33841
33844
33840
33836
33839
33842
33837
33834
33842
33841
33843
33841
33815
33828
33829
33846
33839
33838
33835
33826
33831
33838
33836
33839
33836
33799
33815
33831
33843
33838
33838
33825
33825
33828
33827
33831
33836
33829
33831
33838
33828
33831
33826
33825
33826
33817
33828
33830
33833
33836
33837
33831
33823
33829
33827
33820
33828
33829
33823
33823
33825
33807
33822
33827
33824
33824
33823
33831
33815
33823
33828
33807
33823
33819
33822
33818
33823
33815
33825
33799
33816
33819
33823
33818
33823
33820
33823
33820
33822
33807
33810
33829
33815
33820
33820
33820
33818
33810
33820
33813
33818
33819
33823
33815
33817
33820
33820
33816
33815
33819
33812
33812
33799
33814
33820
33807
33812
33818
33810
33811
33813
33812
33813
33814
33796
33813
33811
33807
33813
33812
33799
33811
33815
33807
33797
33815
33809
33806
33799
33814
33811
33799
33793
33811
33799
33799
33814
33807
33799
33799
33799
33781
33799
33812
33812
33812
33799
33799
33799
33799
33799
33799
33799
33788
33796
33799
33796
33799
33799
33790
33799
33799
33799
33811
33797
33797
33799
33793
33799
33796
33798
33796
33799
33798
33799
33799
33793
33799
33799
33799
33794
33780
33799
33793
33799
33794
33796
33796
33793
33783
33797
33793
33786
33796
33794
33786
33793
33796
33798
33794
33797
33791
33794
33796
33795
33798
33785
33797
33796
33789
33790
33791
33796
33799
33796
33795
33791
33791
33789
33797
33799
33790
33790
33790
33791
33796
33785
33791
33785
33790
33786
33786
33770
33786
33789
33788
33780
33781
33783
33781
33766
33783
33791
33774
33785
33783
33765
33784
33788
33791
33783
33789
33783
33783
33777
33781
33781
33767
33785
33788
33770
33783
33775
33783
33780
33777
33783
33776
33772
33781
33791
33779
33783
33780
33775
33749
33775
33783
33788
33780
33783
33780
33775
33781
33781
33775
33783
33775
33770
33775
33783
33772
33777
33780
33783
33777
33772
33780
33782
33768
33780
33775
33772
33781
33772
33783
33756
33773
33774
33773
33775
33775
33775
33775
33763
33782
33780
33768
33779
33775
33765
33775
33778
33772
33777
33775
33756
33772
33777
33767
33765
33775
33766
33748
33777
33778
33772
33770
33775
33774
33759
33767
33773
33775
33767
33771
33769
33759
33767
33775
33759
33764
33773
33767
33756
33771
33772
33772
33775
33767
33767
33768
33759
33768
33767
33769
33772
33764
33767
33771
33743
33767
33768
33760
33767
33767
33767
33734
33770
33767
33767
33770
33767
33775
33771
33751
33767
33772
33779
33775
33775
33775
33773
33783
33774
33780
33794
33798
33799
33799
33797
33799
33815
33812
33821
33828
33831
33820
33836
33844
33842
33847
33835
33838
33829
33829
33836
33814
33815
33815
33807
33807
33799
33804
33809
33796
33791
33791
33775
33786
33785
33780
33788
33783
33791
33767
33783
33787
33796
33781
33788
33773
33781
33791
33783
33778
33767
33782
33771
33783
33781
33783
33783
33786
33775
33777
33763
33780
33777
33774
33778
33782
33759
33773
33779
33777
33767
33775
33767
33775
33773
33771
33764
33771
33759
33775
33766
33767
33774
33775
33749
33768
33767
33767
33764
33764
33767
33764
33772
33770
33767
33764
33741
33767
33773
33763
33767
33759
33764
33765
33771
33767
33765
33763
33767
33767
33769
33758
33754
33760
33737
33759
33764
33759
33764
33762
33759
33759
33738
33740
33752
33757
33761
33759
33759
33756
33749
33750
33757
33759
33757
33756
33758
33756
33761
33754
33757
33758
33759
33757
33758
33748
33757
33748
33756
33764
33756
33759
33756
33740
33757
33755
33751
33735
33752
33753
33754
33724
33754
33759
33749
33757
33735
33761
33759
33745
33745
33757
33757
33756
33737
33737
33749
33748
33756
33752
33741
33761
33753
33756
33758
33756
33764
33743
33767
33757
33751
33751
33733
33760
33764
33756
33756
33756
33754
33759
33759
33751
33759
33756
33757
33743
33759
33767
33764
33754
33755
33767
33759
33751
33762
33735
33763
33762
33763
33759
33764
33759
33766
33767
33764
33750
33765
33764
33766
33760
33760
33766
33756
33767
33766
33759
33767
33766
33743
33765
33764
33759
33759
33767
33756
33764
33767
33770
33765
33762
33767
33764
33767
33742
33764
33771
33765
33767
33748
33767
33767
33767
33767
33767
33748
33746
33771
33767
33772
33775
33766
33767
33770
33759
33764
33759
33765
33759
33771
33765
33759
33765
33764
33757
33766
33767
33765
33764
33759
33758
33759
33759
33756
33756
33753
33747
33758
33742
33757
33756
33745
33749
33755
33748
33749
33748
33751
33738
33751
33748
33744
33742
33731
33727
33747
33751
33743
33745
33735
33740
33738
33729
33736
33743
33743
33739
33737
33734
33733
33718
33733
33735
33739
33739
33731
33733
33724
33733
33735
33735
33720
33735
33735
33731
33729
33735
33735
33703
33729
33730
33733
33728
33725
33720
33706
33723
33727
33724
33722
33730
33725
33725
33722
33720
33727
33708
33718
33735
33724
33727
33715
33693
33726
33711
33712
33713
33693
33719
33716
33716
33711
33716
33722
33709
33721
33721
33718
33722
33706
33714
33722
33713
33711
33719
33718
33716
33711
33715
33694
33715
33716
33712
33719
33710
33719
33712
33719
33719
33715
33711
33716
33716
33705
33711
33711
33700
33711
33706
33696
33709
33711
33711
33695
33707
33713
33716
33703
33719
33713
33703
33707
33708
33703
33711
33700
33708
33700
33707
33714
33696
33701
33703
33708
33707
33707
33693
33701
33706
33701
33700
33677
33692
33704
33704
33700
33702
33700
33684
33700
33709
33702
33701
33702
33704
33698
33703
33709
33706
33703
33711
33710
33703
33691
33697
33705
33701
33703
33701
33701
33703
33701
33687
33698
33703
33703
33703
33700
33701
33711
33700
33702
33706
33703
33703
33697
33695
33701
33691
33687
33702
33698
33703
33699
33691
33696
33698
33702
33674
33698
33691
33702
33702
33695
33691
33703
33679
33693
33703
33694
33698
33692
33695
33693
33700
33699
33701
33703
33687
33688
33697
33677
33695
33697
33694
33687
33693
33693
33697
33671
33687
33692
33688
33695
33687
33684
33689
33665
33687
33686
33694
33694
33687
33687
33685
33685
33687
33681
33693
33684
33687
33693
33687
33694
33682
33687
33670
33678
33688
33687
33691
33689
33687
33684
33685
33677
33684
33684
33679
33676
33678
33679
33676
33683
33681
33676
33687
33679
33671
33685
33690
33695
33686
33685
33686
33682
33671
33685
33686
33681
33679
33678
33678
33679
33679
33679
33662
33682
33684
33682
33675
33674
33681
33679
33679
33671
33678
33684
33679
33671
33678
33666
33682
33680
33670
33671
33682
33671
33682
33676
33668
33676
33659
33673
33671
33671
33671
33671
33676
33676
33671
33671
33687
33665
33674
33675
33677
33683
33679
33671
33677
33671
33677
33652
33670
33671
33669
33676
33653
33677
33671
33655
33679
33671
33671
33649
33671
33668
33671
33670
33668
33668
33679
33670
33671
33671
33669
33669
33647
33660
33671
33671
33665
33666
33662
33660
33657
33671
33671
33663
33663
33662
33650
33667
33671
33671
33659
33668
33658
33669
33663
33662
33644
33669
33668
33662
33671
33665
33670
33667
33668
33655
33670
33663
33654
33662
33665
33669
33663
33670
33667
33664
33661
33663
33662
33668
33661
33668
33658
33660
33666
33663
33661
33661
33641
33647
33663
33663
33668
33662
33662
33665
33671
33661
33658
33662
33668
33671
33668
33663
33660
33671
33668
33668
33661
33652
33656
33669
33673
33677
33679
33671
33684
33679
33690
33687
33696
33701
33704
33706
33705
33717
33719
33719
33732
33735
33725
33733
33735
33732
33727
33733
33732
33693
33717
33717
33715
33709
33711
33706
33702
33705
33697
33695
33692
33687
33692
33677
33687
33663
33684
33681
33686
33687
33671
33676
33678
33676
33676
33679
33681
33671
33679
33679
33678
33674
33679
33668
33669
33671
33685
33669
33670
33678
33663
33678
33681
33679
33673
33678
33679
33673
33679
33677
33674
33679
33673
33670
33671
33668
33671
33663
33675
33670
33665
33641
33669
33671
33671
33663
33663
33671
33662
33668
33666
33650
33639
33666
33661
33668
33660
33664
33665
33663
33668
33668
33668
33668
33671
33666
33655
33671
33671
33660
33662
33662
33652
33660
33663
33655
33661
33660
33666
33658
33662
33662
33661
33636
33664
33668
33661
33634
33663
33667
33655
33655
33663
33654
33658
33655
33652
33655
33659
33647
33655
33666
33655
33656
33644
33654
33666
33663
33647
33654
33652
33663
33663
33657
33658
33648
33652
33660
33669
33661
33647
33650
33660
33659
33640
33663
33655
33662
33657
33658
33653
33655
33652
33662
33654
33659
33659
33654
33660
33669
33659
33659
33639
33667
33662
33671
33655
33657
33665
33650
33662
33668
33653
33645
33662
33661
33661
33636
33659
33660
33662
33660
33657
33649
33667
33667
33668
33663
33657
33668
33654
33659
33659
33668
33655
33657
33647
33659
33670
33671
33654
33670
33668
33662
33647
33670
33671
33666
33671
33667
33664
33667
33668
33671
33654
33671
33676
33670
33660
33669
33671
33666
33671
33671
33660
33671
33671
33674
33671
33673
33664
33668
33668
33669
33647
33679
33676
33671
33670
33671
33652
33671
33679
33678
33671
33670
33671
33669
33662
33670
33671
33660
33666
33669
33660
33668
33668
33668
33663
33663
33670
33661
33658
33665
33676
33667
33663
33665
33637
33665
33660
33641
33655
33655
33667
33656
33663
33631
33661
33660
33657
33665
33643
33656
33650
33653
33647
33655
33655
33639
33652
33647
33653
33649
33654
33642
33651
33649
33636
33643
33647
33653
33651
33651
33644
33653
33639
33639
33643
33633
33645
33642
33639
33639
33638
33615
33639
33639
33639
33645
33633
33636
33639
33615
33639
33634
33638
33639
33632
33630
33634
33627
33634
33632
33626
33628
33628
33609
33630
33633
33633
33623
33626
33631
33628
33630
33636
33628
33631
33638
33636
33621
33626
33623
33613
33605
33620
33625
33633
33617
33621
33615
33621
33631
33615
33606
33613
33622
33623
33618
33622
33622
33625
33620
33621
33611
33614
33627
33627
33620
33616
33618
33608
33612
33623
33627
33620
33615
33616
33609
33617
33623
33606
33612
33607
33615
33615
33621
33622
33622
33621
33618
33615
33615
33615
33593
33618
33612
33614
33615
33620
33612
33617
33623
33607
33607
33613
33614
33615
33614
33589
33604
33605
33607
33607
33591
33613
33617
33615
33604
33604
33610
33605
33591
33614
33615
33598
33604
33608
33607
33615
33603
33613
33615
33615
33610
33609
33612
33607
33612
33609
33613
33607
33610
33607
33613
33603
33584
33607
33612
33611
33600
33607
33605
33607
33603
33600
33604
33607
33606
33596
33604
33607
33604
33607
33607
33611
33605
33603
33591
33602
33606
33590
33607
33604
33607
33583
33593
33612
33606
33611
33599
33598
33597
33603
33607
33611
33607
33604
33606
33599
33600
33606
33580
33607
33604
33599
33594
33600
33598
33604
33602
33596
33604
33596
33594
33604
33598
33604
33603
33601
33592
33604
33596
33588
33603
33603
33599
33606
33603
33599
33597
33596
33598
33592
33597
33574
33591
33604
33599
33604
33601
33606
33590
33597
33600
33595
33598
33599
33603
33600
33598
33599
33599
33596
33598
33594
33598
33591
33599
33594
33598
33605
33598
33592
33601
33575
33602
33596
33603
33597
33588
33596
33595
33583
33591
33598
33594
33589
33588
33590
33591
33599
33597
33592
33586
33593
33589
33599
33572
33598
33597
33594
33592
33589
33589
33590
33586
33592
33593
33599
33602
33591
33583
33597
33590
33593
33579
33589
33594
33596
33589
33595
33589
33570
33589
33597
33585
33594
33590
33562
33591
33591
33589
33591
33588
33598
33585
33591
33582
33584
33584
33577
33588
33583
33583
33578
33591
33577
33588
33564
33586
33595
33591
33595
33587
33589
33585
33581
33582
33571
33583
33588
33588
33578
33585
33583
33576
33575
33594
33572
33582
33591
33583
33589
33589
33587
33587
33580
33564
33575
33591
33583
33581
33583
33588
33574
33580
33559
33575
33585
33579
33580
33574
33578
33588
33585
33582
33581
33562
33583
33576
33583
33580
33583
33577
33579
33580
33578
33581
33579
33577
33581
33580
33578
33574
33578
33584
33568
33575
33575
33574
33582
33589
33586
33577
33556
33582
33584
33582
33584
33567
33583
33580
33590
33575
33586
33595
33595
33588
33593
33594
33591
33589
33592
33598
33602
33612
33619
33614
33619
33625
33635
33631
33639
33645
33641
33653
33654
33650
33646
33652
33631
33652
33652
33640
33637
33639
33630
33615
33631
33622
33620
33616
33623
33606
33613
33607
33606
33591
33603
33602
33596
33597
33580
33596
33599
33598
33588
33605
33579
33599
33599
33601
33607
33583
33599
33596
33572
33602
33597
33591
33603
33593
33593
33575
33594
33598
33598
33599
33590
33588
33588
33588
33591
33591
33594
33575
33588
33595
33591
33583
33588
33589
33586
33588
33594
33590
33599
33591
33594
33591
33591
33567
33591
33591
33599
33595
33591
33595
33588
33589
33589
33580
33575
33594
33581
33584
33590
33571
33588
33577
33589
33591
33586
33591
33583
33572
33587
33588
33591
33581
33589
33581
33583
33581
33580
33583
33577
33581
33581
33587
33583
33589
33579
33583
33576
33591
33587
33575
33583
33576
33582
33579
33575
33582
33575
33580
33571
33575
33589
33588
33580
33590
33575
33577
33580
33551
33583
33583
33583
33583
33583
33579
33577
33591
33569
33580
33574
33580
33587
33585
33576
33577
33589
33565
33583
33593
33583
33583
33575
33575
33581
33581
33582
33583
33577
33585
33586
33583
33580
33574
33586
33590
33588
33579
33591
33592
33591
33587
33588
33583
33589
33586
33581
33583
33588
33574
33583
33592
33575
33591
33595
33564
33588
33597
33599
33590
33594
33603
33575
33589
33599
33583
33588
33596
33591
33597
33594
33598
33590
33598
33602
33592
33592
33597
33600
33595
33592
33586
33599
33598
33589
33581
33598
33593
33599
33597
33607
33591
33604
33598
33600
33599
33600
33579
33604
33597
33594
33601
33584
33600
33599
33605
33592
33603
33593
33583
33599
33600
33606
33598
33593
33598
33603
33596
33602
33595
33599
33596
33599
33580
33591
33587
33596
33596
33588
33572
33596
33586
33594
33591
33588
33591
33585
33578
33596
33582
33581
33590
33583
33590
33585
33571
33580
33581
33577
33592
33577
33578
33581
33584
33572
33583
33578
33577
33573
33549
33577
33561
33572
33574
33569
33573
33581
33572
33561
33565
33564
33567
33567
33559
33571
33568
33562
33567
33569
33555
33566
33567
33564
33559
33534
33558
33558
33560
33559
33559
33556
33559
33553
33558
33556
33551
33561
33541
33559
33554
33550
33559
33559
33559
33555
33550
33549
33551
33550
33543
33549
33528
33551
33559
33550
33543
33556
33537
33554
33555
33543
33543
33543
33551
33543
33538
33543
33542
33533
33542
33543
33532
33551
33543
33542
33543
33543
33548
33556
33543
33543
33543
33543
33538
33551
33543
33551
33551
33543
33543
33543
33551
33538
33535
33541
33535
33543
33540
33539
33537
33540
33538
33540
33543
33535
33540
33543
33543
33537
33517
33543
33543
33541
33543
33535
33533
33543
33541
33543
33535
33535
33532
33530
33543
33541
33535
33539
33541
33543
33543
33535
33532
33522
33541
33535
33543
33537
33521
33541
33543
33537
33535
33533
33541
33527
33532
33543
33539
33538
33538
33529
33541
33540
33539
33528
33539
33535
33537
33535
33540
33511
33527
33527
33534
33534
33535
33535
33536
33535
33539
33535
33524
33541
33535
33534
33530
33534
33538
33517
33533
33535
33535
33531
33535
33533
33535
33531
33535
33527
33535
33516
33534
33532
33535
33537
33508
33533
33530
33534
33532
33534
33532
33528
33535
33529
33533
33532
33536
33522
33535
33519
33533
33533
33521
33534
33530
33521
33531
33527
33530
33528
33527
33519
33526
33526
33527
33518
33527
33527
33516
33532
33532
33527
33534
33527
33524
33537
33524
33524
33533
33516
33527
33525
33527
33522
33531
33515
33532
33528
33519
33527
33525
33531
33532
33529
33511
33530
33527
33525
33522
33535
33535
33523
33521
33527
33525
33525
33524
33524
33520
33527
33521
33528
33519
33517
33535
33526
33535
33511
33530
33530
33530
33524
33527
33516
33510
33530
33527
33519
33505
33525
33535
33533
33529
33528
33527
33530
33527
33527
33527
33519
33521
33527
33521
33521
33519
33512
33527
33510
33523
33523
33514
33525
33524
33511
33524
33532
33527
33522
33521
33525
33525
33531
33524
33522
33521
33519
33519
33524
33527
33516
33528
33511
33524
33523
33516
33524
33513
33522
33524
33519
33524
33531
33516
33525
33525
33524
33523
33517
33519
33524
33508
33519
33518
33534
33529
33519
33518
33524
33519
33519
33521
33522
33519
33505
33521
33524
33526
33514
33518
33504
33529
33517
33524
33532
33518
33525
33526
33524
33519
33524
33525
33515
33519
33526
33517
33516
33523
33506
33519
33526
33510
33519
33517
33524
33504
33518
33523
33527
33528
33516
33519
33517
33514
33518
33524
33524
33519
33516
33512
33517
33523
33518
33522
33514
33519
33521
33509
33519
33519
33524
33527
33507
33519
33530
33525
33521
33516
33523
33525
33523
33515
33528
33533
33527
33527
33524
33519
33530
33535
33526
33535
33516
33525
33527
33534
33509
33533
33527
33530
33535
33537
33537
33540
33539
33554
33551
33567
33558
33572
33574
33570
33573
33583
33583
33583
33592
33588
33596
33600
33583
33580
33585
33575
33582
33577
33570
33571
33560
33570
33553
33559
33566
33543
33543
33542
33549
33550
33556
33543
33546
33551
33527
33550
33552
33550
33543
33554
33543
33548
33543
33554
33540
33551
33535
33550
33557
33548
33543
33555
33542
33543
33543
33541
33551
33543
33543
33556
33537
33550
33551
33543
33540
33516
33543
33538
33543
33549
33534
33540
33543
33543
33538
33543
33543
33543
33543
33548
33522
33538
33543
33538
33539
33533
33540
33543
33543
33535
33532
33543
33527
33536
33543
33543
33543
33543
33543
33521
33542
33543
33543
33538
33537
33516
33542
33535
33543
33518
33537
33541
33532
33543
33541
33542
33543
33543
33538
33543
33535
33535
33541
33540
33541
33540
33543
33541
33543
33540
33535
33522
33543
33540
33539
33532
33541
33543
33553
33536
33541
33540
33540
33549
33541
33532
33543
33527
33535
33543
33535
33537
33543
33542
33543
33538
33543
33511
33551
33548
33541
33543
33535
33543
33543
33543
33535
33543
33536
33543
33514
33541
33553
33551
33543
33542
33543
33543
33548
33543
33540
33543
33548
33554
33549
33557
33553
33543
33543
33551
33557
33543
33557
33558
33556
33559
33558
33559
33564
33553
33556
33555
33551
33557
33564
33559
33565
33551
33559
33559
33559
33556
33545
33536
33567
33564
33564
33554
33565
33561
33565
33540
33562
33572
33551
33564
33563
33566
33567
33561
33564
33573
33562
33565
33566
33540
33562
33573
33569
33571
33568
33574
33575
33575
33572
33572
33570
33551
33547
33572
33566
33574
33572
33572
33579
33569
33566
33569
33569
33575
33572
33557
33572
33572
33564
33567
33573
33575
33567
33560
33558
33567
33548
33562
33573
33567
33559
33543
33559
33571
33559
33556
33556
33558
33552
33563
33554
33559
33557
33559
33541
33543
33551
33550
33549
33551
33555
33559
33549
33551
33543
33554
33543
33541
33529
33543
33543
33543
33543
33543
33543
33542
33543
33534
33542
33538
33536
33542
33537
33543
33525
33535
33535
33527
33534
33537
33535
33538
33538
33540
33527
33532
33535
33509
33530
33538
33530
33534
33524
33527
33530
33527
33527
33534
33507
33526
33527
33530
33502
33526
33535
33527
33529
33514
33527
33533
33532
33519
33521
33527
33511
33522
33527
33526
33521
33519
33524
33503
33517
33523
33524
33518
33523
33522
33517
33521
33507
33519
33522
33524
33533
33519
33515
33517
33508
33516
33520
33527
33524
33522
33523
33527
33523
33518
33519
33521
33518
33517
33524
33516
33524
33522
33524
33519
33518
33514
33509
33519
33509
33511
33524
33527
33510
33507
33523
33523
33517
33516
33526
33517
33519
33524
33516
33516
33516
33498
33517
33517
33519
33511
33518
33516
33515
33516
33508
33521
33519
33519
33519
33518
33511
33511
33515
33511
33525
33513
33517
33511
33511
33526
33516
33509
33516
33510
33511
33509
33519
33519
33511
33516
33517
33517
33519
33518
33519
33499
33511
33511
33511
33510
33504
33527
33517
33505
33510
33511
33508
33511
33517
33508
33505
33505
33509
33515
33498
33511
33511
33508
33511
33495
33514
33510
33516
33511
33507
33511
33509
33516
33508
33507
33511
33514
33510
33509
33511
33509
33509
33511
33501
33487
33509
33509
33514
33503
33508
33498
33510
33506
33517
33511
33511
33506
33516
33503
33509
33508
33511
33511
33508
33509
33509
33500
33503
33503
33486
33503
33500
33500
33501
33505
33511
33509
33492
33500
33500
33503
33493
33500
33510
33502
33503
33480
33503
33508
33503
33505
33495
33508
33502
33501
33495
33504
33499
33508
33510
33507
33492
33503
33498
33495
33500
33507
33498
33495
33503
33503
33500
33498
33492
33500
33497
33502
33492
33502
33507
33506
33492
33485
33499
33503
33497
33503
33495
33501
33477
33495
33511
33502
33506
33503
33503
33507
33503
33487
33507
33497
33498
33497
33494
33495
33497
33476
33502
33505
33502
33495
33499
33494
33506
33510
33501
33495
33485
33494
33505
33499
33492
33494
33495
33497
33501
33495
33501
33497
33481
33503
33494
33486
33502
33506
33500
33495
33502
33493
33492
33496
33503
33493
33499
33495
33484
33491
33499
33492
33491
33478
33490
33501
33495
33495
33497
33489
33492
33495
33495
33491
33500
33488
33482
33498
33498
33501
33495
33495
33489
33499
33507
33491
33495
33496
33485
33500
33493
33502
33493
33491
33502
33494
33495
33495
33493
33493
33489
33495
33476
33498
33491
33492
33491
33495
33494
33493
33475
33495
33495
33492
33487
33485
33485
33469
33495
33493
33495
33496
33495
33494
33490
33492
33497
33492
33497
33493
33495
33489
33492
33487
33476
33488
33489
33487
33483
33486
33487
33482
33494
33485
33479
33497
33492
33493
33486
33492
33492
33493
33490
33494
33484
33479
33487
33482
33489
33492
33494
33479
33486
33492
33498
33475
33492
33498
33495
33493
33494
33505
33468
33489
33501
33498
33484
33493
33485
33493
33494
33489
33492
33492
33503
33494
33498
33496
33494
33501
33509
33511
33516
33518
33517
33527
33530
33534
33550
33540
33543
33548
33551
33549
33555
33567
33565
33558
33557
33543
33553
33539
33542
33537
33535
33535
33518
33526
33528
33523
33513
33511
33514
33520
33519
33519
33523
33524
33521
33517
33492
33516
33517
33519
33513
33518
33519
33493
33510
33519
33527
33518
33511
33519
33516
33516
33495
33513
33516
33522
33509
33516
33510
33517
33508
33517
33515
33516
33511
33513
33511
33508
33493
33514
33512
33511
33519
33510
33510
33503
33511
33487
33513
33515
33511
33517
33506
33505
33504
33507
33509
33511
33503
33508
33508
33511
33511
33492
33509
33508
33508
33510
33508
33510
33508
33493
33508
33507
33510
33508
33510
33503
33506
33511
33502
33511
33511
33503
33504
33508
33503
33510
33485
33509
33508
33500
33504
33510
33476
33500
33509
33503
33503
33504
33506
33509
33496
33506
33495
33511
33506
33509
33502
33508
33482
33503
33505
33505
33495
33495
33507
33498
33508
33503
33504
33507
33478
33506
33500
33505
33503
33501
33508
33511
33500
33495
33493
33498
33506
33508
33497
33511
33511
33511
33506
33500
33495
33511
33511
33495
33503
33503
33485
33507
33507
33492
33499
33502
33501
33487
33506
33507
33506
33504
33505
33506
33510
33492
33517
33506
33503
33511
33516
33519
33519
33502
33514
33510
33508
33487
33519
33521
33519
33513
33517
33511
33527
33515
33513
33509
33517
33523
33516
33527
33524
33513
33519
33517
33527
33511
33519
33517
33519
33517
33522
33525
33511
33525
33524
33522
33531
33522
33520
33507
33511
33513
33519
33525
33516
33514
33516
33522
33519
33527
33531
33522
33526
33521
33524
33527
33521
33525
33524
33523
33530
33527
33518
33518
33502
33516
33527
33509
33510
33509
33517
33508
33518
33522
33511
33513
33516
33499
33506
33511
33523
33509
33514
33508
33514
33509
33501
33511
33510
33510
33508
33506
33508
33508
33508
33509
33500
33502
33505
33497
33497
33499
33505
33494
33492
33489
33492
33500
33493
33489
33495
33500
33496
33495
33484
33493
33502
33501
33494
33487
33492
33492
33481
33483
33486
33494
33476
33485
33487
33487
33475
33485
33482
33488
33487
33461
33478
33485
33480
33479
33478
33479
33480
33476
33463
33482
33483
33476
33479
33476
33476
33455
33476
33479
33479
33470
33475
33476
33472
33471
33471
33472
33460
33469
33476
33482
33476
33468
33468
33468
33446
33465
33469
33471
33468
33477
33469
33471
33467
33468
33466
33471
33473
33442
33468
33470
33463
33466
33466
33474
33464
33460
33468
33453
33461
33467
33467
33460
33468
33471
33470
33444
33461
33463
33473
33468
33457
33467
33470
33461
33461
33466
33445
33463
33468
33462
33452
33461
33456
33471
33466
33461
33466
33454
33467
33468
33460
33471
33455
33469
33471
33461
33454
33461
33461
33465
33467
33467
33458
33459
33460
33463
33460
33463
33452
33462
33454
33463
33461
33462
33461
33461
33461
33460
33457
33447
33457
33460
33462
33462
33450
33454
33462
33438
33453
33455
33463
33450
33454
33452
33455
33442
33463
33459
33446
33453
33451
33439
33455
33449
33452
33451
33447
33457
33459
33455
33451
33454
33447
33452
33463
33454
33454
33449
33455
33428
33447
33457
33449
33448
33432
33447
33450
33447
33447
33447
33455
33429
33447
33452
33454
33447
33447
33451
33447
33452
33452
33439
33446
33444
33447
33447
33424
33445
33445
33449
33447
33446
33424
33437
33447
33447
33442
33444
33446
33446
33447
33439
33441
33446
33447
33428
33443
33453
33447
33445
33447
33447
33445
33440
33438
33430
33444
33449
33446
33443
33421
33441
33445
33439
33444
33444
33447
33445
33444
33440
33439
33436
33440
33443
33444
33444
33439
33437
33433
33441
33434
33439
33446
33433
33438
33436
33427
33436
33438
33438
33447
33434
33435
33439
33412
33443
33439
33438
33431
33435
33436
33434
33430
33431
33437
33439
33444
33439
33430
33439
33435
33415
33431
33431
33430
33431
33431
33431
33434
33439
33436
33436
33439
33439
33434
33433
33423
33431
33431
33435
33439
33415
33425
33434
33431
33433
33431
33431
33431
