EDA
23847
23846
23823
23837
23837
23837
23820
23822
23832
23839
23826
23830
23843
23842
23828
23833
23841
23839
23847
23830
23829
23836
23839
23839
23849
23848
23829
23831
23842
23844
23846
23827
23833
23844
23843
23849
23855
23855
23861
23835
23837
23839
23847
23836
23846
23852
23831
23833
23843
23843
23846
23841
23848
23846
23854
23843
23844
23855
23852
23864
23845
23847
23847
23852
23833
23847
23854
23857
23839
23855
23850
23854
23868
23843
23850
23855
23868
23845
23849
23855
23855
23862
23875
23839
23850
23849
23857
23866
23844
23863
23855
23877
23845
23863
23862
23870
23853
23863
23857
23875
23847
23852
23856
23857
23863
23847
23849
23858
23863
23851
23854
23858
23862
23864
23868
23857
23855
23871
23869
23871
23876
23853
23866
23875
23874
23855
23863
23869
23855
23866
23867
23880
23865
23870
23871
23883
23860
23864
23875
23878
23880
23884
23864
23875
23878
23894
23868
23879
23885
23868
23869
23874
23887
23905
23871
23885
23886
23895
23873
23869
23884
23879
23884
23873
23871
23879
23881
23887
23895
23873
23878
23891
23884
23900
23878
23886
23886
23897
23899
23879
23879
23884
23890
23893
23895
23896
23905
23879
23884
23889
23895
23901
23894
23890
23900
23901
23903
23917
23892
23895
23905
23909
23911
23887
23893
23909
23901
23910
23926
23899
23894
23911
23915
23920
23898
23908
23910
23919
23893
23903
23908
23908
23919
23919
23903
23905
23911
23910
23920
23924
23908
23910
23918
23922
23924
23935
23915
23916
23926
23933
23923
23932
23919
23929
23913
23917
23924
23928
23933
23922
23918
23936
23940
23943
23925
23927
23943
23938
23949
23926
23934
23952
23936
23941
23931
23942
23925
23947
23951
23933
23939
23941
23949
23935
23954
23959
23937
23953
23952
23965
23947
23950
23956
23940
23953
23956
23942
23946
23951
23972
23943
23970
23972
23949
23950
23969
23982
24016
23948
23961
23982
24058
23946
23959
23975
23995
24027
23953
23957
23994
23999
24077
23959
23981
24006
24031
23969
23977
23996
23989
23998
24002
23973
23983
23976
23978
23972
23974
23970
23975
23973
23980
23975
23983
23975
23977
23982
23979
23975
23981
23978
23980
23983
23980
23973
23972
23975
23983
23975
23980
23978
23968
23981
23985
23980
23990
23981
23989
23990
23984
23979
23977
23988
23982
23988
23986
23972
23983
23983
23986
23998
23980
23990
23994
24001
23985
23988
23994
23996
23986
23995
23996
23988
23989
23998
23985
23990
23988
23991
23956
23982
23993
23997
23999
23991
23996
23994
24005
23989
23993
23997
24005
23993
23994
23998
24001
23988
23991
24007
24007
23997
23988
23999
24003
24005
24012
24028
23998
24004
24007
24011
24014
23999
24001
23999
24007
24006
24014
23998
24000
24014
24014
24019
24004
24014
24012
24023
24018
24021
24034
24007
24015
24014
24017
24023
24031
24004
24008
24020
24025
24034
24045
24015
24012
24028
24029
24033
24050
24028
24028
24036
24037
24016
24017
24033
24031
24038
24020
24031
24034
24034
24045
24029
24030
24032
24038
24050
24030
24050
24050
24064
24025
24036
24038
24043
24047
24058
24027
24033
24034
24048
24045
24053
24064
24046
24055
24058
24060
24042
24044
24055
24062
24039
24041
24041
24048
24052
24055
24062
24046
24058
24070
24061
24071
24075
24052
24061
24068
24079
24081
24056
24067
24071
24058
24071
24082
24056
24071
24071
24090
24058
24071
24071
24084
24066
24069
24085
24082
24092
24071
24071
24089
24089
24101
24069
24079
24088
24105
24070
24090
24092
24103
24080
24082
24093
24101
24083
24091
24095
24102
24117
24083
24097
24097
24116
24086
24095
24106
24085
24086
24101
24103
24111
24058
24103
24105
24113
24129
24097
24111
24116
24116
24127
24135
24098
24107
24110
24111
24116
24138
24108
24102
24109
24127
24121
24119
24124
24130
24135
24110
24121
24126
24124
24129
24113
24111
24120
24120
24122
24130
24133
24116
24124
24134
24122
24131
24135
24125
24124
24132
24133
24124
24125
24132
24139
24143
24127
24129
24133
24137
24127
24129
24134
24141
24130
24136
24143
24149
24134
24141
24135
24140
24143
24133
24135
24142
24149
24132
24133
24148
24145
24120
24140
24148
24156
24166
24146
24159
24154
24146
24151
24156
24157
24143
24151
24158
24167
24144
24154
24159
24151
24157
24164
24166
24156
24165
24168
24173
24156
24167
24167
24167
24159
24164
24168
24174
24159
24174
24169
24175
24167
24172
24178
24167
24176
24187
24174
24178
24180
24183
24172
24183
24183
24190
24168
24175
24185
24186
24183
24197
24172
24177
24186
24192
24185
24197
24194
24193
24171
24189
24192
24191
24204
24190
24193
24207
24191
24188
24201
24185
24186
24196
24200
24201
24199
24197
24207
24208
24214
24199
24213
24209
24220
24203
24211
24215
24200
24212
24209
24231
24207
24215
24220
24225
24211
24220
24224
24212
24218
24229
24212
24225
24223
24230
24213
24223
24220
24222
24237
24217
24226
24235
24218
24228
24229
24237
24247
24231
24229
24237
24236
24238
24248
24228
24231
24231
24239
24230
24231
24244
24246
24244
24234
24242
24247
24251
24239
24241
24248
24255
24230
24245
24247
24253
24260
24243
24252
24245
24259
24245
24252
24261
24255
24264
24250
24256
24261
24261
24268
24258
24261
24265
24261
24270
24254
24257
24265
24260
24252
24260
24270
24272
24289
24266
24274
24279
24292
24268
24278
24281
24267
24268
24280
24265
24276
24268
24277
24285
24269
24284
24282
24303
24275
24284
24293
24282
24286
24297
24282
24293
24294
24287
24288
24293
24283
24295
24296
24281
24292
24295
24286
24287
24298
24307
24292
24298
24295
24303
24293
24294
24303
24303
24306
24293
24290
24292
24300
24305
24308
24314
24294
24296
24305
24297
24309
24313
24319
24318
24308
24314
24321
24327
24303
24316
24322
24307
24311
24319
24327
24311
24321
24324
24308
24327
24325
24341
24317
24326
24328
24316
24329
24331
24315
24329
24332
24315
24325
24323
24342
24315
24327
24335
24341
24321
24326
24337
24337
24346
24327
24335
24342
24327
24341
24331
24340
24351
24334
24347
24333
24349
24334
24350
24350
24370
24340
24350
24348
24359
24347
24343
24347
24357
24350
24355
24361
24369
24350
24355
24358
24373
24347
24359
24364
24349
24359
24365
24371
24356
24359
24367
24367
24380
24358
24361
24366
24369
24372
24354
24356
24364
24367
24379
24364
24372
24374
24382
24385
24373
24370
24376
24378
24388
24366
24365
24376
24382
24389
24368
24378
24388
24378
24381
24390
24371
24392
24388
24393
24385
24378
24391
24391
24398
24383
24380
24394
24390
24405
24380
24388
24398
24381
24394
24397
24403
24391
24397
24400
24406
24420
24397
24405
24405
24412
24388
24392
24394
24400
24410
24398
24398
24401
24415
24420
24401
24411
24410
24430
24407
24412
24415
24401
24417
24416
24423
24404
24415
24419
24400
24407
24418
24432
24407
24422
24428
24430
24417
24430
24424
24438
24420
24427
24423
24450
24419
24423
24424
24433
24422
24416
24429
24436
24423
24438
24423
24431
24433
24444
24427
24431
24438
24439
24448
24428
24442
24439
24448
24428
24428
24444
24438
24444
24457
24433
24448
24451
24454
24436
24451
24451
24464
24439
24447
24453
24436
24437
24449
24449
24444
24433
24446
24453
24462
24441
24455
24454
24459
24446
24447
24454
24463
24463
24445
24449
24448
24452
24442
24450
24462
24463
24443
24455
24461
24463
24459
24457
24469
24478
24457
24471
24459
24456
24464
24471
24455
24460
24471
24454
24460
24468
24474
24465
24470
24492
24463
24475
24479
24479
24468
24479
24473
24484
24460
24473
24481
24469
24466
24483
24478
24466
24474
24487
24468
24469
24484
24489
24489
24472
24482
24491
24486
24485
24493
24477
24471
24486
24485
24483
24486
24487
24487
24494
24473
24477
24481
24486
24486
24489
24488
24490
24492
24476
24487
24484
24493
24478
24484
24491
24494
24490
24482
24486
24484
24487
24488
24500
24500
24502
24484
24481
24484
24486
24496
24494
24501
24503
24519
24527
24551
24473
24476
24475
24485
24506
24505
24509
24513
24516
24521
24535
24537
24543
24538
24538
24542
24541
24534
24534
24549
24493
24494
24514
24507
24509
24515
24506
24502
24502
24508
24495
24501
24497
24499
24494
24490
24493
24495
24497
24495
24495
24496
24493
24497
24495
24498
24502
24497
24496
24503
24502
24499
24495
24498
24498
24494
24500
24497
24489
24492
24500
24501
24495
24498
24503
24503
24495
24507
24502
24495
24500
24504
24501
24512
24495
24505
24495
24500
24496
24495
24497
24507
24500
24508
24508
24503
24498
24508
24509
24511
24501
24500
24510
24500
24515
24503
24504
24509
24503
24501
24505
24511
24502
24504
24510
24519
24511
24516
24515
24524
24515
24512
24514
24510
24511
24518
24502
24510
24516
24521
24511
24514
24522
24512
24517
24524
24512
24519
24526
24515
24517
24517
24527
24514
24510
24520
24523
24515
24517
24519
24527
24508
24522
24527
24516
24526
24526
24526
24522
24524
24524
24529
24535
24522
24518
24526
24522
24530
24516
24513
24525
24527
24522
24528
24533
24519
24527
24534
24540
24528
24531
24535
24540
24520
24530
24533
24539
24520
24538
24535
24546
24524
24530
24535
24544
24528
24537
24540
24543
24529
24533
24539
24544
24533
24541
24545
24528
24542
24538
24548
24533
24541
24545
24548
24533
24544
24556
24554
24566
24542
24553
24550
24564
24536
24545
24549
24555
24535
24550
24550
24550
24550
24542
24538
24548
24551
24556
24553
24550
24560
24558
24571
24542
24545
24552
24562
24567
24542
24547
24548
24564
24583
24551
24559
24580
24557
24567
24574
24557
24573
24570
24582
24556
24554
24567
24569
24551
24549
24561
24567
24553
24561
24569
24580
24564
24580
24576
24562
24566
24578
24583
24566
24561
24577
24583
24566
24563
24569
24580
24558
24562
24566
24581
24580
24569
24579
24581
24604
24571
24583
24582
24569
24583
24583
24588
24561
24581
24566
24572
24572
24575
24583
24591
24575
24572
24582
24591
24575
24580
24589
24590
24572
24581
24599
24582
24580
24575
24583
24579
24583
24583
24594
24579
24578
24583
24583
24591
24582
24591
24583
24598
24583
24583
24592
24580
24583
24591
24593
24575
24581
24591
24583
24589
24583
24590
24591
24594
24593
24587
24582
24589
24586
24590
24583
24583
24588
24583
24591
24596
24580
24588
24593
24592
24582
24591
24594
24583
24590
24592
24596
24591
24595
24599
24583
24583
24590
24588
24591
24583
24583
24589
24596
24598
24594
24596
24596
24599
24591
24602
24602
24604
24589
24597
24598
24597
24583
24591
24591
24595
24601
24593
24588
24596
24602
24602
24588
24599
24605
24606
24608
24590
24599
24596
24604
24595
24593
24603
24594
24599
24602
24591
24596
24602
24604
24610
24594
24597
24606
24610
24612
24596
24597
24600
24614
24594
24604
24613
24597
24600
24606
24596
24605
24607
24609
24604
24614
24607
24615
24596
24599
24608
24610
24620
24601
24606
24611
24598
24611
24610
24603
24604
24610
24612
24601
24611
24618
24616
24631
24609
24615
24615
24615
24599
24609
24608
24615
24605
24607
24615
24602
24606
24613
24612
24627
24613
24615
24623
24607
24618
24623
24615
24620
24618
24626
24608
24617
24621
24610
24611
24609
24614
24607
24609
24616
24622
24613
24615
24623
24620
24621
24627
24628
24610
24611
24613
24623
24614
24624
24636
24607
24612
24626
24612
24623
24631
24610
24621
24618
24624
24632
24614
24612
24618
24621
24628
24636
24613
24613
24615
24630
24624
24613
24620
24628
24614
24628
24623
24628
24620
24623
24630
24629
24615
24628
24618
24615
24619
24621
24628
24612
24612
24623
24630
24634
24621
24631
24630
24647
24620
24630
24629
24632
24615
24615
24624
24623
24636
24617
24616
24627
24624
24635
24621
24626
24630
24618
24622
24629
24637
24620
24631
24630
24633
24617
24631
24631
24630
24618
24625
24629
24632
24642
24623
24632
24642
24631
24631
24640
24626
24640
24639
24648
24623
24629
24642
24621
24629
24634
24631
24634
24621
24627
24629
24636
24643
24635
24638
24642
24652
24625
24637
24644
24630
24636
24639
24631
24632
24639
24620
24631
24647
24636
24657
24629
24650
24642
24642
24630
24627
24645
24629
24646
24640
24623
24638
24628
24655
24632
24629
24630
24642
24652
24629
24642
24643
24646
24630
24646
24641
24629
24632
24636
24644
24626
24626
24639
24639
24647
24623
24637
24635
24652
24626
24642
24637
24647
24628
24646
24647
24647
24629
24638
24640
24647
24628
24642
24638
24642
24623
24633
24636
24647
24627
24629
24640
24637
24647
24621
24635
24639
24638
24647
24627
24627
24638
24640
24627
24634
24639
24640
24653
24625
24628
24638
24647
24634
24638
24643
24638
24650
24635
24635
24645
24642
24631
24632
24639
24644
24625
24638
24640
24647
24630
24634
24639
24652
24651
24631
24647
24647
24658
24632
24643
24640
24645
24629
24630
24634
24641
24627
24639
24640
24639
24661
24631
24650
24652
24635
24639
24638
24647
24633
24629
24644
24636
24639
24629
24636
24632
24642
24628
24638
24641
24643
24636
24635
24643
24659
24635
24639
24651
24634
24639
24645
24628
24643
24628
24644
24642
24627
24636
24646
24635
24642
24646
24633
24649
24645
24630
24631
24639
24646
24630
24636
24643
24622
24631
24639
24644
24629
24639
24640
24626
24631
24644
24626
24642
24643
24630
24633
24647
24652
24635
24634
24631
24628
24639
24623
24636
24639
24623
24636
24625
24641
24643
24623
24636
24637
24647
24627
24628
24636
24610
24622
24631
24630
24635
24644
24623
24625
24632
24639
24653
24624
24637
24646
24631
24628
24642
24630
24631
24634
24637
24617
24620
24629
24635
24643
24622
24632
24631
24644
24628
24636
24638
24646
24628
24628
24635
24639
24618
24629
24624
24632
24618
24615
24631
24628
24642
24619
24636
24631
24621
24620
24629
24636
24624
24636
24633
24622
24629
24636
24620
24622
24636
24615
24631
24632
24614
24619
24628
24647
24615
24622
24636
24620
24628
24628
24631
24619
24630
24636
24615
24616
24625
24631
24609
24623
24631
24612
24617
24631
24615
24628
24634
24619
24630
24631
24613
24624
24624
24614
24616
24631
24609
24625
24611
24623
24622
24606
24614
24622
24630
24615
24628
24622
24614
24619
24623
24609
24623
24623
24609
24615
24615
24624
24611
24615
24616
24602
24615
24621
24612
24619
24621
24604
24610
24614
24615
24620
24624
24615
24614
24618
24606
24612
24617
24605
24613
24606
24619
24604
24612
24617
24635
24604
24623
24618
24604
24613
24613
24623
24606
24611
24620
24601
24606
24610
24614
24603
24612
24613
24617
24602
24608
24614
24629
24606
24617
24617
24606
24603
24611
24614
24598
24602
24615
24601
24606
24613
24598
24615
24615
24615
24605
24601
24613
24623
24599
24600
24609
24611
24596
24604
24606
24607
24594
24606
24609
24593
24602
24610
24618
24599
24607
24607
24591
24602
24606
24615
24603
24604
24615
24590
24604
24602
24600
24583
24599
24610
24583
24591
24596
24612
24591
24598
24604
24608
24593
24588
24601
24602
24583
24583
24597
24602
24583
24593
24590
24583
24583
24597
24582
24597
24596
24583
24596
24595
24612
24583
24597
24583
24587
24590
24591
24583
24591
24590
24580
24583
24597
24578
24599
24593
24579
24599
24599
24583
24591
24597
24580
24590
24599
24575
24589
24588
24598
24652
24569
24591
24594
24604
24628
24570
24577
24605
24607
24647
24570
24615
24615
24573
24591
24609
24710
24580
24596
24633
24578
24612
24613
24580
24582
24601
24598
24612
24589
24588
24593
24588
24590
24583
24583
24583
24581
24578
24574
24580
24575
24572
24579
24581
24573
24574
24576
24573
24575
24580
24582
24574
24577
24572
24568
24575
24575
24572
24566
24571
24574
24561
24577
24572
24574
24570
24574
24579
24574
24574
24575
24572
24567
24564
24567
24566
24566
24563
24566
24558
24569
24561
24567
24567
24562
24565
24561
24565
24572
24562
24563
24564
24558
24566
24567
24555
24560
24556
24566
24551
24567
24559
24558
24556
24561
24558
24558
24554
24566
24564
24571
24554
24561
24556
24547
24551
24559
24557
24551
24551
24551
24561
24569
24550
24557
24557
24561
24550
24559
24554
24554
24550
24549
24558
24550
24558
24553
24547
24542
24554
24559
24549
24550
24554
24554
24562
24548
24554
24548
24558
24570
24551
24551
24544
24551
24540
24540
24551
24550
24565
24543
24542
24550
24550
24559
24563
24540
24548
24551
24554
24552
24542
24549
24556
24562
24543
24542
24548
24546
24542
24551
24551
24562
24542
24554
24551
24542
24546
24553
24558
24545
24541
24548
24558
24537
24547
24551
24536
24539
24549
24563
24536
24544
24549
24543
24553
24554
24571
24542
24549
24551
24559
24540
24540
24549
24548
24533
24548
24547
24554
24538
24538
24543
24540
24535
24543
24559
24538
24550
24553
24563
24543
24542
24540
24549
24531
24532
24542
24550
24527
24535
24536
24548
24530
24536
24545
24564
24533
24544
24551
24531
24549
24555
24527
24543
24536
24555
24525
24545
24550
24538
24527
24532
24554
24533
24542
24565
24540
24545
24530
24537
24540
24554
24532
24543
24538
24546
24522
24533
24543
24534
24543
24526
24521
24538
24538
24542
24525
24528
24537
24540
24542
24548
24519
24525
24527
24529
24532
24535
24543
24522
24521
24528
24534
24542
24522
24529
24534
24537
24542
24521
24521
24532
24528
24541
24520
24525
24528
24512
24525
24527
24530
24519
24515
24530
24524
24529
24519
24525
24525
24530
24517
24526
24519
24490
24513
24513
24519
24523
24515
24506
24510
24519
24509
24511
24515
24516
24513
24509
24517
24519
24511
24511
24508
24519
24504
24506
24511
24510
24500
24507
24508
24503
24503
24511
24499
24503
24508
24508
24505
24502
24507
24501
24497
24507
24497
24494
24497
24500
24492
24487
24497
24490
24500
24500
24495
24500
24503
24497
24502
24501
24496
24486
24497
24498
24482
24494
24489
24489
24487
24492
24485
24487
24493
24500
24488
24486
24494
24488
24495
24492
24480
24486
24487
24475
24485
24484
24475
24475
24476
24484
24481
24480
24479
24486
24487
24474
24482
24487
24490
24467
24478
24479
24484
24469
24469
24479
24474
24490
24468
24475
24483
24466
24475
24478
24487
24471
24476
24479
24481
24474
24478
24470
24473
24487
24465
24478
24470
24474
24461
24466
24471
24478
24466
24459
24466
24477
24463
24468
24466
24476
24477
24459
24463
24468
24471
24455
24470
24460
24462
24459
24467
24461
24463
24452
24454
24465
24471
24457
24461
24469
24455
24457
24465
24475
24451
24463
24458
24459
24448
24448
24452
24461
24463
24453
24461
24460
24459
24469
24447
24461
24452
24455
24457
24440
24451
24449
24463
24441
24447
24448
24447
24440
24446
24453
24456
24439
24454
24452
24458
24440
24444
24451
24438
24441
24442
24461
24434
24441
24440
24457
24442
24445
24431
24439
24440
24445
24437
24442
24439
24447
24429
24430
24436
24447
24426
24427
24431
24434
24446
24429
24432
24439
24428
24430
24436
24443
24422
24438
24436
24436
24424
24424
24437
24436
24438
24414
24415
24422
24425
24431
24417
24428
24422
24436
24422
24428
24423
24430
24418
24431
24428
24408
24418
24410
24423
24412
24420
24422
24422
24408
24416
24429
24409
24420
24420
24429
24409
24424
24428
24428
24411
24414
24421
24423
24411
24422
24422
24402
24413
24420
24406
24406
24412
24415
24414
24413
24417
24415
24424
24407
24411
24421
24420
24397
24400
24407
24420
24404
24410
24415
24400
24411
24419
24401
24417
24417
24403
24410
24409
24423
24401
24412
24410
24395
24395
24406
24420
24396
24406
24407
24393
24403
24403
24413
24394
24404
24406
24414
24393
24403
24410
24390
24399
24403
24388
24404
24400
24423
24391
24397
24413
24390
24396
24405
24411
24390
24399
24402
24388
24395
24404
24386
24398
24401
24387
24388
24405
24381
24388
24399
24384
24388
24388
24403
24386
24391
24392
24407
24389
24391
24390
24399
24384
24389
24397
24397
24385
24391
24391
24398
24374
24383
24391
24399
24380
24388
24377
24388
24393
24408
24379
24388
24389
24408
24377
24385
24389
24373
24378
24380
24393
24372
24378
24382
24386
24394
24383
24383
24389
24404
24383
24382
24391
24379
24379
24385
24378
24380
24383
24388
24370
24380
24386
24389
24373
24383
24384
24388
24393
24372
24370
24380
24387
24387
24366
24374
24374
24381
24383
24363
24373
24373
24380
24386
24372
24372
24380
24380
24390
24367
24375
24371
24379
24385
24365
24371
24380
24356
24361
24362
24373
24391
24362
24368
24369
24377
24360
24371
24368
24354
24368
24376
24351
24359
24368
24348
24359
24369
24348
24364
24366
24356
24357
24359
24377
24354
24362
24364
24356
24359
24364
24368
24344
24359
24354
24363
24349
24348
24352
24359
24346
24343
24357
24356
24364
24347
24362
24360
24364
24347
24353
24348
24359
24365
24332
24338
24343
24348
24357
24339
24337
24349
24340
24338
24348
24353
24333
24341
24350
24349
24327
24334
24343
24347
24345
24327
24327
24336
24337
24345
24333
24335
24339
24343
24347
24328
24333
24341
24345
24348
24351
24327
24325
24328
24348
24350
24358
24314
24333
24339
24364
24316
24316
24358
24343
24372
24324
24325
24369
24359
24387
24327
24366
24353
24372
24325
24327
24359
24343
24356
24330
24332
24355
24351
24345
24354
24343
24336
24342
24339
24334
24329
24327
24326
24320
24326
24321
24321
24323
24320
24324
24325
24322
24322
24321
24325
24324
24325
24319
24326
24311
24318
24316
24323
24306
24315
24314
24316
24310
24311
24318
24324
24311
24312
24313
24309
24306
24316
24319
24304
24308
24309
24308
24303
24301
24309
24308
24295
24303
24303
24306
24313
24295
24300
24303
24309
24303
24302
24303
24314
24298
24309
24305
24295
24303
24298
24313
24290
24297
24300
24295
24301
24302
24303
24294
24294
24303
24305
24316
24294
24307
24294
24295
24311
24287
24292
24294
24298
24284
24290
24290
24299
24284
24294
24293
24295
24282
24290
24293
24292
24295
24279
24279
24287
24286
24296
24273
24282
24289
24292
24286
24282
24290
24292
24279
24284
24295
24297
24300
24281
24277
24289
24284
24294
24273
24287
24284
24292
24296
24277
24285
24287
24298
24273
24277
24291
24292
24268
24279
24281
24289
24303
24273
24287
24283
24287
24263
24285
24279
24269
24267
24276
24286
24271
24281
24285
24286
24268
24268
24281
24282
24283
24267
24277
24274
24266
24266
24285
24275
24279
24263
24278
24276
24295
24265
24273
24285
24294
24267
24275
24275
24285
24261
24262
24268
24271
24292
24262
24274
24273
24286
24264
24271
24276
24295
24263
24276
24278
24303
24263
24269
24276
24258
24262
24268
24278
24294
24255
24264
24276
24256
24271
24268
24282
24265
24269
24262
24279
24289
24260
24272
24271
24281
24255
24267
24262
24265
24275
24248
24253
24269
24265
24279
24259
24266
24275
24255
24263
24266
24279
24253
24262
24263
24286
24247
24263
24263
24266
24272
24246
24257
24265
24266
24279
24255
24263
24268
24255
24259
24261
24263
24245
24244
24255
24263
24279
24246
24256
24259
24258
24268
24247
24245
24257
24258
24257
24265
24246
24247
24252
24253
24260
24242
24255
24254
24251
24239
24247
24253
24249
24254
24244
24240
24253
24255
24255
24241
24255
24253
24242
24247
24245
24241
24236
24242
24244
24244
24236
24236
24239
24252
24239
24237
24242
24240
24250
24236
24247
24244
24242
24231
24231
24236
24240
24241
24239
24236
24241
24229
24229
24227
24241
24234
24239
24247
24231
24232
24242
24237
24241
24229
24226
24234
24230
24228
24231
24231
24235
24225
24231
24229
24235
24230
24231
24243
24237
24229
24233
24238
24245
24225
24228
24228
24229
24220
24223
24228
24231
24221
24228
24225
24230
24241
24228
24238
24238
24230
24221
24233
24236
24217
24220
24231
24231
24215
24224
24231
24228
24214
24223
24226
24235
24237
24227
24234
24238
24231
24231
24243
24221
24224
24229
24217
24229
24230
24228
24217
24215
24222
24228
24231
24218
24227
24229
24239
24223
24220
24231
24230
24239
24223
24225
24228
24231
24215
24212
24222
24227
24223
24215
24228
24224
24233
24217
24231
24230
24236
24219
24225
24230
24228
24218
24219
24226
24223
24214
24215
24228
24218
24236
24214
24226
24231
24222
24225
24231
24232
24230
24218
24214
24216
24231
24230
24237
24220
24218
24217
24233
24219
24222
24220
24231
24214
24227
24228
24232
24228
24220
24236
24231
24217
24222
24226
24229
24212
24215
24231
24217
24230
24212
24221
24224
24233
24215
24223
24226
24232
24220
24214
24234
24222
24229
24218
24214
24220
24223
24223
24212
24212
24225
24230
24228
24216
24218
24223
24234
24215
24220
24225
24228
24239
24216
24222
24226
24226
24235
24213
24214
24228
24222
24229
24218
24218
24222
24226
24236
24218
24221
24231
24228
24234
24232
24216
24214
24215
24222
24229
24246
24219
24225
24223
24229
24216
24215
24224
24218
24231
24231
24226
24241
24209
24214
24216
24222
24224
24229
24227
24212
24212
24217
24228
24227
24231
24215
24226
24229
24234
24217
24225
24230
24215
24227
24225
24212
24214
24220
24227
24236
24215
24231
24226
24215
24223
24220
24236
24222
24225
24232
24237
24214
24221
24226
24226
24240
24208
24223
24223
24239
24215
24228
24228
24231
24218
24231
24221
24235
24214
24231
24230
24233
24216
24220
24224
24229
24212
24220
24222
24223
24212
24213
24229
24228
24213
24227
24231
24236
24223
24229
24228
24193
24220
24225
24238
24213
24224
24229
24215
24223
24228
24244
24220
24226
24238
24218
24231
24235
24223
24231
24234
24228
24238
24217
24215
24222
24233
24214
24228
24228
24239
24216
24229
24231
24219
24214
24229
24234
24222
24228
24221
24235
24217
24215
24224
24231
24213
24215
24218
24228
24219
24225
24229
24216
24223
24229
24231
24217
24232
24229
24220
24224
24229
24214
24217
24223
24229
24231
24217
24228
24231
24220
24226
24237
24215
24233
24241
24227
24235
24231
24239
24226
24229
24228
24233
24217
24228
24231
24234
24214
24234
24233
24263
24220
24231
24251
24227
24238
24248
24218
24223
24238
24270
24212
24238
24244
24265
24225
24226
24261
24259
24289
24234
24244
24259
24284
24237
24266
24260
24280
24243
24248
24259
24254
24238
24244
24249
24250
24247
24244
24246
24238
24244
24240
24247
24247
24240
24246
24244
24244
24247
24241
24239
24241
24240
24236
24239
24239
24238
24239
24241
24240
24237
24246
24245
24236
24239
24244
24239
24244
24245
24244
24237
24239
24243
24247
24234
24230
24239
24241
24244
24255
24233
24245
24248
24254
24251
24242
24249
24239
24249
24245
24248
24240
24240
24244
24250
24238
24252
24246
24236
24233
24248
24252
24237
24241
24248
24254
24244
24247
24248
24248
24236
24241
24244
24244
24236
24239
24247
24249
24257
24244
24240
24252
24254
24241
24243
24255
24253
24228
24245
24241
24250
24241
24239
24249
24246
24228
24236
24247
24239
24254
24247
24235
24260
24245
24255
24262
24247
24245
24253
24246
24253
24254
24236
24242
24246
24252
24240
24244
24247
24254
24239
24249
24258
24262
24246
24248
24258
24260
24250
24260
24255
24263
24241
24247
24258
24268
24240
24255
24258
24257
24247
24254
24255
24263
24247
24248
24253
24258
24270
24242
24252
24260
24268
24239
24241
24252
24263
24251
24255
24260
24263
24249
24263
24262
24269
24250
24247
24257
24255
24266
24244
24244
24252
24260
24241
24249
24254
24255
24271
24245
24251
24258
24263
24284
24252
24260
24263
24266
24250
24252
24257
24266
24263
24252
24258
24256
24280
24245
24260
24260
24268
24244
24256
24256
24269
24249
24256
24258
24269
24282
24250
24256
24261
24263
24243
24245
24262
24260
24266
24244
24247
24256
24260
24271
24247
24254
24268
24270
24252
24259
24258
24266
24245
24262
24262
24268
24245
24257
24255
24269
24249
24262
24266
24253
24257
24261
24268
24253
24251
24257
24263
24240
24260
24256
24245
24247
24252
24276
24246
24260
24261
24274
24244
24252
24262
24273
24248
24249
24260
24239
24255
24255
24258
24238
24249
24255
24237
24240
24247
24236
24246
24252
24237
24246
24250
24236
24242
24244
24252
24237
24247
24247
24236
24234
24242
24239
24254
24231
24237
24242
24241
24247
24241
24240
24246
24244
24247
24240
24245
24244
24247
24215
24236
24242
24241
24235
24234
24240
24247
24241
24245
24243
24252
24253
24247
24250
24251
24245
24256
24254
24244
24247
24246
24250
24258
24251
24251
24252
24251
24250
24253
24260
24252
24257
24261
24259
24260
24254
24258
24259
24258
24250
24250
24260
24258
24263
24258
24249
24255
24258
24262
24252
24254
24261
24265
24257
24264
24267
24268
24271
24252
24263
24262
24254
24258
24257
24264
24252
24255
24267
24270
24252
24252
24263
24262
24282
24259
24269
24270
24254
24261
24262
24255
24255
24263
24266
24255
24257
24263
24261
24262
24263
24268
24262
24262
24266
24261
24266
24271
24256
24264
24271
24260
24266
24250
24268
24279
24261
24269
24260
24264
24270
24262
24271
24272
24276
24267
24265
24277
24265
24269
24275
24261
24268
24270
24263
24266
24266
24273
24266
24277
24276
24282
24271
24283
24284
24290
24271
24280
24276
24285
24267
24276
24275
24266
24264
24270
24274
24264
24264
24273
24282
24280
24270
24274
24277
24284
24286
24268
24275
24284
24278
24282
24291
24269
24271
24279
24278
24281
24268
24275
24282
24277
24283
24291
24271
24271
24277
24279
24285
24269
24278
24286
24271
24270
24276
24283
24269
24279
24280
24274
24279
24282
24293
24274
24282
24286
24271
24278
24276
24284
24271
24278
24263
24276
24279
24268
24272
24273
24281
24264
24272
24279
24289
24273
24276
24278
24290
24272
24284
24281
24281
24261
24279
24279
24282
24268
24282
24278
24254
24270
24285
24284
24276
24279
24282
24292
24273
24273
24284
24284
24293
24278
24279
24286
24277
24285
24285
24295
24273
24281
24281
24293
24268
24276
24292
24289
24294
24281
24284
24285
24288
24274
24279
24284
24293
24277
24279
24286
24289
24279
24280
24290
24298
24279
24284
24300
24287
24286
24304
24287
24289
24295
24271
24279
24279
24295
24279
24287
24295
24283
24282
24288
24294
24285
24284
24294
24292
24286
24288
24295
24292
24284
24288
24292
24276
24283
24287
24294
24301
24287
24298
24294
24302
24292
24293
24303
24285
24288
24290
24302
24308
24285
24287
24295
24284
24284
24288
24295
24287
24288
24293
24300
24319
24283
24293
24300
24300
24287
24295
24291
24290
24309
24284
24292
24294
24301
24277
24293
24293
24302
24286
24286
24299
24295
24286
24292
24296
24295
24318
24287
24292
24292
24300
24279
24277
24293
24301
24284
24292
24298
24286
24291
24297
24297
24288
24304
24303
24304
24288
24286
24297
24301
24288
24286
24296
24300
24302
24284
24295
24301
24301
24292
24292
24296
24303
24309
24293
24295
24300
24311
24284
24294
24294
24300
24286
24295
24303
24302
24302
24286
24295
24298
24302
24304
24293
24306
24306
24289
24294
24302
24300
24303
24308
24288
24295
24295
24298
24310
24293
24296
24307
24313
24295
24301
24303
24306
24318
24300
24303
24300
24311
24319
24289
24300
24303
24310
24292
24302
24315
24295
24301
24304
24313
24299
24309
24307
24317
24300
24301
24305
24306
24308
24293
24303
24311
24310
24296
24294
24311
24308
24322
24299
24315
24316
24335
24296
24313
24330
24292
24322
24322
24286
24308
24289
24322
24326
24388
24287
24308
24342
24289
24304
24319
24363
24294
24340
24334
24368
24294
24326
24319
24348
24300
24330
24333
24363
24303
24318
24327
24304
24311
24311
24311
24308
24315
24308
24306
24306
24306
24302
24310
24303
24301
24302
24304
24304
24301
24302
24303
24303
24303
24304
24306
24310
24302
24308
24309
24309
24308
24302
24301
24296
24300
24297
24302
24301
24308
24306
24305
24310
24308
24311
24306
24306
24306
24313
24310
24308
24304
24311
24306
24298
24301
24306
24308
24300
24305
24307
24303
24312
24303
24312
24310
24312
24308
24311
24309
24303
24302
24313
24309
24310
24285
24297
24298
24304
24305
24304
24321
24305
24307
24306
24313
24314
24303
24303
24309
24310
24311
24303
24310
24311
24293
24301
24305
24306
24297
24308
24311
24295
24307
24307
24314
24303
24301
24304
24308
24317
24292
24297
24303
24308
24294
24301
24299
24301
24297
24302
24304
24311
24303
24306
24314
24300
24308
24311
24303
24304
24315
24297
24302
24308
24311
24300
24311
24311
24299
24301
24310
24314
24302
24303
24314
24300
24311
24313
24319
24300
24300
24311
24298
24302
24310
24317
24300
24305
24310
24317
24303
24300
24314
24315
24313
24297
24306
24313
24314
24317
24297
24300
24313
24310
24298
24304
24304
24312
24295
24299
24308
24317
24300
24300
24310
24323
24308
24316
24313
24314
24300
24303
24308
24314
24300
24303
24309
24321
24324
24297
24308
24306
24313
24327
24306
24315
24313
24324
24307
24303
24308
24317
24318
24298
24309
24314
24287
24300
24312
24319
24325
24299
24309
24315
24322
24303
24306
24316
24319
24321
24300
24300
24311
24319
24303
24310
24311
24327
24300
24313
24315
24303
24306
24313
24319
24304
24309
24317
24324
24300
24306
24307
24311
24342
24301
24319
24308
24316
24325
24297
24305
24313
24327
24306
24327
24319
24306
24319
24313
24322
24303
24311
24318
24305
24303
24311
24314
24300
24303
24314
24318
24335
24308
24321
24316
24319
24300
24304
24311
24319
24317
24300
24308
24308
24310
24299
24298
24308
24316
24301
24305
24312
24310
24318
24305
24302
24308
24307
24300
24308
24311
24303
24314
24292
24302
24304
24300
24292
24292
24297
24303
24311
24293
24305
24311
24312
24298
24301
24299
24305
24310
24290
24297
24300
24301
24289
24294
24296
24301
24294
24293
24299
24302
24312
24292
24308
24304
24303
24293
24299
24295
24307
24289
24293
24295
24298
24292
24291
24295
24302
24311
24295
24303
24306
24305
24292
24296
24300
24303
24306
24317
24293
24302
24303
24309
24289
24293
24303
24305
24310
24292
24301
24303
24311
24301
24309
24296
24305
24304
24320
24295
24292
24303
24308
24289
24302
24303
24290
24297
24301
24305
24294
24303
24311
24317
24303
24310
24318
24318
24301
24311
24305
24297
24303
24311
24299
24303
24309
24313
24300
24306
24311
24315
24320
24305
24308
24310
24324
24312
24316
24308
24307
24311
24316
24319
24302
24309
24319
24318
24323
24308
24319
24321
24327
24317
24313
24327
24324
24343
24313
24326
24327
24308
24316
24318
24322
24314
24322
24327
24340
24315
24321
24335
24315
24323
24325
24335
24319
24324
24334
24318
24327
24316
24324
24329
24314
24326
24332
24319
24324
24333
24324
24325
24335
24341
24327
24335
24340
24323
24329
24319
24320
24332
24318
24325
24332
24348
24317
24329
24331
24333
24324
24338
24334
24326
24327
24332
24338
24316
24327
24329
24319
24326
24332
24327
24321
24327
24332
24319
24322
24333
24342
24324
24341
24337
24355
24327
24334
24343
24326
24327
24327
24337
24318
24324
24332
24335
24338
24318
24327
24334
24345
24326
24330
24333
24333
24343
24327
24326
24333
24335
24333
24344
24319
24324
24321
24340
24327
24324
24334
24336
24351
24329
24341
24340
24344
24326
24342
24340
24358
24325
24327
24331
24334
24342
24317
24324
24330
24336
24340
24336
24343
24327
24333
24339
24343
24344
24351
24327
24330
24332
24334
24341
24336
24345
24323
24325
24325
24340
24334
24344
24325
24323
24330
24343
24344
24341
24351
24329
24334
24332
24336
24340
24324
24326
24329
24335
24334
24338
24344
24327
24339
24348
24347
24331
24335
24348
24344
24351
24328
24338
24343
24344
24327
24326
24336
24349
24333
24336
24347
24330
24343
24344
24355
24339
24341
24350
24333
24343
24346
24353
24324
24346
24340
24327
24333
24340
24331
24343
24335
24357
24328
24342
24345
24333
24342
24350
24332
24343
24341
24354
24326
24335
24343
24325
24338
24338
24353
24328
24339
24345
24327
24334
24338
24342
24332
24338
24338
24345
24327
24335
24339
24344
24322
24326
24335
24340
24327
24332
24336
24345
24325
24327
24336
24349
24357
24325
24341
24341
24357
24327
24335
24335
24345
24324
24327
24334
24337
24323
24324
24326
24341
24327
24331
24342
24327
24336
24335
24338
24325
24332
24336
24344
24321
24327
24333
24336
24324
24332
24333
24342
24326
24335
24335
24338
24327
24328
24341
24336
24342
24326
24327
24333
24342
24323
24320
24334
24345
24319
24327
24335
24354
24311
24316
24348
24342
24369
24309
24313
24332
24357
24308
24312
24355
24345
24373
24315
24318
24324
24357
24336
24360
24372
24324
24344
24359
24328
24344
24348
24332
24330
24336
24331
24324
24325
24322
24319
24327
24324
24327
24327
24332
24335
24327
24333
24334
24329
24332
24324
24327
24319
24326
24327
24318
24316
24320
24323
24320
24318
24319
24323
24319
24320
24327
24324
24323
24324
24324
24326
24315
24319
24322
24316
24313
24320
24318
24312
24316
24317
24321
24327
24326
24318
24319
24326
24322
24326
24322
24326
24316
24322
24321
24316
24310
24317
24319
24311
24316
24319
24327
24314
24320
24322
24297
24319
24327
24327
24317
24316
24324
24312
24322
24316
24330
24309
24316
24326
24309
24311
24323
24321
24311
24321
24322
24325
24317
24317
24324
24324
24316
24313
24316
24320
24326
24312
24320
24305
24313
24321
24322
24326
24311
24313
24316
24326
24337
24311
24317
24322
24311
24316
24317
24336
24305
24314
24313
24325
24308
24312
24319
24327
24305
24314
24322
24317
24326
24337
24306
24322
24311
24321
24324
24307
24316
24317
24319
24303
24311
24311
24319
24305
24317
24325
24333
24304
24308
24321
24314
24310
24316
24327
24302
24315
24311
24323
24303
24302
24325
24306
24310
24316
24314
24305
24313
24314
24326
24303
24316
24323
24335
24300
24311
24318
24334
24300
24308
24310
24322
24302
24305
24314
24312
24327
24307
24303
24321
24324
24327
24308
24303
24308
24317
24332
24298
24303
24308
24323
24297
24298
24319
24313
24316
24323
24337
24300
24309
24316
24325
24348
24302
24301
24309
24316
24322
24336
24300
24294
24316
24313
24319
24327
24306
24298
24306
24319
24319
24320
24332
24299
24304
24311
24313
24344
24299
24297
24308
24314
24325
24299
24311
24308
24318
24303
24301
24324
24318
24322
24298
24313
24309
24337
24300
24310
24311
24295
24303
24309
24313
24294
24306
24317
24302
24313
24311
24314
24334
24296
24305
24309
24306
24312
24295
24302
24312
24295
24303
24294
24296
24308
24309
24298
24311
24310
24316
24301
24303
24311
24296
24295
24299
24296
24302
24302
24288
24289
24302
24297
24295
24304
24288
24295
24299
24308
24295
24296
24303
24297
24303
24301
24290
24295
24300
24291
24293
24293
24295
24292
24293
24294
24296
24287
24294
24299
24297
24300
24289
24294
24295
24292
24305
24284
24289
24294
24289
24282
24289
24289
24293
24303
24288
24291
24298
24301
24288
24296
24294
24287
24288
24295
24293
24303
24287
24290
24288
24281
24276
24282
24290
24291
24294
24295
24289
24286
24290
24295
24295
24292
24296
24294
24277
24279
24281
24279
24276
24279
24282
24289
24295
24274
24279
24281
24281
24289
24289
24288
24294
24277
24276
24282
24293
24287
24290
24272
24273
24287
24279
24285
24271
24270
24295
24287
24275
24272
24284
24285
24286
24289
24295
24271
24272
24272
24278
24279
24286
24286
24289
24271
24271
24274
24287
24283
24285
24272
24277
24287
24279
24283
24286
24295
24266
24274
24271
24276
24278
24279
24277
24269
24265
24267
24278
24281
24279
24281
24282
24270
24269
24269
24272
24276
24281
24284
24267
24267
24272
24277
24276
24289
24263
24269
24277
24281
24287
24267
24275
24271
24283
24269
24266
24274
24273
24276
24291
24263
24270
24270
24279
24276
24293
24261
24263
24271
24276
24272
24276
24260
24267
24263
24274
24264
24271
24281
24259
24260
24263
24268
24282
24256
24263
24275
24258
24262
24271
24277
24263
24261
24269
24271
24274
24257
24261
24268
24273
24273
24255
24255
24265
24263
24269
24276
24254
24263
24263
24274
24282
24260
24270
24270
24270
24259
24261
24262
24263
24268
24254
24254
24246
24265
24260
24268
24282
24255
24252
24252
24261
24261
24267
24268
24264
24274
24247
24254
24260
24261
24260
24261
24265
24268
24248
24255
24258
24263
24266
24253
24255
24267
24266
24252
24253
24260
24258
24261
24244
24254
24256
24257
24247
24250
24250
24263
24246
24254
24250
24262
24270
24249
24251
24260
24258
24262
24273
24241
24247
24252
24255
24260
24267
24246
24245
24256
24255
24263
24270
24252
24261
24254
24263
24251
24246
24259
24256
24258
24239
24249
24249
24252
24255
24263
24241
24244
24253
24254
24258
24254
24248
24241
24255
24254
24259
24260
24255
24246
24243
24245
24246
24260
24272
24248
24255
24266
24243
24258
24252
24256
24265
24241
24244
24252
24250
24249
24258
24244
24238
24254
24251
24255
24233
24241
24252
24254
24252
24239
24241
24247
24255
24253
24230
24237
24247
24244
24247
24247
24257
24231
24239
24249
24238
24246
24253
24254
24235
24238
24237
24239
24250
24244
24255
24250
24238
24234
24243
24241
24249
24263
24231
24238
24243
24247
24229
24237
24245
24241
24252
24229
24236
24246
24245
24250
24230
24233
24241
24232
24238
24255
24221
24234
24233
24239
24243
24246
24230
24229
24234
24237
24244
24256
24231
24236
24236
24242
24223
24223
24239
24231
24236
24244
24217
24226
24228
24229
24234
24219
24224
24230
24233
24234
24239
24241
24225
24226
24234
24232
24230
24239
24225
24223
24233
24231
24234
24223
24224
24228
24237
24252
24223
24231
24247
24221
24221
24236
24234
24244
24267
24207
24207
24210
24223
24240
24262
24205
24205
24214
24257
24247
24279
24212
24238
24254
24275
24222
24220
24229
24252
24239
24246
24276
24226
24239
24239
24228
24237
24232
24228
24236
24230
24228
24230
24226
24230
24229
24226
24226
24222
24223
24226
24215
24218
24223
24220
24227
24217
24217
24225
24225
24223
24224
24221
24228
24235
24218
24218
24216
24217
24222
24226
24178
24211
24217
24221
24220
24221
24214
24213
24225
24225
24226
24218
24214
24222
24215
24221
24209
24217
24219
24220
24209
24208
24216
24212
24228
24209
24214
24220
24223
24226
24211
24210
24225
24218
24217
24219
24222
24207
24204
24204
24215
24211
24214
24219
24193
24206
24211
24215
24216
24221
24212
24206
24207
24215
24223
24215
24223
24199
24199
24207
24203
24212
24213
24231
24199
24204
24212
24216
24227
24204
24206
24215
24213
24222
24199
24203
24213
24210
24212
24225
24199
24207
24204
24209
24217
24223
24199
24198
24199
24208
24204
24208
24213
24221
24191
24197
24199
24215
24211
24220
24196
24200
24200
24212
24196
24208
24207
24220
24197
24207
24211
24199
24199
24210
24212
24196
24201
24206
24195
24199
24194
24204
24190
24191
24198
24199
24206
24194
24196
24196
24204
24201
24208
24196
24191
24196
24207
24191
24183
24197
24190
24199
24201
24189
24191
24199
24196
24204
24207
24205
24222
24188
24189
24196
24197
24213
24183
24193
24194
24198
24215
24181
24183
24195
24195
24198
24220
24183
24183
24194
24197
24200
24197
24204
24180
24187
24183
24194
24185
24192
24196
24216
24178
24189
24196
24187
24199
24205
24207
24180
24183
24183
24190
24193
24196
24198
24201
24210
24180
24173
24181
24192
24191
24198
24181
24189
24196
24216
24183
24195
24198
24199
24198
24202
24180
24180
24180
24194
24190
24197
24202
24174
24190
24191
24197
24205
24175
24178
24178
24196
24184
24193
24196
24173
24178
24178
24183
24178
24187
24198
24172
24172
24178
24180
24186
24202
24175
24188
24191
24196
24182
24187
24183
24187
24180
24180
24188
24187
24173
24180
24180
24183
24172
24180
24180
24180
24176
24174
24178
24180
24185
24181
24179
24169
24180
24183
24183
24183
24174
24169
24170
24173
24181
24166
24178
24175
24177
24170
24169
24175
24183
24173
24175
24167
24164
24177
24175
24177
24180
24163
24169
24167
24174
24173
24167
24164
24167
24169
24167
24165
24172
24170
24174
24181
24160
24164
24167
24174
24164
24164
24159
24167
24176
24161
24172
24172
24175
24166
24167
24171
24172
24183
24163
24166
24167
24167
24165
24177
24157
24159
24164
24161
24166
24170
24175
24156
24164
24165
24173
24167
24159
24158
24153
24164
24164
24167
24159
24151
24163
24158
24165
24159
24151
24156
24162
24159
24166
24167
24153
24155
24159
24165
24165
24165
24156
24156
24156
24161
24148
24150
24165
24158
24158
24146
24150
24159
24167
24153
24153
24157
24165
24150
24155
24161
24156
24165
24146
24143
24151
24159
24159
24148
24146
24156
24159
24163
24151
24152
24163
24165
24148
24150
24156
24167
24150
24144
24150
24161
24150
24155
24165
24148
24156
24162
24149
24149
24154
24160
24144
24159
24161
24170
24151
24157
24162
24145
24145
24151
24157
24149
24155
24151
24141
24151
24158
24165
24151
24160
24166
24148
24151
24156
24158
24167
24147
24154
24149
24153
24172
24138
24155
24153
24159
24143
24150
24157
24166
24149
24153
24167
24150
24158
24159
24164
24145
24151
24158
24158
24147
24147
24157
24157
24142
24146
24156
24160
24151
24149
24163
24155
24152
24162
24151
24156
24162
24161
24147
24158
24162
24161
24144
24161
24162
24151
24156
24161
24148
24161
24161
24156
24163
24165
24170
24151
24156
24160
24172
24152
24166
24166
24149
24167
24166
24153
24149
24161
24173
24157
24159
24165
24171
24156
24164
24164
24171
24150
24165
24164
24167
24151
24161
24161
24175
24155
24165
24166
24172
24159
24170
24165
24158
24159
24167
24152
24150
24159
24167
24151
24156
24163
24164
24149
24165
24165
24154
24164
24164
24176
24159
24167
24172
24170
24157
24164
24172
24154
24156
24164
24173
24150
24167
24162
24172
24156
24169
24171
24172
24158
24163
24171
24173
24159
24159
24167
24164
24180
24156
24161
24156
24172
24151
24164
24167
24153
24169
24160
24173
24162
24172
24170
24157
24157
24164
24164
24179
24151
24166
24164
24170
24153
24167
24167
24153
24159
24167
24164
24169
24157
24163
24164
24167
24169
24170
24170
24161
24162
24165
24165
24175
24159
24164
24167
24166
24189
24152
24164
24172
24166
24166
24173
24175
24165
24173
24172
24175
24159
24168
24172
24161
24163
24175
24172
24184
24164
24160
24178
24188
24160
24168
24182
24200
24158
24162
24198
24183
24207
24162
24172
24177
24204
24165
24170
24192
24210
24164
24172
24200
24190
24209
24175
24189
24199
24206
24184
24194
24191
24183
24182
24179
24178
24181
24187
24180
24180
24181
24181
24183
24183
24180
24177
24187
24177
24182
24180
24178
24185
24180
24181
24180
24174
24178
24181
24182
24175
24176
24175
24188
24190
24183
24180
24188
24184
24187
24185
24181
24171
24180
24185
24191
24179
24182
24187
24182
24183
24186
24181
24180
24192
24193
24180
24189
24193
24186
24190
24175
24183
24183
24190
24182
24177
24181
24180
24183
24186
24191
24185
24191
24191
24197
24190
24185
24192
24185
24187
24193
24190
24192
24177
24180
24190
24191
24191
24184
24190
24192
24200
24189
24198
24198
24190
24194
24198
24204
24186
24186
24193
24198
24203
24180
24193
24199
24191
24191
24189
24196
24199
24212
24196
24204
24200
24209
24193
24194
24205
24199
24202
24212
24192
24196
24199
24207
24191
24196
24201
24195
24199
24203
24209
24199
24211
24204
24212
24193
24196
24203
24213
24188
24199
24203
24205
24189
24199
24212
24196
24212
24208
24224
24198
24203
24213
24198
24199
24207
24216
24198
24206
24202
24206
24196
24196
24200
24210
24219
24197
24212
24218
24204
24202
24212
24214
24219
24202
24206
24212
24215
24215
24198
24200
24212
24210
24217
24207
24201
24215
24218
24213
24228
24204
24211
24214
24225
24241
24209
24214
24213
24223
24233
24203
24208
24225
24204
24212
24218
24222
24229
24209
24207
24215
24223
24226
24223
24235
24212
24211
24223
24223
24222
24218
24228
24209
24212
24223
24218
24229
24212
24215
24216
24229
24237
24213
24216
24227
24234
24212
24213
24229
24228
24230
24207
24210
24224
24231
24215
24222
24229
24239
24215
24225
24229
24237
24244
24220
24226
24229
24236
24251
24210
24226
24228
24231
24231
24238
24219
24223
24228
24236
24220
24228
24231
24240
24255
24225
24231
24253
24223
24225
24237
24223
24222
24228
24236
24219
24220
24231
24235
24229
24225
24231
24231
24232
24223
24231
24230
24229
24221
24229
24228
24228
24217
24227
24230
24232
24218
24225
24226
24233
24239
24223
24231
24231
24234
24223
24221
24231
24223
24229
24235
24216
24216
24218
24222
24210
24221
24223
24230
24215
24218
24222
24226
24218
24216
24223
24229
24226
24226
24213
24213
24208
24218
24202
24206
24211
24213
24206
24206
24220
24223
24229
24209
24215
24219
24204
24211
24219
24214
24207
24202
24215
24209
24223
24199
24201
24215
24206
24212
24223
24205
24205
24205
24209
24217
24203
24204
24209
24214
24196
24199
24201
24188
24196
24195
24202
24193
24197
24199
24203
24197
24199
24203
24198
24202
24206
24187
24197
24197
24204
24188
24199
24198
24188
24188
24193
24200
24191
24198
24200
24200
24196
24197
24197
24197
24206
24195
24186
24193
24195
24192
24194
24197
24183
24185
24193
24190
24199
24188
24199
24199
24204
24189
24194
24199
24180
24193
24189
24185
24183
24193
24191
24198
24181
24186
24189
24196
24193
24185
24182
24197
24190
24197
24190
24194
24191
24199
24181
24183
24197
24194
24194
24194
24182
24186
24182
24181
24187
24191
24196
24202
24185
24186
24194
24197
24199
24185
24191
24188
24195
24183
24185
24189
24196
24198
24183
24188
24193
24199
24187
24196
24196
24199
24182
24191
24195
24195
24178
24191
24191
24196
24194
24181
24191
24183
24194
24199
24180
24189
24190
24199
24188
24196
24199
24183
24194
24194
24192
24203
24187
24193
24199
24206
24181
24193
24199
24183
24194
24199
24190
24190
24194
24205
24208
24188
24202
24198
24199
24188
24185
24196
24198
24200
24200
24189
24190
24199
24199
24207
24191
24199
24204
24206
24197
24202
24199
24212
24191
24197
24203
24202
24214
24184
24194
24202
24204
24209
24196
24202
24212
24212
24202
24205
24208
24217
24228
24201
24207
24210
24212
24199
24206
24213
24212
24199
24199
24210
24212
24220
24206
24212
24212
24216
24205
24206
24223
24209
24228
24207
24209
24221
24203
24212
24213
24226
24205
24211
24214
24207
24209
24218
24226
24231
24212
24216
24221
24210
24219
24217
24226
24209
24213
24217
24223
24236
24210
24218
24220
24229
24212
24222
24223
24230
24223
24212
24228
24222
24229
24228
24215
24212
24218
24224
24194
24214
24227
24222
24231
24217
24227
24224
24230
24217
24220
24220
24228
24228
24216
24217
24218
24230
24215
24221
24226
24231
24212
24224
24230
24218
24219
24223
24238
24218
24227
24234
24240
24217
24223
24231
24215
24227
24214
24226
24228
24215
24223
24222
24230
24247
24221
24231
24230
24234
24217
24228
24231
24238
24217
24228
24228
24230
24216
24220
24222
24226
24222
24222
24227
24241
24223
24229
24223
24229
24229
24235
24223
24230
24224
24230
24241
24225
24231
24234
24220
24230
24230
24242
24220
24234
24247
24224
24228
24241
24252
24222
24224
24238
24237
24254
24219
24213
24246
24245
24268
24213
24257
24244
24268
24211
24231
24244
24265
24345
24237
24270
24257
24274
24231
24262
24260
24230
24258
24249
24255
24250
24233
24238
24241
24242
24237
24242
24240
24239
24244
24236
24242
24231
24231
24231
24229
24232
24231
24234
24230
24224
24231
24228
24230
24226
24230
24230
24231
24232
24238
24237
24236
24230
24231
24224
24231
24225
24224
24235
24231
24228
24234
24234
24231
24224
24228
24235
24233
24229
24239
24231
24229
24226
24231
24230
24229
24229
24230
24231
24226
24230
24228
24229
24224
24230
24230
24237
24229
24234
24231
24232
24231
24229
24229
24236
24219
24229
24225
24228
24219
24220
24231
24231
24231
24242
24228
24238
24237
24236
24225
24224
24230
24229
24233
24227
24229
24229
24229
24215
24228
24231
24236
24222
24231
24234
24232
24239
24241
24228
24239
24230
24238
24243
24226
24223
24224
24226
24230
24238
24220
24225
24229
24236
24223
24225
24232
24238
24225
24231
24238
24226
24226
24225
24231
24229
24236
24230
24242
24228
24222
24223
24230
24227
24241
24243
24231
24227
24229
24226
24231
24231
24234
24233
24239
24238
24245
24220
24231
24226
24241
24228
24236
24236
24238
24226
24228
24235
24239
24228
24227
24237
24239
24241
24223
24225
24231
24234
24230
24238
24220
24223
24223
24228
24237
24236
24243
24221
24229
24243
24236
24239
24227
24226
24230
24239
24223
24220
24231
24234
24238
24207
24226
24236
24230
24234
24245
24225
24231
24235
24241
24231
24225
24239
24231
24234
24216
24224
24239
24230
24231
24236
24214
24227
24231
24242
24222
24225
24239
24235
24241
24216
24226
24231
24226
24236
24194
24215
24226
24229
24230
24236
24220
24217
24228
24236
24231
24240
24249
24221
24220
24238
24238
24243
24223
24212
24229
24231
24231
24235
24230
24236
24246
24213
24219
24219
24236
24231
24236
24220
24224
24231
24229
24235
24236
24217
24212
24225
24231
24239
24221
24226
24218
24222
24236
24216
24229
24232
24205
24217
24231
24230
24231
24213
24222
24227
24223
24222
24214
24223
24222
24221
24210
24215
24218
24231
24214
24215
24223
24223
24209
24217
24223
24220
24197
24206
24217
24223
24210
24217
24215
24210
24222
24216
24207
24220
24218
24211
24217
24220
24212
24214
24218
24209
24211
24215
24216
24205
24211
24209
24213
24220
24199
24212
24209
24217
24205
24210
24215
24214
24207
24214
24207
24226
24201
24202
24211
24210
24196
24202
24206
24213
24196
24210
24207
24214
24202
24209
24214
24198
24199
24209
24204
24212
24208
24196
24198
24196
24205
24192
24194
24199
24207
24198
24199
24207
24212
24194
24203
24215
24195
24201
24202
24194
24196
24199
24206
24193
24202
24196
24198
24190
24190
24196
24194
24200
24208
24193
24199
24202
24188
24188
24195
24199
24206
24189
24189
24194
24188
24194
24199
24176
24183
24191
24196
24188
24187
24195
24193
24199
24183
24173
24197
24192
24196
24183
24180
24193
24190
24175
24185
24185
24194
24181
24188
24188
24204
24182
24188
24191
24205
24180
24185
24188
24197
24175
24191
24182
24188
24171
24177
24182
24183
24167
24175
24176
24188
24184
24190
24198
24178
24172
24178
24189
24186
24190
24167
24165
24175
24183
24165
24172
24180
24192
24173
24178
24191
24172
24181
24177
24184
24167
24171
24172
24180
24156
24167
24172
24173
24180
24163
24168
24175
24186
24161
24171
24170
24175
24177
24156
24164
24167
24173
24168
24171
24173
24172
24156
24159
24167
24175
24153
24166
24167
24188
24158
24162
24167
24167
24156
24157
24172
24168
24183
24152
24163
24161
24162
24153
24151
24159
24159
24166
24181
24156
24163
24163
24166
24172
24158
24164
24156
24171
24155
24149
24161
24161
24175
24146
24153
24164
24175
24140
24157
24164
24177
24149
24144
24150
24164
24159
24164
24120
24144
24156
24146
24152
24153
24156
24156
24159
24142
24136
24147
24155
24150
24164
24162
24145
24150
24146
24153
24159
24143
24140
24155
24148
24161
24137
24146
24143
24153
24157
24142
24141
24148
24154
24153
24174
24140
24155
24151
24150
24168
24132
24136
24145
24146
24146
24156
24128
24146
24145
24149
24135
24140
24138
24143
24151
24159
24134
24133
24135
24140
24145
24146
24130
24132
24135
24143
24148
24130
24134
24145
24141
24144
24158
24135
24135
24140
24140
24138
24138
24132
24130
24135
24136
24139
24148
24124
24125
24126
24135
24135
24143
24142
24130
24127
24135
24140
24148
24129
24126
24134
24139
24125
24122
24130
24133
24139
24089
24124
24124
24132
24134
24139
24125
24124
24121
24140
24132
24132
24136
24149
24123
24119
24126
24116
24130
24132
24146
24114
24122
24134
24125
24135
24138
24124
24124
24127
24135
24139
24115
24117
24130
24126
24125
24132
24113
24111
24118
24126
24124
24124
24135
24137
24116
24111
24122
24121
24129
24116
24112
24116
24127
24115
24129
24132
24110
24113
24116
24134
24106
24117
24123
24130
24115
24119
24119
24130
24109
24121
24120
24129
24095
24108
24115
24127
24105
24104
24112
24111
24119
24122
24105
24109
24111
24121
24116
24125
24124
24111
24110
24117
24116
24119
24119
24132
24102
24103
24109
24112
24112
24112
24123
24098
24102
24100
24111
24117
24124
24100
24100
24113
24110
24111
24119
24100
24100
24107
24103
24114
24099
24103
24100
24109
24119
24101
24107
24111
24117
24098
24100
24105
24109
24088
24100
24103
24108
24088
24100
24103
24088
24091
24100
24108
24093
24108
24113
24095
24094
24102
24105
24089
24085
24094
24099
24116
24084
24095
24096
24097
24103
24090
24086
24098
24101
24084
24097
24105
24084
24097
24108
24085
24091
24093
24095
24096
24110
24080
24095
24092
24100
24101
24082
24087
24092
24101
24111
24077
24085
24086
24100
24078
24083
24095
24092
24097
24097
24077
24080
24084
24087
24092
24091
24095
24079
24090
24093
24098
24114
24074
24090
24095
24105
24071
24071
24102
24097
24121
24067
24093
24090
24124
24060
24096
24098
24119
24069
24081
24100
24118
24071
24087
24100
24119
24077
24071
24119
24114
24151
24074
24101
24104
24127
24084
24095
24101
24087
24087
24088
24092
24092
24087
24090
24085
24077
24084
24085
24078
24084
24084
24082
24079
24080
24083
24079
24087
24084
24078
24081
24076
24079
24082
24081
24071
24071
24071
24071
24076
24076
24071
24071
24076
24081
24091
24079
24084
24075
24071
24082
24078
24070
24079
24079
24076
24071
24069
24068
24070
24080
24071
24069
24070
24083
24076
24071
24071
24079
24071
24071
24077
24076
24071
24071
24071
24082
24070
24064
24069
24078
24071
24071
24079
24081
24083
24071
24071
24071
24071
24081
24076
24081
24064
24065
24068
24071
24071
24071
24066
24066
24071
24071
24079
24067
24071
24079
24079
24086
24071
24079
24071
24071
24070
24069
24070
24068
24071
24076
24071
24061
24061
24071
24076
24063
24067
24071
24079
24067
24071
24071
24071
24061
24066
24069
24071
24082
24059
24071
24068
24071
24071
24060
24066
24069
24079
24084
24063
24070
24071
24070
24079
24068
24063
24064
24068
24071
24076
24092
24059
24067
24063
24077
24079
24065
24065
24071
24084
24094
24068
24070
24078
24098
24065
24071
24077
24090
24060
24071
24071
24085
24059
24071
24078
24063
24065
24062
24068
24071
24080
24097
24066
24071
24084
24061
24059
24069
24071
24071
24090
24055
24054
24071
24069
24071
24084
24063
24071
24079
24081
24079
24067
24071
24071
24084
24059
24068
24071
24071
24080
24058
24070
24071
24077
24087
24063
24064
24071
24086
24071
24064
24079
24079
24084
24101
24060
24068
24071
24079
24091
24063
24071
24083
24066
24068
24079
24084
24092
24066
24067
24076
24081
24074
24087
24113
24068
24065
24082
24077
24078
24087
24090
24097
24067
24067
24082
24086
24084
24092
24055
24065
24087
24071
24081
24092
24063
24069
24068
24071
24089
24087
24071
24067
24079
24078
24086
24071
24070
24082
24082
24086
24092
24069
24074
24078
24084
24071
24085
24093
24069
24071
24087
24087
24085
24087
24107
24075
24080
24084
24080
24088
24095
24075
24078
24071
24084
24085
24085
24071
24076
24082
24090
24071
24079
24081
24101
24080
24084
24087
24087
24100
24079
24081
24084
24085
24086
24097
24074
24081
24084
24083
24088
24080
24076
24082
24089
24092
24102
24079
24086
24090
24092
24090
24094
24093
24083
24079
24082
24084
24095
24082
24085
24095
24087
24080
24090
24095
24095
24095
24099
24087
24094
24089
24091
24091
24097
24085
24085
24092
24092
24093
24108
24086
24098
24103
24103
24092
24095
24100
24103
24092
24098
24100
24102
24084
24089
24092
24095
24099
24097
24111
24090
24102
24103
24108
24095
24101
24111
24105
24106
24111
24100
24100
24103
24107
24118
24095
24100
24100
24111
24094
24100
24102
24105
24116
24100
24105
24112
24123
24106
24111
24111
24116
24106
24105
24116
24115
24114
24103
24115
24127
24111
24113
24125
24105
24116
24121
24122
24138
24108
24111
24124
24113
24117
24108
24119
24117
24079
24113
24119
24130
24113
24116
24127
24123
24132
24116
24125
24130
24137
24117
24128
24131
24120
24125
24129
24148
24119
24126
24130
24156
24121
24134
24133
24131
24128
24143
24141
24125
24137
24141
24101
24129
24133
24145
24123
24134
24141
24132
24132
24136
24154
24133
24141
24148
24137
24133
24151
24148
24125
24132
24149
24148
24139
24138
24143
24151
24135
24142
24149
24162
24138
24145
24154
24143
24157
24159
24147
24157
24163
24143
24153
24158
24144
24164
24159
24145
24148
24158
24148
24152
24159
24164
24151
24167
24164
24173
24156
24166
24165
24180
24159
24157
24164
24170
24173
24154
24167
24164
24171
24159
24160
24165
24175
24162
24166
24169
24180
24169
24167
24177
24187
24163
24175
24173
24164
24169
24173
24189
24164
24175
24185
24167
24178
24182
24204
24176
24184
24190
24178
24191
24191
24204
24177
24188
24189
24194
24173
24199
24191
24178
24188
24187
24197
24182
24198
24195
24201
24190
24201
24201
24213
24188
24204
24204
24193
24190
24195
24199
24215
24194
24206
24205
24213
24191
24212
24215
24201
24208
24199
24220
24204
24214
24215
24224
24206
24204
24207
24221
24207
24208
24217
24231
24210
24222
24226
24242
24217
24225
24231
24215
24228
24237
24233
24215
24226
24223
24233
24218
24225
24231
24218
24234
24235
24227
24238
24239
24229
24234
24245
24231
24231
24232
24244
24226
24233
24239
24231
24231
24241
24245
24269
24239
24244
24255
24235
24241
24256
24254
24258
24240
24261
24255
24258
24241
24257
24255
24267
24242
24257
24262
24241
24250
24261
24263
24275
24256
24274
24268
24271
24260
24262
24264
24270
24262
24260
24267
24274
24277
24257
24275
24273
24278
24292
24264
24277
24282
24280
24287
24297
24275
24282
24281
24291
24297
24274
24277
24291
24294
24289
24278
24290
24306
24280
24289
24297
24309
24285
24293
24298
24303
24286
24287
24303
24262
24290
24301
24309
24294
24306
24308
24293
24299
24303
24310
24293
24297
24311
24304
24317
24316
24298
24314
24303
24311
24321
24307
24314
24313
24325
24305
24310
24319
24331
24315
24318
24327
24337
24319
24326
24327
24333
24320
24328
24327
24335
24319
24323
24333
24332
24343
24322
24327
24335
24340
24349
24338
24341
24348
24357
24337
24336
24343
24352
24354
24343
24336
24343
24353
24355
24358
24343
24349
24357
24359
24363
24350
24352
24359
24361
24365
24371
24357
24358
24364
24368
24357
24356
24370
24375
24358
24369
24372
24378
24364
24371
24380
24386
24390
24371
24375
24384
24381
24388
24370
24377
24390
24375
24381
24385
24388
24381
24383
24388
24395
24395
24410
24387
24394
24398
24398
24416
24391
24398
24404
24400
24394
24399
24408
24424
24396
24404
24412
24420
24398
24412
24422
24404
24409
24413
24427
24409
24420
24423
24410
24408
24419
24425
24431
24413
24414
24426
24431
24435
24425
24436
24439
24455
24429
24436
24439
24440
24430
24437
24438
24437
24448
24431
24433
24440
24431
24432
24449
24449
24438
24444
24442
24458
24442
24448
24454
24455
24465
24442
24452
24454
24463
24444
24451
24455
24454
24465
24450
24470
24469
24468
24479
24459
24465
24460
24478
24460
24461
24467
24468
24478
24463
24468
24467
24471
24478
24465
24477
24480
24487
24476
24480
24492
24486
24493
24484
24480
24491
24495
24495
24485
24487
24491
24495
24487
24491
24497
24508
24492
24503
24506
24516
24500
24512
24520
24532
24500
24519
24516
24536
24493
24522
24517
24552
24494
24511
24522
24540
24506
24512
24532
24567
24509
24511
24556
24548
24570
24514
24516
24551
24554
24609
24523
24550
24546
24553
24534
24543
24550
24549
24544
24550
24546
24544
24549
24548
24548
24550
24553
24550
24550
24544
24543
24548
24550
24551
24549
24557
24558
24553
24559
24559
24564
24560
24564
24566
24561
24564
24564
24559
24559
24565
24562
24564
24561
24575
24567
24572
24573
24581
24581
24576
24579
24583
24583
24588
24582
24583
24583
24580
24583
24591
24575
24583
24583
24583
24581
24584
24590
24591
24593
24599
24598
24598
24593
24596
24599
24592
24596
24595
24605
24599
24604
24604
24596
24604
24610
24607
24607
24613
24614
24622
24614
24615
24623
24622
24615
24607
24614
24619
24620
24628
24615
24618
24623
24618
24620
24631
24631
24636
24629
24628
24639
24631
24634
24637
24637
24629
24631
24631
24640
24629
24631
24635
24647
24601
24639
24645
24639
24647
24644
24645
24650
24654
24652
24647
24647
24652
24659
24647
24653
24658
24663
24655
24652
24661
24665
24654
24652
24666
24678
24661
24675
24678
24676
24663
24665
24676
24669
24665
24671
24671
24666
24677
24668
24664
24676
24670
24688
24675
24690
24687
24700
24681
24682
24692
24683
24687
24693
24677
24692
24691
24696
24687
24691
24702
24684
24690
24695
24705
24709
24709
24698
24706
24706
24711
24695
24702
24709
24723
24700
24709
24714
24701
24708
24708
24721
24710
24711
24721
24738
24715
24718
24719
24727
24713
24734
24730
24714
24711
24726
24733
24711
24732
24737
24717
24727
24734
24746
24724
24733
24740
24735
24741
24743
24751
24735
24740
24753
24732
24740
24751
24740
24740
24743
24750
24764
24744
24751
24759
24767
24750
24769
24760
24753
24758
24767
24759
24763
24749
24751
24767
24775
24753
24762
24772
24755
24770
24777
24776
24789
24772
24772
24775
24767
24770
24769
24771
24781
24784
24767
24780
24783
24770
24775
24786
24784
24775
24782
24786
24789
24776
24791
24791
24774
24777
24790
24791
24781
24788
24795
24783
24793
24794
24789
24789
24806
24787
24800
24797
24790
24796
24806
24794
24796
24805
24805
24795
24799
24798
24798
24799
24793
24805
24807
24805
24795
24802
24811
24811
24806
24805
24808
24814
24815
24812
24811
24812
24813
24819
24809
24815
24809
24819
24825
24815
24816
24817
24822
24819
24818
24820
24826
24834
24822
24819
24822
24822
24831
24815
24820
24822
24827
24834
24828
24820
24830
24837
24828
24831
24837
24839
24832
24844
24839
24843
24829
24837
24838
24846
24831
24836
24842
24847
24826
24839
24842
24849
24839
24847
24855
24858
24848
24855
24856
24852
24854
24853
24854
24842
24847
24847
24843
24849
24853
24864
24848
24860
24857
24847
24862
24862
24853
24861
24862
24864
24855
24860
24868
24862
24870
24862
24860
24866
24857
24863
24864
24865
24863
24869
24877
24869
24870
24879
24866
24871
24871
24884
24868
24870
24875
24871
24875
24874
24870
24872
24879
24884
24870
24885
24887
24885
24878
24887
24892
24895
24877
24879
24879
24892
24898
24881
24887
24882
24889
24883
24879
24887
24895
24880
24893
24892
24903
24889
24895
24899
24893
24895
24892
24901
24903
24891
24895
24895
24905
24892
24897
24912
24892
24900
24909
24897
24906
24902
24917
24900
24901
24907
24909
24902
24897
24902
24908
24900
24903
24902
24913
24902
24903
24911
24913
24907
24903
24911
24916
24900
24910
24916
24916
24902
24905
24913
24911
24917
24931
24905
24903
24913
24911
24917
24912
24914
24918
24929
24914
24911
24922
24923
24925
24914
24916
24924
24921
24926
24918
24921
24935
24919
24933
24935
24940
24923
24926
24932
24930
24930
24935
24932
24916
24932
24932
24922
24918
24928
24937
24922
24927
24926
24938
24948
24926
24935
24947
24959
24933
24929
24939
24934
24948
24929
24929
24939
24929
24935
24935
24946
24930
24935
24941
24943
24934
24937
24944
24948
24937
24934
24938
24940
24943
24947
24935
24931
24940
24946
24950
24932
24935
24945
24951
24945
24940
24945
24948
24950
24959
24934
24936
24949
24945
24960
24934
24940
24949
24948
24955
24964
24945
24948
24951
24951
24954
24959
24957
24949
24943
24948
24951
24956
24947
24944
24949
24956
24970
24943
24951
24955
24951
24956
24957
24960
24945
24950
24957
24964
24971
24953
24965
24959
24967
24947
24951
24959
24961
24949
24955
24954
24965
24975
24951
24963
24961
24969
24956
24967
24967
24971
24970
24956
24957
24967
24967
24962
24950
24953
24965
24963
24970
24959
24965
24970
24977
24988
24967
24969
24975
24978
24960
24967
24975
24978
24983
24963
24966
24970
24972
24985
24967
24980
24977
24992
24967
24977
24983
24988
24973
24973
24977
24979
24988
24970
24966
24976
24980
24981
24968
24977
24978
24982
24989
24976
24980
24985
24987
24975
24983
24988
24988
24981
24973
24981
24986
25002
24975
24980
24987
24999
24979
24989
24994
24983
24988
24995
25013
24985
24989
24991
24995
24980
24981
24987
24991
24978
24987
24994
24981
24988
24991
24991
24983
24996
24996
24990
24990
24999
25001
25007
24990
24991
24996
24983
24990
24988
24997
24986
24983
25004
24998
25005
24991
24995
25005
24999
25005
24991
24997
24998
25009
24988
24996
25009
24990
24996
24999
25004
24990
24999
25001
25007
24993
25008
25003
25013
24998
25007
25008
24998
24999
24999
25012
24991
25007
25005
25006
24996
24994
25000
25004
25012
24998
25009
25012
25020
25000
25013
25015
25001
25007
25015
25001
25007
25014
25004
24999
25015
25001
25013
25018
25012
25007
25013
25018
25015
25004
25005
25015
25017
25004
25012
25012
25015
24999
25021
25020
25006
25006
25016
25029
25006
25017
25022
25009
25028
25020
25012
25014
25014
25025
25013
25015
25023
25031
25012
25017
25018
25032
25013
25022
25020
25031
25014
25015
25026
25027
25021
25027
25028
25008
25021
25023
25009
25019
25025
25011
25017
25029
25012
25026
25030
25016
25022
25033
25019
25031
25029
25015
25025
25030
25012
25023
25033
25018
25026
25031
25015
25031
25021
25018
25023
25028
25033
25045
25023
25029
25035
25014
25028
25027
25030
25021
25021
25030
25028
25030
25015
25031
25035
25021
25029
25028
25032
25043
25022
25028
25036
25039
25031
25020
25021
25028
25028
25039
25039
25023
25029
25028
25033
25041
25030
25023
25039
25037
25029
25034
25044
25071
25030
25040
25092
25023
25038
25058
25012
25026
25041
25056
25013
25024
25032
25068
25021
25028
25061
25066
25091
25025
25027
25070
25053
25077
25027
25057
25066
25033
25058
25062
25036
25047
25052
25054
25037
25051
25047
25050
25050
25044
25047
25046
25048
25038
25001
25047
25040
25042
25037
25040
25042
25039
25042
25044
25040
25038
25047
25045
25048
25039
25045
25044
25044
25039
25038
25039
25041
25038
25045
25039
25041
25045
25047
25045
25042
25050
25047
25051
25054
25039
25054
25041
25045
25045
25041
25046
25046
25045
25041
25049
25053
25046
25049
25049
25049
25050
25055
25050
25058
25045
25052
25044
25052
25050
25041
25052
25046
25038
25047
25047
25047
25048
25052
25048
25052
25055
25054
25052
25056
25049
25042
25052
25054
25047
25055
25039
25055
25046
25047
25052
25052
25052
25049
25044
25048
25059
25062
25052
25053
25054
25058
25042
25052
25052
25052
25040
25046
25052
25052
25041
25041
25050
25047
25049
25045
25046
25046
25052
25051
25039
25052
25049
25052
25034
25055
25046
25049
25057
25034
25038
25050
25052
25044
25043
25047
25052
25055
25044
25041
25055
25048
25051
25039
25033
25050
25047
25038
25039
25041
25046
25044
25036
25052
25061
25044
25045
25045
25051
25059
25053
25044
25041
25042
25050
25045
25049
25036
25047
25047
25052
25058
25039
25044
25053
25058
25045
25046
25047
25049
25047
25047
25042
25046
25061
25037
25047
25044
25046
25036
25039
25039
25049
25050
25060
25045
25060
25057
25062
25041
25044
25052
25052
25064
25046
25054
25053
25054
25061
25037
25051
25052
25060
25047
25045
25056
25063
25046
25048
25063
25068
25044
25049
25055
25063
25044
25053
25050
25054
25039
25052
25054
25061
25062
25045
25047
25060
25060
25063
25068
25049
25053
25059
25055
25047
25048
25052
25056
25067
25046
25048
25052
25055
25062
25053
25052
25059
25065
25069
25049
25051
25057
25060
25046
25048
25051
25063
25055
25042
25052
25062
25067
25054
25054
25060
25058
25067
25050
25052
25061
25062
25062
25055
25048
25053
25055
25056
25059
25047
25047
25057
25052
25055
25050
25046
25044
25061
25064
25050
25049
25052
25051
25053
25055
25061
25040
25045
25050
25046
25050
25039
25045
25044
25041
25038
25044
25041
25041
25030
25031
25029
25033
25029
25022
25023
25026
25020
25014
25015
25017
25012
25022
25008
25011
25020
25013
25012
25012
25004
25005
25010
25005
24990
24989
24996
24991
24993
25003
24981
24978
24980
24987
24985
24988
24989
24976
24971
24977
24972
24980
24980
24977
24962
24957
24959
24957
24959
24953
24945
24946
24943
24935
24953
24951
24940
24934
24945
24942
24948
24935
24933
24940
24933
24939
24926
24930
24934
24923
24935
24933
24931
24946
24930
24929
24940
24946
24936
24945
24935
24943
24932
24945
24941
24946
24932
24926
24935
24950
24940
24944
24949
24957
24936
24939
24937
24935
24941
24951
24956
24953
24954
24957
24953
24940
24943
24943
24951
24951
24962
24964
24943
24943
24948
24949
24949
24961
24958
24975
24951
24950
24955
24955
24957
24965
24933
24949
24954
24959
24948
24956
24952
24959
24951
24957
24964
24963
24969
24951
24959
24961
24964
24965
24954
24950
24956
24959
24967
24951
24956
24956
24961
24970
24950
24956
24961
24967
24967
24974
24963
24967
24967
24959
24964
24954
24955
24962
24962
24964
24973
24955
24966
24965
24972
24973
24958
24964
24967
24971
24971
24989
24956
24957
24956
24959
24965
24964
24969
24978
24959
24962
24967
24966
24965
24973
24966
24964
24972
24972
24972
24985
24964
24966
24964
24967
24969
24956
24961
24967
24967
24969
24960
24962
24964
24971
24975
24961
24961
24970
24969
24968
24979
24954
24967
24969
24959
24965
24955
24967
24966
24959
24966
24962
24953
24966
24962
24964
24971
24971
24967
24977
24964
24955
24968
24964
24954
24967
24963
24971
24967
24956
24959
24957
24967
24954
24975
24958
24959
24971
24966
24966
24972
24953
24959
24962
24965
24953
24964
24960
24964
24953
24962
24962
24976
24957
24963
24967
24951
24964
24965
24975
24949
24961
24964
24964
24970
24958
24963
24967
24966
24955
24954
24965
24964
24966
24952
24957
24964
24967
24975
24972
24958
24953
24964
24961
24966
24949
24956
24954
24964
24945
24951
24956
24966
24980
24950
24958
24960
24971
24957
24960
24958
24965
24967
24949
24956
24959
24963
24943
24962
24957
24960
24951
24955
24956
24967
24949
24948
24967
24965
24975
24948
24958
24962
24967
24945
24956
24959
24942
24943
24950
24958
24946
24948
24949
24958
24967
24950
24951
24963
24964
24967
24942
24957
24952
24959
24941
24946
24951
24955
24963
24941
24947
24960
24961
24972
24948
24967
24959
24960
24949
24963
24948
24945
24961
24948
24947
24958
24952
24944
24957
24951
24966
24952
24940
24955
24948
24966
24967
24967
24958
24943
24943
24948
24948
24957
24945
24939
24958
24941
24957
24947
24953
24959
24953
24959
24964
24945
24944
24948
24952
24970
24941
24943
24942
24946
24952
24936
24930
24943
24954
24950
24956
24935
24938
24944
24940
24943
24952
24948
24948
24953
24939
24935
24933
24944
24943
24943
24927
24932
24940
24936
24940
24947
24946
24950
24950
24935
24943
24950
24946
24947
24927
24934
24935
24934
24943
24943
24931
24931
24942
24941
24941
24930
24936
24941
24941
24950
24933
24929
24935
24937
24940
24944
24922
24926
24930
24934
24936
24930
24922
24929
24931
24947
24934
24932
24941
24932
24937
24942
24932
24934
24934
24937
24943
24919
24924
24921
24929
24935
24943
24954
24918
24936
24941
24954
24924
24923
24919
24950
24940
24956
25008
24914
24935
24936
24959
24912
24901
24952
24943
24972
24915
24916
24949
24949
24972
24930
24943
24949
24967
24929
24929
24944
24934
24946
24928
24928
24934
24929
24928
24934
24925
24927
24928
24929
24933
24926
24933
24924
24926
24927
24924
24889
24924
24919
24918
24922
24911
24919
24914
24927
24922
24917
24917
24920
24929
24918
24919
24923
24916
24929
24924
24917
24919
24916
24917
24908
24911
24910
24919
24916
24916
24914
24913
24916
24919
24916
24913
24916
24914
24911
24912
24911
24911
24904
24903
24914
24911
24912
24915
24900
24903
24909
24911
24917
24907
24909
24909
24911
24924
24903
24902
24908
24905
24911
24903
24904
24903
24908
24903
24898
24902
24903
24908
24905
24905
24908
24899
24903
24897
24905
24907
24903
24905
24889
24897
24898
24898
24901
24901
24891
24890
24902
24903
24901
24898
24900
24902
24905
24896
24899
24894
24903
24886
24896
24894
24906
24891
24896
24892
24902
24886
24895
24901
24902
24903
24888
24895
24895
24900
24901
24885
24887
24895
24887
24902
24882
24887
24886
24891
24884
24893
24901
24879
24887
24894
24895
24903
24878
24878
24888
24886
24895
24879
24887
24886
24895
24865
24891
24884
24887
24877
24879
24887
24893
24879
24876
24880
24879
24888
24888
24874
24871
24871
24873
24879
24866
24866
24876
24879
24880
24866
24874
24886
24880
24898
24877
24874
24880
24871
24878
24874
24868
24866
24867
24873
24878
24851
24869
24872
24876
24863
24862
24869
24882
24863
24875
24878
24895
24857
24868
24883
24854
24858
24866
24871
24887
24859
24863
24869
24888
24858
24864
24873
24870
24861
24872
24873
24879
24857
24857
24860
24860
24865
24870
24847
24845
24857
24865
24856
24863
24872
24847
24865
24863
24875
24852
24857
24863
24867
24883
24844
24857
24852
24854
24868
24843
24847
24850
24854
24858
24860
24844
24859
24854
24861
24840
24839
24852
24857
24863
24835
24847
24839
24857
24838
24835
24847
24844
24848
24833
24833
24837
24847
24838
24855
24836
24838
24839
24846
24833
24831
24839
24832
24842
24827
24827
24831
24834
24823
24828
24834
24820
24828
24835
24831
24839
24823
24831
24826
24838
24831
24821
24817
24820
24821
24821
24822
24828
24814
24819
24816
24830
24813
24815
24826
24825
24826
24825
24818
24823
24811
24819
24812
24820
24799
24817
24817
24814
24809
24808
24815
24820
24808
24810
24819
24814
24815
24815
24814
24823
24802
24794
24804
24804
24811
24812
24800
24802
24803
24805
24813
24799
24802
24799
24810
24809
24799
24796
24795
24797
24799
24796
24799
24801
24782
24793
24796
24799
24789
24793
24790
24796
24807
24789
24797
24795
24804
24786
24791
24794
24797
24796
24777
24788
24785
24784
24791
24806
24783
24779
24791
24793
24789
24777
24785
24784
24788
24794
24777
24780
24789
24790
24768
24772
24787
24783
24783
24770
24776
24781
24785
24790
24778
24775
24776
24774
24785
24772
24767
24770
24773
24771
24772
24780
24774
24757
24766
24768
24774
24785
24756
24762
24770
24775
24776
24762
24764
24772
24767
24760
24770
24759
24754
24760
24763
24762
24750
24749
24753
24759
24762
24769
24748
24752
24751
24754
24758
24762
24760
24764
24741
24749
24744
24753
24756
24741
24743
24745
24758
24737
24749
24745
24758
24743
24746
24746
24749
24741
24740
24754
24738
24750
24748
24732
24741
24732
24744
24751
24732
24737
24743
24739
24745
24747
24751
24733
24729
24740
24735
24737
24751
24729
24725
24730
24728
24719
24719
24727
24733
24716
24720
24726
24727
24730
24715
24723
24734
24730
24727
24733
24710
24714
24719
24724
24732
24711
24711
24719
24715
24726
24702
24711
24710
24716
24721
24732
24711
24711
24716
24715
24719
24722
24694
24700
24710
24705
24709
24715
24714
24721
24701
24700
24703
24703
24710
24719
24696
24700
24701
24703
24707
24716
24692
24700
24699
24701
24681
24689
24693
24692
24698
24722
24687
24692
24696
24694
24703
24711
24686
24685
24684
24688
24694
24678
24687
24685
24690
24684
24679
24679
24677
24689
24687
24693
24687
24681
24686
24680
24695
24669
24673
24678
24679
24684
24661
24671
24670
24678
24681
24679
24684
24663
24671
24674
24683
24694
24663
24674
24673
24669
24679
24656
24652
24656
24667
24665
24670
24626
24651
24652
24665
24668
24671
24676
24652
24652
24648
24654
24658
24654
24665
24663
24673
24644
24644
24644
24647
24655
24649
24653
24652
24662
24663
24641
24648
24648
24649
24651
24655
24660
24667
24636
24637
24645
24638
24642
24640
24636
24628
24646
24641
24644
24663
24637
24640
24639
24650
24638
24640
24639
24639
24644
24624
24629
24631
24632
24639
24627
24620
24638
24633
24632
24638
24673
24618
24627
24643
24652
24676
24607
24604
24606
24636
24620
24637
24661
24601
24599
24628
24632
24655
24695
24614
24614
24647
24639
24662
24612
24619
24626
24629
24628
24646
24614
24612
24615
24613
24614
24613
24613
24612
24612
24611
24613
24609
24605
24606
24610
24607
24603
24602
24599
24596
24600
24596
24600
24597
24591
24599
24596
24597
24596
24592
24592
24597
24594
24595
24597
24595
24588
24590
24594
24590
24582
24580
24580
24582
24583
24581
24583
24590
24583
24586
24579
24582
24587
24583
24583
24583
24586
24577
24566
24572
24567
24575
24572
24577
24574
24576
24579
24583
24574
24565
24580
24578
24580
24571
24575
24580
24566
24569
24565
24570
24560
24566
24571
24568
24572
24551
24567
24558
24564
24564
24564
24559
24570
24566
24552
24563
24561
24550
24556
24557
24545
24548
24556
24550
24552
24556
24550
24549
24554
24556
24567
24542
24549
24550
24557
24549
24558
24559
24543
24545
24549
24548
24544
24560
24535
24538
24545
24545
24546
24542
24538
24545
24545
24546
24549
24532
24532
24533
24538
24540
24527
24527
24533
24540
24521
24524
24527
24538
24534
24531
24538
24547
24526
24527
24533
24535
24535
24535
24535
24540
24517
24512
24516
24527
24528
24532
24514
24511
24519
24522
24527
24532
24516
24528
24533
24517
24516
24502
24514
24524
24516
24513
24517
24522
24533
24502
24506
24508
24514
24519
24508
24504
24511
24519
24513
24506
24508
24518
24492
24497
24501
24509
24480
24492
24507
24502
24510
24491
24494
24505
24515
24495
24495
24503
24505
24516
24491
24491
24492
24498
24506
24480
24484
24488
24493
24495
24479
24481
24498
24492
24502
24508
24483
24493
24488
24496
24477
24474
24488
24482
24483
24494
24495
24471
24470
24487
24487
24490
24473
24478
24484
24485
24488
24494
24500
24466
24470
24469
24472
24478
24460
24470
24481
24467
24461
24474
24471
24480
24479
24463
24464
24463
24478
24460
24462
24471
24470
24471
24449
24450
24458
24457
24471
24451
24455
24454
24454
24456
24457
24466
24470
24448
24455
24462
24450
24460
24471
24447
24441
24442
24442
24444
24440
24450
24437
24436
24447
24448
24446
24447
24428
24435
24436
24436
24443
24442
24437
24442
24431
24423
24432
24429
24434
24421
24424
24427
24430
24435
24425
24425
24430
24432
24423
24422
24426
24423
24425
24422
24410
24423
24417
24420
24410
24414
24415
24415
24404
24409
24420
24418
24421
24415
24415
24414
24415
24422
24404
24409
24412
24405
24410
24412
24415
24396
24399
24400
24402
24406
24407
24417
24396
24409
24412
24404
24405
24409
24388
24394
24388
24402
24394
24392
24399
24382
24383
24389
24392
24390
24392
24395
24396
24401
24383
24380
24388
24381
24385
24384
24384
24384
24398
24374
24386
24383
24390
24368
24383
24377
24385
24388
24380
24372
24382
24382
24380
24386
24386
24382
24374
24362
24369
24370
24379
24366
24370
24372
24381
24356
24361
24362
24360
24365
24367
24366
24373
24372
24370
24362
24363
24369
24368
24348
24348
24357
24348
24352
24356
24361
24364
24364
24347
24354
24350
24352
24353
24362
24354
24350
24358
24341
24341
24344
24352
24340
24348
24353
24359
24334
24345
24349
24351
24357
24341
24337
24345
24355
24332
24335
24342
24340
24326
24329
24330
24334
24343
24327
24327
24327
24343
24327
24327
24331
24341
24331
24333
24330
24352
24319
24326
24327
24336
24317
24317
24320
24327
24337
24319
24324
24322
24333
24317
24316
24324
24316
24332
24306
24309
24316
24311
24308
24316
24300
24301
24298
24308
24316
24318
24303
24309
24303
24308
24324
24300
24302
24302
24308
24319
24295
24297
24303
24297
24304
24286
24294
24293
24303
24294
24293
24293
24303
24285
24288
24300
24297
24298
24281
24276
24279
24289
24291
24295
24271
24284
24288
24272
24270
24278
24288
24290
24300
24271
24282
24277
24294
24300
24269
24265
24279
24273
24269
24273
24260
24263
24269
24262
24274
24268
24281
24257
24263
24265
24262
24268
24269
24248
24250
24255
24264
24259
24264
24242
24241
24254
24253
24265
24240
24242
24255
24258
24261
24245
24247
24253
24263
24242
24247
24247
24255
24240
24239
24244
24245
24248
24252
24234
24240
24240
24248
24252
24232
24245
24246
24255
24247
24235
24235
24240
24247
24220
24235
24235
24238
24222
24223
24222
24231
24231
24240
24223
24222
24225
24239
24249
24227
24229
24223
24236
24233
24214
24218
24225
24228
24209
24217
24220
24229
24211
24211
24221
24221
24234
24204
24226
24230
24212
24220
24212
24207
24212
24202
24217
24213
24228
24208
24196
24215
24205
24217
24210
24205
24215
24210
24199
24214
24203
24220
24207
24190
24199
24190
24212
24206
24185
24199
24173
24197
24181
24226
24215
24178
24198
24181
24202
24170
24220
24187
24227
24185
24248
24217
24177
24228
24178
24173
24193
24198
24212
24236
24181
24191
24200
24209
24182
24190
24191
24191
24181
24175
24181
24180
24177
24177
24178
24176
24170
24175
24179
24172
24181
24169
24175
24175
24170
24176
24172
24166
24168
24168
24167
24162
24159
24162
24164
24157
24162
24167
24165
24167
24170
24155
24156
24159
24163
24159
24154
24151
24155
24159
24156
24157
24142
24143
24151
24148
24156
24161
24145
24146
24152
24156
24163
24149
24143
24146
24148
24149
24148
24135
24140
24148
24138
24154
24132
24137
24144
24149
24138
24146
24145
24151
24127
24136
24143
24145
24132
24135
24137
24137
24143
24124
24126
24132
24132
24132
24122
24130
24134
24132
24143
24126
24123
24132
24135
24134
24117
24132
24127
24131
24116
24122
24121
24119
24128
24111
24111
24119
24122
24133
24108
24113
24117
24121
24127
24127
24111
24113
24113
24119
24123
24111
24108
24104
24113
24122
24102
24107
24111
24113
24125
24104
24106
24111
24117
24100
24099
24106
24111
24116
24092
24095
24105
24109
24053
24090
24098
24110
24124
24095
24105
24108
24118
24097
24102
24104
24068
24092
24103
24100
24102
24109
24084
24090
24095
24100
24102
24081
24094
24095
24077
24078
24098
24086
24101
24095
24109
24090
24071
24087
24075
24097
24088
24115
24093
24071
24083
24087
24087
24094
24102
24071
24071
24078
24086
24082
24086
24090
24088
24064
24076
24074
24076
24079
24111
24060
24068
24067
24075
24071
24082
24101
24071
24069
24078
24076
24087
24068
24063
24071
24071
24078
24063
24057
24068
24071
24077
24093
24061
24071
24071
24082
24091
24064
24060
24071
24077
24079
24059
24057
24069
24071
24071
24082
24047
24054
24061
24070
24077
24053
24062
24066
24070
24070
24076
24052
24052
24063
24063
24064
24047
24048
24057
24057
24060
24071
24046
24054
24060
24050
24049
24056
24060
24064
24052
24044
24049
24057
24071
24038
24049
24045
24050
24033
24044
24044
24043
24053
24034
24038
24047
24046
24060
24040
24044
24049
24047
24047
24055
24034
24037
24038
24036
24046
24028
24038
24038
24037
24028
24028
24034
24039
24044
24035
24030
24030
24023
24030
24029
24025
24036
24024
24018
24021
24022
24026
24026
24031
24020
24015
24031
24027
24030
24034
24016
24014
24025
24026
24016
24005
24013
24016
24015
24020
24026
24001
24011
24014
24014
24017
24002
24004
24020
24013
24020
24025
24004
24005
24006
24015
24014
23996
24001
24006
24014
24018
23990
23996
24013
24001
24004
24004
24006
24015
24018
24000
23998
23997
24000
24007
23991
23989
23990
23988
24000
24000
24003
24011
23993
23993
24001
24007
24012
24015
23998
23999
24006
23997
24004
24000
24010
24010
23991
23991
23989
23998
24004
24006
23973
23989
23995
23997
24005
24012
23989
23986
23994
23993
23999
23981
23982
23991
23998
23996
23985
23985
23982
23992
23991
23992
24013
23981
23988
23995
23990
23999
24005
23988
23982
23985
23983
23992
23993
23979
23982
23986
23986
23995
23996
23979
23976
23988
23984
23992
24003
23980
23978
23974
23975
23975
23982
23986
23980
23976
23980
23992
23993
23969
23970
23980
23985
23975
23987
23985
23972
23964
23972
23980
23973
23974
23979
23957
23958
23962
23962
23957
23965
23969
23967
23972
23974
23964
23959
23960
23972
23966
23975
23953
23949
23959
23950
23957
23961
23967
23943
23956
23959
23952
23953
23958
23943
23947
23955
23957
23956
23968
23941
23944
23942
23944
23947
23946
23951
23963
23935
23929
23940
23942
23945
23950
23948
23932
23929
23940
23940
23945
23946
23924
23924
23930
23940
23935
23930
23934
23937
23941
23944
23927
23923
23940
23937
23943
23928
23925
23931
23940
23926
23935
23943
23918
23921
23927
23927
23927
23935
23917
23918
23925
23927
23939
23939
23951
23923
23928
23928
23932
23937
23940
23933
23918
23913
23919
23922
23917
23917
23929
23927
23933
23938
23919
23918
23916
23924
23924
23931
23919
23932
23938
23909
23911
23916
23923
23924
23906
23903
23907
23916
23908
23919
23924
23905
23905
23905
23914
23913
23925
23903
23911
23911
23916
23900
23894
23911
23906
23910
23889
23908
23908
23912
23932
23900
23898
23908
23905
23911
23924
23894
23910
23899
23910
23927
23889
23890
23903
23908
23924
23889
23896
23901
23914
23922
23900
23901
23908
23916
23894
23896
23901
23898
23909
23884
23895
23901
23897
23902
23905
23890
23892
23901
23903
23909
23917
23891
23899
23906
23899
23904
23909
23880
23886
23898
23899
23901
23913
23883
23900
23899
23892
23919
23890
23896
23899
23907
23888
23893
23887
23894
23906
23888
23890
23899
23886
23879
23899
23896
23901
23887
23889
23903
23900
23900
23885
23916
23904
23893
23895
23893
23918
23908
23872
23900
23877
23911
23902
23873
23895
23862
23919
23904
23873
23900
23873
23919
23917
23939
23878
23878
23880
23913
23911
23943
23876
23913
23908
23926
23886
23884
23903
23905
23911
23903
23897
23905
23903
23895
23892
23895
23895
23897
23892
23888
23893
23891
23884
23884
23888
23891
23890
23897
23892
23895
23898
23895
23895
23902
23887
23894
23895
23895
23900
23893
23890
23894
23900
23886
23892
23898
23893
23902
23889
23897
23896
23900
23899
23894
23892
23899
23898
23905
23889
23895
23898
23890
23895
23900
23885
23897
23902
23892
23895
23902
23894
23903
23905
23905
23899
23903
23903
23894
23894
23895
23902
23892
23893
23901
23900
23903
23895
23902
23903
23911
23902
23910
23903
23919
23895
23907
23909
23904
23892
23895
23898
23900
23892
23895
23907
23909
23911
23893
23905
23906
23914
23897
23898
23900
23921
23895
23893
23903
23888
23886
23892
23900
23884
23892
23886
23894
23898
23919
23894
23895
23892
23896
23900
23890
23886
23900
23893
23897
23881
23887
23884
23892
23873
23877
23882
23882
23895
23871
23886
23891
23895
23879
23878
23876
23879
23881
23884
23868
23884
23876
23880
23861
23866
23868
23866
23871
23872
23878
23857
23863
23868
23869
23883
23863
23869
23851
23866
23878
23853
23855
23857
23841
23845
23850
23858
23867
23845
23846
23850
23859
23876
23840
23852
23846
23839
23853
23854
23830
23836
23838
23844
23822
23842
23838
23856
23821
23832
23830
23841
23823
23821
23834
23833
23844
23813
23812
23818
23830
23823
23823
23829
23826
23802
23811
23814
23826
23802
23807
23811
23820
23840
23799
23810
23813
23793
23795
23804
23809
23786
23788
23794
23804
23784
23788
23796
23793
23802
23780
23786
23795
23791
23802
23831
23781
23787
23791
23796
23769
23772
23783
23780
23785
23769
23764
23777
23780
23787
23767
23769
23780
23777
23780
23782
23788
23761
23761
23768
23771
23764
23768
23780
23754
23756
23767
23773
23751
23756
23760
23765
23756
23762
23766
23767
23770
23750
23757
23757
23745
23753
23751
23754
23737
23742
23743
23750
23741
23736
23748
23754
23766
23740
23750
23751
23750
23735
23730
23741
23749
23724
23734
23733
23741
23736
23732
23731
23738
23725
23730
23733
23740
23748
23726
23732
23733
23740
23739
23722
23726
23733
23724
23735
23716
23718
23722
23723
23730
23724
23721
23725
23732
23735
23720
23724
23734
23722
23726
23729
23726
23721
23717
23727
23725
23728
23716
23716
23726
23730
23741
23717
23724
23721
23732
23738
23719
23718
23717
23725
23732
23731
23718
23712
23718
23733
23735
23716
23717
23729
23739
23719
23726
23726
23734
23721
23722
23735
23719
23721
23730
23736
23718
23719
23727
23735
23715
23732
23730
23740
23722
23735
23739
23722
23734
23728
23734
23719
23741
23730
23723
23732
23727
23723
23730
23734
23722
23735
23729
23740
23730
23721
23724
23727
23737
23738
23738
23724
23727
23737
23743
23719
23720
23727
23729
23733
23741
23720
23722
23738
23738
23743
23743
23753
23729
23731
23732
23740
23740
23749
23763
23727
23729
23740
23734
23742
23744
23732
23729
23738
23742
23745
23747
23735
23738
23738
23748
23756
23735
23728
23746
23743
23745
23733
23734
23732
23745
23730
23732
23743
23745
23703
23732
23743
23750
23756
23730
23746
23748
23759
23733
23740
23742
23761
23731
23746
23744
23760
23734
23745
23753
23733
23749
23745
23753
23740
23743
23753
23732
23734
23741
23751
23726
23735
23743
23731
23726
23740
23747
23729
23745
23742
23752
23732
23742
23749
23756
23730
23741
23742
23732
23730
23734
23746
23731
23740
23730
23742
23749
23734
23742
23746
23764
23741
23742
23753
23739
23760
23737
23734
23751
23740
23771
23745
23732
23756
23745
23738
23755
23750
23743
23750
23747
23755
23751
23740
23754
23756
23743
23753
23754
23737
23750
23765
23740
23746
23761
23742
23742
23759
23751
23752
23747
23761
23754
23749
23752
23753
23746
23757
23751
23740
23754
23748
23768
23750
23741
23760
23754
23741
23757
23756
23763
23750
23738
23760
23755
23744
23754
23749
23737
23762
23751
23735
23759
23748
23738
23756
23751
23737
23759
23750
23748
23742
23756
23760
23741
23756
23748
23778
23749
23746
23736
23758
23750
23752
23738
23765
23757
23749
23742
23745
23751
23751
23760
23752
23746
23770
23754
23741
23777
23749
23745
23767
23752
23738
23765
23751
23748
23762
23753
23748
23765
23757
23748
23768
23758
23776
23754
23748
23759
23756
23751
23755
23764
23745
23751
23757
23761
23750
23749
23761
23766
23780
23751
23754
23761
23770
23754
23753
23764
23746
23750
23758
23761
23773
23749
23763
23767
23764
23750
23749
23764
23775
23770
23765
23753
23764
23764
23752
23764
23765
23754
23756
23750
23775
23761
23772
23758
23760
23766
23779
23749
23762
23764
23775
23754
23752
23762
23767
23751
23749
23759
23767
23748
23750
23764
23762
23770
23748
23771
23765
23782
23757
23760
23764
23779
23754
23759
23763
23766
23749
23757
23760
23764
23751
23765
23761
23777
23757
23758
23770
23755
23764
23768
23788
23756
23762
23774
23748
23761
23769
23780
23750
23752
23765
23777
23751
23764
23771
23751
23756
23764
23774
23754
23762
23772
23754
23760
23765
23776
23757
23763
23768
23754
23770
23775
23767
23754
23781
23761
23761
23786
23773
23759
23783
23760
23797
23765
23751
23781
23776
23745
23768
23748
23801
23783
23743
23776
23776
23744
23794
23788
23750
23814
23791
23754
23797
23794
23753
23790
23780
23761
23781
23759
23795
23786
23765
23782
23770
23772
23779
23775
23774
23771
23777
23771
23774
23768
23770
23767
23770
23765
23775
23768
23760
23772
23765
23765
23774
23764
23772
23775
23775
23777
23772
23768
23776
23767
23777
23775
23762
23772
23773
23773
23769
23769
23775
23774
23772
23782
23774
23774
23777
23783
23776
23780
23783
23773
23772
23778
23780
23773
23773
23773
23783
23767
23777
23779
23783
23771
23770
23777
23784
23788
23774
23777
23781
23778
23775
23781
23777
23779
23782
23769
23767
23780
23777
23780
23788
23775
23776
23780
23782
23780
23781
23789
23770
23779
23776
23782
23784
23766
23768
23783
23783
23770
23767
23770
23772
23772
23778
23781
23796
23775
23783
23780
23781
23781
23766
23775
23781
23775
23779
23775
23761
23766
23778
23775
23779
23766
23775
23780
23760
23780
23777
23767
23775
23774
23777
23764
23773
23770
23758
23770
23760
23783
23767
23757
23761
23780
23778
23756
23775
23773
23761
23778
23774
23759
23760
23770
23761
23755
23771
23762
23759
23755
23778
23767
23769
23758
23749
23776
23767
23770
23756
23775
23770
23751
23763
23752
23773
23760
23747
23771
23759
23750
23767
23763
23749
23773
23762
23751
23774
23764
23757
23783
23757
23750
23772
23754
23744
23759
23748
23767
23757
23749
23759
23757
23745
23760
23748
23750
23756
23761
23749
23762
23750
23745
23759
23756
23739
23760
23750
23741
23757
23749
23742
23775
23758
23746
23740
23761
23757
23745
23761
23749
23742
23767
23750
23741
23759
23747
23735
23773
23750
23743
23735
23752
23745
23741
23765
23748
23743
23742
23751
23743
23740
23751
23743
23735
23751
23749
23735
23751
23741
23734
23747
23740
23735
23748
23742
23757
23744
23738
23756
23745
23737
23748
23735
23731
23750
23743
23728
23754
23740
23727
23726
23742
23747
23732
23741
23738
23724
23744
23737
23731
23754
23735
23735
23727
23740
23727
23727
23740
23731
23724
23733
23725
23742
23741
23729
23743
23732
23756
23743
23734
23732
23742
23742
23729
23743
23733
23727
23739
23738
23729
23741
23737
23754
23742
23734
23743
23739
23733
23735
23748
23751
23743
23743
23735
23732
23750
23737
23734
23744
23737
23732
23751
23741
23741
23742
23734
23750
23742
23762
23735
23742
23749
23745
23733
23743
23731
23746
23734
23745
23740
23752
23741
23731
23739
23734
23747
23750
23736
23747
23736
23740
23742
23740
23732
23730
23736
23732
23743
23748
23730
23732
23741
23749
23732
23735
23740
23744
23719
23735
23747
23746
23756
23728
23735
23748
23730
23728
23747
23748
23734
23737
23741
23763
23743
23744
23751
23742
23740
23746
23754
23735
23746
23750
23746
23744
23734
23740
23732
23764
23748
23737
23742
23750
23744
23740
23749
23745
23762
23748
23748
23743
23758
23750
23741
23757
23752
23743
23742
23756
23750
23741
23767
23762
23757
23751
23750
23752
23751
23773
23759
23751
23761
23748
23761
23752
23768
23749
23748
23767
23754
23746
23767
23764
23753
23772
23761
23759
23783
23762
23760
23778
23764
23754
23766
23759
23771
23762
23756
23770
23764
23754
23767
23769
23760
23774
23772
23791
23775
23773
23788
23769
23764
23778
23783
23764
23781
23777
23765
23794
23780
23777
23801
23780
23775
23790
23786
23775
23779
23774
23775
23777
23780
23780
23789
23788
23799
23775
23780
23786
23791
23802
23781
23787
23791
23790
23796
23807
23788
23788
23794
23795
23793
23806
23801
23820
23788
23785
23799
23797
23804
23785
23788
23804
23803
23814
23796
23806
23806
23812
23800
23798
23807
23807
23812
23818
23794
23799
23807
23812
23813
23797
23792
23811
23814
23814
23822
23804
23810
23815
23825
23836
23805
23806
23815
23815
23815
23817
23805
23804
23816
23822
23836
23809
23809
23823
23825
23830
23835
23818
23815
23825
23829
23829
23813
23815
23824
23831
23830
23819
23815
23828
23838
23847
23817
23823
23831
23832
23838
23839
23823
23826
23838
23833
23836
23822
23829
23838
23842
23831
23834
23834
23845
23828
23833
23834
23842
23846
23834
23835
23842
23837
23847
23846
23847
23831
23844
23841
23847
23831
23842
23846
23852
23837
23847
23850
23842
23846
23853
23859
23839
23845
23847
23855
23837
23842
23846
23847
23842
23842
23847
23858
23839
23858
23851
23860
23840
23855
23857
23862
23849
23845
23853
23855
23877
23845
23850
23853
23855
23859
23862
23839
23847
23864
23867
23863
23881
23850
23854
23863
23857
23867
23868
23886
23846
23858
23860
23870
23864
23855
23855
23872
23865
23870
23874
23879
23879
23860
23858
23862
23865
23874
23864
23874
23878
23862
23856
23857
23874
23868
23876
23857
23860
23878
23878
23876
23878
23870
23867
23883
23877
23887
23894
23864
23875
23876
23879
23861
23866
23879
23876
23886
23866
23871
23887
23883
23888
23862
23878
23876
23892
23903
23871
23880
23885
23886
23892
23905
23872
23880
23881
23888
23895
23901
23880
23884
23895
23900
23879
23883
23889
23892
23892
23898
23915
23882
23884
23887
23891
23902
23879
23887
23890
23893
23897
23895
23900
23900
23887
23882
23888
23893
23891
23893
23901
23890
23893
23898
23900
23902
23903
23903
23908
23855
23889
23895
23900
23897
23905
23912
23909
23895
23891
23900
23907
23901
23903
23910
23897
23889
23889
23898
23903
23909
23918
23897
23908
23908
23918
23913
23903
23919
23913
23900
23909
23901
23900
23913
23911
23900
23916
23909
23905
23907
23922
23910
23911
23925
23926
23904
23930
23932
23898
23944
23933
23893
23949
23927
23895
23954
23924
23900
23980
23926
23911
23979
23943
23924
24032
23942
23926
23920
23942
23918
23954
23930
23926
23937
23927
23939
23933
23929
23937
23935
23935
23941
23935
23935
23938
23935
23935
23934
23939
23936
23937
23937
23937
23935
23930
23932
23935
23932
23937
23943
23943
23943
23943
23944
23939
23940
23943
23945
23938
23934
23938
23940
23938
23940
23943
23936
23941
23940
23954
23943
23949
23949
23943
23944
23948
23946
23944
23945
23949
23943
23945
23954
23954
23943
23948
23951
23956
23940
23944
23951
23959
23943
23950
23959
23958
23958
23948
23949
23951
23946
23957
23960
23943
23947
23951
23962
23964
23946
23953
23956
23963
23953
23956
23957
23959
23967
23958
23964
23958
23950
23952
23956
23965
23951
23958
23961
23951
23959
23969
23957
23970
23964
23927
23963
23975
23963
23965
23958
23970
23963
23968
23951
23959
23966
23973
23961
23961
23966
23969
23956
23967
23971
23967
23977
23983
23977
23970
23975
23975
23975
23970
23959
23975
23957
23966
23974
23977
23966
23979
23974
23996
23966
23982
23982
23970
23977
23978
23982
23967
23972
23975
23965
23967
23973
23998
23964
23979
23985
23965
23981
23978
23991
23972
23985
23983
23982
23973
23980
23988
23968
23970
23982
23996
23974
23973
23987
23967
23981
24003
23971
23983
23996
23977
23983
23983
23994
23973
23981
23978
23993
23975
23975
23977
23985
23973
23975
23977
23988
23988
23999
23981
23994
23991
23997
23975
23987
23993
23999
23975
23988
23989
23974
23984
23985
23974
23984
23995
23972
23977
23989
24006
23986
23997
23981
23986
23999
23980
23988
23997
23977
23992
23991
24015
23977
23986
23995
24007
23982
23982
23997
23996
23993
23984
23996
23999
24007
23983
23978
23998
23993
24002
23980
23993
23991
24004
23977
23984
23988
23994
24006
23985
24003
24002
24007
23991
24000
23996
24006
23981
23994
23993
24004
23985
23998
24001
23990
23993
23990
24007
23983
23998
23994
24009
23989
23999
24004
23987
23996
24000
24017
23985
23996
23995
23982
23986
23990
24000
23984
24001
23998
24000
23988
24000
24000
23998
23997
24006
23994
24001
23999
23990
23988
23995
24002
23990
23992
23988
23996
23998
23987
23999
24001
23997
23997
24001
24009
23991
24010
24002
23995
24004
23999
23996
23989
24002
23996
23994
24004
24002
24002
23992
24006
24004
24003
23994
24007
24000
23992
24007
23996
23986
23998
23993
23988
24004
23998
23989
24004
24001
23989
24000
24005
24003
23996
24004
24002
24018
23995
23992
24000
23989
23998
24006
23987
23975
24001
23996
23989
24007
23996
23999
23999
24011
24007
24001
23994
24006
23995
23994
23989
24002
23996
23983
24010
23993
23995
23988
23998
24007
23997
24008
23999
23997
23989
24004
24010
23994
23998
24004
23990
23995
24001
23990
24001
24013
23989
24000
23998
24011
24000
23993
24005
24005
24009
23994
23998
24006
24007
23999
23994
23996
24007
23987
24005
24005
24006
23988
24001
24001
24007
23996
24001
24004
24010
23996
24009
24005
24002
23999
23996
23999
24007
23989
24007
23991
24001
23991
24002
23996
24004
23994
23996
24004
24005
23999
23995
24004
24000
24006
23993
24002
24004
23990
23997
24004
23961
23988
23999
24002
23996
24000
24007
23999
24005
24004
24014
23993
23997
24002
24006
23989
23998
23998
24001
24010
23990
23994
24007
24006
24011
23996
24009
24014
23996
24004
24004
24010
24022
24000
24004
24007
24008
23996
24001
24007
24014
23999
24003
24013
23999
24008
24010
24017
24002
24007
24011
24021
23999
23996
24005
23996
24006
23994
23997
24001
24013
23998
23999
24008
24006
24020
24001
24008
24014
24001
24003
24004
24011
24003
24010
23996
24009
24000
23993
24003
24010
23999
24012
24008
23997
24007
24010
23999
24018
24011
24007
24001
24010
24011
23996
24008
24000
23998
24007
23996
23995
24007
24004
23994
24014
24012
23996
24011
24002
23996
24008
24002
24021
24009
23997
23996
24008
24007
23996
24009
24000
23997
24025
24008
24004
24014
24012
24001
24014
24011
24000
24006
23991
24015
24008
24000
24015
24000
23996
24006
24005
24026
24008
24000
24020
24013
24002
24015
24016
24002
24013
24002
24014
24005
24024
24006
23999
24009
23998
24012
23999
24015
24014
23994
24017
23998
24014
24015
23995
24014
24015
24024
23998
24008
24012
23998
23999
23999
24012
23995
24003
24005
24015
24002
24004
24018
23999
24019
24019
24006
24017
24017
24002
24009
24021
24000
24013
23967
24005
24016
23997
24012
24023
24006
24006
24018
24000
24005
24015
24025
24010
24010
24022
24006
24012
24021
24004
24015
24010
23996
24014
24012
24000
24005
24006
24020
24032
24007
24025
24016
24026
24004
24005
24014
24015
24005
23996
24017
24013
24014
24003
24011
24018
24000
24006
24015
24004
24012
24017
24004
24016
24015
24003
24011
24005
23999
24016
24005
23996
24008
24013
23996
24010
24007
24004
24018
24012
24006
24023
24007
23999
24011
24004
24000
23996
24009
24010
24027
23996
24006
24017
24005
24006
24010
24018
24007
24010
24013
24030
24006
24008
24015
23998
24001
24004
24013
23994
23999
24009
24007
24013
23998
24006
24006
24013
23998
24004
24010
24013
24027
23996
24009
24015
23994
23996
24005
24002
24014
23989
24004
24002
24004
23998
24005
24015
23999
24005
24008
24006
24004
24008
24014
24004
24006
24009
24012
24001
24006
24005
24012
23994
24013
24014
24030
24005
24004
24020
24055
23992
24012
24037
23993
24044
24016
24015
23978
24022
24027
23980
24042
24015
23992
24071
24021
24024
23995
24042
24014
24011
23991
24034
24027
23996
24030
24026
23998
24024
24013
24000
24018
24006
24005
24008
24007
24001
24009
24006
24010
24010
24011
24007
24008
24011
24007
24004
24004
24005
23997
24006
24003
24004
24005
24006
24007
24002
24001
24006
24014
24004
24004
24011
24008
24002
24000
24003
24007
23995
24003
24003
24004
23996
24000
24007
24005
24006
24005
23999
24007
24002
24000
24005
24006
24005
24008
23997
23995
24003
24001
23977
23994
23998
24006
23998
24000
23996
24006
24003
24007
24008
24008
24003
24004
24002
24004
24005
23993
23994
24002
24005
23990
23994
24006
24012
23996
23999
24003
24014
24001
24001
24001
24004
24013
23995
24001
23997
24003
24006
23995
23990
23992
23996
24001
24004
23988
23989
24002
24002
24009
23999
23997
24007
24005
24012
23991
24001
24004
24002
23988
23995
24000
24007
23991
23990
23999
24004
24010
23997
23998
24005
24013
23991
24007
24005
23985
23996
23997
24003
23989
23998
23991
24001
23985
23985
23996
24007
23991
23992
23998
24007
23994
23994
23992
24005
23987
23994
23997
24005
23987
23982
23995
23994
23999
24005
23989
23991
24003
24017
23991
23999
24010
24004
23990
24002
23999
23998
23972
23990
23998
23996
23982
23994
23994
24009
23982
23998
24004
23985
23988
23995
24004
23984
23986
23998
24000
24008
23981
23995
23994
24003
23980
23983
23996
23994
24016
23991
23998
24001
24018
23983
23995
23992
24002
23982
23981
23992
24003
23982
23985
23996
24008
23977
23988
24007
23982
23993
24006
23982
23988
23992
23997
24014
23979
24003
23994
24008
23980
23999
23994
24015
23978
23986
23990
23998
23980
23980
23995
23990
24005
23978
24001
23998
24005
23980
23987
23996
23999
23974
23981
23991
23991
23978
23982
23991
24007
23981
23993
24001
23983
23996
24002
23980
23984
23989
23991
23977
23981
23985
23994
23974
23981
23990
24004
23979
23984
23985
24002
23986
23977
23990
23979
23991
23991
23973
23983
23979
23975
23982
23988
23973
23978
23968
23972
23980
23990
23972
23979
23983
23983
23989
23975
23983
23976
23980
23980
23990
23972
23967
23979
23972
23980
23966
23974
23978
23977
23968
23973
23985
23978
23975
23982
23973
23973
23977
23979
23965
23972
23969
23973
23971
23967
23971
23968
23972
23980
23962
23966
23980
23974
23980
23980
23969
23971
23972
23977
23962
23971
23971
23975
23960
23967
23974
23968
23958
23967
23967
23982
23965
23976
23980
23967
23972
23974
23976
23960
23961
23972
23973
23961
23979
23967
23958
23972
23966
23960
23974
23968
23973
23969
23977
23973
23959
23974
23975
23959
23969
23967
23949
23970
23964
23975
23963
23959
23973
23970
23960
23972
23964
23982
23970
23969
23986
23962
23969
23982
23960
23969
23948
23959
23964
23972
23954
23961
23963
23975
23958
23969
23974
23961
23975
23970
23975
23961
23966
23959
23967
23967
23983
23953
23959
23968
23953
23962
23967
23955
23961
23967
23967
23959
23958
23957
23966
23970
23959
23960
23964
23956
23959
23965
23960
23947
23951
23958
23966
23956
23950
23959
23967
23983
23957
23957
23966
23983
23950
23959
23963
23967
23948
23959
23957
23980
23948
23962
23966
23954
23959
23965
23955
23958
23963
23975
23951
23962
23961
23947
23948
23960
23953
23967
23943
23957
23963
23973
23948
23966
23956
23944
23965
23964
23947
23965
23956
23950
23958
23949
23946
23963
23949
23943
23957
23953
23945
23950
23957
23956
23946
23960
23956
23950
23958
23951
23961
23951
23943
23964
23951
23949
23940
23954
23943
23953
23951
23947
23938
23959
23951
23940
23977
23958
23951
23945
23957
23948
23946
23943
23954
23947
23935
23941
23953
23949
23942
23959
23948
23937
23959
23955
23940
23947
23953
23975
23937
23946
23956
23942
23948
23946
23954
23935
23943
23944
23943
23938
23940
23942
23953
23935
23936
23944
23954
23941
23945
23946
23932
23943
23946
23951
23934
23941
23950
23932
23943
23943
23933
23938
23949
23955
23934
23944
23951
23933
23941
23941
23958
23930
23937
23945
23927
23930
23940
23952
23932
23935
23946
23932
23936
23950
23935
23942
23929
23943
23943
23929
23943
23933
23927
23956
23936
23924
23954
23934
23932
23927
23925
23949
23935
23931
23946
23940
23932
23940
23938
23929
23943
23932
23925
23943
23932
23925
23932
23941
23935
23927
23952
23932
23925
23943
23940
23931
23953
23938
23935
23924
23934
23943
23920
23950
23934
23921
23917
23935
23924
23919
23934
23938
23919
23940
23940
23929
23956
23939
23926
23951
23934
23927
23940
23927
23920
23942
23922
23921
23940
23937
23926
23949
23932
23924
23947
23941
23927
23925
23941
23932
23925
23920
23925
23918
23919
23924
23935
23919
23930
23929
23918
23931
23924
23943
23934
23927
23936
23941
23924
23935
23919
23943
23926
23916
23936
23925
23911
23931
23914
23934
23922
23943
23925
23919
23934
23922
23943
23927
23921
23945
23927
23919
23937
23927
23919
23939
23925
23914
23935
23919
23919
23931
23933
23919
23926
23922
23919
23927
23921
23933
23914
23911
23924
23926
23912
23909
23928
23921
23911
23915
23927
23927
23909
23913
23927
23931
23909
23921
23934
23944
23911
23919
23927
23907
23915
23924
23911
23908
23919
23925
23938
23912
23914
23919
23930
23915
23923
23921
23934
23908
23915
23919
23929
23924
23925
23908
23911
23917
23924
23905
23915
23924
23912
23919
23927
23937
23911
23924
23930
23923
23913
23930
23917
23909
23919
23915
23906
23920
23917
23907
23927
23920
23919
23914
23925
23926
23911
23924
23918
23916
23902
23919
23919
23902
23918
23919
23905
23918
23916
23905
23927
23919
23911
23927
23922
23915
23924
23911
23924
23915
23942
23919
23910
23924
23906
23937
23901
23900
23910
23911
23935
23946
23894
23903
23935
23932
23957
23917
23893
23906
23942
23928
23957
23901
23898
23925
23953
23903
23904
23927
23956
23910
23911
23946
23937
23967
23917
23925
23933
23918
23920
23924
23922
23919
23915
23919
23916
23915
23916
23916
23913
23917
23917
23924
23914
23916
23915
23919
23919
23911
23914
23913
23915
23918
23911
23916
23908
23915
23915
23916
23911
23919
23919
23921
23911
23923
23919
23918
23916
23918
23920
23913
23910
23913
23916
23908
23911
23916
23910
23915
23912
23921
23916
23911
23919
23917
23909
23919
23909
23911
23913
23919
23924
23908
23913
23915
23917
23905
23916
23910
23921
23909
23919
23917
23908
23922
23920
23917
23915
23919
23923
23905
23911
23916
23919
23903
23914
23911
23923
23909
23911
23915
23922
23910
23918
23918
23919
23908
23918
23927
23923
23904
23913
23911
23917
23911
23916
23918
23919
23911
23911
23918
23932
23910
23918
23924
23910
23923
23920
23924
23909
23914
23917
23923
23906
23918
23919
23934
23903
23912
23912
23920
23908
23918
23919
23924
23907
23921
23923
23920
23908
23913
23912
23926
23903
23916
23925
23908
23917
23919
23905
23921
23917
23911
23910
23919
23927
23908
23916
23923
23900
23927
23925
23903
23909
23918
23902
23913
23913
23907
23911
23913
23930
23911
23919
23922
23911
23915
23916
23927
23912
23918
23926
23910
23919
23919
23942
23911
23914
23901
23919
23906
23927
23911
23929
23910
23927
23914
23925
23908
23909
23924
23948
23912
23917
23929
23904
23920
23922
23946
23910
23919
23935
23917
23927
23931
23926
23916
23940
23926
23926
23909
23935
23921
23908
23927
23910
23907
23921
23911
23938
23924
23911
23934
23920
23919
23952
23927
23913
23946
23923
23910
23926
23918
23908
23933
23923
23910
23927
23922
23911
23931
23924
23909
23934
23921
23920
23915
23930
23922
23911
23946
23927
23916
23915
23919
23909
23918
23924
23909
23918
23918
23948
23913
23929
23927
23936
23913
23924
23923
23908
23915
23919
23911
23910
23921
23908
23905
23919
23918
23927
23911
23917
23922
23914
23909
23922
23911
23918
23911
23923
23914
23900
23919
23913
23906
23923
23911
23906
23907
23924
23918
23910
23925
23917
23923
23914
23919
23918
23918
23911
23917
23919
23909
23909
23910
23919
23911
23902
23916
23916
23910
23919
23911
23924
23913
23916
23906
23923
23916
23907
23912
23907
23926
23913
23914
23901
23918
23910
23908
23916
23918
23905
23913
23920
23911
23920
23911
23911
23917
23908
23902
23913
23909
23903
23915
23914
23903
23913
23908
23900
23911
23908
23911
23905
23914
23917
23906
23918
23908
23903
23914
23903
23916
23916
23905
23909
23898
23912
23910
23909
23911
23909
23919
23906
23905
23917
23903
23916
23902
23925
23914
23898
23933
23908
23903
23911
23906
23903
23913
23906
23897
23919
23911
23903
23911
23908
23919
23908
23919
23911
23899
23925
23909
23905
23898
23908
23909
23902
23917
23910
23902
23926
23913
23907
23919
23916
23908
23914
23904
23919
23914
23900
23911
23909
23894
23911
23906
23895
23910
23913
23902
23911
23911
23898
23918
23909
23916
23910
23903
23911
23911
23897
23910
23910
23907
23906
23907
23898
23912
23909
23907
23933
23912
23904
23900
23917
23914
23898
23908
23898
23919
23901
23901
23907
23899
23898
23905
23908
23897
23901
23919
23913
23916
23900
23914
23919
23905
23906
23909
23914
23867
23896
23902
23911
23892
23902
23924
23906
23910
23932
23900
23912
23915
23927
23903
23912
23914
23920
23909
23908
23911
23902
23905
23909
23902
23902
23904
23896
23902
23913
23903
23907
23908
23903
23911
23911
23898
23908
23911
23899
23908
23912
23893
23902
23908
23895
23903
23911
23895
23911
23909
23924
23904
23903
23909
23909
23902
23896
23907
23913
23895
23906
23905
23921
23890
23901
23905
23895
23900
23892
23904
23897
23899
23901
23921
23900
23910
23911
23900
23903
23900
23907
23890
23894
23908
23891
23901
23903
23909
23895
23906
23911
23897
23903
23910
23895
23905
23909
23894
23903
23906
23914
23892
23902
23903
23891
23892
23898
23905
23887
23898
23913
23888
23897
23910
23892
23900
23912
23893
23903
23908
23886
23900
23898
23887
23889
23903
23890
23899
23897
23914
23890
23897
23916
23894
23903
23905
23892
23893
23896
23911
23885
23893
23909
23887
23888
23903
23883
23895
23906
23887
23888
23895
23906
23916
23883
23901
23905
23884
23885
23895
23906
23886
23887
23902
23884
23896
23898
23880
23889
23903
23885
23891
23889
23903
23887
23900
23904
23879
23885
23901
23878
23886
23896
23881
23892
23895
23881
23887
23893
23883
23884
23888
23898
23877
23900
23900
23879
23885
23893
23892
23875
23885
23882
23874
23877
23887
23876
23886
23906
23887
23895
23876
23887
23895
23888
23884
23910
23888
23897
23874
23898
23889
23879
23877
23882
23879
23895
23882
23879
23871
23889
23874
23899
23888
23878
23894
23884
23879
23903
23884
23879
23871
23881
23887
23876
23890
23884
23874
23874
23893
23883
23877
23869
23892
23886
23882
23869
23884
23879
23872
23857
23879
23870
23864
23889
23879
23871
23866
23887
23874
23871
23879
23871
23892
23884
23870
23885
23876
23871
23879
23876
23863
23879
23871
23868
23879
23876
23868
23878
23879
23898
23884
23879
23868
23880
23871
23868
23878
23870
23863
23882
23873
23864
23876
23874
23862
23887
23873
23876
23865
23866
23887
23877
23873
23881
23877
23869
23861
23886
23876
23863
23863
23874
23874
23863
23858
23879
23873
23874
23863
23883
23873
23869
23865
23878
23862
23879
23869
23863
23876
23865
23855
23855
23872
23870
23853
23875
23861
23866
23855
23875
23868
23862
23884
23871
23860
23882
23869
23871
23853
23876
23867
23868
23849
23872
23862
23850
23884
23868
23872
23850
23875
23875
23863
23858
23868
23865
23855
23860
23849
23871
23868
23853
23864
23863
23850
23868
23861
23852
23867
23857
23857
23876
23862
23859
23850
23873
23865
23853
23878
23854
23855
23862
23845
23852
23855
23860
23884
23855
23861
23869
23849
23857
23865
23868
23852
23850
23858
23869
23884
23846
23852
23858
23866
23847
23844
23857
23866
23846
23853
23860
23871
23850
23866
23856
23851
23868
23863
23857
23862
23853
23862
23857
23857
23846
23845
23869
23855
23853
23853
23844
23836
23861
23848
23886
23849
23836
23873
23856
23834
23853
23828
23910
23858
23838
23945
23861
23876
23835
23834
23919
23877
23881
23839
23942
23875
23868
23849
23880
23874
23842
23867
23870
23850
23855
23858
23847
23850
23847
23855
23856
23852
23851
23862
23853
23855
23854
23847
23852
23847
23844
23847
23844
23841
23842
23846
23849
23837
23846
23847
23840
23847
23845
23847
23844
23850
23847
23843
23833
23844
23836
23838
23844
23841
23836
23841
23843
23836
23845
23838
23847
23842
23839
23855
23845
23838
23847
23847
23835
23844
23845
23829
23846
23839
23838
23831
23841
23844
23836
23828
23844
23849
23838
23844
23842
23836
23847
23838
23831
23833
23843
23835
23828
23829
23839
23834
23831
23824
23842
23831
23828
23846
23836
23830
23845
23839
23833
23841
23839
23831
23846
23835
23828
23844
23829
23827
23851
23843
23836
23835
23842
23828
23838
23841
23828
23834
23852
23828
23837
23823
23830
23836
23827
23830
23847
23822
23829
23839
23823
23834
23839
23823
23840
23844
23826
23840
23833
23825
23832
23849
23841
23834
23828
23818
23815
23839
23835
23830
23818
23833
23829
23822
23842
23836
23834
23818
23830
23831
23827
23823
23831
23832
23809
23818
23833
23825
23834
23820
23832
23836
23852
23822
23831
23841
23813
23831
23844
23817
23836
23827
23812
23820
23826
23843
23814
23818
23820
23830
23801
23810
23836
23828
23824
23827
23834
23815
23830
23839
23815
23823
23831
23806
23824
23831
23808
23820
23830
23809
23813
23823
23834
23814
23827
23815
23823
23845
23809
23825
23835
23814
23823
23808
23831
23824
23807
23818
23831
23807
23813
23826
23810
23814
23825
23853
23815
23826
23834
23814
23818
23822
23845
23808
23825
23823
23802
23810
23818
23820
23812
23815
23820
23841
23812
23829
23814
23829
23832
23806
23825
23826
23802
23815
23826
23796
23815
23807
23815
23822
23804
23818
23823
23812
23812
23824
23828
23808
23812
23817
23805
23815
23820
23805
23812
23821
23802
23814
23814
23814
23802
23814
23815
23826
23806
23827
23825
23807
23815
23810
23815
23804
23807
23808
23814
23797
23801
23810
23821
23799
23815
23815
23825
23804
23815
23820
23792
23813
23810
23820
23798
23812
23806
23810
23799
23807
23820
23798
23798
23808
23799
23804
23805
23809
23800
23797
23805
23809
23790
23798
23799
23804
23807
23789
23790
23793
23795
23799
23791
23796
23797
23800
23789
23798
23804
23821
23795
23798
23805
23793
23799
23796
23786
23792
23796
23799
23785
23797
23796
23789
23791
23798
23803
23790
23797
23796
23807
23791
23788
23796
23799
23783
23783
23790
23814
23788
23791
23794
23782
23793
23795
23796
23788
23788
23796
23801
23776
23793
23791
23790
23794
23782
23786
23785
23798
23781
23783
23788
23795
23772
23789
23788
23802
23782
23793
23791
23782
23785
23790
23796
23780
23780
23784
23788
23786
23771
23778
23784
23791
23781
23788
23778
23786
23795
23783
23788
23791
23781
23782
23791
23775
23783
23781
23802
23770
23783
23781
23788
23775
23785
23788
23769
23777
23783
23790
23775
23786
23785
23765
23775
23777
23787
23775
23770
23776
23780
23772
23771
23778
23786
23767
23773
23779
23784
23771
23782
23783
23774
23771
23780
23785
23764
23774
23776
23783
23763
23782
23769
23797
23774
23764
23782
23774
23766
23782
23766
23769
23781
23781
23762
23772
23765
23758
23779
23772
23760
23778
23765
23759
23777
23770
23766
23761
23776
23780
23780
23764
23775
23775
23764
23764
23772
23776
23762
23766
23772
23756
23764
23768
23780
23758
23773
23775
23767
23759
23773
23765
23759
23772
23774
23758
23777
23769
23755
23770
23767
23754
23753
23770
23765
23756
23768
23762
23791
23772
23762
23756
23775
23763
23786
23764
23755
23762
23762
23750
23751
23756
23767
23752
23767
23757
23750
23769
23760
23757
23781
23767
23752
23766
23765
23749
23775
23751
23751
23764
23751
23751
23745
23762
23757
23753
23748
23762
23762
23753
23766
23763
23756
23750
23767
23756
23755
23745
23765
23751
23746
23751
23760
23754
23748
23742
23754
23753
23774
23756
23750
23751
23761
23758
23751
23767
23747
23745
23761
23751
23748
23759
23749
23739
23756
23758
23747
23761
23752
23741
23750
23760
23750
23755
23740
23783
23756
23749
23741
23761
23759
23755
23742
23762
23756
23748
23740
23756
23753
23751
23743
23759
23751
23743
23743
23764
23755
23745
23739
23737
23757
23744
23740
23738
23771
23753
23749
23742
23772
23750
23752
23737
23754
23752
23738
23749
23738
23751
23746
23732
23731
23735
23746
23748
23727
23750
23750
23739
23732
23757
23748
23742
23753
23749
23730
23748
23750
23727
23748
23746
23728
23751
23748
23727
23745
23732
23749
23743
23733
23750
23740
23769
23743
23727
23749
23734
23749
23726
23731
23740
23745
23726
23741
23746
23759
23735
23737
23752
23731
23740
23745
23748
23745
23745
23732
23729
23766
23740
23736
23726
23741
23735
23734
23723
23749
23744
23743
23729
23748
23741
23726
23751
23740
23730
23725
23748
23738
23732
23723
23742
23734
23723
23751
23732
23730
23725
23744
23739
23732
23726
23745
23737
23726
23750
23740
23729
23750
23734
23733
23720
23742
23733
23716
23741
23730
23725
23740
23743
23729
23735
23726
23746
23732
23735
23717
23729
23717
23741
23734
23718
23738
23726
23718
23735
23724
23748
23732
23724
23747
23742
23735
23724
23742
23740
23729
23727
23724
23751
23727
23717
23736
23727
23717
23739
23732
23734
23723
23738
23734
23749
23722
23737
23738
23732
23719
23729
23735
23757
23719
23726
23736
23716
23729
23734
23725
23724
23732
23744
23717
23735
23750
23723
23730
23738
23719
23723
23731
23731
23720
23719
23733
23725
23734
23719
23721
23724
23729
23740
23722
23719
23738
23733
23720
23725
23729
23740
23717
23729
23730
23716
23730
23727
23719
23724
23726
23732
23718
23724
23730
23745
23716
23727
23739
23717
23735
23739
23716
23728
23731
23741
23716
23725
23729
23716
23722
23730
23717
23718
23732
23740
23748
23723
23731
23739
23750
23717
23728
23727
23719
23721
23724
23731
23717
23724
23737
23723
23727
23726
23748
23722
23727
23738
23719
23719
23727
23727
23719
23727
23732
23717
23727
23740
23715
23726
23730
23716
23724
23729
23738
23721
23727
23739
23721
23727
23745
23721
23732
23690
23727
23733
23714
23730
23734
23721
23730
23746
23722
23737
23734
23745
23751
23728
23738
23693
23722
23738
23755
23708
23727
23734
23770
23703
23727
23737
23770
23706
23741
23750
23719
23726
23744
23785
23721
23751
23778
23721
23733
23721
23749
23748
23766
23728
23737
23745
23729
23735
23741
23744
23734
23732
23739
23742
23741
23735
23735
23729
23738
23731
23733
23737
23732
23730
23733
23730
23739
23735
23740
23739
23738
23733
23740
23740
23746
23732
23742
23737
23748
23735
23742
23745
23723
23732
23738
23739
23732
23743
23741
23735
23736
23740
23746
23732
23741
23748
23751
23738
23738
23738
23747
23735
23741
23744
23748
23739
23734
23741
23745
23751
23743
23751
23748
23735
23742
23751
23751
23741
23750
23751
23735
23747
23748
23750
23743
23744
23752
23740
23746
23750
23754
23745
23751
23758
23754
23744
23749
23751
23742
23746
23745
23740
23756
23756
23747
23758
23745
23746
23760
23757
23747
23756
23758
23775
23754
23744
23764
23754
23764
23758
23745
23762
23750
23760
23759
23748
23766
23759
23769
23762
23754
23773
23765
23753
23767
23757
23771
23765
23759
23769
23764
23756
23762
23759
23757
23769
23754
23772
23767
23756
23774
23764
23761
23779
23779
23761
23773
23774
23727
23770
23764
23779
23769
23762
23783
23768
23767
23782
23780
23765
23770
23780
23783
23740
23777
23776
23786
23773
23771
23780
23798
23772
23775
23782
23760
23780
23782
23768
23780
23781
23793
23776
23789
23792
23804
23783
23785
23794
23774
23783
23783
23798
23808
23783
23782
23796
23778
23780
23798
23797
23796
23787
23783
23791
23796
23814
23783
23789
23794
23799
23814
23783
23802
23801
23804
23782
23791
23798
23804
23789
23794
23804
23804
23810
23806
23792
23794
23810
23802
23815
23791
23812
23807
23791
23793
23812
23811
23832
23802
23808
23819
23796
23807
23812
23821
23838
23804
23814
23824
23802
23802
23815
23833
23804
23814
23837
23819
23827
23808
23827
23846
23820
23830
23812
23824
23831
23814
23829
23831
23826
23823
23815
23809
23831
23830
23815
23838
23823
23819
23832
23831
23855
23842
23825
23839
23834
23823
23849
23836
23839
23824
23840
23836
23826
23844
23838
23814
23841
23836
23844
23846
23861
23846
23834
23847
23846
23838
23842
23845
23834
23839
23841
23855
23844
23839
23852
23852
23867
23842
23855
23850
23859
23844
23857
23858
23865
23852
23853
23854
23860
23847
23845
23862
23863
23846
23855
23864
23848
23860
23871
23853
23857
23871
23863
23868
23872
23862
23859
23866
23868
23879
23862
23870
23873
23861
23867
23873
23887
23867
23879
23882
23897
23871
23876
23883
23871
23876
23887
23885
23868
23876
23882
23869
23880
23881
23900
23871
23885
23889
23901
23881
23897
23893
23903
23887
23892
23893
23898
23884
23890
23894
23882
23887
23899
23902
23884
23901
23902
23905
23886
23905
23911
23900
23901
23905
23913
23898
23910
23907
23923
23905
23907
23922
23900
23908
23900
23910
23917
23905
23914
23919
23913
23920
23922
23914
23915
23919
23924
23909
23920
23929
23915
23917
23925
23908
23909
23925
23936
23924
23930
23935
23917
23934
23938
23927
23928
23929
23940
23924
23930
23943
23925
23931
23940
23941
23934
23939
23937
23952
23938
23949
23948
23961
23943
23949
23957
23937
23943
23951
23959
23942
23943
23952
23962
23943
23951
23959
23973
23949
23963
23972
