EDA
24845
24851
24847
24845
24850
24846
24839
24846
24845
24844
24846
24843
24842
24840
24839
24839
24836
24839
24839
24839
24842
24839
24842
24845
24839
24839
24839
24837
24839
24839
24836
24839
24839
24835
24831
24837
24836
24839
24836
24839
24834
24833
24835
24836
24834
24833
24832
24835
24832
24831
24826
24833
24829
24832
24829
24825
24835
24830
24831
24836
24838
24830
24838
24833
24828
24830
24831
24822
24825
24827
24836
24834
24831
24826
24831
24833
24831
24828
24836
24822
24826
24829
24824
24834
24829
24826
24831
24823
24831
24831
24825
24828
24824
24825
24825
24823
24829
24825
24817
24826
24829
24831
24823
24827
24826
24831
24820
24830
24823
24824
24827
24827
24820
24823
24818
24825
24820
24817
24815
24821
24817
24822
24818
24823
24823
24815
24815
24820
24822
24823
24816
24817
24821
24822
24812
24817
24815
24814
24818
24817
24825
24815
24820
24818
24821
24812
24819
24814
24813
24819
24815
24823
24812
24817
24822
24815
24812
24816
24812
24815
24814
24816
24819
24813
24819
24814
24807
24813
24813
24815
24814
24810
24809
24805
24812
24807
24813
24804
24814
24811
24806
24813
24811
24815
24814
24807
24805
24813
24803
24811
24804
24815
24807
24807
24807
24808
24806
24811
24804
24809
24801
24799
24800
24812
24812
24806
24815
24809
24812
24803
24807
24804
24802
24798
24807
24807
24804
24804
24788
24792
24807
24807
24807
24820
24794
24792
24799
24800
24804
24804
24791
24792
24794
24790
24799
24799
24791
24807
24803
24801
24796
24820
24796
24796
24805
24803
24792
24803
24801
24785
24793
24788
24806
24797
24790
24804
24799
24780
24792
24802
24784
24794
24788
24812
24796
24791
24798
24794
24793
24797
24796
24768
24791
24790
24797
24793
24780
24797
24796
24780
24791
24786
24794
24793
24776
24785
24788
24796
24785
24796
24791
24776
24792
24783
24788
24788
24778
24786
24788
24802
24785
24783
24790
24788
24795
24793
24803
24783
24800
24787
24782
24787
24775
24786
24785
24773
24781
24781
24784
24787
24773
24794
24785
24794
24792
24779
24787
24783
24783
24780
24783
24773
24773
24780
24783
24785
24775
24778
24780
24782
24798
24774
24781
24779
24784
24775
24772
24789
24780
24785
24786
24775
24775
24775
24783
24781
24783
24773
24781
24775
24785
24777
24772
24783
24777
24783
24772
24784
24780
24770
24770
24775
24778
24775
24774
24779
24780
24771
24769
24774
24777
24767
24766
24781
24778
24784
24770
24780
24773
24781
24771
24769
24777
24779
24774
24766
24772
24773
24775
24783
24767
24771
24778
24775
24773
24775
24773
24777
24783
24766
24769
24768
24779
24764
24774
24775
24757
24775
24769
24772
24775
24759
24764
24767
24772
24775
24774
24765
24773
24767
24775
24762
24770
24763
24767
24772
24771
24781
24759
24767
24772
24756
24766
24771
24780
24759
24760
24772
24772
24764
24760
24760
24769
24770
24766
24766
24759
24762
24753
24764
24757
24765
24758
24767
24767
24756
24765
24759
24763
24759
24754
24763
24759
24767
24766
24759
24765
24756
24767
24764
24755
24769
24762
24756
24759
24756
24765
24763
24757
24759
24757
24769
24755
24755
24761
24758
24748
24763
24750
24761
24762
24762
24757
24775
24756
24751
24756
24751
24761
24756
24766
24759
24751
24756
24758
24737
24757
24748
24765
24761
24750
24756
24749
24764
24757
24748
24762
24751
24756
24756
24748
24749
24750
24756
24745
24743
24752
24737
24759
24762
24743
24759
24743
24762
24748
24753
24756
24743
24754
24742
24756
24755
24760
24755
24742
24759
24751
24742
24749
24754
24750
24753
24749
24749
24748
24749
24749
24745
24754
24749
24745
24748
24743
24753
24749
24744
24751
24743
24744
24740
24753
24748
24758
24745
24743
24750
24740
24744
24746
24759
24745
24743
24746
24746
24734
24744
24735
24757
24746
24736
24745
24747
24750
24750
24758
24742
24743
24742
24738
24751
24742
24743
24739
24740
24745
24747
24738
24743
24743
24729
24745
24740
24746
24742
24735
24744
24739
24738
24743
24733
24738
24740
24733
24742
24735
24738
24740
24729
24741
24735
24737
24737
24740
24751
24743
24735
24725
24738
24733
24741
24743
24741
24739
24743
24740
24737
24738
24727
24733
24739
24740
24751
24730
24734
24737
24754
24732
24743
24741
24733
24745
24732
24724
24740
24733
24724
24740
24735
24729
24743
24742
24727
24738
24730
24728
24743
24741
24735
24728
24741
24735
24743
24740
24738
24741
24737
24740
24727
24741
24726
24727
24738
24737
24751
24741
24726
24743
24734
24737
24733
24725
24735
24730
24741
24731
24723
24734
24727
24743
24726
24719
24725
24733
24732
24724
24732
24722
24732
24724
24740
24732
24723
24739
24724
24718
24732
24719
24734
24726
24721
24722
24741
24729
24725
24722
24732
24732
24722
24729
24734
24720
24732
24724
24726
24711
24728
24725
24719
24718
24723
24730
24722
24727
24724
24732
24730
24726
24724
24723
24719
24740
24720
24716
24727
24725
24719
24721
24719
24717
24723
24727
24713
24714
24722
24714
24724
24721
24715
24721
24714
24721
24726
24703
24721
24718
24724
24725
24719
24711
24719
24716
24718
24716
24715
24721
24723
24715
24729
24731
24716
24722
24719
24722
24714
24713
24712
24723
24723
24711
24731
24719
24721
24708
24709
24720
24711
24710
24729
24722
24721
24725
24719
24706
24720
24719
24765
24713
24700
24804
24719
24710
24698
24722
24730
24702
24727
24700
24738
24720
24699
24735
24743
24698
24735
24714
24701
24736
24730
24720
24732
24711
24711
24718
24732
24767
24711
24727
24740
24711
24722
24721
24726
24711
24716
24722
24719
24717
24724
24715
24719
24719
24723
24721
24719
24719
24718
24717
24717
24721
24721
24716
24717
24712
24713
24714
24711
24708
24717
24711
24715
24723
24719
24713
24717
24711
24714
24711
24715
24717
24711
24719
24709
24715
24714
24710
24719
24708
24712
24711
24710
24714
24711
24710
24710
24711
24710
24711
24713
24706
24711
24711
24709
24710
24705
24706
24703
24711
24709
24709
24711
24708
24713
24711
24711
24701
24711
24711
24708
24711
24711
24704
24706
24709
24710
24709
24706
24704
24702
24704
24706
24702
24704
24708
24710
24708
24708
24708
24708
24705
24700
24703
24690
24704
24703
24706
24705
24702
24702
24701
24703
24701
24708
24709
24705
24709
24705
24702
24698
24700
24702
24706
24701
24700
24703
24699
24703
24702
24701
24700
24696
24703
24703
24702
24708
24707
24696
24708
24695
24700
24698
24698
24702
24697
24699
24699
24702
24699
24695
24695
24703
24701
24701
24702
24694
24705
24692
24692
24702
24698
24696
24697
24695
24692
24694
24689
24695
24695
24698
24703
24695
24694
24692
24706
24698
24689
24697
24690
24693
24698
24700
24689
24695
24692
24687
24694
24694
24694
24687
24697
24692
24695
24695
24695
24695
24695
24699
24689
24694
24692
24692
24687
24694
24693
24693
24689
24692
24689
24687
24689
24689
24690
24693
24691
24702
24693
24685
24695
24696
24689
24689
24692
24698
24691
24684
24695
24687
24682
24687
24683
24693
24695
24684
24685
24694
24681
24691
24691
24682
24686
24692
24680
24691
24681
24679
24688
24700
24683
24687
24687
24679
24688
24681
24691
24678
24678
24685
24685
24686
24679
24695
24681
24690
24671
24682
24684
24691
24676
24679
24683
24685
24670
24674
24690
24682
24689
24679
24679
24681
24692
24678
24679
24684
24680
24671
24676
24677
24689
24674
24683
24682
24684
24675
24687
24681
24678
24679
24681
24680
24693
24671
24673
24677
24667
24677
24672
24679
24673
24679
24687
24672
24681
24677
24679
24673
24679
24679
24683
24674
24686
24675
24682
24682
24670
24676
24674
24687
24677
24669
24675
24671
24684
24674
24679
24684
24669
24673
24677
24674
24679
24670
24676
24679
24668
24679
24677
24678
24661
24664
24674
24677
24675
24680
24689
24661
24664
24674
24675
24678
24683
24675
24664
24675
24679
24673
24671
24672
24662
24668
24673
24669
24679
24663
24668
24672
24675
24684
24656
24679
24678
24671
24679
24674
24660
24668
24679
24671
24671
24671
24671
24663
24660
24665
24674
24676
24671
24677
24673
24675
24668
24665
24682
24670
24669
24668
24664
24678
24667
24660
24668
24661
24671
24673
24675
24682
24666
24671
24679
24676
24677
24658
24672
24673
24675
24663
24661
24670
24671
24676
24658
24669
24671
24661
24671
24678
24663
24661
24671
24671
24665
24671
24671
24670
24660
24653
24665
24663
24673
24676
24657
24662
24664
24671
24663
24660
24666
24665
24666
24662
24671
24665
24655
24667
24662
24662
24667
24663
24663
24655
24664
24655
24663
24666
24655
24668
24657
24675
24658
24667
24660
24662
24657
24665
24657
24661
24678
24654
24657
24663
24660
24662
24667
24653
24656
24663
24653
24661
24660
24668
24663
24674
24650
24652
24658
24665
24657
24661
24663
24665
24648
24652
24652
24655
24660
24657
24665
24670
24652
24663
24663
24659
24660
24655
24646
24656
24655
24657
24663
24650
24646
24654
24661
24671
24649
24663
24660
24658
24663
24653
24666
24652
24658
24659
24660
24660
24660
24649
24668
24653
24647
24658
24649
24650
24667
24655
24648
24660
24651
24663
24659
24650
24652
24652
24669
24652
24648
24650
24647
24660
24646
24624
24655
24646
24641
24653
24647
24661
24647
24654
24648
24657
24661
24647
24655
24651
24657
24647
24654
24650
24647
24652
24644
24660
24653
24644
24653
24660
24645
24655
24653
24647
24651
24651
24642
24661
24651
24647
24649
24647
24644
24658
24646
24644
24657
24655
24643
24658
24650
24647
24657
24645
24644
24660
24650
24647
24654
24655
24642
24653
24652
24645
24656
24655
24642
24642
24650
24657
24636
24655
24657
24647
24650
24647
24646
24653
24648
24639
24646
24651
24644
24645
24645
24657
24651
24646
24653
24648
24644
24651
24647
24655
24650
24647
24644
24651
24663
24647
24643
24653
24647
24644
24660
24650
24645
24639
24652
24655
24642
24655
24654
24647
24630
24647
24649
24647
24652
24653
24640
24651
24647
24653
24647
24644
24646
24650
24647
24654
24654
24639
24650
24651
24642
24650
24649
24640
24650
24644
24625
24647
24647
24640
24649
24647
24643
24649
24645
24650
24646
24645
24645
24650
24640
24647
24650
24638
24646
24655
24639
24645
24638
24637
24650
24641
24644
24642
24649
24653
24640
24660
24644
24645
24640
24647
24646
24638
24622
24647
24638
24661
24646
24651
24637
24647
24647
24644
24634
24646
24648
24641
24647
24642
24647
24640
24641
24647
24642
24660
24642
24640
24645
24641
24639
24646
24650
24636
24646
24657
24638
24645
24643
24648
24644
24646
24639
24647
24644
24639
24639
24647
24643
24639
24646
24645
24628
24640
24639
24646
24647
24638
24647
24641
24647
24646
24645
24647
24650
24636
24643
24637
24644
24647
24637
24640
24644
24637
24647
24638
24650
24641
24634
24648
24645
24636
24646
24651
24635
24642
24639
24647
24659
24645
24639
24647
24647
24640
24643
24649
24647
24638
24657
24644
24643
24651
24645
24639
24647
24641
24636
24649
24635
24643
24643
24645
24657
24639
24635
24647
24641
24639
24646
24639
24659
24645
24638
24644
24642
24631
24641
24647
24628
24641
24640
24631
24644
24645
24637
24647
24636
24653
24646
24639
24646
24639
24638
24645
24643
24654
24636
24644
24645
24644
24633
24633
24645
24639
24644
24634
24638
24646
24648
24636
24641
24640
24636
24645
24639
24636
24631
24644
24640
24652
24637
24634
24642
24641
24637
24631
24638
24641
24634
24633
24639
24647
24636
24629
24639
24639
24650
24635
24634
24642
24646
24636
24631
24641
24636
24651
24645
24634
24646
24637
24640
24631
24637
24645
24647
24634
24643
24646
24653
24631
24645
24649
24638
24633
24639
24660
24625
24685
24646
24633
24622
24648
24637
24616
24647
24660
24620
24651
24645
24740
24642
24617
24668
24635
24616
24658
24665
24626
24651
24644
24624
24647
24638
24678
24644
24634
24653
24645
24640
24676
24647
24644
24644
24651
24643
24641
24649
24644
24646
24644
24648
24644
24644
24647
24642
24645
24646
24642
24647
24644
24644
24647
24646
24644
24647
24647
24644
24643
24646
24639
24644
24643
24645
24644
24645
24647
24639
24643
24642
24644
24642
24646
24643
24636
24643
24639
24647
24645
24637
24644
24642
24640
24634
24634
24638
24643
24639
24643
24640
24636
24641
24637
24642
24639
24636
24644
24644
24638
24642
24640
24636
24633
24640
24637
24638
24638
24637
24641
24643
24639
24640
24641
24636
24637
24637
24643
24641
24631
24640
24638
24631
24638
24638
24642
24639
24642
24634
24639
24634
24638
24641
24630
24643
24639
24641
24636
24640
24636
24639
24637
24640
24636
24639
24632
24636
24639
24642
24639
24636
24642
24644
24636
24633
24637
24639
24644
24642
24631
24638
24633
24635
24636
24633
24640
24636
24628
24635
24639
24639
24638
24635
24631
24641
24634
24639
24640
24629
24644
24634
24641
24636
24632
24642
24639
24635
24639
24637
24637
24637
24637
24632
24644
24643
24638
24639
24635
24643
24637
24634
24636
24644
24631
24644
24639
24637
24642
24636
24641
24644
24639
24641
24636
24639
24638
24635
24632
24633
24644
24639
24639
24639
24643
24636
24638
24642
24635
24635
24637
24636
24637
24639
24637
24639
24640
24634
24636
24636
24638
24641
24637
24638
24636
24621
24637
24638
24644
24637
24635
24640
24636
24636
24634
24629
24639
24638
24639
24636
24639
24634
24629
24641
24632
24637
24636
24642
24628
24628
24641
24628
24636
24639
24634
24639
24629
24647
24639
24630
24642
24639
24631
24637
24629
24634
24630
24644
24639
24626
24634
24625
24634
24628
24637
24639
24630
24644
24636
24625
24640
24631
24642
24645
24629
24637
24634
24637
24630
24639
24630
24642
24633
24628
24631
24631
24646
24641
24626
24644
24627
24635
24633
24644
24639
24626
24643
24622
24641
24631
24640
24639
24649
24643
24653
24639
24651
24644
24644
24639
24648
24643
24646
24629
24629
24639
24629
24637
24639
24628
24636
24623
24636
24633
24629
24639
24623
24636
24629
24638
24628
24626
24644
24639
24634
24645
24631
24638
24639
24649
24631
24640
24632
24641
24631
24643
24634
24647
24628
24644
24636
24608
24633
24633
24640
24627
24631
24635
24635
24624
24635
24641
24640
24647
24639
24629
24636
24636
24632
24631
24638
24640
24631
24643
24635
24643
24636
24639
24624
24631
24631
24635
24637
24647
24627
24631
24644
24638
24635
24642
24631
24626
24638
24633
24638
24641
24631
24630
24631
24636
24641
24636
24628
24636
24633
24644
24643
24642
24631
24630
24646
24641
24641
24628
24639
24645
24639
24630
24636
24637
24643
24629
24634
24639
24628
24643
24644
24630
24637
24626
24640
24634
24644
24639
24633
24646
24625
24643
24638
24646
24634
24631
24644
24636
24633
24634
24642
24632
24633
24643
24639
24631
24640
24634
24637
24638
24636
24631
24637
24633
24625
24637
24639
24626
24637
24638
24647
24641
24632
24639
24639
24630
24649
24637
24631
24640
24633
24629
24639
24636
24626
24637
24629
24636
24637
24631
24636
24631
24639
24643
24634
24636
24628
24642
24638
24631
24638
24637
24631
24641
24636
24629
24630
24631
24639
24631
24615
24642
24634
24654
24635
24628
24635
24628
24644
24633
24630
24639
24632
24621
24639
24631
24630
24628
24638
24622
24640
24632
24628
24634
24628
24639
24642
24631
24640
24634
24649
24637
24628
24647
24631
24628
24634
24633
24643
24645
24628
24640
24631
24633
24645
24647
24634
24631
24639
24632
24628
24645
24637
24624
24650
24636
24631
24641
24636
24631
24628
24647
24628
24630
24636
24639
24628
24636
24636
24642
24637
24631
24638
24631
24641
24640
24628
24634
24623
24637
24626
24636
24644
24628
24638
24634
24618
24636
24633
24631
24628
24637
24636
24631
24631
24642
24643
24631
24639
24632
24643
24629
24639
24642
24629
24633
24634
24637
24631
24630
24630
24633
24638
24622
24631
24631
24638
24628
24636
24629
24639
24631
24630
24642
24636
24639
24627
24639
24640
24639
24630
24633
24639
24628
24637
24639
24639
24623
24629
24632
24639
24630
24636
24640
24630
24634
24631
24640
24635
24637
24635
24628
24641
24638
24631
24628
24639
24631
24633
24627
24626
24642
24639
24644
24636
24634
24639
24639
24631
24635
24634
24628
24631
24636
24631
24641
24642
24625
24635
24628
24637
24636
24636
24640
24628
24643
24644
24639
24631
24631
24639
24629
24643
24645
24644
24627
24635
24635
24645
24640
24631
24638
24642
24635
24639
24641
24623
24641
24636
24630
24636
24631
24617
24638
24633
24634
24642
24642
24636
24626
24639
24634
24628
24639
24631
24634
24642
24635
24646
24632
24637
24642
24636
24630
24637
24628
24636
24643
24624
24638
24624
24636
24644
24628
24639
24640
24635
24639
24638
24634
24638
24633
24630
24636
24629
24645
24637
24626
24642
24639
24639
24642
24638
24624
24633
24636
24629
24638
24636
24647
24634
24632
24633
24633
24635
24639
24642
24639
24631
24643
24628
24633
24642
24623
24639
24645
24635
24631
24626
24639
24631
24630
24634
24637
24647
24635
24632
24639
24638
24628
24635
24631
24638
24636
24631
24639
24629
24641
24638
24626
24639
24634
24631
24639
24636
24630
24639
24634
24644
24632
24627
24640
24643
24633
24633
24628
24639
24630
24642
24636
24625
24636
24630
24636
24627
24636
24623
24636
24631
24639
24644
24626
24635
24633
24632
24631
24640
24631
24629
24638
24635
24628
24637
24628
24630
24640
24634
24626
24639
24630
24627
24639
24639
24631
24638
24634
24630
24624
24637
24630
24628
24632
24634
24628
24631
24639
24627
24635
24637
24628
24633
24632
24651
24637
24629
24648
24636
24639
24630
24650
24642
24634
24635
24639
24633
24631
24651
24645
24620
24649
24649
24629
24648
24616
24646
24628
24667
24642
24625
24655
24650
24625
24641
24621
24647
24625
24656
24660
24647
24660
24620
24655
24649
24678
24626
24640
24648
24674
24632
24646
24642
24647
24652
24639
24637
24641
24643
24647
24630
24638
24644
24637
24644
24635
24641
24641
24641
24639
24638
24639
24641
24641
24638
24635
24638
24638
24639
24636
24639
24636
24637
24631
24635
24634
24634
24639
24634
24636
24641
24639
24627
24636
24636
24632
24630
24639
24632
24635
24629
24633
24644
24631
24632
24632
24636
24636
24634
24636
24637
24634
24632
24626
24636
24631
24632
24631
24628
24634
24639
24628
24629
24630
24633
24636
24637
24639
24632
24635
24638
24632
24633
24635
24635
24631
24631
24628
24631
24635
24635
24639
24629
24634
24639
24632
24636
24637
24633
24639
24626
24637
24631
24628
24630
24634
24630
24636
24626
24631
24631
24635
24626
24630
24633
24629
24630
24634
24631
24631
24630
24628
24628
24625
24632
24626
24631
24631
24639
24629
24629
24644
24628
24628
24637
24626
24629
24633
24629
24631
24630
24623
24634
24631
24631
24629
24623
24631
24628
24631
24631
24630
24630
24629
24631
24636
24631
24635
24628
24628
24629
24623
24631
24628
24628
24632
24626
24628
24624
24631
24630
24633
24628
24626
24629
24628
24635
24625
24627
24633
24628
24625
24627
24635
24621
24626
24630
24620
24637
24620
24635
24625
24631
24629
24623
24625
24623
24623
24624
24623
24623
24625
24629
24628
24626
24628
24626
24617
24629
24623
24624
24625
24620
24623
24623
24629
24625
24623
24627
24627
24621
24620
24629
24620
24620
24620
24620
24618
24623
24620
24613
24628
24616
24628
24624
24615
24625
24630
24623
24621
24627
24623
24633
24623
24620
24614
24623
24623
24618
24625
24625
24610
24629
24620
24615
24626
24631
24619
24628
24614
24628
24627
24612
24620
24622
24611
24622
24615
24622
24620
24615
24629
24627
24619
24612
24630
24621
24616
24626
24620
24615
24626
24617
24609
24620
24620
24631
24619
24618
24633
24621
24615
24626
24623
24612
24624
24626
24610
24623
24615
24613
24620
24619
24628
24619
24613
24622
24615
24614
24619
24620
24628
24618
24613
24622
24620
24615
24623
24623
24615
24622
24613
24612
24633
24619
24615
24610
24615
24621
24625
24615
24620
24618
24613
24626
24618
24620
24609
24615
24615
24613
24621
24615
24607
24615
24613
24623
24614
24611
24619
24609
24617
24617
24611
24622
24619
24610
24623
24615
24613
24620
24623
24613
24618
24617
24610
24615
24615
24608
24615
24615
24607
24621
24618
24635
24618
24612
24626
24620
24612
24628
24623
24607
24623
24620
24607
24618
24613
24609
24623
24613
24611
24623
24615
24612
24612
24607
24609
24608
24620
24617
24611
24619
24613
24605
24607
24613
24615
24610
24621
24609
24608
24631
24613
24607
24621
24614
24605
24608
24614
24612
24607
24611
24605
24603
24607
24606
24607
24609
24615
24617
24615
24606
24611
24615
24607
24622
24610
24607
24612
24611
24601
24625
24615
24608
24619
24614
24600
24608
24614
24605
24613
24608
24613
24613
24615
24614
24606
24611
24599
24617
24598
24608
24612
24606
24618
24606
24603
24613
24611
24599
24614
24609
24606
24608
24612
24614
24599
24615
24615
24598
24612
24606
24600
24611
24612
24602
24607
24605
24615
24604
24602
24609
24606
24607
24603
24615
24612
24609
24597
24612
24607
24604
24601
24607
24611
24594
24612
24609
24601
24607
24611
24597
24612
24604
24607
24600
24609
24606
24599
24613
24599
24607
24595
24604
24604
24599
24588
24605
24607
24599
24597
24609
24607
24599
24618
24603
24596
24571
24601
24594
24604
24607
24596
24596
24599
24610
24601
24615
24604
24596
24610
24599
24593
24601
24599
24599
24612
24599
24598
24612
24604
24593
24615
24601
24601
24593
24607
24604
24599
24588
24605
24605
24595
24604
24606
24593
24605
24607
24599
24604
24591
24593
24591
24588
24591
24607
24597
24597
24597
24593
24597
24599
24615
24605
24591
24599
24598
24589
24601
24597
24582
24599
24595
24609
24596
24598
24583
24596
24596
24588
24607
24592
24597
24583
24594
24599
24588
24596
24596
24590
24602
24596
24583
24583
24597
24591
24581
24595
24591
24583
24593
24586
24613
24597
24596
24602
24594
24583
24593
24589
24588
24601
24588
24583
24583
24595
24589
24583
24597
24596
24588
24597
24593
24594
24588
24596
24599
24583
24599
24591
24583
24597
24594
24588
24582
24590
24593
24583
24597
24590
24582
24607
24593
24583
24585
24596
24582
24591
24589
24592
24597
24583
24596
24590
24583
24591
24583
24580
24592
24583
24583
24590
24581
24580
24594
24589
24583
24591
24583
24583
24589
24583
24591
24589
24580
24587
24579
24583
24583
24591
24598
24581
24591
24585
24591
24599
24576
24589
24583
24586
24588
24596
24583
24580
24583
24583
24583
24583
24581
24603
24583
24583
24599
24583
24583
24578
24591
24583
24575
24589
24583
24583
24593
24583
24574
24583
24588
24582
24581
24591
24574
24587
24596
24578
24596
24582
24578
24588
24583
24583
24583
24582
24574
24583
24580
24578
24583
24583
24574
24581
24583
24577
24583
24591
24582
24589
24593
24581
24582
24575
24583
24578
24580
24583
24576
24583
24581
24573
24583
24579
24574
24583
24583
24575
24582
24579
24576
24583
24575
24565
24583
24573
24590
24582
24572
24564
24575
24570
24599
24576
24573
24583
24572
24574
24589
24580
24574
24571
24577
24577
24573
24575
24575
24582
24577
24565
24575
24575
24567
24580
24573
24583
24573
24564
24578
24575
24564
24580
24572
24566
24579
24572
24568
24573
24569
24564
24575
24570
24561
24572
24573
24559
24567
24568
24578
24569
24583
24573
24564
24575
24567
24564
24583
24567
24572
24566
24561
24558
24565
24564
24564
24564
24577
24564
24567
24575
24568
24567
24565
24567
24570
24561
24564
24568
24566
24583
24569
24562
24578
24567
24562
24580
24574
24561
24583
24575
24562
24601
24573
24569
24549
24570
24565
24644
24564
24559
24546
24578
24562
24547
24599
24570
24548
24616
24564
24554
24583
24588
24549
24583
24593
24548
24590
24583
24551
24583
24574
24644
24571
24556
24583
24562
24588
24570
24564
24577
24568
24575
24570
24570
24570
24570
24564
24573
24570
24566
24569
24569
24571
24572
24573
24569
24563
24565
24578
24573
24570
24567
24564
24569
24567
24564
24566
24567
24559
24567
24567
24567
24564
24560
24568
24561
24561
24567
24560
24564
24561
24564
24561
24567
24559
24563
24562
24560
24557
24559
24559
24557
24561
24559
24556
24559
24565
24561
24563
24559
24559
24559
24559
24564
24561
24552
24556
24562
24554
24559
24558
24559
24559
24561
24551
24556
24559
24553
24551
24562
24558
24551
24559
24557
24537
24552
24555
24558
24553
24556
24551
24550
24551
24553
24552
24551
24555
24553
24551
24551
24551
24551
24549
24553
24549
24546
24551
24547
24548
24549
24550
24550
24551
24545
24551
24552
24549
24544
24551
24554
24546
24545
24548
24551
24554
24550
24543
24549
24549
24546
24551
24546
24549
24541
24547
24548
24542
24548
24547
24548
24545
24546
24543
24544
24542
24543
24545
24542
24549
24542
24540
24539
24541
24545
24540
24548
24544
24538
24543
24547
24541
24539
24542
24540
24542
24550
24535
24532
24542
24533
24540
24545
24534
24542
24543
24533
24542
24543
24538
24539
24539
24537
24544
24535
24537
24538
24537
24535
24536
24535
24547
24534
24536
24545
24530
24537
24547
24531
24538
24534
24530
24538
24542
24532
24533
24537
24543
24535
24535
24532
24538
24535
24529
24524
24527
24534
24535
24528
24534
24533
24531
24532
24534
24530
24531
24529
24532
24532
24526
24525
24534
24524
24532
24535
24527
24534
24533
24527
24532
24539
24527
24524
24540
24526
24529
24522
24518
24540
24529
24523
24534
24524
24520
24537
24524
24520
24517
24529
24525
24518
24537
24524
24517
24531
24525
24513
24526
24525
24517
24527
24519
24540
24525
24535
24513
24530
24535
24519
24531
24535
24518
24530
24527
24517
24521
24522
24518
24522
24526
24516
24536
24519
24521
24519
24525
24518
24515
24527
24532
24519
24522
24517
24527
24519
24510
24523
24508
24524
24518
24511
24518
24519
24514
24518
24517
24519
24524
24519
24509
24526
24517
24510
24518
24526
24515
24519
24512
24527
24522
24517
24516
24511
24518
24516
24524
24516
24510
24517
24523
24509
24519
24513
24503
24523
24500
24521
24519
24501
24513
24506
24511
24513
24505
24516
24508
24510
24516
24518
24505
24516
24523
24506
24512
24520
24506
24518
24518
24508
24517
24511
24501
24512
24510
24492
24516
24502
24513
24510
24503
24516
24512
24502
24510
24503
24511
24519
24502
24509
24516
24503
24510
24508
24500
24505
24505
24511
24504
24504
24509
24515
24507
24505
24497
24511
24504
24497
24501
24499
24516
24501
24495
24501
24498
24513
24509
24495
24506
24494
24502
24495
24508
24503
24495
24505
24500
24511
24500
24493
24499
24515
24495
24504
24503
24508
24495
24500
24493
24504
24521
24490
24494
24500
24492
24503
24501
24503
24485
24488
24501
24495
24502
24487
24491
24502
24502
24489
24499
24496
24495
24491
24501
24497
24495
24500
24491
24499
24494
24485
24492
24482
24495
24490
24508
24491
24487
24495
24486
24494
24493
24487
24495
24487
24495
24487
24492
24492
24482
24493
24487
24493
24489
24484
24495
24487
24484
24495
24495
24484
24494
24487
24506
24492
24487
24492
24491
24478
24489
24484
24483
24489
24480
24500
24482
24482
24489
24477
24491
24489
24485
24488
24487
24495
24486
24482
24487
24489
24483
24484
24486
24488
24487
24478
24487
24485
24473
24486
24476
24487
24488
24476
24477
24476
24485
24483
24473
24487
24484
24471
24485
24478
24473
24487
24487
24470
24469
24477
24486
24495
24473
24477
24481
24476
24474
24479
24482
24471
24476
24475
24486
24481
24474
24471
24479
24476
24468
24478
24471
24486
24478
24469
24478
24471
24483
24471
24486
24476
24471
24474
24472
24483
24474
24466
24478
24476
24468
24470
24468
24470
24477
24468
24476
24480
24471
24471
24465
24479
24463
24468
24477
24477
24464
24472
24469
24473
24468
24478
24469
24485
24472
24463
24479
24474
24462
24470
24463
24474
24466
24469
24466
24466
24460
24471
24479
24468
24461
24481
24475
24461
24478
24467
24454
24468
24463
24468
24468
24463
24461
24465
24471
24462
24461
24465
24467
24455
24460
24461
24478
24458
24461
24473
24461
24459
24465
24461
24460
24465
24461
24446
24455
24453
24466
24458
24450
24469
24455
24453
24466
24455
24455
24466
24461
24451
24465
24463
24452
24461
24452
24455
24452
24460
24455
24455
24462
24455
24451
24461
24447
24457
24460
24451
24455
24455
24468
24456
24453
24460
24463
24451
24461
24453
24453
24446
24453
24454
24447
24461
24459
24451
24455
24450
24465
24462
24450
24452
24444
24452
24447
24455
24450
24453
24447
24458
24444
24465
24447
24446
24461
24451
24447
24459
24449
24450
24452
24447
24458
24451
24457
24447
24448
24451
24449
24439
24448
24449
24438
24455
24447
24462
24450
24444
24455
24452
24439
24447
24443
24454
24452
24439
24455
24449
24436
24449
24455
24437
24455
24445
24437
24451
24455
24439
24452
24445
24451
24443
24440
24445
24444
24443
24447
24436
24452
24443
24434
24443
24438
24455
24438
24435
24447
24445
24441
24450
24449
24453
24438
24438
24442
24448
24439
24440
24441
24436
24445
24439
24437
24434
24441
24439
24437
24451
24443
24434
24446
24450
24439
24444
24442
24428
24438
24439
24440
24438
24447
24440
24432
24438
24439
24430
24432
24436
24433
24437
24433
24431
24438
24433
24428
24436
24438
24428
24439
24431
24422
24431
24436
24431
24431
24429
24438
24431
24428
24436
24436
24422
24435
24431
24449
24434
24428
24426
24439
24435
24427
24433
24433
24423
24434
24440
24422
24433
24431
24424
24431
24436
24421
24431
24433
24422
24426
24429
24423
24432
24425
24420
24431
24423
24422
24426
24428
24420
24428
24429
24422
24429
24424
24420
24426
24417
24420
24423
24418
24433
24423
24423
24438
24422
24420
24436
24434
24419
24433
24431
24410
24436
24437
24403
24492
24433
24425
24403
24442
24436
24398
24449
24431
24414
24405
24437
24414
24405
24447
24426
24403
24451
24421
24412
24451
24431
24412
24440
24432
24422
24421
24423
24414
24439
24429
24452
24431
24423
24434
24428
24421
24428
24427
24427
24430
24426
24423
24430
24422
24421
24423
24423
24420
24427
24426
24423
24423
24423
24423
24427
24422
24422
24420
24423
24420
24429
24421
24417
24417
24420
24420
24423
24423
24423
24423
24423
24416
24415
24402
24421
24423
24418
24420
24417
24417
24414
24416
24422
24415
24415
24416
24419
24419
24411
24415
24412
24416
24413
24416
24414
24414
24414
24408
24413
24412
24412
24416
24412
24408
24411
24413
24412
24412
24380
24414
24414
24405
24415
24411
24410
24412
24415
24406
24406
24408
24409
24404
24402
24407
24404
24412
24411
24406
24409
24404
24401
24406
24406
24404
24409
24406
24406
24405
24404
24404
24401
24407
24405
24407
24412
24406
24406
24400
24405
24403
24412
24398
24405
24405
24404
24367
24398
24397
24399
24403
24366
24399
24399
24398
24397
24405
24400
24405
24406
24396
24403
24402
24401
24398
24397
24404
24405
24399
24395
24404
24394
24397
24398
24397
24399
24401
24395
24399
24399
24396
24405
24391
24393
24400
24393
24405
24399
24392
24399
24396
24396
24396
24396
24392
24392
24392
24398
24401
24397
24399
24389
24396
24395
24395
24400
24396
24402
24390
24392
24399
24391
24394
24397
24389
24402
24394
24389
24397
24391
24388
24395
24391
24387
24390
24396
24394
24394
24391
24391
24389
24390
24391
24391
24392
24391
24383
24399
24388
24395
24386
24399
24391
24399
24384
24391
24391
24395
24387
24388
24388
24390
24381
24387
24386
24379
24391
24388
24387
24374
24395
24388
24376
24389
24395
24383
24388
24385
24391
24376
24382
24388
24383
24398
24385
24380
24382
24391
24385
24380
24406
24387
24388
24372
24390
24385
24379
24374
24390
24386
24377
24387
24386
24386
24384
24389
24371
24385
24388
24375
24386
24387
24376
24380
24387
24383
24384
24380
24375
24381
24380
24374
24388
24383
24372
24387
24380
24388
24375
24373
24388
24389
24369
24380
24372
24383
24369
24383
24378
24372
24375
24375
24379
24373
24388
24377
24371
24383
24371
24370
24375
24373
24389
24376
24371
24373
24378
24369
24373
24371
24375
24376
24369
24379
24368
24385
24373
24367
24377
24375
24364
24382
24373
24366
24379
24375
24367
24382
24374
24368
24386
24372
24369
24382
24368
24367
24381
24369
24370
24379
24377
24367
24377
24377
24360
24367
24374
24368
24369
24375
24364
24375
24371
24382
24369
24363
24375
24368
24361
24370
24378
24362
24373
24369
24389
24369
24367
24379
24369
24367
24367
24367
24367
24370
24362
24360
24372
24370
24364
24377
24375
24365
24385
24372
24372
24361
24377
24362
24361
24378
24372
24364
24384
24367
24362
24367
24360
24375
24367
24364
24376
24362
24362
24377
24363
24374
24362
24370
24361
24363
24363
24368
24363
24352
24369
24364
24359
24379
24364
24364
24382
24365
24362
24369
24361
24371
24367
24358
24362
24357
24364
24362
24358
24359
24359
24373
24360
24354
24364
24362
24356
24363
24354
24366
24366
24359
24374
24365
24359
24360
24354
24365
24356
24364
24361
24354
24362
24360
24355
24359
24359
24366
24361
24356
24356
24358
24371
24358
24356
24357
24363
24354
24360
24353
24364
24354
24353
24366
24355
24364
24364
24349
24358
24353
24359
24349
24359
24352
24362
24362
24346
24358
24343
24369
24359
24348
24362
24356
24344
24362
24350
24356
24349
24356
24360
24349
24362
24356
24358
24347
24362
24359
24365
24350
24355
24350
24349
24348
24356
24352
24346
24359
24359
24344
24351
24348
24358
24351
24355
24347
24355
24350
24340
24355
24341
24357
24351
24348
24352
24348
24332
24344
24343
24351
24358
24343
24359
24348
24351
24348
24347
24344
24351
24351
24354
24344
24345
24346
24352
24367
24339
24349
24355
24351
24353
24343
24354
24351
24363
24348
24346
24349
24365
24336
24351
24349
24346
24343
24341
24342
24350
24344
24349
24340
24343
24348
24351
24335
24346
24345
24355
24334
24351
24348
24348
24340
24351
24349
24343
24351
24348
24335
24343
24352
24340
24343
24340
24352
24346
24331
24343
24339
24341
24342
24334
24345
24341
24350
24344
24329
24343
24342
24335
24347
24339
24332
24333
24343
24330
24346
24341
24330
24343
24344
24333
24341
24334
24344
24339
24334
24348
24334
24345
24346
24335
24351
24349
24341
24340
24333
24353
24340
24335
24352
24344
24335
24341
24332
24349
24343
24332
24345
24331
24349
24343
24332
24346
24340
24336
24341
24335
24333
24345
24345
24330
24344
24341
24334
24345
24342
24336
24344
24342
24335
24342
24346
24331
24343
24333
24343
24328
24343
24334
24339
24350
24346
24343
24354
24340
24334
24343
24338
24335
24341
24329
24339
24348
24334
24341
24327
24337
24330
24340
24340
24351
24330
24327
24332
24336
24343
24336
24327
24346
24341
24326
24328
24335
24351
24339
24332
24330
24323
24338
24322
24336
24334
24343
24335
24322
24327
24335
24322
24332
24327
24332
24341
24327
24336
24338
24327
24336
24340
24330
24337
24324
24339
24336
24345
24327
24327
24338
24332
24330
24339
24327
24341
24340
24324
24337
24333
24327
24334
24326
24335
24325
24334
24327
24353
24333
24326
24332
24331
24331
24327
24329
24334
24327
24336
24340
24327
24334
24331
24327
24333
24326
24340
24332
24321
24342
24335
24337
24327
24335
24337
24324
24328
24329
24355
24327
24336
24335
24342
24319
24330
24330
24339
24325
24335
24326
24333
24350
24319
24342
24336
24333
24324
24327
24335
24330
24335
24340
24321
24324
24335
24335
24324
24326
24333
24340
24326
24332
24337
24334
24336
24319
24324
24326
24326
24324
24327
24331
24319
24322
24317
24334
24325
24327
24339
24319
24321
24335
24327
24339
24327
24333
24324
24333
24335
24319
24319
24335
24326
24328
24328
24314
24321
24322
24315
24325
24319
24330
24322
24320
24327
24327
24320
24327
24321
24341
24323
24313
24327
24323
24320
24324
24321
24317
24325
24323
24316
24327
24322
24319
24325
24324
24317
24319
24318
24334
24322
24323
24322
24324
24311
24327
24316
24313
24327
24326
24317
24326
24335
24317
24330
24324
24335
24327
24327
24319
24327
24317
24342
24322
24312
24369
24324
24303
24344
24316
24307
24334
24334
24308
24336
24316
24424
24338
24305
24335
24316
24350
24348
24309
24333
24309
24330
24311
24335
24324
24362
24324
24316
24343
24345
24320
24328
24338
24327
24332
24330
24325
24334
24326
24321
24324
24322
24327
24327
24317
24333
24324
24326
24325
24325
24328
24327
24327
24324
24327
24324
24327
24325
24322
24318
24326
24327
24323
24324
24322
24319
24323
24322
24327
24321
24319
24322
24322
24322
24320
24327
24319
24319
24318
24318
24319
24321
24318
24319
24319
24324
24327
24317
24324
24325
24324
24322
24317
24319
24324
24319
24321
24317
24316
24317
24311
24316
24317
24319
24317
24318
24314
24319
24322
24326
24319
24310
24321
24317
24319
24319
24317
24318
24324
24317
24314
24314
24314
24317
24312
24319
24323
24323
24318
24322
24313
24319
24313
24315
24311
24318
24319
24316
24315
24318
24316
24313
24319
24319
24310
24316
24311
24305
24314
24307
24319
24312
24311
24324
24315
24316
24316
24311
24312
24321
24311
24319
24309
24310
24319
24310
24310
24317
24311
24312
24316
24315
24313
24309
24311
24312
24313
24313
24308
24308
24311
24315
24318
24308
24312
24311
24311
24311
24313
24310
24319
24319
24316
24306
24313
24318
24309
24311
24305
24305
24313
24310
24314
24317
24307
24314
24310
24316
24313
24311
24311
24312
24302
24315
24305
24311
24311
24304
24312
24311
24303
24312
24312
24315
24311
24306
24309
24308
24313
24308
24303
24313
24309
24313
24311
24303
24311
24306
24311
24308
24304
24304
24305
24303
24272
24311
24308
24310
24308
24305
24309
24311
24315
24308
24306
24308
24303
24303
24303
24308
24297
24312
24303
24299
24309
24303
24302
24314
24304
24306
24278
24305
24309
24303
24306
24308
24301
24307
24311
24300
24311
24303
24297
24308
24309
24305
24312
24307
24308
24306
24309
24300
24309
24303
24314
24303
24295
24308
24297
24315
24302
24290
24305
24301
24308
24311
24297
24302
24298
24307
24311
24293
24313
24297
24298
24303
24303
24316
24303
24290
24310
24303
24297
24313
24303
24299
24317
24305
24295
24299
24307
24303
24295
24310
24310
24294
24302
24295
24291
24305
24301
24305
24292
24303
24307
24292
24301
24305
24292
24303
24311
24293
24305
24301
24293
24295
24300
24303
24292
24294
24299
24308
24293
24313
24300
24305
24290
24309
24303
24304
24295
24301
24301
24303
24298
24291
24297
24309
24294
24299
24290
24301
24300
24300
24287
24303
24301
24296
24308
24300
24299
24320
24295
24295
24316
24302
24295
24309
24294
24290
24292
24293
24302
24298
24287
24295
24297
24307
24297
24295
24301
24293
24312
24297
24295
24294
24296
24308
24291
24288
24297
24297
24303
24292
24292
24303
24294
24292
24308
24295
24292
24294
24295
24303
24292
24297
24295
24292
24300
24295
24292
24311
24294
24291
24305
24295
24290
24300
24292
24300
24300
24292
24287
24294
24292
24297
24295
24295
24295
24299
24292
24298
24300
24287
24305
24292
24295
24298
24297
24292
24294
24293
24288
24295
24295
24289
24285
24288
24287
24303
24287
24292
24299
24293
24283
24298
24295
24283
24292
24300
24292
24295
24293
24290
24292
24289
24293
24292
24281
24295
24295
24306
24289
24284
24300
24288
24284
24293
24295
24286
24292
24297
24287
24286
24293
24291
24291
24286
24292
24296
24285
24288
24293
24293
24287
24287
24294
24281
24295
24283
24301
24297
24293
24286
24289
24286
24295
24287
24294
24290
24283
24292
24291
24293
24290
24287
24293
24290
24304
24291
24295
24304
24291
24282
24299
24295
24282
24293
24281
24289
24295
24293
24287
24290
24287
24283
24297
24294
24279
24289
24282
24290
24282
24294
24282
24286
24289
24283
24301
24290
24279
24292
24284
24301
24295
24279
24292
24291
24278
24294
24284
24276
24289
24284
24297
24292
24277
24291
24294
24294
24292
24281
24293
24280
24284
24291
24281
24295
24298
24286
24291
24279
24295
24293
24285
24298
24290
24287
24284
24297
24285
24282
24294
24287
24277
24285
24301
24294
24287
24287
24295
24290
24285
24294
24295
24286
24288
24285
24284
24289
24291
24281
24293
24283
24287
24289
24278
24287
24284
24281
24286
24282
24302
24289
24276
24287
24286
24276
24293
24291
24281
24287
24285
24277
24283
24292
24276
24289
24287
24276
24285
24294
24284
24295
24285
24281
24288
24292
24284
24283
24285
24295
24284
24285
24295
24287
24277
24288
24283
24281
24292
24285
24284
24287
24294
24281
24283
24276
24294
24274
24279
24286
24285
24273
24282
24271
24296
24283
24276
24287
24273
24291
24282
24274
24284
24279
24277
24286
24276
24276
24281
24273
24287
24286
24292
24278
24276
24293
24279
24269
24284
24286
24278
24282
24283
24278
24269
24279
24282
24278
24279
24274
24279
24295
24279
24279
24294
24283
24276
24289
24277
24279
24285
24279
24271
24282
24275
24288
24284
24270
24279
24266
24287
24284
24268
24286
24285
24271
24284
24277
24294
24281
24271
24281
24276
24279
24279
24279
24271
24279
24281
24288
24287
24275
24285
24287
24269
24284
24285
24272
24279
24285
24275
24276
24278
24286
24276
24268
24282
24278
24287
24279
24276
24283
24278
24270
24278
24273
24268
24287
24289
24268
24275
24271
24278
24280
24271
24277
24277
24276
24278
24271
24276
24278
24268
24277
24282
24271
24280
24277
24270
24283
24281
24272
24281
24276
24279
24270
24268
24279
24268
24284
24271
24239
24268
24269
24279
24270
24279
24284
24261
24282
24270
24271
24273
24268
24276
24267
24274
24283
24262
24270
24266
24281
24272
24274
24276
24268
24277
24270
24277
24267
24281
24276
24269
24275
24270
24277
24268
24266
24274
24263
24282
24277
24262
24275
24263
24279
24271
24281
24279
24241
24276
24271
24279
24281
24263
24274
24269
24283
24268
24270
24263
24274
24277
24264
24279
24281
24273
24280
24287
24264
24287
24275
24263
24279
24267
24324
24276
24259
24292
24277
24259
24272
24260
24278
24253
24266
24299
24287
24360
24256
24276
24287
24322
24252
24293
24280
24247
24265
24263
24291
24278
24289
24269
24276
24273
24289
24260
24276
24273
24281
24279
24285
24281
24270
24274
24281
24279
24273
24276
24279
24284
24278
24271
24274
24273
24281
24279
24272
24277
24276
24272
24279
24275
24271
24272
24277
24270
24271
24273
24277
24274
24275
24270
24268
24270
24270
24247
24276
24269
24270
24275
24272
24276
24267
24270
24269
24269
24266
24268
24265
24271
24270
24273
24271
24266
24276
24271
24263
24270
24271
24271
24261
24269
24271
24263
24268
24261
24270
24269
24263
24269
24265
24269
24266
24262
24275
24267
24276
24267
24262
24269
24267
24274
24266
24264
24262
24261
24261
24262
24265
24264
24266
24263
24270
24269
24262
24267
24266
24262
24267
24261
24260
24267
24261
24262
24263
24263
24258
24263
24256
24266
24263
24263
24257
24262
24261
24264
24257
24263
24262
24261
24263
24263
24257
24255
24258
24263
24263
24263
24263
24257
24263
24261
24262
24258
24263
24263
24266
24260
24262
24260
24258
24254
24262
24260
24265
24261
24263
24258
24251
24256
24255
24258
24257
24257
24263
24260
24262
24262
24254
24256
24258
24269
24253
24263
24250
24261
24261
24258
24258
24252
24260
24259
24271
24263
24257
24254
24252
24255
24263
24260
24253
24258
24256
24259
24261
24257
24257
24255
24260
24252
24263
24261
24261
24249
24247
24256
24258
24262
24255
24262
24260
24267
24251
24255
24256
24259
24253
24250
24258
24247
24257
24250
24245
24254
24253
24262
24261
24253
24254
24248
24255
24259
24255
24252
24247
24255
24249
24252
24246
24245
24255
24252
24259
24251
24244
24255
24252
24256
24249
24247
24257
24250
24244
24254
24253
24245
24253
24258
24246
24254
24245
24245
24253
24255
24239
24254
24246
24245
24255
24257
24250
24253
24247
24255
24250
24244
24249
24244
24252
24253
24244
24255
24247
24245
24259
24258
24242
24254
24247
24257
24253
24246
24252
24257
24239
24251
24247
24258
24247
24242
24252
24255
24228
24248
24247
24251
24253
24241
24252
24247
24244
24257
24250
24238
24247
24236
24244
24247
24242
24243
24236
24244
24245
24244
24257
24250
24243
24252
24252
24239
24252
24246
24239
24244
24238
24254
24239
24239
24252
24239
24236
24254
24243
24261
24253
24240
24256
24244
24235
24248
24241
24242
24241
24244
24234
24246
24246
24236
24242
24236
24235
24241
24241
24231
24245
24249
24236
24249
24248
24244
24239
24244
24242
24261
24244
24245
24245
24237
24234
24249
24232
24245
24243
24232
24245
24247
24233
24239
24233
24244
24241
24226
24231
24245
24242
24237
24240
24235
24231
24239
24233
24231
24244
24235
24228
24243
24234
24229
24245
24246
24234
24242
24243
24230
24244
24225
24244
24231
24229
24228
24246
24234
24231
24245
24243
24237
24229
24245
24233
24226
24247
24238
24231
24226
24239
24230
24224
24236
24233
24229
24239
24241
24223
24238
24239
24228
24237
24228
24230
24231
24240
24224
24239
24234
24233
24238
24226
24225
24229
24228
24220
24234
24237
24222
24239
24231
24225
24231
24230
24234
24233
24225
24245
24231
24228
24233
24231
24223
24233
24227
24237
24227
24223
24236
24228
24252
24234
24222
24218
24234
24231
24219
24231
24225
24217
24234
24237
24222
24232
24233
24219
24229
24238
24215
24227
24235
24222
24229
24228
24220
24231
24226
24230
24219
24233
24232
24233
24220
24225
24223
24219
24232
24221
24226
24218
24230
24227
24221
24223
24221
24220
24227
24228
24220
24215
24231
24214
24231
24227
24223
24234
24220
24223
24231
24223
24215
24231
24238
24219
24223
24226
24230
24215
24226
24220
24225
24218
24222
24222
24231
24214
24214
24218
24219
24212
24218
24228
24223
24218
24215
24215
24230
24213
24215
24223
24212
24221
24220
24212
24231
24214
24210
24223
24210
24226
24217
24212
24225
24218
24236
24219
24207
24225
24212
24209
24220
24209
24223
24212
24207
24229
24220
24215
24204
24215
24207
24237
24219
24212
24213
24218
24222
24212
24223
24213
24212
24213
24207
24231
24215
24209
24225
24215
24200
24218
24220
24204
24216
24218
24205
24216
24220
24204
24223
24218
24210
24216
24204
24219
24213
24201
24217
24217
24206
24219
24214
24207
24217
24212
24212
24199
24211
24213
24219
24213
24199
24210
24211
24215
24212
24204
24216
24210
24207
24215
24209
24203
24213
24212
24207
24214
24211
24198
24219
24203
24199
24211
24199
24215
24207
24201
24210
24203
24215
24217
24200
24210
24199
24210
24214
24179
24207
24202
24212
24213
24199
24207
24213
24197
24209
24202
24222
24203
24195
24210
24204
24225
24211
24199
24211
24201
24210
24206
24198
24204
24199
24207
24205
24195
24198
24199
24204
24207
24193
24192
24205
24215
24201
24202
24215
24210
24194
24203
24203
24199
24198
24204
24208
24197
24199
24201
24206
24198
24215
24201
24197
24205
24195
24197
24204
24207
24194
24199
24206
24199
24190
24213
24197
24196
24194
24199
24194
24190
24199
24199
24197
24219
24199
24202
24193
24204
24199
24195
24205
24194
24187
24199
24195
24199
24186
24198
24198
24202
24191
24187
24203
24195
24201
24199
24191
24210
24198
24196
24199
24197
24212
24195
24191
24200
24202
24189
24198
24181
24196
24190
24198
24198
24188
24194
24186
24188
24189
24194
24183
24198
24197
24190
24196
24179
24189
24188
24180
24199
24187
24181
24197
24194
24202
24191
24185
24187
24187
24183
24191
24197
24183
24188
24182
24199
24180
24183
24188
24197
24183
24194
24186
24196
24190
24181
24175
24189
24185
24180
24188
24181
24188
24189
24181
24187
24177
24188
24181
24172
24188
24181
24193
24192
24177
24185
24177
24191
24181
24187
24183
24183
24183
24180
24185
24179
24187
24175
24191
24181
24186
24191
24197
24183
24173
24186
24185
24170
24182
24174
24183
24183
24189
24188
24179
24187
24172
24191
24170
24184
24167
24181
24164
24188
24178
24207
24176
24164
24192
24187
24214
24204
24167
24186
24162
24198
24209
24165
24187
24195
24181
24159
24165
24167
24229
24188
24186
24182
24202
24199
24189
24196
24192
24187
24180
24173
24175
24177
24177
24180
24181
24180
24197
24189
24187
24191
24188
24189
24187
24190
24189
24183
24181
24184
24180
24178
24189
24188
24186
24176
24185
24180
24181
24187
24181
24183
24186
24177
24188
24181
24180
24183
24179
24177
24182
24179
24183
24175
24181
24169
24174
24180
24177
24183
24177
24180
24179
24175
24178
24175
24179
24175
24172
24172
24167
24167
24167
24170
24170
24179
24180
24170
24171
24175
24175
24167
24174
24169
24172
24171
24167
24166
24174
24172
24167
24167
24171
24166
24170
24167
24167
24172
24170
24164
24172
24175
24165
24166
24171
24167
24169
24163
24169
24162
24166
24166
24162
24166
24167
24165
24161
24167
24167
24175
24165
24161
24164
24167
24165
24163
24174
24162
24166
24163
24166
24165
24167
24163
24156
24164
24161
24160
24165
24153
24165
24167
24159
24167
24164
24159
24159
24165
24163
24164
24156
24158
24168
24161
24165
24166
24156
24159
24159
24158
24161
24165
24165
24156
24163
24160
24161
24159
24156
24157
24165
24158
24167
24152
24159
24164
24159
24162
24159
24159
24159
24154
24164
24156
24163
24159
24135
24158
24155
24156
24156
24160
24162
24158
24154
24156
24159
24159
24156
24158
24163
24157
24154
24156
24148
24154
24150
24154
24148
24155
24158
24149
24161
24154
24163
24156
24151
24157
24143
24157
24151
24158
24156
24154
24154
24144
24153
24148
24153
24148
24158
24154
24148
24152
24148
24156
24152
24142
24149
24159
24143
24153
24148
24148
24154
24148
24143
24151
24151
24143
24150
24146
24144
24154
24144
24143
24155
24151
24143
24155
24149
24140
24144
24143
24157
24148
24139
24140
24143
24151
24141
24140
24140
24139
24164
24146
24135
24149
24151
24137
24146
24139
24154
24141
24140
24138
24134
24143
24139
24146
24141
24135
24135
24143
24135
24149
24129
24133
24143
24150
24130
24137
24141
24142
24151
24124
24133
24141
24141
24143
24140
24132
24138
24139
24138
24148
24126
24127
24134
24137
24140
24131
24132
24135
24138
24132
24132
24142
24157
24128
24132
24134
24136
24124
24128
24135
24139
24134
24132
24129
24130
24134
24135
24141
24125
24131
24138
24135
24137
24132
24129
24131
24132
24141
24127
24130
24129
24135
24140
24129
24126
24132
24135
24139
24125
24128
24136
24135
24127
24123
24122
24133
24123
24128
24127
24118
24132
24121
24134
24124
24130
24127
24135
24131
24124
24134
24135
24124
24121
24122
24132
24133
24119
24125
24121
24133
24119
24124
24129
24126
24132
24126
24122
24122
24124
24134
24127
24119
24125
24126
24112
24123
24119
24127
24129
24116
24121
24117
24122
24118
24126
24122
24129
24119
24141
24123
24113
24120
24113
24127
24118
24126
24129
24121
24125
24113
24116
24124
24119
24119
24124
24129
24111
24117
24120
24123
24134
24109
24117
24127
24114
24120
24112
24108
24119
24119
24120
24137
24109
24106
24117
24117
24122
24124
24134
24109
24121
24119
24112
24116
24119
24103
24106
24114
24115
24123
24102
24109
24116
24119
24108
24118
24108
24119
24115
24111
24114
24115
24126
24111
24106
24111
24114
24101
24115
24111
24113
24117
24108
24119
24116
24103
24103
24111
24114
24115
24119
24109
24107
24106
24111
24116
24114
24118
24098
24106
24110
24108
24112
24111
24113
24102
24103
24103
24111
24102
24106
24111
24113
24100
24105
24108
24106
24107
24108
24110
24111
24119
24103
24102
24101
24108
24102
24103
24113
24125
24097
24108
24106
24108
24095
24100
24101
24111
24101
24114
24096
24098
24100
24103
24104
24106
24102
24105
24107
24103
24095
24098
24100
24102
24103
24103
24107
24114
24098
24106
24103
24106
24090
24093
24107
24103
24097
24093
24103
24100
24106
24092
24098
24109
24102
24094
24103
24096
24111
24103
24095
24098
24089
24104
24096
24103
24103
24116
24095
24098
24082
24099
24091
24098
24098
24119
24103
24107
24095
24095
24094
24089
24101
24088
24102
24092
24103
24097
24100
24093
24085
24087
24090
24093
24087
24101
24087
24110
24095
24087
24092
24084
24098
24090
24098
24090
24098
24095
24103
24095
24101
24090
24090
24089
24083
24094
24097
24082
24093
24095
24115
24098
24086
24100
24094
24084
24099
24095
24074
24091
24081
24092
24091
24084
24091
24092
24079
24096
24088
24091
24087
24084
24095
24081
24095
24094
24084
24084
24084
24092
24100
24081
24090
24086
24092
24076
24084
24084
24087
24084
24078
24073
24087
24081
24089
24087
24101
24090
24078
24095
24082
24087
24088
24071
24079
24082
24095
24079
24079
24082
24087
24095
24078
24071
24078
24084
24078
24091
24070
24071
24071
24080
24084
24095
24071
24079
24074
24077
24084
24094
24068
24079
24076
24085
24076
24071
24086
24082
24069
24068
24086
24079
24079
24070
24084
24081
24086
24071
24071
24087
24081
24099
24071
24069
24078
24083
24067
24071
24074
24071
24085
24039
24069
24067
24077
24079
24082
24065
24071
24077
24079
24087
24068
24082
24079
24084
24069
24071
24071
24071
24079
24076
24070
24071
24077
24071
24076
24080
24068
24081
24079
24092
24067
24069
24076
24078
24056
24067
24071
24071
24071
24071
24079
24066
24070
24068
24071
24074
24063
24068
24070
24071
24074
24063
24068
24068
24094
24068
24074
24071
24071
24062
24076
24063
24067
24070
24063
24071
24079
24063
24071
24066
24081
24070
24061
24071
24063
24069
24065
24059
24071
24069
24056
24070
24069
24058
24068
24067
24062
24069
24066
24058
24065
24060
24067
24069
24060
24071
24063
24055
24068
24063
24059
24064
24070
24058
24062
24060
24065
24063
24055
24071
24071
24055
24061
24051
24058
24053
24057
24055
24054
24055
24060
24057
24066
24051
24047
24052
24052
24055
24069
24055
24053
24070
24063
24059
24058
24055
24060
24062
24069
24053
24062
24064
24050
24071
24063
24058
24058
24066
24056
24069
24036
24052
24058
24071
24043
24064
24056
24071
24115
24032
24071
24063
24043
24044
24059
24103
24060
24035
24069
24071
24034
24080
24053
24038
24093
24060
24047
24135
24066
24076
24046
24106
24066
24071
24055
24066
24062
24068
24068
24061
24058
24055
24062
24058
24057
24061
24060
24060
24059
24058
24056
24055
24058
24062
24044
24052
24053
24062
24063
24053
24060
24055
24054
24055
24055
24055
24056
24053
24055
24048
24053
24053
24055
24051
24050
24053
24047
24052
24054
24047
24055
24051
24049
24044
24053
24057
24051
24045
24044
24053
24039
24048
24050
24047
24047
24044
24045
24050
24052
24052
24044
24044
24045
24046
24049
24045
24045
24047
24049
24030
24042
24038
24044
24043
24043
24038
24051
24042
24053
24050
24044
24047
24037
24047
24036
24039
24038
24044
24040
24036
24040
24039
24037
24041
24044
24047
24038
24045
24050
24041
24050
24037
24044
24044
24041
24044
24037
24037
24045
24045
24038
24034
24039
24039
24042
24037
24037
24037
24046
24034
24038
24039
24047
24037
24038
24037
24039
24039
24037
24039
24041
24037
24038
24042
24033
24041
24039
24033
24038
24044
24034
24036
24031
24039
24039
24035
24038
24033
24028
24039
24036
24039
24039
24039
24034
24033
24034
24036
24035
24039
24028
24038
24034
24038
24032
24028
24034
24031
24031
24029
24032
24028
24030
24030
24038
24026
24036
24028
24034
24032
24033
24034
24033
24031
24029
24034
24037
24036
24030
24031
24031
24031
24023
24026
24036
24024
24032
24031
24032
24023
24030
24028
24036
24033
24026
24020
24025
24026
24024
24031
24028
24025
24030
24026
24031
24020
24024
24029
24030
24025
24031
24026
24027
24033
24023
24029
24022
24028
24029
24025
24030
24026
24024
24025
24028
24023
24025
24030
24025
24023
24023
24030
24034
24047
24021
24018
24018
24024
24028
24029
24013
24017
24022
24028
24018
24020
24026
24027
24029
24015
24014
24025
24025
24028
24008
24015
24016
24025
24022
24025
24014
24015
24024
24022
24024
24014
24020
24014
24025
24034
24010
24012
24018
24023
24029
24014
24017
24023
24018
24025
24022
24004
24009
24020
24015
24012
24010
24027
24020
24030
24005
24007
24019
24018
24012
24011
24018
24014
24017
24026
24011
24010
24010
24020
24023
24007
24018
24012
24027
24045
24004
24013
24015
24021
24030
24010
24005
24018
24015
24020
24011
24004
24018
24015
24016
24006
24013
24017
24020
24007
24015
24010
24017
24015
24021
24004
24011
24012
24020
24012
24018
24020
24006
24003
24018
24010
24018
24006
24013
24014
24020
24002
24001
24005
24008
24020
24000
24006
24006
24010
24002
23998
24009
24006
24010
24020
24001
24002
24009
24012
24015
24034
24004
24010
24008
24024
23996
24009
24006
23995
24009
24006
24009
24008
23999
24010
24000
24007
24004
23994
24010
24013
23993
24007
24010
24003
24008
23999
24010
24008
23998
24012
24006
23996
24006
24008
23998
24007
24008
23999
24006
23993
24007
23996
24024
24004
23998
24007
24001
23998
24007
24004
24002
24002
24007
24000
24007
24004
23997
24016
23999
23994
24004
23998
23993
24021
23998
23993
23987
24004
23999
23990
24010
23994
23991
24003
23999
23990
24006
23999
23990
23997
23987
24007
23995
23991
24003
24005
24011
23999
23996
23996
23992
23990
23998
23993
23989
23991
23993
23991
23998
23989
23999
23999
23990
23993
23991
23996
23988
23988
23999
23996
23988
23994
23985
24002
23997
23989
24004
23997
23991
24002
23996
23987
23999
24004
23986
23994
23997
23988
23989
23988
24011
23994
23988
23999
23989
23987
23997
23991
24007
23992
23990
23995
23989
24006
23994
23983
24000
23991
23987
23991
23986
23980
23995
23983
23989
23996
23981
23983
23994
23994
23998
23986
23985
23982
23993
23995
23986
23983
23983
23987
23991
23982
23990
23981
23984
23982
23991
23983
23993
23996
23973
23989
23978
23989
23978
23988
23990
23995
23993
24002
23980
23978
23995
23989
23974
23986
23977
23988
23991
23976
23989
23976
23984
23981
23986
23986
23994
23994
24003
23991
23976
23986
23977
23983
23990
24007
23982
23980
23987
23987
23999
23981
23978
23975
23980
23980
23975
23986
23988
23975
23980
23976
23982
23985
23972
23974
23977
23983
23983
23994
23980
23986
23979
23986
23967
23974
23978
23980
23975
23981
23986
23968
23973
23980
23974
23984
23988
23971
23972
23981
23977
23982
23988
23972
23975
23974
23975
23984
23975
23967
23977
23988
23977
23967
23971
23976
23974
23981
23984
23971
23972
23980
23981
23989
23972
23975
23971
23977
23970
23972
23983
23974
23980
23971
23980
23971
23965
23979
23973
23972
23980
23974
23967
23982
23969
23969
23982
23977
23966
23975
23959
23948
23981
23975
23970
23978
23967
23978
23970
23979
23971
23969
23974
23975
23970
23975
23971
23967
23974
23967
23976
23972
23964
23975
23971
23977
23978
23966
23969
23970
23978
23975
23961
23972
23965
23973
23965
23975
23967
23963
23970
23966
23986
23969
23964
23971
23972
23953
23967
23961
23972
23967
23972
23964
23974
23961
23978
23971
23974
23975
23961
23967
23962
23970
23959
23965
23959
23970
23967
23973
23965
23964
23961
23970
23961
23976
23970
23969
23970
23967
23969
23964
23967
23967
23972
23954
23972
23975
23977
23967
23964
23970
23973
23959
23964
23967
23965
23969
23983
23959
23964
23965
23970
23956
23959
23970
23970
23991
23961
23968
23964
23971
23932
23955
23959
23970
23971
23969
23956
23967
23960
23968
23957
23964
23959
23966
23961
23956
23966
23958
23974
23967
23976
23960
23951
23967
23964
23951
23958
23957
23958
23959
23966
23959
23954
23959
23949
23959
23954
23972
23961
23955
23960
23957
23964
23954
23958
23950
23954
23958
23949
23959
23952
23951
23959
23944
23956
23948
23957
23953
23957
23944
23962
23958
23971
23948
23950
23962
23952
23963
23951
23948
23957
23953
23950
23962
23945
23959
23952
23951
23959
23956
23951
23956
23953
23966
23959
23972
23950
23948
23961
23959
23945
23954
23950
23971
23958
23944
23951
23964
23969
23951
23965
23962
23943
23974
23958
23947
23996
23959
23940
23973
23956
23941
23962
23940
23974
23961
23937
23956
23936
23971
23956
23980
23946
23988
23940
23942
23963
23957
23964
23982
23935
23973
23956
23962
23980
23949
23955
23963
23970
23961
23952
23974
23960
23953
23961
23956
23958
23963
23960
23959
23962
23952
23949
23965
23958
23967
23957
23952
23959
23957
23957
23959
23951
23955
23954
23950
23956
23950
23952
23948
23953
23956
23947
23954
23957
23957
23955
23951
23945
23951
23953
23953
23948
23953
23948
23950
23951
23946
23952
23945
23951
23943
23954
23954
23940
23948
23949
23948
23953
23950
23946
23948
23946
23949
23946
23943
23941
23943
23950
23942
23946
23943
23946
23946
23945
23942
23948
23948
23944
23948
23948
23948
23938
23940
23946
23944
23940
23950
23948
23943
23943
23939
23943
23943
23938
23949
23946
23941
23940
23940
23943
23944
23936
23942
23940
23941
23943
23948
23942
23933
23937
23941
23946
23943
23938
23940
23941
23947
23947
23940
23948
23944
23938
23943
23943
23940
23940
23946
23943
23934
23940
23932
23943
23940
23947
23944
23930
23941
23938
23943
23942
23936
23946
23941
23933
23940
23938
23951
23937
23940
23945
23943
23936
23942
23946
23943
23943
23938
23950
23939
23935
23944
23940
23935
23943
23939
23932
23937
23937
23935
23936
23930
23943
23939
23941
23935
23939
23932
23942
23940
23934
23938
23932
23937
23940
23943
23938
23932
23932
23935
23937
23933
23943
23938
23931
23935
23925
23935
23935
23943
23935
23935
23934
23936
23935
23935
23937
23927
23935
23937
23927
23931
23930
23940
23935
23931
23933
23929
23942
23933
23929
23926
23935
23934
23933
23932
23934
23929
23935
23936
23930
23932
23924
23935
23935
23923
23940
23932
23937
23930
23927
23931
23930
23932
23934
23921
23928
23922
23928
23926
23935
23919
23944
23931
23926
23933
23935
23925
23931
23923
23933
23927
23921
23924
23920
23925
23925
23923
23938
23941
23913
23932
23921
23933
23934
23917
23935
23925
23944
23927
23918
23927
23922
23932
23935
23916
23924
23919
23921
23923
23924
23914
23930
23931
23911
23922
23919
23934
23926
23915
23927
23921
23931
23925
23941
23919
23924
23924
23920
23933
23922
23919
23932
23930
23915
23929
23927
23913
23932
23924
23918
23931
23929
23913
23924
23913
23938
23924
23914
23925
23927
23936
23920
23911
23924
23916
23922
23918
23928
23915
23927
23927
23913
23926
23917
23926
23918
23913
23927
23919
23930
23924
23911
23924
23921
23913
23925
23919
23925
23922
23918
23923
23910
23922
23920
23926
23921
23939
23919
23909
23921
23927
23911
23924
23909
23926
23920
23910
23927
23916
23927
23932
23916
23926
23913
23924
23916
23927
23925
23919
23918
23916
23939
23927
23916
23921
23918
23919
23924
23920
23935
23924
23915
23924
23916
23922
23934
23911
23913
23919
23923
23926
23925
23911
23912
23922
23922
23924
23931
23911
23913
23919
23917
23925
23910
23913
23921
23919
23915
23911
23926
23925
23932
23909
23916
23919
23918
23925
23911
23909
23916
23918
23936
23914
23917
23921
23911
23924
23919
23921
23911
23919
23922
23933
23914
23919
23920
23910
23924
23917
23906
23917
23927
23908
23919
23915
23922
23914
23910
23922
23912
23914
23919
23925
23906
23915
23906
23918
23913
23930
23911
23907
23918
23915
23916
23908
23910
23922
23911
23910
23919
23911
23908
23921
23911
23919
23919
23910
23914
23922
23911
23916
23904
23908
23907
23911
23913
23901
23916
23913
23908
23930
23916
23911
23928
23910
23908
23918
23909
23908
23899
23911
23908
23918
23916
23919
23908
23901
23910
23900
23916
23898
23901
23911
23902
23916
23911
23907
23911
23903
23921
23905
23899
23911
23911
23902
23905
23900
23914
23904
23897
23911
23908
23902
23909
23900
23909
23903
23919
23908
23902
23901
23911
23906
23910
23908
23908
23919
23893
23908
23907
23904
23917
23896
23901
23919
23911
23914
23910
23934
23901
23895
23908
23901
23900
23909
23901
23913
23910
23899
23914
23894
23911
23911
23922
23903
23901
23906
23896
23908
23902
23911
23910
23916
23905
23894
23896
23900
23904
23894
23903
23898
23900
23898
23909
23909
23900
23903
23900
23909
23908
23894
23903
23898
23902
23903
23895
23902
23898
23898
23895
23923
23901
23891
23905
23906
23891
23911
23895
23910
23900
23895
23909
23895
23913
23904
23895
23909
23898
23889
23900
23894
23906
23902
23909
23905
23924
23899
23898
23903
23898
23903
23901
23900
23905
23911
23901
23898
23903
23895
23908
23894
23908
23892
23910
23909
23892
23905
23912
23895
23903
23900
23905
23901
23899
23900
23898
23903
23900
23908
23908
23893
23903
23898
23914
23898
23893
23909
23897
23915
23904
23898
23895
23903
23900
23892
23908
23895
23887
23909
23901
23893
23916
23901
23890
23912
23903
23894
23895
23903
23893
23892
23903
23898
23893
23901
23899
23891
23903
23902
23892
23924
23902
23897
23891
23902
23902
23894
23901
23900
23890
23907
23892
23901
23901
23897
23900
23898
23895
23902
23900
23895
23899
23894
23913
23893
23887
23901
23899
23893
23903
23889
23903
23897
23892
23898
23900
23903
23892
23888
23903
23892
23901
23893
23885
23901
23893
23915
23892
23889
23909
23895
23884
23895
23894
23901
23897
23885
23903
23894
23906
23899
23885
23892
23890
23900
23895
23885
23894
23890
23897
23894
23884
23887
23885
23903
23888
23893
23908
23894
23885
23895
23895
23885
23892
23884
23908
23894
23883
23896
23895
23910
23888
23886
23890
23887
23893
23896
23908
23888
23887
23893
23886
23895
23885
23895
23889
23903
23891
23883
23890
23882
23897
23881
23906
23898
23905
23908
23884
23895
23885
23899
23884
23910
23891
23883
23895
23882
23893
23910
23894
23911
23881
23878
23917
23911
23924
23879
23877
23903
23897
23899
23911
23991
23877
23903
23900
23911
23877
23881
23923
23911
23910
23889
23893
23897
23910
23888
23890
23898
23900
23899
23900
23908
23893
23899
23903
23909
23895
23900
23902
23892
23902
23894
23900
23895
23896
23896
23894
23900
23901
23897
23898
23893
23897
23889
23900
23897
23901
23892
23895
23897
23897
23891
23895
23895
23892
23897
23890
23895
23894
23895
23891
23890
23893
23895
23887
23897
23895
23895
23895
23889
23888
23894
23895
23893
23895
23893
23890
23890
23894
23890
23887
23892
23893
23887
23896
23889
23897
23889
23884
23893
23886
23889
23890
23889
23890
23889
23890
23895
23892
23892
23895
23887
23897
23887
23902
23892
23886
23889
23884
23888
23885
23884
23887
23884
23885
23894
23886
23884
23887
23881
23891
23879
23896
23887
23894
23885
23886
23885
23887
23879
23884
23892
23891
23894
23882
23885
23887
23882
23892
23886
23889
23883
23879
23891
23891
23889
23891
23882
23884
23886
23891
23890
23879
23890
23885
23876
23881
23882
23887
23890
23881
23884
23876
23883
23885
23891
23892
23881
23886
23881
23890
23894
23886
23879
23883
23883
23889
23884
23882
23887
23873
23879
23880
23888
23883
23879
23882
23887
23871
23878
23879
23890
23884
23877
23892
23883
23879
23884
23879
23879
23884
23890
23877
23890
23889
23873
23884
23885
23878
23882
23885
23879
23885
23889
23856
23877
23879
23885
23873
23885
23879
23884
23881
23885
23883
23873
23880
23878
23887
23881
23879
23882
23888
23887
23883
23881
23880
23876
23884
23877
23878
23882
23874
23887
23880
23876
23880
23881
23886
23884
23892
23874
23879
23878
23878
23882
23876
23874
23882
23876
23879
23871
23885
23872
23895
23876
23876
23884
23877
23874
23882
23881
23882
23877
23874
23879
23871
23892
23883
23889
23885
23892
23879
23867
23882
23868
23882
23877
23879
23877
23873
23889
23879
23879
23881
23891
23880
23868
23878
23871
23878
23879
23869
23882
23871
23880
23884
23868
23880
23869
23884
23879
23893
23878
23875
23879
23877
23890
23877
23871
23878
23870
23882
23878
23866
23879
23869
23882
23887
23870
23879
23871
23875
23875
23870
23878
23878
23869
23877
23868
23889
23874
23865
23882
23867
23896
23876
23869
23872
23864
23875
23874
23876
23871
23876
23863
23874
23873
23886
23877
23869
23872
23872
23887
23876
23868
23879
23879
23871
23870
23863
23879
23885
23871
23872
23863
23873
23868
23877
23869
23876
23881
23871
23876
23869
23876
23875
23868
23865
23870
23858
23875
23870
23873
23876
23877
23865
23861
23875
23875
23879
23860
23863
23870
23875
23879
23894
23862
23873
23865
23881
23877
23868
23876
23867
23876
23878
23856
23872
23863
23886
23875
23861
23879
23871
23863
23878
23876
23863
23870
23863
23872
23872
23865
23876
23868
23865
23866
23875
23876
23870
23863
23863
23869
23863
23864
23878
23862
23870
23869
23877
23871
23875
23865
23874
23864
23874
23874
23860
23869
23860
23873
23871
23879
23868
23863
23869
23862
23872
23863
23878
23870
23868
23870
23858
23877
23867
23860
23868
23875
23855
23871
23857
23874
23868
23859
23871
23862
23871
23879
23887
23867
23862
23863
23860
23870
23873
23861
23868
23862
23871
23871
23855
23864
23856
23866
23863
23876
23868
23877
23857
23860
23860
23862
23870
23855
23869
23857
23876
23864
23860
23875
23876
23857
23865
23863
23862
23869
23858
23871
23874
23860
23868
23872
23866
23860
23863
23869
23860
23868
23865
23873
23871
23856
23871
23863
23857
23874
23863
23861
23870
23861
23851
23866
23859
23877
23865
23859
23870
23873
23846
23867
23859
23851
23868
23863
23870
23863
23854
23865
23858
23873
23868
23854
23862
23859
23868
23863
23857
23865
23865
23853
23867
23857
23873
23871
23855
23867
23860
23856
23867
23868
23860
23870
23863
23852
23867
23860
23879
23861
23855
23863
23855
23866
23869
23879
23863
23853
23867
23855
23863
23869
23852
23861
23865
23861
23859
23854
23861
23870
23852
23860
23862
23868
23855
23858
23866
23861
23868
23851
23855
23861
23866
23856
23860
23855
23864
23850
23855
23858
23867
23855
23865
23860
23864
23868
23851
23867
23873
23849
23858
23852
23860
23860
23866
23859
23855
23860
23859
23869
23848
23866
23868
23850
23862
23859
23846
23863
23855
23860
23862
23866
23865
23873
23855
23852
23861
23852
23862
23863
23847
23859
23852
23858
23852
23871
23871
23846
23860
23850
23862
23861
23853
23860
23853
23858
23863
23875
23856
23851
23863
23857
23854
23857
23848
23864
23862
23845
23867
23864
23847
23862
23860
23850
23863
23861
23853
23861
23855
23851
23847
23854
23853
23844
23862
23861
23847
23863
23874
23852
23869
23862
23853
23875
23850
23860
23863
23855
23852
23874
23855
23855
23846
23863
23861
23828
23860
23847
23864
23863
23853
23870
23850
23847
23858
23852
23869
23857
23852
23859
23847
23869
23858
23850
23863
23860
23845
23863
23848
23867
23856
23849
23862
23863
23852
23857
23852
23869
23859
23853
23877
23861
23852
23848
23855
23853
23852
23862
23855
23855
23868
23862
23847
23862
23851
23853
23862
23851
23850
23860
23854
23850
23857
23859
23849
23876
23857
23853
23844
23852
23850
23870
23855
23847
23859
23853
23847
23855
23852
23847
23860
23853
23847
23855
23847
23845
23860
23857
23850
23852
23847
23855
23847
23860
23852
23837
23861
23853
23841
23847
23854
23846
23846
23854
23847
23871
23847
23847
23856
23845
23847
23853
23847
23853
23849
23847
23852
23850
23845
23855
23852
23845
23855
23859
23846
23847
23850
23860
23852
23839
23855
23847
23847
23852
23847
23845
23850
23849
23845
23846
23845
23846
23825
23849
23842
23855
23844
23840
23851
23843
23849
23843
23850
23852
23846
23848
23855
23846
23847
23852
23842
23851
23836
23858
23847
23845
23857
23851
23861
23853
23843
23850
23846
23836
23855
23860
23822
23863
23862
23822
23858
23861
23827
23858
23853
23831
23854
23869
23831
23877
23851
23828
23866
23853
23829
23876
23862
23834
23861
23872
23836
23850
23839
23858
23833
23869
23861
23835
23855
23853
23877
23858
23849
23852
23852
23860
23855
23851
23854
23851
23855
23855
23847
23854
23855
23849
23850
23850
23838
23855
23847
23853
23852
23847
23845
23850
23855
23852
23855
23849
23845
23857
23855
23849
23850
23855
23852
23845
23850
23846
23849
23849
23852
23844
23846
23846
23847
23847
23847
23847
23844
23847
23842
23846
23850
23847
23849
23846
23846
23847
23849
23844
23849
23842
23847
23846
23847
23847
23847
23847
23845
23850
23842
23847
23852
23845
23847
23849
23845
23844
23846
23839
23839
23845
23843
23844
23845
23844
23842
23839
23839
23837
23840
23832
23846
23839
23842
23842
23842
23844
23842
23847
23844
23837
23843
23841
23835
23839
23839
23836
23845
23844
23836
23848
23844
23841
23835
23839
23847
23842
23843
23836
23836
23835
23840
23844
23841
23833
23838
23839
23840
23839
23834
23839
23844
23836
23836
23843
23847
23839
23833
23844
23845
23841
23839
23839
23843
23839
23837
23846
23842
23841
23841
23834
23846
23839
23841
23839
23836
23847
23847
23836
23842
23839
23844
23837
23836
23838
23842
23839
23846
23844
23839
23841
23844
23837
23845
23841
23831
23846
23837
23832
23839
23840
23834
23840
23847
23839
23839
23846
23834
23840
23839
23837
23847
23841
23833
23841
23834
23839
23836
23839
23836
23837
23839
23833
23843
23840
23834
23834
23849
23836
23827
23841
23842
23831
23844
23838
23845
23830
23839
23833
23836
23831
23837
23837
23830
23830
23838
23832
23829
23837
23844
23826
23835
23833
23820
23841
23834
23831
23847
23837
23843
23829
23834
23834
23837
23855
23836
23829
23844
23835
23828
23859
23831
23829
23839
23834
23828
23846
23838
23826
23836
23836
23829
23847
23837
23826
23845
23838
23824
23851
23833
23839
23822
23841
23832
23824
23834
23830
23847
23831
23823
23831
23823
23831
23827
23835
23831
23845
23829
23815
23837
23815
23838
23838
23820
23838
23819
23832
23834
23818
23831
23822
23833
23839
23819
23835
23821
23818
23822
23822
23833
23841
23823
23835
23834
23822
23827
23832
23821
23828
23832
23825
23829
23827
23818
23834
23818
23839
23832
23822
23831
23833
23823
23836
23828
23815
23833
23830
23828
23836
23836
23829
23839
23828
23828
23821
23832
23833
23819
23834
23823
23821
23849
23834
23828
23847
23835
23835
23823
23831
23826
23817
23837
23821
23815
23827
23831
23814
23828
23819
23814
23830
23822
23836
23826
23823
23832
23822
23815
23834
23823
23823
23823
23829
23817
23832
23823
23823
23821
23830
23818
23847
23829
23815
23836
23823
23815
23833
23831
23817
23825
23831
23817
23825
23813
23828
23825
23835
23825
23819
23828
23815
23835
23825
23822
23827
23839
23815
23827
23819
23839
23823
23820
23827
23826
23814
23829
23842
23813
23822
23823
23822
23828
23814
23831
23831
23835
23825
23820
23826
23824
23817
23823
23820
23841
23814
23815
23830
23821
23815
23828
23821
23815
23828
23815
23813
23823
23815
23814
23815
23826
23825
23814
23815
23823
23828
23815
23824
23818
23822
23814
23813
23822
23832
23820
23819
23823
23820
23812
23822
23808
23828
23825
23814
23825
23823
23811
23827
23820
23807
23818
23815
23820
23831
23837
23822
23813
23815
23814
23827
23814
23831
23828
23810
23822
23813
23822
23828
23812
23819
23815
23826
23825
23812
23820
23821
23807
23828
23820
23815
23822
23823
23816
23828
23813
23812
23826
23811
23807
23826
23823
23810
23820
23825
23810
23831
23820
23824
23811
23828
23814
23806
23823
23815
23812
23824
23815
23806
23818
23820
23815
23824
23813
23804
23826
23812
23808
23823
23818
23812
23804
23820
23815
23807
23819
23815
23799
23820
23822
23809
23821
23813
23805
23815
23813
23826
23821
23802
23822
23811
23821
23818
23804
23813
23808
23812
23812
23832
23815
23810
23829
23816
23807
23805
23820
23812
23804
23830
23807
23804
23823
23814
23811
23804
23814
23820
23803
23820
23814
23810
23815
23814
23811
23813
23810
23815
23819
23815
23802
23823
23823
23806
23820
23809
23807
23807
23814
23813
23830
23815
23820
23804
23819
23807
23815
23820
23807
23812
23806
23819
23815
23807
23805
23816
23815
23806
23829
23815
23811
23823
23812
23796
23823
23814
23808
23815
23817
23816
23810
23807
23813
23814
23806
23814
23806
23820
23812
23805
23813
23810
23806
23815
23815
23806
23823
23812
23809
23828
23812
23811
23831
23812
23802
23814
23809
23807
23830
23815
23810
23822
23813
23806
23802
23808
23802
23823
23818
23804
23815
23806
23830
23814
23805
23815
23809
23801
23811
23806
23801
23815
23804
23815
23807
23815
23815
23802
23812
23799
23812
23807
23808
23805
23809
23801
23814
23809
23798
23810
23803
23815
23805
23822
23821
23805
23814
23807
23821
23812
23811
23815
23808
23801
23815
23804
23807
23813
23804
23823
23812
23799
23817
23810
23799
23812
23815
23803
23815
23809
23814
23807
23808
23815
23811
23807
23808
23801
23815
23812
23806
23812
23809
23803
23813
23815
23801
23819
23809
23804
23826
23820
23796
23815
23815
23798
23821
23814
23805
23799
23810
23815
23806
23795
23813
23810
23805
23800
23815
23814
23810
23799
23819
23812
23815
23807
23807
23812
23815
23816
23804
23801
23813
23812
23799
23816
23812
23804
23815
23806
23808
23814
23809
23806
23814
23815
23801
23815
23810
23801
23813
23804
23813
23820
23815
23814
23831
23803
23808
23811
23812
23815
23797
23798
23807
23807
23809
23815
23796
23805
23815
23810
23811
23795
23794
23804
23815
23807
23814
23830
23803
23814
23805
23809
23802
23797
23804
23802
23810
23816
23799
23799
23812
23812
23809
23830
23805
23801
23811
23810
23814
23815
23801
23803
23811
23807
23807
23821
23798
23799
23799
23805
23815
23812
23816
23797
23801
23815
23799
23803
23799
23814
23799
23809
23804
23807
23812
23797
23807
23796
23808
23799
23815
23807
23801
23814
23810
23806
23815
23815
23798
23807
23796
23812
23802
23823
23812
23797
23811
23802
23815
23820
23821
23815
23848
23808
23796
23825
23805
23789
23805
23785
23826
23822
23785
23808
23787
23823
23791
23837
23826
23787
23812
23790
23834
23830
23788
23826
23799
23836
23830
23796
23823
23801
23834
23815
23799
23825
23823
23806
23821
23823
23807
23817
23812
23823
23815
23808
23825
23815
23820
23815
23815
23815
23815
23815
23809
23813
23815
23812
23804
23812
23811
23812
23809
23812
23806
23812
23811
23814
23812
23809
23806
23806
23815
23809
23809
23814
23807
23810
23809
23813
23805
23812
23812
23809
23813
23810
23814
23812
23812
23813
23805
23815
23812
23807
23807
23811
23815
23812
23812
23807
23805
23814
23815
23803
23815
23813
23814
23812
23812
23813
23790
23804
23810
23805
23812
23807
23807
23809
23812
23810
23813
23806
23806
23815
23807
23812
23812
23804
23807
23815
23809
23808
23813
23810
23812
23813
23802
23815
23809
23798
23809
23815
23807
23815
23811
23799
23816
23812
23810
23790
23812
23804
23812
23807
23804
23807
23814
23809
23807
23812
23812
23814
23806
23810
23810
23810
23798
23806
23809
23804
23809
23805
23807
23807
23805
23814
23799
23813
23807
23805
23807
23815
23811
23806
23812
23807
23804
23813
23811
23802
23811
23809
23814
23806
23806
23804
23806
23815
23812
23818
23812
23803
23813
23807
23810
23807
23813
23807
23802
23808
23802
23815
23812
23805
23812
23802
23810
23805
23811
23807
23807
23814
23810
23806
23810
23807
23820
23813
23799
23812
23814
23804
23812
23815
23815
23805
23807
23811
23807
23804
23812
23808
23820
23813
23812
23815
23806
23805
23804
23810
23808
23807
23803
23809
23807
23808
23813
23805
23807
23797
23808
23805
23809
23812
23825
23804
23805
23812
23807
23809
23800
23811
23801
23815
23807
23812
23809
23807
23807
23807
23804
23815
23807
23804
23812
23799
23820
23812
23805
23813
23815
23803
23814
23809
23804
23815
23806
23815
23804
23799
23814
23807
23822
23807
23803
23815
23815
23804
23809
23799
23822
23820
23802
23815
23807
23821
23811
23802
23812
23807
23814
23822
23800
23804
23802
23817
23815
23804
23815
23804
23806
23813
23818
23800
23812
23809
23802
23813
23812
23804
23807
23815
23797
23812
23803
23814
23810
23823
23811
23801
23815
23794
23814
23798
23810
23806
23815
23823
23809
23812
23802
23821
23815
23803
23818
23806
23815
23814
23807
23815
23804
23811
23802
23815
23813
23825
23815
23826
23804
23802
23815
23807
23814
23806
23815
23807
23820
23810
23804
23812
23806
23812
23808
23819
23815
23798
23815
23802
23819
23807
23803
23815
23803
23820
23806
23822
23809
23823
23815
23807
23815
23809
23815
23806
23824
23811
23800
23815
23810
23807
23820
23810
23828
23818
23828
23814
23809
23815
23806
23825
23812
23811
23818
23805
23815
23807
23815
23814
23806
23815
23805
23814
23809
23821
23803
23822
23822
23807
23815
23805
23822
23812
23809
23821
23815
23811
23816
23814
23821
23809
23821
23820
23835
23815
23808
23814
23807
23818
23808
23816
23821
23835
23812
23804
23820
23815
23826
23815
23814
23820
23815
23804
23821
23811
23828
23821
23812
23819
23808
23818
23829
23815
23821
23812
23815
23815
23825
23817
23820
23824
23806
23828
23815
23815
23823
23814
23815
23813
23812
23826
23817
23820
23828
23820
23823
23811
23818
23809
23817
23818
23825
23815
23826
23828
23835
23814
23815
23819
23815
23823
23823
23810
23816
23812
23822
23815
23822
23824
23839
23825
23815
23823
23812
23829
23820
23835
23822
23812
23823
23825
23814
23815
23812
23819
23814
23823
23815
23814
23825
23820
23812
23831
23820
23819
23813
23828
23813
23814
23823
23813
23833
23820
23820
23826
23823
23818
23824
23815
23815
23831
23818
23814
23836
23823
23819
23826
23833
23814
23836
23823
23812
23829
23821
23814
23821
23815
23826
23833
23814
23824
23812
23836
23821
23815
23831
23824
23821
23831
23816
23843
23826
23819
23837
23822
23815
23824
23823
23813
23826
23825
23839
23828
23838
23818
23821
23828
23815
23825
23815
23825
23821
23826
23820
23827
23816
23823
23820
23827
23818
23832
23822
23830
23828
23834
23826
23839
23830
23838
23833
23820
23827
23820
23828
23823
23830
23829
23842
23826
23821
23828
23823
23839
23829
23823
23828
23830
23836
23828
23845
23828
23825
23828
23820
23838
23832
23823
23827
23820
23839
23835
23818
23839
23837
23818
23837
23831
23854
23831
23831
23833
23831
23823
23833
23828
23819
23834
23831
23826
23828
23835
23820
23834
23834
23848
23834
23828
23836
23828
23827
23835
23830
23822
23841
23836
23826
23838
23829
23828
23845
23832
23827
23844
23833
23824
23826
23838
23829
23852
23839
23828
23841
23832
23829
23841
23837
23832
23839
23835
23826
23839
23821
23846
23834
23829
23845
23831
23844
23831
23833
23841
23835
23849
23828
23834
23845
23838
23839
23832
23851
23842
23847
23840
23821
23845
23849
23843
23844
23852
23829
23839
23839
23839
23839
23831
23833
23843
23845
23847
23847
23838
23845
23846
23847
23831
23841
23844
23849
23836
23838
23849
23844
23850
23850
23839
23837
23855
23849
23860
23842
23839
23845
23839
23854
23846
23841
23844
23845
23854
23845
23870
23847
23841
23849
23839
23847
23847
23865
23845
23842
23844
23846
23850
23852
23843
23845
23846
23838
23844
23847
23855
23847
23837
23844
23845
23845
23849
23847
23844
23847
23848
23868
23839
23841
23849
23854
23873
23847
23846
23844
23849
23859
23843
23841
23850
23848
23848
23843
23853
23852
23857
23843
23846
23847
23853
23857
23839
23847
23862
23852
23854
23855
23839
23847
23854
23852
23854
23847
23856
23853
23860
23844
23844
23854
23847
23855
23857
23846
23849
23858
23850
23857
23821
23844
23847
23846
23855
23859
23847
23854
23848
23868
23845
23848
23855
23853
23847
23859
23854
23844
23856
23849
23847
23845
23864
23861
23852
23862
23859
23848
23863
23870
23851
23867
23865
23876
23853
23853
23871
23862
23868
23850
23848
23854
23863
23872
23871
23848
23879
23851
23889
23865
23844
23877
23868
23935
23877
23845
23869
23847
23878
23877
23848
23869
23853
23874
23852
23884
23879
23852
23870
23856
23877
23864
23880
23874
23891
23868
23861
23876
23867
23868
23877
23877
23868
23866
23875
23866
23871
23874
23873
23865
23876
23868
23871
23874
23881
23869
23867
23872
23872
23871
23876
23871
23871
23870
23868
23867
23874
23872
23871
23869
23867
23875
23871
23867
23868
23877
23876
23870
23871
23869
23879
23864
23872
23872
23871
23874
23876
23876
23863
23872
23869
23873
23874
23876
23879
23872
23877
23876
23877
23870
23876
23869
23871
23871
23877
23878
23867
23878
23870
23875
23875
23871
23878
23871
23878
23872
23876
23873
23871
23874
23873
23875
23878
23876
23877
23876
23877
23875
23874
23881
23868
23877
23879
23894
23876
23870
23884
23872
23879
23877
23845
23883
23876
23879
23878
23881
23879
23873
23879
23882
23880
23877
23884
23883
23878
23881
23885
23876
23882
23877
23882
23880
23874
23881
23876
23883
23877
23884
23887
23891
23885
23876
23883
23878
23889
23886
23887
23884
23878
23884
23879
23881
23878
23887
23885
23883
23887
23874
23893
23876
23889
23882
23889
23884
23891
23885
23882
23888
23882
23883
23893
23883
23883
23877
23890
23882
23884
23887
23884
23881
23883
23882
23881
23894
23883
23882
23888
23890
23893
23893
23883
23887
23889
23886
23893
23883
23890
23896
23887
23884
23889
23891
23887
23902
23886
23889
23891
23892
23899
23891
23887
23895
23892
23899
23890
23890
23888
23896
23887
23892
23895
23900
23892
23887
23903
23895
23897
23889
23889
23899
23901
23903
23886
23893
23902
23893
23898
23892
23892
23906
23895
23909
23889
23890
23891
23898
23901
23900
23903
23895
23898
23897
23901
23904
23891
23890
23893
23903
23898
23905
23910
23889
23893
23909
23902
23905
23919
23891
23900
23905
23906
23905
23894
23903
23903
23910
23895
23899
23907
23908
23892
23906
23902
23905
23899
23900
23910
23909
23907
23902
23900
23911
23905
23904
23892
23898
23910
23909
23913
23899
23911
23911
23911
23895
23909
23908
23925
23909
23895
23915
23908
23913
23905
23900
23910
23908
23903
23911
23903
23897
23910
23906
23914
23903
23918
23907
23908
23905
23912
23905
23913
23909
23918
23909
23907
23911
23903
23917
23910
23924
23912
23900
23914
23904
23916
23918
23904
23912
23903
23917
23914
23921
23915
23907
23917
23925
23905
23915
23909
23919
23914
23913
23924
23922
23913
23915
23911
23916
23911
23919
23909
23924
23917
23924
23916
23919
23909
23922
23913
23922
23915
23910
23911
23930
23926
23919
23921
23929
23929
23932
23917
23916
23913
23919
23916
23919
23925
23914
23917
23930
23923
23942
23919
23935
23924
23943
23914
23927
23928
23925
23924
23919
23922
23919
23923
23924
23926
23917
23917
23924
23931
23943
23926
23927
23927
23935
23918
23921
23932
23926
23935
23917
23929
23927
23930
23946
23919
23930
23931
23931
23918
23922
23926
23934
23930
23930
23940
23924
23927
23941
23935
23942
23927
23937
23936
23937
23924
23924
23934
23933
23934
23932
23932
23936
23943
23926
23929
23939
23955
23929
23935
23937
23943
23932
23924
23943
23938
23939
23931
23928
23934
23941
23924
23936
23943
23946
23931
23943
23937
23930
23943
23939
23943
23921
23943
23934
23927
23948
23934
23934
23943
23934
23960
23942
23938
23938
23941
23943
23948
23940
23930
23937
23939
23937
23933
23949
23934
23927
23947
23935
23948
23935
23932
23946
23939
23945
23939
23933
23949
23950
23932
23943
23942
23955
23940
23935
23942
23940
23950
23945
23932
23943
23943
23935
23949
23943
23950
23940
23948
23947
23950
23956
23938
23943
23940
23951
23944
23951
23940
23940
23951
23963
23938
23950
23949
23942
23951
23943
23943
23954
23950
23950
23941
23952
23944
23956
23951
23941
23953
23942
23951
23948
23956
23949
23943
23952
23949
23961
23956
23942
23956
23950
23948
23954
23943
23955
23953
23969
23959
23951
23956
23949
23957
23943
23959
23952
23974
23958
23949
23953
23962
23974
23957
23951
23956
23951
23966
23951
23963
23963
23956
23960
23948
23962
23957
23975
23959
23956
23962
23951
23959
23956
23962
23959
23966
23962
23966
23969
23951
23964
23953
23967
23949
23966
23957
23977
23972
23955
23961
23959
23964
23962
23967
23959
23962
23960
23958
23960
23962
23967
23951
23967
23972
23974
23960
23968
23967
23975
23956
23956
23973
23965
23965
23980
23959
23967
23971
23970
23959
23966
23962
23975
23991
23972
23964
23972
23974
23974
23958
23960
23975
23975
23974
23974
23967
23964
23975
23974
23979
23967
23964
23975
23971
23975
23989
23965
23970
23973
23988
23965
23972
23972
23975
23978
23989
23967
23973
23972
23975
23977
23964
23965
23974
23980
23975
23973
23980
23980
23968
23971
23978
23975
23969
23980
23974
23982
23981
23987
23993
23973
23969
23969
23981
23982
23981
23992
23973
23973
23983
23990
23972
23975
23983
23980
23988
23977
23975
23984
23979
23985
23975
23978
23988
23983
23989
23997
23977
23983
23988
23989
23996
23978
23983
23986
23986
23975
23980
23982
23986
23993
23983
23979
23987
23985
23986
23992
23980
23980
23983
23989
23991
23990
23976
23980
23998
23988
23989
23974
23976
23987
23992
23977
23991
23980
23994
23981
23983
23980
23991
23995
23983
23988
23992
23989
23997
23980
23986
23985
23999
23982
23991
23981
23993
23996
23983
23988
23985
23994
23983
23997
23997
24001
23998
24001
23982
23991
23988
23991
23991
23997
23996
23996
24004
24002
23990
23986
23988
23986
23988
23994
23995
23990
23996
24007
23983
23988
23988
23996
23999
23999
23985
23989
24006
24000
24004
23990
23989
23999
23999
23983
23991
24002
24001
24006
23995
23991
23998
23998
23988
23994
24000
24002
24013
23994
24010
23996
24006
23993
24005
24007
24010
23996
24001
24006
24007
24012
24049
23987
23999
24005
24048
23982
23982
24007
24002
24008
24021
24097
23987
23993
24029
24007
24021
24044
23989
24001
24010
24028
24104
23993
23998
24018
24017
24036
23996
23996
24026
24033
24014
24016
24021
24046
24007
24014
24018
24015
24009
24010
24018
24020
24019
24020
23996
24018
24016
24023
24022
24023
24020
24022
24016
24015
24019
24016
24011
24018
24019
24013
24017
24021
24020
24013
24015
24023
24018
24017
24015
24016
24023
24018
24020
24020
24020
24020
24018
24016
24016
24023
24018
24025
24023
24020
24018
24022
24028
24016
24017
24023
24021
24017
24020
24023
24024
24021
24016
24023
24016
24018
24026
24016
24020
24022
24021
24021
24020
24018
24020
24025
24014
24024
24018
24023
24023
24019
24018
24017
24023
24014
24023
24023
24021
24028
24021
24020
24026
24032
24020
24020
24023
24024
24025
24027
24020
24030
24031
23988
24031
24030
24022
24031
24030
24030
24020
24026
24031
24030
24022
24025
24021
24029
24034
24025
24025
24031
24025
24028
24028
24027
24021
24031
24028
24031
24024
24024
24021
24026
24034
24028
24030
24034
24030
24034
24028
24029
24023
24028
24030
24035
24035
24025
24028
24034
24037
24037
24038
24038
24036
24030
24029
24031
24037
24031
24036
24034
24034
24027
24036
24037
24032
24034
24038
24039
24039
24037
24031
24029
24037
24036
24033
24034
24035
24039
24039
24030
24036
24038
24039
24033
24036
24034
24043
24033
24044
24039
24032
24043
24033
24041
24038
24036
24037
24042
24039
24038
24034
24039
24038
24039
24038
24034
24031
24043
24050
24036
24039
24044
24039
24039
24040
24041
24036
24041
24039
24047
24046
24044
24035
24040
24040
24030
24047
24047
24036
24050
24039
24032
24046
24042
24053
24048
24039
24049
24041
24033
24044
24045
24039
24045
24036
24034
24043
24054
24044
24045
24041
24038
24049
24045
24037
24048
24039
24037
24035
24043
24044
24056
24037
24036
24047
24046
24054
24035
24036
24046
24046
24049
24066
24037
24038
24047
24036
24044
24043
24047
24041
24055
24049
24039
24046
24039
24054
24047
24071
24046
24041
24055
24046
24056
24048
24039
24044
24042
24053
24046
24053
24060
24071
24046
24046
24047
24045
24058
24052
24040
24050
24043
24061
24050
24044
24055
24045
24058
24052
24039
24051
24043
24052
24052
24044
24052
24051
24042
24052
24043
24056
24051
24046
24061
24051
24063
24057
24042
24055
24055
24044
24053
24058
24071
24059
24042
24059
24063
24038
24052
24049
24065
24050
24057
24060
24048
24055
24047
24052
24056
24045
24058
24054
24050
24062
24056
24048
24052
24051
24063
24061
24050
24069
24060
24050
24049
24060
24058
24047
24060
24059
24072
24057
24046
24065
24055
24052
24063
24051
24066
24050
24063
24055
24060
24053
24063
24053
24060
24058
24076
24060
24061
24056
24063
24047
24061
24063
24071
24055
24062
24071
24060
24067
24061
24068
24074
24055
24063
24060
24061
24071
24052
24066
24069
24070
24058
24066
24066
24070
24056
24063
24069
24079
24054
24071
24070
24059
24071
24071
24076
24063
24066
24064
24065
24071
24052
24058
24067
24071
24071
24068
24060
24071
24070
24071
24058
24063
24070
24066
24068
24071
24058
24060
24071
24066
24071
24071
24063
24061
24071
24071
24072
24087
24067
24064
24076
24066
24079
24068
24068
24065
24071
24071
24063
24066
24073
24066
24071
24089
24066
24063
24063
24084
24066
24071
24071
24078
24081
24063
24067
24071
24071
24071
24067
24067
24071
24069
24071
24077
24082
24067
24071
24081
24071
24075
24069
24071
24076
24068
24079
24070
24071
24071
24079
24091
24070
24071
24079
24068
24071
24070
24077
24067
24068
24077
24078
24085
24078
24071
24071
24082
24079
24071
24071
24071
24081
24083
24081
24070
24069
24076
24082
24071
24081
24085
24077
24084
24077
24082
24084
24071
24086
24079
24071
24080
24069
24084
24078
24086
24095
24071
24085
24071
24079
24076
24087
24071
24087
24084
24089
24076
24092
24074
24078
24082
24071
24085
24082
24089
24082
24068
24086
24078
24084
24082
24084
24083
24090
24084
24084
24082
24086
24079
24087
24085
24079
24087
24084
24097
24087
24079
24093
24085
24084
24092
24082
24079
24084
24079
24095
24089
24079
24092
24081
24090
24089
24078
24089
24080
24089
24092
24076
24085
24086
24087
24084
24090
24090
24102
24094
24083
24093
24091
24084
24095
24084
24094
24094
24107
24085
24083
24091
24086
24094
24085
24094
24095
24100
24093
24098
24094
24097
24095
24081
24090
24080
24097
24087
24100
24092
24103
24091
24096
24095
24106
24100
24100
24094
24086
24101
24089
24086
24092
24087
24110
24097
24085
24117
24098
24087
24101
24084
24103
24103
24087
24103
24092
24098
24093
24101
24104
24091
24100
24089
24096
24090
24100
24099
24110
24103
24095
24100
24092
24101
24098
24093
24101
24092
24090
24103
24095
24101
24093
24095
24103
24095
24094
24105
24106
24094
24102
24099
24119
24096
24097
24106
24094
24092
24096
24107
24095
24101
24100
24092
24103
24099
24104
24101
24112
24109
24098
24102
24093
24110
24101
24095
24100
24095
24103
24098
24116
24096
24098
24106
24101
24115
24108
24100
24115
24111
24103
24100
24099
24127
24104
24094
24111
24111
24103
24110
24103
24098
24100
24103
24108
24096
24108
24103
24100
24111
24106
24105
24131
24103
24098
24111
24110
24116
24111
24105
24105
24102
24103
24101
24119
24100
24103
24114
24108
24100
24111
24102
24109
24109
24103
24111
24110
24125
24111
24117
24113
24126
24111
24095
24103
24103
24110
24108
24113
24101
24103
24104
24103
24117
24107
24101
24109
24103
24113
24102
24114
24109
24102
24112
24103
24116
24102
24116
24104
24105
24111
24107
24100
24112
24098
24114
24102
24113
24105
24117
24109
24106
24111
24105
24119
24118
24100
24111
24103
24119
24117
24109
24111
24108
24113
24127
24111
24120
24116
24108
24109
24097
24116
24103
24121
24105
24117
24116
24120
24108
24108
24119
24124
24111
24109
24119
24117
24122
24125
24111
24103
24114
24113
24127
24097
24127
24117
24225
24101
24110
24134
24099
24101
24121
24127
24132
24127
24103
24139
24125
24105
24135
24141
24103
24140
24141
24111
24134
24132
24109
24137
24141
24113
24133
24133
24114
24134
24130
24147
24131
24123
24130
24125
24126
24133
24126
24119
24127
24126
24131
24123
24127
24129
24132
24131
24127
24125
24124
24130
24132
24129
24126
24125
24132
24130
24131
24126
24132
24133
24133
24124
24128
24127
24132
24126
24132
24129
24133
24129
24125
24125
24132
24134
24126
24124
24126
24131
24129
24133
24126
24128
24127
24125
24127
24129
24128
24126
24126
24127
24129
24127
24130
24130
24124
24122
24132
24128
24130
24124
24134
24130
24129
24131
24132
24126
24118
24129
24130
24128
24126
24133
24126
24133
24124
24129
24130
24132
24119
24130
24129
24125
24129
24126
24133
24132
24127
24133
24132
24126
24134
24127
24132
24130
24128
24130
24124
24133
24134
24127
24134
24129
24136
24130
24124
24132
24129
24126
24132
24121
24131
24125
24129
24127
24135
24133
24129
24134
24124
24135
24127
24135
24132
24131
24133
24132
24134
24134
24132
24129
24129
24133
24138
24127
24129
24129
24126
24128
24129
24135
24130
24135
24135
24135
24134
24139
24132
24131
24135
24134
24134
24130
24134
24135
24132
24130
24135
24129
24141
24138
24133
24134
24140
24133
24134
24136
24132
24142
24135
24127
24132
24132
24132
24133
24133
24135
24137
24147
24140
24134
24138
24135
24139
24135
24142
24140
24130
24140
24133
24135
24141
24129
24135
24138
24135
24138
24141
24131
24136
24134
24148
24139
24127
24141
24137
24134
24135
24131
24141
24131
24140
24134
24130
24136
24129
24138
24133
24126
24140
24135
24140
24143
24133
24135
24136
24143
24137
24135
24135
24142
24137
24135
24131
24138
24133
24143
24143
24135
24141
24143
24132
24141
24131
24139
24132
24145
24137
24132
24129
24142
24134
24157
24139
24134
24146
24132
24132
24137
24136
24131
24149
24149
24127
24145
24137
24132
24142
24139
24129
24124
24124
24145
24139
24135
24150
24131
24151
24135
24133
24143
24133
24153
24140
24134
24143
24133
24135
24139
24129
24147
24146
24151
24141
24135
24151
24137
24132
24143
24139
24141
24159
24132
24146
24149
24143
24135
24139
24140
24135
24133
24143
24153
24140
24132
24145
24132
24151
24138
24137
24155
24140
24134
24148
24144
24134
24146
24139
24151
24139
24134
24142
24137
24159
24140
24133
24141
24147
24139
24143
24138
24147
24145
24143
24148
24143
24134
24135
24149
24143
24163
24140
24143
24143
24151
24136
24147
24143
24148
24134
24159
24145
24134
24151
24139
24154
24140
24152
24148
24153
24154
24163
24151
24161
24135
24140
24148
24148
24162
24135
24141
24155
24144
24155
24165
24141
24145
24138
24142
24148
24149
24155
24145
24145
24149
24151
24155
24163
24143
24142
24148
24149
24145
24154
24151
24154
24141
24162
24148
24143
24151
24143
24163
24148
24145
24159
24151
24139
24153
24148
24174
24149
24145
24151
24142
24159
24148
24154
24150
24165
24148
24141
24154
24140
24152
24154
24137
24150
24146
24160
24147
24147
24152
24141
24162
24151
24148
24156
24151
24148
24148
24151
24148
24155
24150
24166
24149
24136
24151
24151
24156
24155
24147
24149
24153
24167
24148
24148
24148
24156
24155
24156
24145
24141
24149
24157
24175
24138
24153
24156
24153
24141
24156
24163
24149
24156
24153
24156
24157
24148
24154
24149
24159
24146
24151
24159
24140
24156
24145
24154
24153
24163
24155
24150
24156
24149
24155
24146
24154
24156
24142
24159
24143
24160
24154
24146
24164
24150
24145
24157
24146
24161
24159
24146
24156
24148
24149
24151
24160
24149
24145
24145
24149
24142
24150
24158
24164
24150
24154
24158
24158
24146
24150
24151
24164
24143
24161
24153
24156
24149
24151
24149
24157
24171
24146
24148
24153
24152
24161
24148
24148
24145
24162
24149
24161
24145
24163
24159
24147
24159
24148
24167
24159
24155
24154
24153
24159
24158
24148
24152
24151
24164
24160
24147
24160
24156
24173
24151
24154
24164
24158
24151
24156
24158
24154
24164
24157
24156
24157
24153
24170
24157
24148
24160
24153
24167
24162
24172
24163
24151
24161
24166
24154
24159
24154
24164
24164
24157
24162
24164
24150
24160
24163
24153
24166
24159
24155
24170
24159
24165
24163
24164
24167
24157
24156
24166
24164
24155
24162
24163
24156
24162
24162
24161
24156
24159
24165
24174
24166
24150
24164
24161
24158
24167
24162
24161
24173
24166
24158
24167
24170
24181
24163
24155
24167
24162
24163
24174
24157
24165
24157
24161
24161
24159
24164
24160
24186
24164
24159
24167
24162
24159
24173
24172
24159
24182
24166
24169
24159
24177
24162
24164
24161
24166
24169
24158
24175
24165
24175
24163
24175
24167
24165
24154
24169
24167
24159
24172
24169
24164
24167
24163
24159
24167
24169
24158
24183
24167
24162
24171
24167
24163
24172
24172
24161
24169
24162
24178
24167
24171
24169
24169
24161
24166
24165
24173
24171
24181
24169
24164
24169
24165
24177
24171
24169
24172
24172
24177
24163
24164
24166
24167
24159
24177
24171
24159
24172
24169
24167
24172
24175
24167
24171
24166
24173
24175
24170
24175
24166
24176
24164
24169
24175
24175
24167
24173
24178
24167
24175
24180
24169
24176
24175
24168
24180
24180
24166
24180
24169
24182
24170
24170
24186
24177
24169
24179
24172
24172
24195
24171
24175
24181
24170
24169
24172
24172
24189
24174
24170
24180
24183
24164
24175
24166
24181
24175
24167
24180
24180
24167
24181
24179
24170
24175
24178
24181
24174
24170
24180
24181
24172
24174
24172
24183
24172
24170
24175
24175
24175
24180
24167
24196
24170
24164
24182
24167
24183
24179
24164
24175
24175
24175
24178
24168
24184
24175
24167
24186
24177
24167
24180
24172
24169
24180
24172
24173
24180
24185
24172
24175
24175
24178
24178
24174
24174
24175
24191
24177
24165
24183
24177
24166
24183
24172
24178
24183
24168
24174
24179
24172
24174
24172
24177
24172
24174
24177
24175
24173
24181
24172
24203
24184
24172
24179
24185
24178
24205
24189
24183
24198
24185
24176
24201
24182
24172
24199
24175
24167
24198
24185
24166
24206
24187
24172
24239
24191
24201
24167
24198
24187
24247
24186
24169
24209
24193
24166
24202
24187
24169
24192
24175
24206
24194
24176
24204
24188
24180
24199
24201
24183
24194
24191
24191
24184
24190
24196
24197
24191
24196
24196
24193
24196
24189
24194
24194
24196
24194
24193
24195
24191
24193
24191
24190
24192
24188
24194
24193
24188
24191
24191
24197
24196
24193
24191
24196
24187
24191
24194
24190
24196
24191
24190
24197
24193
24190
24189
24188
24196
24182
24183
24190
24196
24194
24196
24196
24193
24196
24191
24191
24188
24191
24194
24191
24191
24186
24189
24190
24188
24199
24191
24191
24197
24190
24197
24196
24197
24195
24191
24189
24197
24190
24189
24197
24190
24193
24191
24190
24196
24189
24188
24189
24194
24205
24188
24198
24196
24191
24189
24191
24191
24190
24186
24193
24195
24199
24191
24191
24189
24198
24188
24191
24197
24205
24191
24188
24196
24191
24199
24189
24191
24188
24197
24192
24189
24196
24189
24199
24190
24190
24190
24195
24193
24191
24196
24199
24198
24196
24199
24193
24186
24188
24193
24204
24199
24188
24201
24194
24188
24200
24194
24193
24194
24191
24199
24199
24190
24193
24198
24190
24197
24199
24198
24196
24196
24199
24195
24197
24191
24199
24199
24193
24204
24202
24189
24196
24199
24204
24196
24200
24199
24200
24193
24197
24193
24196
24194
24195
24199
24199
24194
24209
24196
24192
24200
24199
24204
24196
24191
24202
24197
24197
24201
24196
24198
24199
24189
24198
24197
24191
24203
24200
24199
24215
24202
24199
24204
24193
24199
24198
24198
24194
24199
24205
24192
24196
24195
24199
24196
24202
24194
24207
24198
24210
24204
24196
24199
24196
24204
24203
24188
24199
24195
24204
24202
24193
24203
24204
24194
24201
24197
24204
24206
24194
24202
24210
24196
24204
24207
24198
24199
24193
24203
24198
24198
24206
24198
24194
24219
24206
24199
24191
24208
24202
24203
24191
24206
24199
24196
24207
24209
24197
24196
24198
24203
24196
24206
24199
24204
24214
24191
24206
24195
24212
24204
24199
24215
24196
24199
24207
24205
24199
24200
24194
24211
24209
24195
24206
24196
24211
24207
24195
24207
24199
24204
24202
24198
24212
24205
24199
24208
24207
24199
24212
24211
24199
24204
24199
24206
24196
24206
24209
24219
24203
24199
24209
24198
24209
24206
24207
24212
24199
24207
24203
24212
24200
24212
24206
24197
24203
24201
24206
24197
24207
24202
24215
24209
24207
24211
24214
24199
24203
24204
24225
24206
24198
24206
24200
24217
24206
24203
24220
24207
24197
24221
24209
24199
24214
24205
24201
24204
24199
24214
24210
24209
24199
24228
24204
24199
24215
24205
24220
24207
24204
24212
24201
24219
24214
24203
24205
24201
24209
24201
24207
24204
24207
24214
24201
24206
24197
24207
24198
24208
24207
24228
24205
24204
24221
24207
24210
24215
24200
24223
24209
24202
24220
24209
24199
24219
24218
24202
24217
24204
24215
24209
24210
24211
24201
24215
24212
24203
24217
24209
24215
24209
24203
24215
24204
24219
24220
24201
24215
24206
24223
24207
24222
24208
24217
24220
24225
24207
24213
24207
24207
24203
24213
24212
24205
24207
24210
24212
24205
24215
24215
24223
24207
24223
24215
24204
24217
24218
24198
24210
24217
24223
24209
24215
24217
24208
24223
24217
24213
24214
24209
24223
24208
24206
24218
24215
24210
24219
24209
24223
24215
24212
24222
24214
24213
24222
24217
24204
24220
24212
24223
24217
24204
24214
24215
24218
24229
24213
24221
24208
24215
24210
24218
24223
24221
24217
24210
24219
24219
24227
24219
24215
24218
24214
24221
24215
24210
24223
24222
24223
24217
24207
24215
24208
24217
24223
24207
24222
24209
24220
24228
24213
24227
24215
24205
24219
24212
24225
24215
24223
24227
24213
24222
24215
24230
24219
24222
24217
24225
24228
24219
24214
24213
24223
24214
24229
24220
24215
24222
24225
24221
24227
24215
24224
24217
24222
24215
24231
24225
24220
24226
24222
24223
24224
24236
24228
24214
24231
24215
24225
24223
24225
24226
24231
24221
24219
24226
24220
24222
24218
24220
24220
24226
24230
24220
24220
24228
24229
24239
24222
24222
24221
24231
24228
24224
24215
24215
24215
24230
24225
24227
24217
24221
24223
24225
24217
24215
24225
24229
24212
24218
24223
24228
24230
24219
24233
24223
24225
24237
24220
24228
24227
24230
24217
24229
24230
24230
24226
24216
24221
24226
24226
24231
24223
24220
24229
24228
24231
24220
24219
24239
24225
24230
24234
24223
24226
24226
24231
24236
24220
24225
24235
24234
24217
24229
24231
24221
24234
24247
24227
24230
24228
24230
24239
24218
24216
24228
24238
24229
24233
24233
24225
24223
24237
24233
24237
24230
24231
24230
24239
24239
24223
24227
24231
24230
24239
24231
24232
24238
24238
24233
24247
24233
24223
24239
24222
24233
24228
24239
24228
24237
24227
24238
24239
24244
24236
24228
24237
24237
24223
24234
24231
24241
24239
24231
24234
24241
24235
24236
24234
24247
24233
24231
24241
24240
24233
24239
24234
24235
24239
24235
24231
24230
24231
24236
24228
24239
24237
24224
24236
24228
24235
24246
24225
24234
24233
24238
24244
24231
24236
24231
24235
24233
24242
24230
24226
24236
24235
24245
24228
24239
24244
24242
24236
24238
24245
24256
24230
24238
24234
24245
24232
24229
24235
24228
24245
24234
24229
24232
24229
24250
24232
24230
24252
24243
24226
24234
24237
24231
24239
24231
24239
24231
24238
24242
24234
24245
24232
24235
24238
24225
24244
24239
24231
24236
24239
24233
24242
24246
24231
24244
24235
24250
24244
24231
24235
24228
24241
24243
24247
24236
24236
24241
24232
24249
24244
24233
24244
24236
24249
24244
24262
24239
24231
24244
24227
24247
24229
24255
24220
24255
24223
24256
24232
24262
24246
24244
24262
24247
24263
24348
24228
24236
24241
24261
24356
24225
24236
24264
24259
24271
24229
24230
24245
24241
24247
24252
24260
24236
24239
24249
24254
24251
24249
24250
24249
24243
24244
24251
24253
24244
24249
24261
24253
24252
24252
24255
24246
24243
24247
24250
24249
24245
24248
24248
24251
24251
24247
24251
24247
24247
24253
24249
24252
24250
24251
24247
24247
24246
24239
24252
24246
24247
24247
24245
24248
24244
24249
24247
24249
24245
24250
24246
24252
24247
24244
24244
24247
24248
24244
24241
24220
24244
24246
24245
24227
24244
24239
24252
24244
24247
24249
24242
24249
24247
24241
24245
24249
24245
24245
24246
24247
24252
24244
24245
24255
24247
24242
24219
24244
24247
24246
24249
24244
24254
24242
24246
24239
24248
24246
24247
24245
24246
24245
24252
24249
24249
24216
24246
24250
24250
24247
24254
24247
24244
24249
24253
24248
24247
24245
24250
24245
24249
24241
24249
24250
24252
24250
24250
24247
24247
24250
24252
24255
24257
24244
24247
24246
24244
24245
24249
24245
24242
24247
24247
24253
24253
24249
24247
24247
24250
24255
24247
24244
24247
24253
24250
24249
24249
24250
24248
24243
24247
24250
24254
24251
24245
24245
24246
24254
24246
24259
24247
24246
24247
24250
24249
24248
24224
24247
24247
24249
24247
24250
24253
24251
24250
24255
24256
24259
24249
24251
24258
24248
24253
24247
24250
24245
24250
24256
24252
24249
24255
24255
24260
24246
24246
24248
24252
24255
24250
24247
24252
24251
24253
24253
24246
24255
24247
24249
24246
24255
24247
24255
24245
24252
24258
24247
24244
24254
24257
24250
24253
24253
24252
24253
24246
24242
24247
24247
24260
24247
24249
24245
24253
24259
24246
24244
24260
24252
24257
24244
24243
24245
24255
24253
24253
24259
24249
24252
24250
24257
24240
24248
24253
24247
24245
24241
24255
24255
24257
24247
24246
24262
24251
24260
24247
24247
24253
24252
24257
24266
24246
24244
24250
24253
24262
24253
24262
24260
24247
24245
24248
24259
24256
24254
24260
24247
24253
24254
24255
24254
24245
24251
24253
24263
24259
24250
24262
24258
24240
24252
24252
24263
24251
24246
24257
24248
24263
24254
24251
24255
24250
24255
24254
24239
24251
24249
24257
24252
24261
24253
24252
24263
24255
24263
24261
24262
24250
24246
24255
24247
24256
24247
24260
24239
24253
24249
24267
24254
24265
24268
24250
24260
24247
24262
24255
24260
24256
24247
24256
24250
24254
24252
24247
24257
24262
24245
24256
24251
24273
24258
24253
24255
24250
24261
24253
24260
24255
24262
24251
24252
24252
24257
24260
24255
24255
24260
24261
24262
24263
24276
24250
24252
24251
24263
24255
24256
24256
24268
24247
24249
24247
24255
24250
24248
24263
24248
24247
24249
24262
24255
24259
24260
24260
24277
24249
24253
24249
24248
24255
24247
24249
24253
24248
24259
24260
24257
24258
24264
24250
24253
24255
24255
24262
24267
24271
24253
24259
24263
24260
24257
24257
24259
24264
24248
24250
24252
24261
24258
24258
24262
24269
24249
24255
24261
24255
24263
24263
24252
24262
24259
24270
24254
24248
24250
24250
24254
24263
24256
24261
24267
24263
24253
24256
24252
24255
24264
24253
24259
24260
24260
24262
24265
24263
24270
24254
24251
24254
24263
24257
24260
24263
24261
24261
24263
24261
24263
24271
24255
24255
24250
24249
24254
24252
24265
24263
24258
24263
24260
24265
24261
24262
24250
24250
24255
24255
24255
24259
24260
24262
24261
24261
24260
24259
24263
24263
24262
24255
24258
24263
24263
24260
24257
24262
24256
24269
24261
24262
24268
24268
24262
24262
24266
24263
24263
24251
24250
24253
24258
24259
24260
24260
24262
24261
24264
24267
24253
24247
24253
24255
24255
24259
24260
24263
24262
24260
24269
24247
24255
24267
24265
24260
24261
24260
24258
24265
24261
24262
24266
24263
24269
24263
24262
24261
24263
24262
24276
24253
24252
24252
24263
24261
24263
24259
24262
24266
24256
24250
24257
24261
24256
24262
24268
24267
24269
24274
24235
24248
24255
24255
24259
24258
24253
24258
24260
24260
24262
24271
24253
24261
24263
24261
24263
24271
24252
24257
24267
24258
24263
24265
24279
24252
24253
24265
24254
24260
24255
24254
24260
24260
24262
24267
24263
24248
24253
24254
24263
24260
24260
24267
24265
24278
24255
24252
24248
24267
24259
24262
24256
24254
24251
24262
24261
24266
24251
24255
24259
24268
24257
24260
24268
24275
24253
24255
24270
24267
24263
24262
24259
24258
24262
24261
24263
24261
24264
24274
24250
24251
24255
24258
24263
24265
24265
24266
24263
24262
24257
24255
24256
24259
24259
24255
24250
24254
24259
24261
24261
24270
24258
24253
24260
24260
24263
24263
24258
24260
24263
24263
24265
24263
24263
24250
24258
24257
24257
24259
24261
24260
24263
24263
24265
24261
24273
24260
24254
24262
24263
24270
24254
24254
24259
24269
24267
24265
24279
24258
24257
24254
24257
24260
24260
24255
24256
24269
24263
24270
24265
24255
24252
24248
24254
24263
24270
24260
24260
24263
24267
24265
24268
24273
24267
24263
24254
24259
24253
24259
24255
24253
24262
24262
24258
24263
24265
24273
24247
24253
24255
24260
24261
24265
24263
24262
24256
24262
24260
24261
24254
24254
24259
24258
24259
24252
24260
24250
24263
24246
24263
24259
24251
24263
24271
24253
24269
24260
24271
24260
24250
24260
24253
24266
24254
24252
24263
24262
24263
24253
24266
24255
24267
24248
24255
24261
24255
24263
24255
24263
24261
24260
24263
24257
24262
24264
24254
24258
24254
24250
24263
24252
24266
24262
24252
24261
24255
24264
24263
24258
24269
24245
24260
24258
24261
24266
24273
24255
24250
24260
24250
24262
24260
24266
24268
24270
24267
24276
24261
24255
24260
24254
24260
24261
24263
24260
24255
24263
24251
24261
24253
24268
24266
24281
24263
24260
24266
24263
24287
24270
24262
24262
24258
24276
24270
24289
24256
24246
24265
24243
24276
24270
24240
24273
24277
24247
24264
24254
24327
24260
24249
24287
24267
24324
24260
24250
24264
24245
24279
24268
24300
24264
24248
24276
24281
24259
24271
24260
24292
24268
24264
24279
24270
24262
24269
24269
24262
24271
24266
24275
24275
24265
24262
24265
24271
24271
24266
24268
24265
24269
24263
24268
24265
24270
24259
24265
24263
24262
24266
24264
24267
24264
24273
24263
24263
24268
24268
24270
24270
24263
24262
24260
24261
24268
24263
24263
24263
24262
24264
24264
24258
24262
24258
24263
24263
24260
24259
24258
24261
24260
24262
24255
24260
24269
24260
24265
24243
24262
24261
24268
24261
24263
24261
24262
24263
24262
24260
24262
24262
24263
24265
24261
24263
24263
24261
24260
24259
24262
24260
24263
24262
24256
24260
24259
24257
24263
24257
24263
24260
24256
24263
24262
24254
24262
24258
24256
24261
24258
24263
24260
24254
24263
24268
24259
24263
24263
24262
24262
24258
24254
24259
24258
24255
24261
24258
24263
24253
24258
24252
24263
24256
24252
24255
24252
24260
24257
24262
24259
24260
24257
24257
24255
24256
24254
24257
24261
24255
24258
24261
24268
24251
24258
24257
24264
24263
24252
24263
24258
24262
24249
24260
24263
24255
24261
24260
24258
24252
24260
24260
24254
24263
24261
24255
24255
24261
24254
24255
24253
24258
24261
24260
24262
24262
24254
24253
24259
24255
24259
24259
24249
24257
24257
24256
24253
24255
24260
24261
24261
24259
24256
24257
24259
24259
24253
24247
24258
24257
24255
24260
24249
24255
24263
24263
24253
24257
24255
24262
24257
24252
24262
24255
24250
24255
24252
24253
24249
24252
24259
24255
24258
24244
24254
24246
24271
24254
24254
24250
24260
24251
24257
24252
24246
24255
24253
24263
24247
24247
24257
24248
24250
24262
24253
24244
24263
24261
24247
24255
24260
24246
24254
24252
24263
24252
24243
24257
24249
24249
24268
24252
24244
24271
24251
24260
24244
24252
24246
24263
24255
24242
24255
24260
24240
24252
24259
24245
24258
24261
24247
24255
24245
24261
24259
24239
24259
24252
24245
24255
24251
24241
24255
24247
24258
24254
24241
24259
24256
24253
24236
24254
24250
24263
24248
24241
24254
24239
24253
24244
24255
24244
24252
24253
24253
24248
24221
24247
24257
24252
24240
24251
24243
24250
24241
24250
24247
24253
24239
24253
24244
24252
24245
24259
24252
24245
24247
24239
24247
24241
24255
24238
24249
24247
24239
24247
24244
24248
24246
24252
24242
24257
24249
24263
24240
24243
24252
24239
24252
24240
24238
24255
24249
24239
24247
24245
24239
24250
24249
24243
24252
24239
24250
24247
24262
24247
24239
24247
24244
24252
24244
24251
24245
24236
24249
24238
24252
24247
24258
24251
24241
24247
24245
24260
24245
24243
24249
24244
24252
24247
24240
24244
24241
24247
24234
24256
24244
24253
24241
24239
24255
24240
24242
24240
24245
24250
24248
24238
24236
24241
24248
24257
24241
24242
24245
24253
24254
24244
24232
24241
24253
24249
24245
24262
24243
24240
24242
24250
24260
24231
24239
24244
24242
24243
24235
24230
24242
24247
24247
24246
24241
24235
24246
24248
24259
24238
24237
24238
24245
24245
24252
24233
24232
24240
24239
24245
24251
24236
24235
24239
24247
24244
24244
24241
24239
24233
24231
24238
24243
24247
24234
24242
24241
24247
24244
24238
24246
24234
24231
24233
24247
24242
24240
24247
24250
24235
24236
24239
24241
24245
24247
24250
24241
24241
24229
24229
24238
24242
24240
24235
24234
24244
24242
24239
24242
24229
24233
24233
24244
24238
24240
24240
24247
24245
24243
24254
24234
24231
24228
24233
24247
24237
24239
24239
24244
24234
24229
24244
24241
24245
24228
24228
24241
24239
24240
24244
24227
24229
24231
24236
24244
24247
24231
24235
24234
24234
24241
24229
24231
24239
24239
24255
24226
24250
24239
24228
24239
24223
24237
24233
24239
24237
24229
24231
24237
24238
24231
24239
24231
24233
24239
24244
24227
24231
24231
24237
24225
24228
24241
24237
24238
24249
24223
24229
24235
24235
24237
24230
24237
24245
24227
24235
24235
24237
24243
24244
24255
24227
24221
24234
24234
24235
24237
24237
24232
24238
24238
24226
24224
24230
24229
24244
24232
24233
24239
24237
24238
24245
24251
24228
24231
24231
24232
24231
24229
24228
24239
24245
24227
24231
24236
24230
24237
24234
24225
24217
24225
24238
24231
24239
24240
24226
24228
24228
24233
24237
24231
24234
24236
24237
24230
24223
24223
24229
24229
24234
24247
24222
24230
24231
24235
24234
24236
24228
24226
24231
24237
24231
24226
24235
24231
24238
24228
24220
24223
24229
24235
24224
24234
24227
24225
24231
24229
24232
24236
24226
24225
24228
24231
24231
24229
24236
24223
24230
24230
24234
24221
24232
24231
24232
24223
24223
24229
24236
24223
24226
24229
24227
24236
24231
24222
24233
24237
24223
24230
24218
24235
24225
24231
24224
24233
24239
24220
24223
24228
24226
24227
24228
24221
24228
24225
24231
24220
24234
24228
24239
24239
24255
24228
24220
24231
24223
24231
24217
24229
24223
24229
24228
24236
24235
24221
24230
24223
24229
24231
24247
24246
24231
24228
24241
24227
24225
24229
24222
24234
24226
24231
24228
24234
24228
24229
24230
24229
24228
24230
24227
24237
24227
24231
24228
24238
24233
24238
24225
24216
24225
24237
24225
24226
24231
24213
24223
24225
24229
24228
24219
24220
24227
24227
24228
24230
24220
24222
24222
24221
24228
24230
24239
24221
24214
24218
24221
24231
24230
24217
24225
24214
24231
24223
24209
24227
24226
24215
24228
24216
24229
24226
24231
24220
24214
24223
24223
24215
24222
24211
24226
24222
24225
24218
24229
24223
24217
24214
24222
24230
24228
24228
24221
24218
24227
24215
24231
24210
24229
24218
24209
24223
24213
24223
24217
24227
24222
24215
24209
24235
24226
24218
24225
24215
24215
24227
24231
24231
24223
24215
24227
24219
24229
24225
24210
24223
24212
24236
24223
24212
24230
24228
24215
24231
24217
24211
24230
24239
24202
24232
24220
24240
24203
24199
24200
24231
24219
24230
24245
24207
24202
24223
24230
24317
24201
24206
24245
24221
24247
24202
24206
24248
24233
24252
24214
24216
24232
24228
24235
24237
24216
24223
24225
24233
24227
24231
24235
24222
24223
24222
24231
24229
24231
24228
24237
24226
24229
24228
24225
24223
24225
24227
24231
24230
24230
24228
24229
24227
24227
24228
24220
24228
24224
24193
24229
24227
24227
24221
24226
24227
24223
24222
24231
24222
24226
24225
24223
24223
24220
24223
24220
24225
24222
24222
24223
24223
24220
24223
24219
24217
24215
24223
24218
24223
24215
24223
24222
24214
24215
24215
24226
24216
24218
24223
24222
24220
24223
24215
24215
24218
24220
24218
24212
24214
24216
24213
24217
24215
24217
24220
24219
24222
24210
24219
24216
24213
24214
24215
24220
24213
24208
24212
24218
24214
24208
24217
24213
24220
24217
24217
24206
24207
24208
24218
24217
24210
24221
24214
24211
24214
24211
24207
24212
24212
24215
24215
24211
24214
24222
24209
24227
24211
24215
24215
24222
24213
24215
24212
24208
24214
24208
24207
24215
24210
24210
24209
24206
24215
24213
24223
24212
24212
24212
24204
24210
24210
24214
24210
24215
24207
24206
24210
24205
24208
24204
24213
24198
24215
24201
24207
24207
24208
24212
24209
24212
24212
24205
24207
24204
24214
24209
24191
24204
24206
24207
24207
24209
24206
24214
24215
24212
24202
24198
24208
24204
24215
24202
24207
24205
24213
24202
24204
24211
24207
24207
24207
24215
24202
24183
24203
24199
24207
24206
24209
24219
24211
24205
24209
24203
24207
24207
24210
24201
24209
24206
24209
24204
24212
24209
24221
24213
24196
24207
24201
24208
24202
24204
24204
24204
24211
24206
24200
24208
24200
24209
24199
24199
24201
24213
24198
24196
24202
24209
24227
24199
24199
24208
24207
24207
24199
24199
24207
24200
24212
24191
24207
24204
24197
24205
24195
24204
24202
24199
24212
24209
24199
24202
24199
24218
24200
24198
24211
24200
24195
24207
24197
24210
24207
24215
24197
24197
24205
24215
24193
24207
24199
24208
24191
24199
24199
24209
24200
24196
24199
24207
24196
24196
24192
24202
24194
24206
24212
24197
24193
24212
24198
24197
24205
24206
24194
24206
24202
24189
24202
24191
24202
24193
24206
24199
24220
24199
24193
24212
24195
24195
24203
24196
24207
24194
24193
24199
24194
24198
24193
24209
24193
24199
24197
24213
24199
24194
24201
24196
24202
24201
24202
24193
24194
24207
24197
24199
24190
24194
24193
24199
24189
24211
24193
24191
24207
24199
24212
24199
24196
24204
24191
24206
24191
24199
24202
24210
24203
24194
24198
24192
24206
24193
24188
24202
24205
24196
24197
24198
24189
24194
24193
24199
24184
24197
24199
24199
24202
24191
24196
24194
24194
24191
24199
24191
24199
24193
24199
24192
24196
24185
24201
24188
24204
24185
24203
24188
24200
24185
24199
24193
24189
24195
24188
24201
24193
24195
24193
24191
24198
24188
24198
24192
24206
24193
24183
24197
24186
24201
24188
24199
24188
24196
24188
24192
24188
24199
24186
24197
24185
24195
24185
24196
24191
24199
24189
24199
24188
24199
24197
24183
24192
24183
24193
24191
24195
24189
24196
24191
24199
24188
24201
24196
24199
24198
24182
24196
24186
24192
24191
24196
24193
24182
24191
24190
24197
24183
24197
24188
24191
24186
24193
24187
24191
24191
24207
24198
24193
24184
24186
24183
24190
24190
24195
24194
24205
24185
24183
24191
24194
24197
24198
24183
24191
24191
24198
24184
24191
24194
24199
24188
24185
24188
24193
24183
24183
24186
24193
24199
24196
24180
24182
24188
24183
24186
24185
24189
24188
24188
24189
24182
24181
24195
24188
24199
24177
24191
24187
24182
24192
24188
24175
24191
24188
24198
24188
24187
24194
24188
24189
24188
24183
24193
24190
24192
24189
24187
24188
24184
24185
24197
24172
24189
24177
24188
24182
24188
24182
24188
24192
24186
24177
24183
24188
24195
24178
24190
24188
24195
24180
24177
24188
24183
24188
24191
24193
24180
24183
24183
24185
24186
24188
24189
24194
24175
24183
24186
24190
24193
24191
24178
24183
24183
24184
24196
24194
24177
24181
24196
24189
24188
24183
24185
24184
24183
24185
24191
24196
24198
24199
24187
24187
24181
24180
24189
24185
24186
24195
24177
24182
24187
24188
24195
24191
24177
24178
24177
24186
24183
24186
24193
24190
24175
24181
24182
24193
24188
24188
24188
24198
24180
24182
24178
24185
24188
24175
24183
24191
24188
24188
24203
24179
24177
24183
24188
24184
24184
24190
24199
24178
24180
24180
24187
24188
24188
24172
24183
24182
24185
24185
24199
24181
24191
24187
24193
24185
24180
24183
24195
24175
24186
24186
24187
24182
24191
24181
24173
24191
24187
24173
24185
24183
24183
24188
24182
24175
24185
24178
24185
24183
24175
24185
24175
24194
24182
24178
24185
24171
24189
24173
24187
24176
24186
24191
24188
24203
24181
24175
24182
24187
24188
24198
24172
24174
24186
24181
24193
24177
24176
24181
24193
24184
24194
24176
24178
24178
24191
24187
24189
24190
24188
24179
24181
24181
24191
24188
24181
24186
24180
24189
24184
24183
24189
24183
24187
24191
24180
24191
24179
24190
24177
24192
24185
24175
24187
24174
24190
24180
24178
24182
24180
24204
24180
24181
24187
24190
24176
24186
24174
24188
24186
24171
24183
24175
24185
24191
24178
24180
24175
24183
24177
24185
24172
24185
24182
24189
24185
24192
24183
24195
24180
24180
24180
24178
24186
24182
24191
24187
24190
24185
24172
24178
24181
24188
24187
24181
24181
24178
24183
24180
24183
24191
24175
24183
24180
24188
24175
24171
24183
24180
24191
24175
24180
24183
24191
24173
24181
24183
24183
24171
24180
24188
24185
24194
24171
24172
24180
24186
24183
24185
24198
24172
24172
24175
24187
24178
24184
24172
24183
24185
24183
24189
24192
24173
24185
24191
24199
24201
24175
24170
24188
24188
24187
24191
24201
24170
24172
24170
24177
24198
24184
24192
24190
24214
24162
24164
24190
24161
24202
24208
24291
24185
24167
24180
24170
24188
24168
24193
24172
24200
24199
24205
24186
24176
24195
24185
24216
24182
24180
24197
24183
24186
24194
24183
24178
24187
24181
24181
24186
24183
24188
24183
24177
24175
24183
24185
24191
24188
24178
24186
24180
24195
24184
24180
24185
24181
24188
24187
24185
24180
24184
24186
24181
24189
24182
24184
24181
24180
24180
24182
24184
24183
24183
24183
24180
24180
24179
24177
24174
24181
24178
24178
24177
24175
24175
24175
24180
24173
24180
24179
24181
24180
24176
24172
24180
24180
24174
24175
24183
24177
24174
24169
24172
24180
24187
24177
24172
24189
24178
24173
24183
24181
24180
24177
24173
24180
24177
24175
24172
24173
24170
24175
24175
24168
24166
24173
24175
24174
24174
24172
24177
24172
24181
24178
24172
24179
24172
24169
24175
24167
24180
24175
24171
24175
24175
24180
24172
24171
24180
24177
24165
24175
24172
24176
24172
24167
24175
24167
24172
24175
24172
24177
24175
24179
24174
24183
24175
24173
24179
24177
24170
24175
24176
24167
24171
24175
24175
24177
24167
24172
24172
24167
24172
24177
24167
24175
24169
24172
24172
24166
24175
24175
24169
24169
24166
24170
24173
24164
24171
24166
24171
24173
24167
24172
24167
24173
24168
24167
24171
24172
24171
24170
24168
24175
24175
24170
24169
24167
24168
24167
24170
24169
24175
24167
24167
24172
24169
24175
24178
24162
24174
24171
24165
24169
24164
24170
24169
24165
24175
24165
24165
24174
24172
24164
24173
24171
24178
24172
24161
24167
24170
24172
24174
24158
24167
24164
24165
24165
24158
24167
24161
24167
24165
24182
24169
24164
24183
24169
24164
24161
24175
24175
24165
24173
24159
24171
24166
24162
24167
24174
24160
24170
24161
24158
24167
24163
24183
24164
24163
24172
24168
24161
24169
24176
24159
24172
24160
24174
24172
24161
24171
24167
24180
24169
24156
24169
24173
24165
24169
24154
24171
24167
24157
24167
24167
24160
24165
24166
24157
24167
24165
24158
24164
24158
24172
24164
24161
24174
24167
24157
24170
24164
24183
24167
24157
24167
24160
24167
24169
24177
24167
24165
24167
24158
24172
24166
24157
24168
24165
24156
24172
24163
24171
24162
24163
24162
24161
