ECG
30739
30687
30727
30769
30701
30606
30549
30566
30604
30552
30555
30432
30387
30289
30215
30143
30069
29981
29925
29865
29934
30007
30095
30154
30287
30366
30466
30517
30573
30615
30644
30735
30746
30714
30692
30585
30558
30534
30497
30537
30592
30711
30740
30799
30791
30881
30924
31076
31167
31186
31181
31207
31223
31095
30992
30854
30743
30707
30700
30690
30758
30791
30870
30966
31116
31214
31348
31436
31485
31477
31461
31412
31381
31283
31260
31399
31383
31271
31184
31171
31170
31269
31258
31418
31559
31655
31721
31777
31792
31812
31796
31834
31832
31885
31832
31717
31670
31678
31656
31674
31663
31765
31807
32007
32119
32167
32233
32284
32263
32293
32317
32304
32315
32278
32263
32117
32094
31938
31837
31796
31807
31853
31915
31974
32068
32104
32287
32419
32435
32447
32383
32399
32358
32527
32534
32452
32369
32303
32263
32326
32369
32351
32396
32463
32582
32653
32690
32868
32907
32902
32917
32892
32815
32769
32684
32599
32695
32676
32662
32679
32743
32694
32733
32775
32811
32844
32925
33020
33093
33107
33164
33122
33148
33182
33172
33124
33077
33020
33032
33065
33068
33171
33200
33272
33375
33535
33637
33694
33707
33680
33711
33621
33538
33592
33569
33486
33269
33156
33062
33055
33106
33236
33330
33420
33467
33640
33701
33757
33842
33860
33847
33769
33726
33647
33533
33346
33303
33222
33310
33301
33285
33331
33435
33493
33487
33542
33464
33438
33461
33428
33336
33381
33308
33204
33139
32941
32843
32668
32541
32484
32458
32450
32461
32634
32711
32728
32785
32815
32807
32831
32799
32718
32618
32519
32326
32247
32165
32066
32087
31969
31894
31896
32042
32113
32200
32287
32336
32412
32478
32407
32349
32241
32210
32135
32082
31959
31863
31749
31732
31697
31751
31740
31751
31794
31947
32026
32144
32287
32364
32437
32423
32404
32276
32015
32007
31880
31777
31514
31627
31639
31572
31476
31560
31710
31839
31989
32121
32188
32209
32215
32190
32118
32135
32100
31970
31934
31823
31726
31649
31702
31717
31751
31811
31975
32064
32185
32241
32333
32339
32339
32333
32302
32319
32247
32135
32042
31978
31902
31927
31946
31968
32073
32213
32323
32428
32527
32605
32519
32545
32591
32636
32719
32666
32669
32612
32583
32460
32450
32405
32415
32366
32528
32551
32567
32678
32772
32680
32706
32807
32791
32751
32697
32731
32679
32685
32575
32549
32519
32525
32487
32486
32511
32614
32707
32810
32872
32925
32924
32939
32933
32924
32866
32930
32932
32870
32750
32565
32496
32416
32446
32457
32532
32575
32634
32764
32823
32828
32913
32935
32969
32914
32871
32835
32831
32770
32712
32615
32564
32477
32461
32670
32747
32839
32900
32973
33021
33023
33074
33143
33077
33036
32936
32839
32737
32709
32647
32577
32452
32448
32412
32447
32495
32554
32647
32751
32806
32876
32909
32967
32977
33022
32906
32915
32860
32819
32799
32682
32537
32487
32376
32494
32565
32661
32740
32863
32925
32950
33018
33050
33040
33036
33007
32918
32812
32703
32672
32609
32421
32506
32561
32614
32665
32725
32782
32903
32975
32999
32997
33022
33058
33074
33044
33031
32939
32806
32775
32706
32619
32585
32594
32487
32528
32644
32718
32807
32839
32899
32916
32962
32938
32949
32953
32918
32813
32734
32607
32565
32454
32412
32415
32470
32527
32589
32593
32711
32838
32960
32976
33016
33001
32952
32903
32900
32820
32759
32626
32519
32417
32388
32338
32432
32423
32408
32658
32799
32879
32908
32928
32879
32899
32895
32867
32764
32676
32548
32460
32420
32300
32282
32261
32279
32319
32481
32564
32661
32643
32679
32742
32812
32802
32797
32759
32764
32674
32618
32516
32463
32496
32485
32465
32525
32653
32720
32775
32799
32727
32975
33061
33093
33082
33031
33062
33095
33089
33031
32831
32748
32633
32533
32415
32422
32556
32709
32820
32954
33039
33148
33207
33178
33151
33127
33039
32871
32836
32727
32678
32664
32620
32572
32557
32574
32615
32717
32863
32933
32935
32999
32966
33047
33166
33155
33139
33118
33141
33108
33062
33036
33030
33012
32996
33013
33070
33158
33276
33421
33487
33588
33637
33708
33724
33783
33658
33597
33437
33309
33197
33173
33124
33188
33277
33372
33439
33562
33703
33893
34090
34234
34327
34480
34517
34505
34449
34460
34389
34367
34265
34148
33991
33902
33752
33698
33658
33667
33727
33783
33773
33799
33815
33827
33852
33862
33849
33787
33684
33572
33454
33429
33343
33230
33081
33044
33058
33117
33297
33341
33333
33350
33368
33371
33372
33319
33224
33105
32997
32899
32703
32500
32458
32422
32479
32427
32490
32467
32351
32327
32345
32303
32336
32194
32263
32384
32368
32292
32212
32133
31942
31855
31836
31764
31823
31860
31909
31938
32037
32139
32250
32331
32450
32455
32422
32389
32405
32327
32273
32207
32079
31964
31922
31874
31901
31826
31892
32038
32054
32165
32263
32349
32373
32431
32459
32462
32481
32474
32327
32213
32058
31951
31965
32005
31996
32062
32079
31996
32036
32101
32192
32420
32533
32559
32554
32559
32563
32548
32517
32500
32359
32276
32166
32114
32073
32219
32321
32423
32509
32561
32593
32562
32566
32569
32598
32564
32599
32532
32397
32309
32238
32177
31970
31815
31721
31791
31864
31956
32151
32376
32628
32831
33135
33463
33863
34409
34880
35443
35927
36278
36540
36905
37263
37733
38231
38786
39277
39670
40082
40700
41145
41735
42300
42783
43143
43497
43820
44073
44147
43988
43671
43172
42431
41636
41029
40487
40164
39914
39624
39248
38695
38151
37423
36564
35501
34524
33600
32987
32486
32120
31820
31514
31350
31301
31269
31291
31278
31239
31150
31094
31071
31111
31172
31148
30999
30892
30748
30724
30598
30497
30428
30365
30274
30260
30267
30338
30311
30375
30414
30567
30658
30707
30722
30745
30751
30775
30735
30727
30724
30655
30524
30469
30356
30410
30465
30537
30673
30701
30850
30919
30916
31008
30957
31100
31063
31134
31222
31226
31193
31111
31028
30960
30964
30911
30927
30990
30956
30983
30956
31034
31108
31196
31301
31389
31404
31546
31510
31463
31399
31377
31308
31239
31202
31202
31201
31239
31279
31316
31375
31324
31398
31434
31715
31815
31869
31848
31851
31839
31835
31775
31711
31548
31468
31453
31488
31399
31456
31588
31613
31725
31782
31835
31847
31879
31911
31946
31908
31889
31834
31775
31703
31662
31590
31596
31590
31606
31647
31788
31956
32175
32237
32281
32310
32357
32385
32414
32361
32308
32178
32116
31994
31950
32082
32084
32035
32005
32087
32123
32263
32323
32465
32518
32657
32654
32708
32676
32666
32534
32375
32335
32415
32358
32321
32374
32407
32492
32553
32608
32615
32745
32793
32801
32751
32813
32842
32855
32843
32820
32897
32836
32687
32644
32735
32739
32743
32814
32932
32927
33020
33054
33228
33279
33443
33471
33487
33493
33492
33489
33365
33287
33212
33122
33183
33195
33271
33239
33242
33302
33519
33663
33767
33827
33831
33822
33713
33830
33823
33799
33770
33588
33470
33353
33391
33359
33351
33354
33374
33414
33399
33453
33516
33535
33695
33701
33678
33682
33637
33534
33343
33188
33220
33158
33092
33014
32942
32895
32799
32855
33009
33090
33154
33141
33137
33154
33140
33105
33012
32893
32773
32631
32515
32359
32255
32209
32215
32174
32207
32383
32487
32550
32592
32649
32628
32654
32556
32519
32416
32325
32230
32295
32190
32099
32012
31970
31961
31860
31910
31912
31903
31950
31982
32121
32200
32252
32238
32244
32205
32151
31956
31886
31944
31872
31711
31630
31578
31626
31748
31868
31935
32031
32110
32132
32177
32279
32344
32180
32096
32056
32033
31938
31910
31915
31878
31839
31831
31871
31999
32069
32062
32157
32156
32172
32215
32237
32230
32345
32292
32253
32218
32149
32063
31916
31836
31868
31870
31938
32012
32128
32167
32239
32207
32418
32498
32375
32543
32559
32348
32441
32372
32387
32353
32124
32175
32135
32054
32247
32118
32365
32324
32575
32695
32583
32726
32687
32638
32775
32566
32684
32491
32471
32373
32302
32200
32305
32257
32263
32358
32463
32583
32599
32695
32687
32694
32623
32631
32615
32604
32545
32644
32597
32543
32485
32380
32276
32243
32380
32514
32604
32678
32775
32871
32861
32833
32757
32786
32892
32918
32870
32822
32712
32548
32492
32435
32383
32300
32324
32494
32612
32713
32804
32914
32916
32932
32892
32935
32805
32764
32736
32818
32748
32687
32594
32553
32489
32511
32527
32478
32488
32568
32746
32852
32948
33003
32966
32991
32977
32935
32844
32722
32605
32497
32391
32481
32488
32407
32355
32308
32388
32591
32755
32828
32868
32839
32745
32813
32843
32813
32799
32728
32676
32487
32421
32482
32453
32420
32334
32322
32359
32463
32516
32564
32710
32756
32833
32775
32677
32613
32583
32548
32475
32369
32294
32237
32159
32273
32284
32372
32401
32452
32549
32656
32620
32613
32585
32598
32645
32615
32548
32530
32428
32315
32167
32085
32050
32097
32143
32247
32307
32383
32419
32505
32567
32715
32729
32791
32775
32669
32650
32541
32437
32327
32279
32175
32202
32148
32150
32198
32351
32438
32492
32632
32703
32715
32661
32623
32550
32578
32572
32612
32593
32498
32428
32301
32193
32151
32159
32371
32467
32585
32669
32772
32788
32788
32770
32866
32938
32903
32870
32878
32788
32578
32431
32357
32322
32389
32399
32464
32566
32638
32758
32862
32830
32902
32874
32855
32804
32907
32863
32774
32663
32612
32508
32482
32468
32405
32344
32282
32340
32401
32636
32785
32902
32955
32977
33009
32903
32812
32809
32939
32890
32810
32750
32597
32540
32558
32631
32774
32886
32972
33030
33090
33098
33119
33140
33221
33233
33172
33199
33114
33071
32987
32871
32815
32817
32807
32951
32961
33078
33247
33405
33517
33692
33829
34051
34095
34060
34047
33991
34023
33968
33913
33828
33767
33599
33543
33439
33462
33510
33622
33678
33716
33734
33619
33635
33636
33708
33626
33559
33577
33504
33435
33385
33308
33252
33261
33215
33236
33260
33249
33252
33241
33222
33263
33231
33199
33084
33095
33103
33026
32863
32775
32753
32614
32525
32362
32376
32404
32623
32673
32721
32641
32481
32463
32415
32355
32446
32428
32391
32312
32187
32002
31900
31832
31872
31847
31847
31879
31975
32028
32316
32384
32423
32463
32493
32535
32474
32465
32347
32303
32244
32194
32096
31978
31916
31972
32050
32135
32175
32235
32379
32463
32378
32327
32452
32535
32588
32518
32394
32282
32198
32141
32167
32147
32095
32063
32082
32189
32295
32286
32279
32365
32589
32661
32699
32703
32692
32644
32487
32421
32373
32295
32314
32231
32197
32204
32281
32263
32371
32372
32487
32559
32698
32766
32794
32679
32658
32611
32524
32395
32458
32399
32336
32191
32094
32078
32039
32111
32165
32388
32559
32732
32954
33292
33656
34116
34487
34972
35413
35846
36230
36580
36997
37424
37865
38261
38663
39115
39704
40214
40837
41444
41991
42516
43015
43462
43844
44168
44260
44271
44060
43391
42599
41866
41095
40495
40090
39846
39658
39343
38855
38311
37581
36769
35751
34849
34037
33431
32970
32587
32261
31934
31617
31418
31431
31439
31421
31322
31267
31316
31301
31319
31360
31380
31343
31262
31075
30954
30734
30637
30609
30566
30431
30447
30343
30375
30344
30421
30452
30558
30646
30799
30844
30914
30907
30846
30780
30831
30836
30830
30764
30652
30532
30503
30540
30480
30666
30791
30892
31023
31127
31221
31180
31249
31293
31319
31265
31292
31400
31366
31278
31194
31112
30887
30831
30988
31103
31201
31144
31219
31367
31463
31537
31613
31648
31601
31628
31474
31491
31522
31550
31513
31434
31393
31313
31297
31290
31269
31330
31456
31652
31796
31878
31911
31970
32031
32103
32073
32032
31901
31794
31702
31658
31725
31676
31710
31790
31879
31903
31919
31993
32072
32092
32101
32300
32407
32386
32197
32253
32156
31996
32146
32134
31956
31943
32108
32146
32216
32242
32249
32342
32388
32596
32677
32716
32737
32791
32756
32772
32689
32583
32460
32415
32334
32354
32390
32473
32486
32593
32783
32879
32992
33095
33140
33197
33215
33247
33233
33133
33158
33080
32950
32775
32685
32789
32867
32952
33009
33073
33188
33270
33301
33396
33370
33377
33316
33327
33463
33535
33527
33457
33386
33287
33213
33083
33133
33276
33364
33521
33684
33791
33917
33962
34025
34093
34063
34046
34069
33967
33901
33740
33687
33561
33646
33683
33684
33679
33499
33511
33784
33940
34047
34085
34113
34021
34019
33903
33860
33759
33741
33772
33730
33630
33478
33440
33428
33429
33479
33532
33630
33708
33775
33831
33769
33645
33535
33486
33641
33631
33526
33385
33260
33155
33031
32959
32891
32901
32863
32983
33062
33044
33062
33066
33070
33042
33002
32919
32837
32719
32599
32444
32339
32200
32073
31996
32141
32127
32121
32152
32217
32284
32321
32385
32351
32175
32096
32235
32263
32212
32101
31985
31870
31802
31713
31671
31624
31644
31679
31655
31694
31760
31911
31882
31919
31907
31983
32129
32052
31912
31770
31703
31698
31599
31550
31573
31583
31665
31661
31714
31690
31814
31875
32018
32013
32004
31927
31892
31802
31823
31877
31813
31791
31776
31754
31717
31671
31714
31733
31813
31946
32034
32019
31916
32103
32190
32033
32207
32243
32116
31965
31807
31742
31606
31471
31393
31468
31505
31534
31733
31886
32040
32132
32222
32321
32383
32285
32234
32142
32078
32192
32217
32219
32020
31876
31796
31783
31900
31975
32086
32210
32321
32485
32545
32492
32462
32377
32455
32539
32477
32439
32493
32380
32307
32318
32279
32183
32231
32298
32389
32463
32564
32621
32715
32803
32861
32846
32762
32724
32667
32612
32575
32490
32468
32349
32285
32231
32304
32380
32547
32663
32698
32804
32865
32947
32979
32959
32926
32903
32908
32910
32853
32775
32734
32615
32590
32619
32617
32661
32724
32775
32831
32896
32861
32916
32883
32884
32993
32996
32995
32922
32687
32692
32535
32509
32463
32468
32519
32527
32551
32586
32685
32775
32830
32775
32833
32885
32988
32980
32944
32802
32807
32799
32769
32593
32532
32568
32568
32532
32582
32618
32647
32698
32759
33015
33063
33096
33015
32927
32920
32855
32828
32743
32620
32531
32420
32372
32293
32351
32411
32516
32561
32591
32614
32701
32733
32759
32702
32647
32625
32565
32440
32335
32314
32303
32281
32247
32350
32418
32485
32556
32644
32707
32807
32721
32671
32684
32710
32772
32758
32628
32509
32516
32579
32537
32551
32490
32452
32519
32535
32628
32634
32699
32783
32892
32925
32911
32806
32759
32794
32815
32714
32554
32549
32436
32432
32607
32636
32669
32629
32759
32775
32804
32791
32824
32871
32887
32977
32959
32895
32856
32775
32702
32683
32562
32458
32412
32532
32695
32775
32850
32916
32961
32966
32967
33028
33086
33108
33078
33027
32991
32943
32900
32789
32775
32669
32598
32572
32626
32651
32784
32978
33132
33253
33319
33355
33373
33350
33287
33219
33135
33045
32820
32773
32750
32763
32809
32804
32931
33210
33338
33378
33365
33415
33407
33453
33417
33311
33348
33369
33342
33423
33508
33500
33441
33468
33449
33497
33573
33732
33860
33936
34033
34128
34303
34311
34308
34169
33999
33900
33845
33831
33681
33515
33397
33268
33212
33210
33324
33398
33532
33606
33767
33770
33788
33743
33727
33624
33617
33444
33399
33263
33197
33231
33148
33047
32806
32884
32956
33002
32962
33053
33111
33150
33127
33107
33053
32961
32852
32815
32679
32606
32421
32228
32114
32063
31999
32031
32094
32159
32262
32341
32382
32419
32471
32436
32476
32359
32429
32386
32309
32180
32103
32100
32122
32078
32093
32095
32135
32164
32167
32308
32417
32482
32428
32410
32338
32427
32465
32382
32343
32321
32287
32226
32153
32101
32089
32151
32257
32236
32319
32317
32399
32532
32594
32595
32617
32703
32652
32570
32374
32347
32312
32263
32199
32226
32178
32175
32294
32396
32529
32658
32682
32707
32735
32823
32805
32748
32692
32610
32503
32439
32351
32431
32474
32438
32450
32518
32583
32711
32834
32927
32954
32922
32951
32849
32854
32828
32908
32954
32973
32970
33095
33167
33243
33324
33574
34159
34673
35183
35714
36211
36634
37003
37315
37569
37708
37940
38220
38511
38831
39342
39879
40305
40676
41071
41521
41820
41933
41980
41923
41903
41726
41388
40826
40149
39543
38879
38310
37840
37492
37273
36871
36293
35406
34432
33562
33003
32749
32685
32645
32471
32322
32184
32068
32055
31963
31789
31623
31607
31455
31252
31031
30887
30837
30796
30877
30903
30913
31002
31168
31191
31175
31175
31247
31239
31211
31204
31087
31055
30839
30761
30837
30796
30762
30793
30818
30861
30964
31018
31111
31074
31079
31070
31180
31205
31195
31191
31166
31112
31172
31079
31028
30959
30908
30908
30885
30967
31100
31198
31301
31396
31508
31570
31639
31660
31712
31746
31790
31745
31650
31595
31550
31520
31462
31376
31281
31332
31345
31476
31646
31751
31810
31911
31977
32061
32108
32023
32029
31890
31847
31778
31834
31796
31742
31721
31734
31782
31764
31852
31916
32021
32089
32147
32165
32170
32196
32219
32230
32367
32309
32284
32212
32132
32069
32059
32081
32073
32157
32184
32301
32540
32668
32716
32602
32637
32741
32751
32756
32772
32812
32670
32549
32420
32487
32554
32304
32495
32551
32498
32682
32831
32919
32983
33067
33132
33063
33015
32881
32891
32974
32982
32936
32870
32824
32696
32693
32848
32897
33003
32924
33135
33287
33127
33348
33439
33509
33495
33373
33383
33417
33365
33320
33262
33101
33073
33252
33372
33464
33550
33517
33669
33834
33928
33996
34055
34037
34022
34020
33972
33951
33828
33783
33813
33753
33668
33703
33753
33749
33884
33879
33986
34159
34200
34203
34223
34258
34226
34133
34039
33989
34011
33948
33880
33854
33767
33703
33603
33580
33767
33799
33889
33922
33895
33967
33911
33854
33773
33762
33823
33738
33613
33535
33418
33221
33198
33139
33039
33023
33086
33145
33359
33415
33429
33420
33405
33338
33241
33129
33025
32948
32745
32647
32431
32262
32148
32231
32282
32293
32292
32326
32343
32270
32225
32164
32323
32348
32295
32231
32229
32156
32005
31919
31684
31671
31655
31629
31709
31695
31645
31671
31769
31760
31908
31911
31928
31954
31957
31922
31806
31687
31517
31402
31278
31252
31300
31305
31379
31469
31531
31636
31687
31585
31641
31711
31751
31751
31693
31608
31605
31495
31308
31197
31183
31177
31287
31319
31350
31420
31477
31447
31559
31556
31726
31828
31830
31847
31888
31805
31651
31556
31452
31411
31399
31398
31420
31447
31452
31534
31575
31640
31743
31791
31974
32063
32105
32089
32095
32001
31895
31798
31665
31633
31590
31620
31552
31716
31750
31825
31869
31825
31900
32087
32191
32263
32297
32331
32276
32305
32254
32186
32076
31999
31964
31910
31934
31836
31814
32005
32077
32177
32234
32248
32310
32382
32414
32407
32378
32259
32218
32142
32123
32093
31903
31975
31983
31963
32043
32165
32294
32380
32473
32555
32620
32663
32760
32804
32804
32740
32661
32535
32455
32358
32338
32301
32311
32295
32333
32345
32405
32496
32599
32666
32733
32771
32826
32843
32775
32708
32678
32655
32543
32503
32356
32295
32220
32217
32169
32239
32287
32469
32607
32708
32750
32808
32815
32813
32864
32764
32695
32551
32377
32251
32194
32212
32230
32199
32124
32286
32366
32459
32532
32602
32663
32737
32741
32695
32637
32579
32531
32394
32244
32167
32222
32230
32111
32029
32028
32130
32156
32367
32446
32547
32636
32671
32607
32544
32507
32487
32495
32442
32359
32329
32271
32161
32165
32133
32089
32075
32199
32284
32468
32532
32598
32607
32636
32607
32639
32584
32516
32434
32282
32180
32092
32207
32223
32254
32324
32266
32383
32413
32487
32508
32698
32739
32775
32773
32741
32736
32689
32591
32401
32329
32231
32191
32187
32193
32207
32425
32548
32644
32743
32858
32948
32789
32775
32714
32655
32771
32745
32671
32632
32604
32439
32335
32246
32311
32337
32421
32460
32728
32819
32861
32979
32957
32919
32896
32975
33031
33065
33045
32998
32988
32999
33031
32870
32775
32730
32770
32956
33044
33129
33221
33183
33029
33028
33046
33069
33186
33195
33161
33159
33142
33143
33172
33082
33082
33117
33223
33431
33636
33769
33949
34071
34181
34271
34212
34199
34067
34071
33966
33820
33733
33502
33349
33204
33070
32992
33031
33116
33231
33460
33497
33551
33589
33599
33651
33647
33580
33496
33365
33268
33096
32992
32902
32854
32780
32740
32879
32935
32999
33037
33087
33117
33116
33052
33027
32871
32767
32743
32687
32629
32520
32299
32082
32005
32152
32205
32228
32071
32122
32300
32412
32511
32422
32349
32263
32222
32188
32311
32257
32163
32035
31879
31759
31804
31876
31924
31948
32033
32021
32195
32367
32423
32511
32504
32428
32339
32317
32386
32309
32226
32040
31967
31799
31834
31943
32052
32108
32175
32247
32276
32329
32380
32455
32389
32378
32391
32314
32295
32372
32290
32198
32146
32030
31982
31975
31986
32189
32319
32423
32505
32505
32455
32445
32461
32617
32581
32605
32541
32423
32311
32300
32302
32279
32325
32263
32220
32145
32170
32230
32455
32495
32580
32447
32402
32358
32326
32327
32396
32462
32524
32631
32647
32798
33039
33496
33898
34415
35063
35615
36140
36572
37065
37447
37931
38356
38740
39185
39543
39875
40232
40653
41060
41479
41955
42234
42569
42830
43174
43492
43367
43015
42464
41980
41445
40935
40399
40009
39633
39256
38713
38132
37461
36617
35656
34630
33740
33094
32722
32425
32227
32064
31944
31809
31791
31836
31858
31807
31535
31346
31116
30934
30845
30746
30711
30569
30423
30365
30313
30357
30324
30343
30388
30448
30615
30694
30712
30697
30648
30548
30503
30343
30281
30164
30190
30185
30163
30193
30324
30389
30552
30690
30773
30826
30897
30995
30925
30902
30783
30722
30663
30612
30537
30599
30716
30834
30922
30935
30949
31019
30996
31039
31239
31349
31399
31447
31415
31408
31293
31290
31180
31062
30905
30863
30815
30890
31046
31142
31132
31125
31206
31365
31465
31643
31636
31647
31508
31455
31486
31478
31428
31416
31343
31350
31272
31145
31142
31206
31358
31422
31692
31844
31961
32077
32013
31964
31972
32091
32082
32020
31944
31911
31821
31695
31613
31540
31719
31775
31870
31972
31916
32006
32096
32244
32290
32308
32271
32132
32092
32137
32100
31997
31935
31912
31847
31863
31840
31860
31969
32097
32148
32356
32397
32398
32391
32418
32455
32408
32451
32340
32255
32159
32263
32247
32234
32259
32317
32422
32449
32510
32607
32785
32878
32924
32892
32912
32932
32791
32732
32818
32740
32676
32639
32666
32644
32650
32607
32636
32713
32847
32974
33089
33151
33220
33247
33295
33340
33240
33270
33245
33172
33050
33031
32919
32935
33013
33027
33078
33237
33381
33505
33535
33511
33527
33523
33588
33518
33562
33577
33521
33492
33287
33164
33212
33216
33220
33266
33339
33302
33296
33351
33550
33603
33646
33588
33556
33500
33586
33539
33524
33416
33250
33093
32994
32943
32909
33069
33115
33159
33185
33144
33102
33171
33228
33233
33263
33125
33005
32853
32743
32745
32689
32631
32580
32517
32520
32526
32408
32397
32439
32492
32463
32635
32677
32651
32596
32586
32606
32492
32399
32332
32230
32165
32130
32058
32078
32063
32132
32124
32199
32235
32164
32137
32151
32140
32147
32113
32132
32106
32071
31935
31964
31868
31825
31785
31759
31814
31860
31934
32003
32127
32175
32231
32226
32261
32217
32167
32067
32007
31908
31884
31804
31782
31646
31637
31711
31842
31932
32020
32076
32183
32230
32316
32402
32426
32463
32385
32375
32282
32246
32172
32103
31965
31896
31862
31851
32007
32105
32199
32294
32381
32446
32534
32551
32644
32647
32668
32558
32559
32414
32346
32260
32263
32167
32244
32151
32278
32420
32516
32619
32679
32756
32701
32646
32730
32743
32723
32653
32650
32575
32503
32324
32271
32231
32198
32297
32356
32410
32517
32644
32687
32759
32751
32757
32737
32788
32759
32722
32775
32752
32703
32540
32441
32365
32423
32438
32495
32583
32671
32740
32868
32983
32997
32935
32845
32851
32991
32996
32951
32919
32844
32674
32677
32469
32431
32418
32596
32679
32756
32847
32990
33023
33092
33167
33171
33181
33074
32980
32884
32853
32736
32637
32511
32620
32655
32641
32661
32726
32841
32847
32877
32866
32887
32879
33069
33121
33102
33075
33018
32940
32687
32610
32540
32656
32615
32637
32655
32636
32698
32735
32815
32826
32917
33015
32996
33026
33028
32980
32952
32896
32708
32515
32455
32438
32487
32519
32562
32634
32740
32841
32930
33027
33063
32942
32955
32894
32862
32925
32903
32831
32762
32679
32516
32398
32355
32535
32631
32599
32612
32670
32749
32884
32942
32946
32988
33016
33042
33052
32923
32829
32692
32551
32436
32430
32459
32559
32647
32719
32845
32942
32956
33004
33058
33149
33175
33125
33073
32876
32807
32720
32608
32482
32428
32335
32335
32363
32479
32543
32648
32709
32790
32878
32920
32934
32955
32926
32911
32921
32900
32854
32794
32711
32699
32581
32583
32628
32605
32685
32660
32742
32802
32831
33029
33078
33063
33084
33026
32931
32815
32749
32759
32722
32647
32625
32544
32452
32472
32623
32750
32837
32915
33008
33055
33062
33074
33149
33185
33151
33175
33082
33052
32945
32877
32811
32838
32831
32961
33079
33183
33268
33351
33377
33273
33335
33301
33292
33244
33284
33293
33273
33207
33118
33090
33076
33080
33158
33280
33403
33559
33705
33814
33894
33963
34005
34063
34086
34263
34283
34293
34278
34140
34037
33809
33692
33548
33473
33592
33581
33597
33611
33620
33687
33717
33759
33735
33758
33761
33732
33716
33633
33564
33429
33380
33297
33271
33210
33223
33207
33274
33316
33271
33292
33303
33206
33247
33172
33124
32967
32914
32768
32646
32534
32438
32481
32439
32439
32486
32511
32556
32614
32552
32533
32362
32359
32335
32341
32346
32228
32236
32255
32206
32115
32031
31975
31941
31971
32007
32058
32131
32203
32299
32354
32413
32414
32452
32408
32359
32296
32303
32212
32285
32228
32134
32031
32005
32031
32071
32080
32164
32259
32276
32342
32322
32303
32295
32323
32335
32289
32285
32279
32196
32141
32077
32071
32067
32055
32096
32090
32175
32162
32244
32295
32367
32386
32383
32366
32469
32477
32442
32359
32322
32244
32140
32107
31956
31985
31996
32060
32159
32442
32540
32550
32469
32371
32349
32407
32405
32391
32378
32217
31983
31812
31695
31707
31722
32027
32255
32610
33031
33446
33940
34462
35068
35616
36156
36537
36959
37372
37865
38348
38892
39335
39888
40313
40700
41175
41684
42215
42748
43247
43700
44151
44569
44972
45055
44911
44575
44006
43212
42484
41719
41159
40681
40247
39884
39348
38706
38005
37263
36276
35211
34199
33380
32958
32536
32276
32131
31998
31940
31914
31847
31663
31444
31212
30982
30846
30742
30769
30718
30674
30628
30641
30606
30580
30593
30471
30406
30266
30215
30156
30082
29992
29970
30015
30019
30062
30173
30104
30129
30372
30476
30554
30642
30723
30756
30769
30740
30773
30758
30631
30557
30449
30287
30228
30246
30247
30383
30588
30709
30799
30887
30975
30999
31055
30951
30977
30949
30970
31004
31006
30932
30876
30820
30782
30770
30791
30866
30884
30970
31070
31158
31215
31301
31452
31527
31530
31569
31580
31562
31539
31441
31374
31239
31169
31122
31165
31254
31372
31500
31613
31720
31794
31852
31895
31909
31925
31941
32005
31937
31837
31676
31597
31674
31724
31761
31734
31814
31841
31921
32012
32099
32148
32076
32148
32181
32196
32149
32263
32215
32135
32045
32012
31945
31886
31915
31868
31901
31846
31917
31953
31975
32061
32151
32231
32212
32230
32229
32204
32188
32155
32119
32075
32014
32021
31942
31974
32000
32135
32168
32229
32325
32436
32578
32692
32717
32733
32644
32763
32753
32657
32458
32523
32446
32259
32405
32487
32423
32473
32605
32679
32705
32719
32966
33070
33112
33173
33127
32966
33018
33043
33020
33013
32869
32750
32739
32887
33017
33127
33223
33319
33490
33497
33492
33470
33503
33623
33655
33615
33592
33526
33487
33406
33324
33285
33188
33111
33052
33172
33348
33498
33574
33671
33679
33605
33601
33545
33625
33599
33557
33532
33374
33216
33087
33173
33141
33141
33179
33137
33133
33229
33287
33390
33461
33455
33471
33417
33246
33158
33022
33039
32950
32836
32772
32627
32581
32426
32419
32550
32615
32689
32742
32754
32767
32775
32767
32724
32589
32531
32451
32326
32271
32211
32162
32111
32071
32068
32103
32146
32203
32202
32218
32172
32167
32143
32292
32279
32271
32233
32157
32090
31975
31893
31759
31709
31674
31668
31808
31865
31961
32055
32109
32167
32230
32258
32287
32282
32262
32263
32178
31967
31852
31782
31720
31642
31624
31588
31625
31684
31869
31951
32031
32210
32276
32334
32356
32353
32335
32281
32238
32148
32097
32081
31914
31905
31908
31873
31867
31929
32012
32084
32337
32422
32455
32509
32533
32469
32398
32373
32313
32151
32091
31956
31951
31919
32018
32035
32095
32169
32243
32330
32475
32575
32626
32735
32710
32703
32583
32468
32405
32362
32391
32340
32263
32215
32199
32241
32230
32228
32282
32362
32489
32516
32564
32754
32769
32788
32751
32699
32662
32599
32500
32435
32359
32313
32199
32191
32207
32332
32365
32448
32479
32716
32785
32858
32901
32880
32869
32743
32631
32548
32498
32519
32519
32551
32506
32436
32463
32647
32754
32741
32679
32872
32972
33060
32983
32922
32786
32756
32676
32798
32746
32670
32626
32508
32392
32342
32391
32455
32681
32775
32887
32926
32970
33051
32986
32930
32821
32789
32897
32826
32705
32564
32475
32338
32287
32391
32450
32535
32700
32837
32813
32892
32815
32877
33027
33031
32988
32981
32919
32769
32624
32614
32584
32582
32492
32436
32423
32563
32687
32775
32852
32806
32870
32900
33044
33060
33045
33029
32885
32749
32623
32547
32421
32343
32287
32429
32451
32510
32611
32791
32886
32872
32925
32874
32868
32908
32924
32904
32854
32759
32557
32566
32538
32484
32387
32298
32331
32425
32527
32682
32807
32869
32922
32983
32892
32868
32865
32837
32790
32745
32658
32637
32567
32423
32359
32287
32347
32415
32538
32672
32783
32807
32855
32895
32893
32883
32919
32908
32839
32775
32613
32445
32341
32452
32423
32408
32476
32487
32613
32683
32775
32754
32804
32775
32807
32917
32916
32949
32810
32631
32527
32474
32487
32487
32475
32528
32649
32644
32699
32622
32670
32689
32727
32910
32996
33022
33015
33019
32986
32884
32788
32724
32655
32575
32490
32468
32540
32662
32825
32965
33113
33285
33363
33276
33223
33147
33089
33179
33204
33168
33087
33036
32951
32881
32791
32802
32727
32783
32853
32937
33050
33215
33409
33570
33653
33735
33804
33855
33856
33684
33659
33599
33580
33556
33589
33727
33847
34007
34115
34214
34231
34207
34173
34178
34125
34074
33998
33877
33704
33495
33381
33337
33254
33372
33322
33392
33407
33380
33387
33485
33524
33708
33756
33760
33791
33727
33655
33589
33407
33287
33164
33078
33071
32983
32916
32873
32841
32871
32898
32964
33007
32944
33012
32933
32900
32916
32837
32711
32638
32527
32323
32143
31957
31933
32002
32024
32055
32117
32223
32263
32356
32341
32396
32392
32390
32359
32365
32232
32231
32313
32261
32180
32142
32103
32101
32134
32166
32215
32276
32391
32477
32534
32580
32623
32641
32625
32574
32527
32470
32391
32313
32212
32083
31981
32004
32007
32092
32081
32195
32290
32436
32486
32519
32511
32656
32687
32679
32668
32619
32583
32492
32423
32311
32342
32263
32253
32271
32389
32455
32527
32611
32618
32614
32710
32674
32695
32652
32684
32687
32633
32567
32501
32332
32247
32178
32153
32144
32202
32298
32318
32311
32260
32202
32194
32289
32429
32689
32938
33181
33449
33727
34047
34497
34925
35500
35964
36487
37031
37679
38396
39128
39813
40433
40959
41374
41948
42481
43102
43536
43676
43968
44330
44653
44897
44895
44844
44620
44142
43524
42979
42351
41855
41526
41263
40801
40199
39481
38653
37783
36729
35513
34311
33442
32738
32263
31919
31803
31749
31816
31899
31943
31844
31787
31643
31578
31513
31394
31276
31196
31040
30809
30582
30421
30353
30191
30164
30110
30222
30311
30452
30495
30516
30508
30517
30542
30629
30552
30552
30596
30448
30355
30276
30311
30307
30319
30268
30396
30535
30597
30644
30743
30858
30924
30980
30986
31006
31003
30993
30972
30927
30822
30772
30701
30757
30809
30813
30892
30936
31052
31091
31209
31303
31395
31351
31399
31430
31402
31331
31291
31222
31167
31078
31086
31087
31080
31124
31206
31270
31397
31517
31525
31650
31638
31581
31539
31591
31604
31623
31565
31518
31397
31348
31412
31452
31478
31508
31591
31650
31791
31871
31978
32048
32164
32157
32191
32199
32199
32100
31988
31935
31902
31852
31829
31718
31696
31706
31778
31881
31966
32116
32207
32260
32321
32367
32445
32422
32367
32223
32117
32013
31915
31884
31940
31909
31921
31930
31988
32140
32271
32435
32499
32496
32543
32533
32602
32610
32585
32461
32445
32356
32404
32382
32375
32410
32335
32359
32396
32403
32503
32623
32703
32940
32991
33030
33059
33070
33109
33051
33013
32961
32879
32767
32736
32673
32664
32646
32733
32776
32858
32958
33096
33255
33347
33405
33421
33454
33439
33427
33397
33366
33306
33226
33092
33031
33031
33109
33183
33252
33371
33471
33645
33697
33751
33773
33788
33719
33585
33679
33596
33439
33471
33434
33337
33263
33103
33308
33316
33263
33434
33556
33583
33543
33685
33756
33617
33697
33658
33452
33444
33429
33309
33116
33214
33074
32837
32935
33004
32977
32874
33028
33095
33004
33130
33049
32996
32971
32884
32798
32687
32638
32457
32381
32299
32239
32292
32314
32381
32322
32383
32428
32428
32434
32438
32452
32428
32549
32527
32500
32430
32292
32204
32116
32013
31943
31885
31843
31791
31782
31970
32052
32133
32213
32242
32239
32242
32244
32198
32143
32099
32028
31918
31806
31691
31678
31676
31631
31719
31682
31751
31847
31947
31948
32111
32109
32164
32151
32103
32023
31964
31925
31831
31797
31693
31657
31559
31524
31574
31741
31879
32005
32111
32263
32319
32288
32292
32271
32326
32247
32228
32149
32107
32065
31988
31921
31900
31859
31902
31881
31975
32111
32308
32359
32422
32511
32503
32540
32436
32445
32333
32250
32131
32044
32127
32070
32068
32068
32101
32169
32254
32388
32551
32583
32691
32681
32709
32679
32674
32579
32540
32413
32306
32228
32153
32038
32106
32173
32247
32359
32430
32519
32621
32687
32735
32783
32803
32842
32743
32623
32536
32560
32563
32508
32420
32398
32407
32438
32559
32539
32599
32714
32805
32853
32881
32858
32943
32943
32919
32812
32735
32647
32615
32602
32564
32419
32408
32491
32516
32512
32614
32719
32818
32887
32975
33015
32988
32927
33031
32949
32922
32775
32735
32639
32537
32497
32389
32340
32371
32430
32663
32796
32885
32926
32992
33015
32994
32938
32905
32900
32860
32837
32739
32679
32551
32471
32388
32420
32383
32431
32578
32724
32802
32826
32944
32941
32980
32994
32988
32948
32903
32810
32692
32659
32581
32517
32516
32453
32428
32407
32490
32724
32815
32818
32962
32933
32761
32910
32769
32920
32764
32791
32631
32389
32479
32248
32244
32246
32272
32383
32450
32480
32573
32645
32743
32772
32822
32775
32756
32740
32713
32592
32585
32559
32554
32519
32507
32481
32513
32453
32687
32751
32636
32664
32732
32759
32783
32775
32754
32743
32775
32700
32617
32516
32429
32379
32391
32338
32356
32390
32501
32574
32659
32687
32754
32881
32799
32933
32948
32917
32865
32796
32670
32506
32412
32367
32475
32484
32575
32614
32701
32858
32854
32923
32934
32983
32983
32947
32972
32968
32887
32813
32684
32599
32493
32476
32396
32464
32508
32634
32647
32750
32850
32911
32938
32951
32920
32903
32842
32797
32724
32716
32662
32637
32583
32524
32512
32580
32654
32750
32854
32997
33079
33159
33161
33237
33261
33264
33234
33195
33207
33135
33042
32907
32782
32724
32739
32750
32786
32885
33031
33167
33348
33415
33487
33508
33606
33636
33668
33797
33817
33822
33738
33732
33730
33620
33727
33773
33828
33918
33916
33909
33862
33796
33799
33733
33845
33783
33716
33615
33575
33543
33476
33388
33362
33322
33252
33308
33326
33376
33454
33535
33585
33644
33625
33574
33440
33410
33344
33287
33156
33029
32875
32897
32849
32774
32699
32682
32657
32719
32788
32891
32927
32898
32900
32775
32734
32592
32504
32388
32311
32212
32117
31994
31916
31796
31893
31930
31901
31989
32070
32190
32292
32367
32452
32452
32453
32394
32316
32263
32212
32164
32123
32103
31988
31989
31975
31964
31965
31973
32019
32175
32269
32474
32542
32552
32558
32583
32551
32519
32519
32404
32357
32271
32178
32040
31934
31940
32021
32084
32186
32247
32345
32388
32428
32607
32630
32631
32585
32567
32537
32474
32391
32306
32222
32162
32150
32150
32215
32327
32447
32570
32704
32780
32766
32767
32742
32764
32727
32740
32666
32556
32375
32231
32056
31948
31996
31990
32028
31999
31983
31969
32001
32041
32145
32328
32551
32800
33024
33273
33613
33884
34239
34604
35077
35511
36006
36468
37134
37766
38476
39180
39862
40513
41002
41519
42142
42771
43388
43884
44222
44568
44932
45063
45145
44954
44726
44249
43615
42970
42396
41876
41512
41241
40814
40244
39596
38954
38069
37086
35906
34772
33788
33029
32519
32105
31762
31580
31447
31444
31550
31654
31761
31663
31516
31386
31299
31197
31106
30907
30756
30549
30335
30285
30175
30094
30043
29998
30074
30166
30215
30306
30284
30383
30461
30468
30437
30453
30407
30411
30487
30415
30335
30256
30214
30193
30150
30036
30111
30316
30506
30631
30735
30797
30852
30831
30797
30855
30820
30772
30680
30756
30713
30647
30620
30606
30622
30697
30806
30838
30935
31039
31137
31191
31276
31223
31244
31308
31357
31346
31329
31273
31197
31134
31004
31015
30928
30914
30943
31051
31154
31413
31542
31643
31685
31713
31676
31656
31669
31676
31634
31406
31375
31338
31403
31429
31412
31452
31516
31545
31636
31765
31869
31886
31951
31869
31863
31874
32007
32075
32078
32055
31986
31870
31820
31799
31838
31855
31924
31992
32016
32148
32202
32318
32327
32366
32420
32356
32335
32402
32367
32319
32240
32203
32113
32076
32102
32081
32156
32180
32297
32333
32423
32431
32543
32613
32730
32759
32767
32790
32828
32821
32612
32407
32285
32357
32337
32489
32581
32711
32823
32775
32841
32900
33170
33250
33210
33220
33111
33105
33154
33159
33183
32953
32868
32916
32886
32899
32906
33004
33053
33174
33263
33493
33554
33592
33638
33661
33633
33498
33533
33571
33541
33503
33391
33349
33253
33225
33229
33351
33453
33713
33830
33892
33938
34001
34030
33990
33940
33751
33687
33741
33693
33655
33556
33453
33403
33367
33426
33511
33624
33695
33724
33874
33878
33862
33837
33832
33704
33575
33438
33470
33327
33250
33093
32973
32933
32913
32961
33083
33086
33082
33118
33172
33264
33255
33197
33058
32916
32897
32840
32831
32715
32618
32519
32453
32436
32342
32273
32303
32328
32390
32567
32693
32743
32751
32588
32535
32394
32449
32376
32279
32149
32060
32005
31991
31991
31885
31935
31879
31829
31847
32015
32226
32212
32198
32228
32249
32215
32199
32103
32020
31871
31774
31560
31517
31472
31658
31691
31748
31877
32039
32067
32051
32132
32106
32056
32001
31972
31865
31855
31943
31796
31829
31743
31704
31687
31732
31776
31844
31946
32111
32277
32311
32323
32332
32281
32263
32169
32094
32081
32026
31947
31879
31916
31892
31904
31918
31964
32122
32157
32227
32303
32356
32439
32453
32513
32503
32414
32273
32233
32300
32303
32105
32150
32194
32148
32057
32126
32170
32403
32508
32583
32678
32738
32722
32710
32663
32613
32543
32391
32364
32276
32260
32327
32300
32299
32332
32401
32378
32473
32527
32585
32630
32703
32933
32917
32810
32618
32703
32677
32648
32703
32597
32540
32444
32450
32470
32477
32489
32628
32743
32833
32863
32885
32996
32992
32974
33012
33020
32940
32870
32805
32713
32616
32562
32535
32543
32605
32741
32877
32977
32922
33004
32957
32986
32982
32937
32815
32798
32877
32831
32742
32679
32623
32492
32516
32519
32486
32507
32606
32657
32719
32702
32758
32943
32988
32996
32959
32881
32832
32773
32634
32591
32483
32372
32311
32391
32426
32590
32628
32611
32715
32768
32767
32839
32821
32844
32809
32756
32687
32628
32549
32497
32453
32370
32229
32293
32399
32442
32477
32569
32623
32695
32738
32844
32891
32919
32865
32775
32782
32791
32732
32655
32647
32519
32458
32431
32426
32461
32607
32745
32903
32957
32976
32929
32879
32932
32950
32887
32869
32756
32673
32478
32474
32459
32447
32508
32453
32439
32629
32823
32966
33070
33065
32966
32866
32817
32989
32983
32934
32850
32765
32603
32447
32364
32455
32475
32508
32573
32649
32665
32668
32690
32753
32775
32944
32976
32932
32847
32839
32794
32719
32644
32553
32524
32505
32572
32519
32581
32575
32601
32664
32746
32998
33077
33127
33141
33135
33020
32914
32703
32642
32579
32495
32418
32442
32615
32625
32687
32786
32871
32963
33007
33032
33127
33042
33028
32999
33043
32981
32911
32946
32945
32886
32863
32916
32900
32927
32892
32942
33039
33199
33310
33287
33229
33343
33301
33255
33114
33026
32900
32863
32987
32977
32942
32939
33023
33116
33239
33389
33514
33558
33700
33764
33948
34021
34052
34094
34156
34151
34128
33995
33738
33620
33543
33625
33651
33663
33663
33678
33676
33637
33679
33726
33615
33620
33677
33669
33644
33487
33543
33508
33373
33262
33159
33032
33152
33136
33093
33282
33275
33281
33327
33231
33229
33182
33101
32955
32854
32802
32832
32771
32710
32671
32601
32388
32431
32319
32204
32390
32316
32257
32423
32402
32423
32385
32349
32263
32293
32263
32173
32007
31879
31782
31850
31845
31927
32079
32170
32199
32154
32181
32410
32447
32471
32431
32302
32346
32327
32399
32373
32351
32263
32225
32180
32044
31930
32049
32159
32284
32346
32383
32404
32447
32579
32569
32582
32596
32509
32316
32239
32113
32022
32134
32137
32127
32162
32212
32284
32401
32399
32509
32481
32511
32612
32699
32736
32719
32672
32591
32494
32389
32292
32341
32331
32346
32286
32317
32291
32403
32458
32689
32751
32852
32921
32765
32751
32751
32668
32636
32517
32413
32296
32170
31977
31863
31894
32083
32396
32643
32951
33221
33403
33636
34073
34526
35040
35559
36047
36519
36907
37229
37509
37895
38193
38612
38988
39415
39869
40495
41246
41966
42706
43430
44056
44293
44214
44161
43999
43747
43540
43004
42052
41012
40308
39655
39300
38981
38619
38306
37804
37072
36101
35034
34115
33450
33111
32828
32516
32218
31919
31623
31335
31186
31079
31133
31116
31135
31084
31004
30977
30885
30959
30987
30903
30885
30841
30716
30727
30639
30523
30468
30372
30261
30167
30164
30319
30375
30400
30502
30661
30727
30688
30655
30855
30855
30901
30980
30926
30836
30683
30631
30519
30507
30452
30489
30494
30571
30638
30679
30672
30763
31012
31088
31193
31239
31239
31164
31015
31095
31124
31156
31095
31052
30958
30831
30832
30999
31082
31279
31423
31551
31610
31626
31684
31631
31511
31471
31517
31634
31615
31599
31490
31383
31333
31313
31462
31500
31572
31701
31764
31705
31823
32055
32137
32158
32130
32084
32036
31892
31739
31741
31785
31782
31743
31628
31698
31734
31815
32054
32255
32359
32383
32349
32301
32453
32465
32492
32486
32430
32386
32234
32191
32156
32157
32252
32292
32372
32482
32582
32735
32839
32899
32997
32995
33029
32958
32951
32899
32913
32894
32825
32716
32673
32693
32711
32775
32846
32877
32811
33115
33278
33364
33381
33287
33287
33477
33484
33467
33388
33269
33384
33364
33342
33227
33181
33172
33342
33468
33530
33543
33652
33870
33873
33855
33896
33823
33861
33954
33951
33919
33780
33666
33532
33532
33575
33674
33799
33901
34000
34142
34239
34258
34351
34357
34444
34417
34388
34324
34215
34167
34077
34103
34133
34127
34106
34075
34084
34090
34103
34119
34311
34431
34427
34396
34471
34396
34295
34210
34116
34052
34093
34013
33927
33828
33799
33775
33724
33761
33799
33876
33890
34011
34028
33979
33922
33914
33956
33884
33725
33507
33333
33207
33074
33097
33055
32966
32915
32947
32844
32919
33031
32971
33068
33159
33105
33054
32982
32890
32800
32692
32530
32326
32239
32311
32295
32244
32263
32292
32313
32292
32340
32381
32463
32487
32460
32443
32369
32244
32098
31967
31937
31865
31781
31590
31542
31564
31679
31743
31797
31919
31913
31910
32108
32162
32185
32071
32012
31868
31820
31831
31748
31751
31682
31654
31585
31577
31532
31637
31916
32021
32124
32188
32149
32015
31911
31892
31880
31862
31944
31917
31819
31820
31726
31588
31479
31442
31669
31743
31863
31892
31951
32052
32135
32180
32162
32071
31991
31967
31909
31991
31927
31871
31860
31835
31764
31831
31802
31853
32123
32297
32342
32351
32225
32194
32346
32395
32418
32391
32344
32351
32315
32224
32182
32111
32045
32068
32074
32188
32223
32310
32364
32484
32429
32543
32565
32579
32519
32516
32502
32467
32410
32263
32263
32080
32101
32147
32365
32470
32517
32554
32591
32639
32669
32669
32663
32622
32735
32703
32670
32613
32526
32468
32384
32287
32211
32172
32220
32248
32489
32615
32610
32660
32643
32716
32707
32879
32895
32816
32751
32585
32426
32323
32425
32372
32348
32355
32284
32332
32543
32671
32751
32700
32727
32889
32887
32844
32790
32766
32639
32474
32380
32462
32407
32327
32216
32341
32423
32501
32442
32501
32669
32766
32775
32635
32605
32708
32724
32703
32620
32558
32422
32362
32212
32116
32250
32263
32296
32316
32387
32334
32399
32461
32621
32663
32703
32711
32578
32444
32375
32500
32452
32423
32263
32053
32125
32196
32276
32364
32350
32576
32647
32670
32639
32549
32644
32690
32712
32651
32442
32406
32483
32441
32345
32242
32220
32125
32198
32357
32449
32543
32623
32722
32671
32681
32660
32637
32588
32673
32639
32606
32526
32329
32248
32367
32358
32359
32342
32276
32316
32519
32613
32718
32716
32679
32636
32735
32793
32748
32700
32631
32451
32364
32401
32367
32380
32383
32359
32374
32604
32678
32751
32775
32703
32866
32927
32919
32948
32837
32794
32900
32831
32710
32598
32636
32668
32671
32733
32757
32875
32991
33151
33300
33340
33297
33282
33230
33072
32996
32892
32968
32887
32795
32675
32775
32802
32909
32903
32919
33031
33340
33449
33479
33510
33567
33753
33780
33799
33828
33811
33751
33622
33516
33533
33434
33383
33243
33406
33489
33508
33460
33375
33383
33542
33567
33603
33543
33404
33348
33412
33322
33228
33118
32964
32864
32953
32989
33044
33007
33009
33047
33232
33247
33189
33135
32944
32897
32967
32935
32838
32655
32460
32327
32225
32282
32253
32269
32231
32185
32110
32117
32279
32364
32406
32300
32159
32106
32182
32167
32109
31933
31776
31668
31607
31724
31749
31819
31935
31916
31975
31964
32048
32143
32341
32365
32358
32367
32285
32151
32071
32143
32125
32020
31970
31812
31775
31778
31829
32031
32139
32247
32316
32343
32282
32215
32380
32428
32295
32133
32186
32159
31964
31953
31978
31924
31836
31823
32068
32151
32198
32151
32359
32453
32479
32433
32422
32511
32435
32315
32285
32375
32300
32103
32007
32140
32170
32154
32082
32111
32167
32415
32599
32639
32594
32610
32724
32747
32701
32604
32412
32320
32332
32248
32117
31831
31725
31897
32055
32206
32316
32713
32959
33066
33342
33847
34213
34665
35068
35474
35891
36332
36694
36964
37255
37463
37694
38076
38519
38948
39453
40110
40871
41489
42056
42758
43311
43427
43235
43044
42832
42569
42364
41831
40845
40014
39336
38831
38523
38246
38010
37831
37373
36655
35777
34766
33898
33359
33085
32839
32542
32304
31896
31510
31416
31393
31380
31167
31291
31239
31043
31086
31087
31081
31065
31326
31340
31165
31254
31071
30748
30753
30503
30586
30484
30363
30331
30370
30579
30689
30798
30826
30815
30836
30903
31085
31130
31110
31067
30975
30889
30964
30912
30806
30755
30571
30537
30706
30757
30868
30931
30988
31015
31231
31313
31151
31331
31343
31294
31180
31284
31253
31130
30912
31000
30991
30979
30930
30926
31151
31262
31364
31438
31351
31501
31668
31719
31700
31530
31599
31597
31559
31524
31467
31428
31407
31333
31321
31511
31559
31657
31737
31664
31714
31785
31912
31911
31924
31925
31834
31707
31615
31687
31659
31597
31551
31474
31417
31492
31719
31835
31964
32052
32041
32098
32092
32261
32243
32234
32178
32183
32135
31927
31803
31710
31673
31772
31844
31879
31978
32103
32165
32259
32305
32359
32401
32473
32474
32586
32578
32510
32462
32373
32260
32140
32089
32079
32220
32319
32412
32557
32592
32667
32676
32829
32868
32901
32895
32799
32722
32837
32821
32775
32636
32461
32465
32588
32627
32753
32849
32926
32926
32991
33197
33259
33357
33372
33338
33226
33199
33315
33327
33257
33159
32999
32996
33135
33151
33206
33295
33423
33439
33469
33537
33629
33799
33828
33864
33834
33739
33717
33740
33684
33564
33413
33323
33427
33460
33503
33567
33619
33636
33789
33913
33936
33879
33887
33775
33863
33823
33751
33553
33566
33491
33407
33254
33144
33170
33297
33378
33395
33351
33548
33570
33601
33517
33537
33423
33339
33236
33118
33097
32990
32853
32728
32660
32550
32490
32458
32607
32666
32732
32796
32724
32706
32735
32806
32748
32677
32582
32394
32299
32115
31988
32023
31970
31956
31911
31834
31767
31844
32085
32136
32176
32196
32143
32124
31983
31905
31996
31914
31775
31665
31465
31389
31442
31455
31475
31513
31607
31597
31639
31596
31623
31815
31815
31781
31700
31835
31789
31671
31591
31445
31531
31484
31402
31380
31239
31302
31517
31606
31631
31618
31811
31893
31883
31846
31801
31879
31861
31825
31803
31652
31518
31404
31376
31522
31530
31589
31524
31645
31911
32012
32049
32038
31989
31979
32091
32040
31972
31910
31795
31825
31767
31724
31683
31660
31634
31613
31710
32007
32158
32227
32149
32333
32333
32295
32202
32341
32349
32305
32241
32059
31981
32045
31991
31999
32012
32075
32074
32132
32223
32445
32516
32558
32587
32580
32519
32428
32310
32324
32380
32309
32250
32164
32127
32036
32103
32182
32272
32287
32359
32404
32615
32687
32746
32798
32823
32707
32583
32427
32324
32279
32303
32260
32175
32100
32078
32229
32347
32444
32519
32500
32559
32751
32803
32798
32806
32797
32731
32646
32527
32579
32535
32487
32410
32279
32250
32454
32540
32620
32711
32744
32711
32663
32660
32675
32767
32751
32716
32686
32619
32479
32429
32364
32238
32194
32326
32335
32361
32422
32511
32548
32588
32621
32643
32743
32710
32661
32639
32582
32516
32447
32325
32233
32311
32283
32294
32303
32319
32388
32399
32556
32645
32692
32714
32760
32766
32694
32532
32447
32537
32471
32332
32175
32111
32128
32297
32352
32378
32396
32455
32461
32636
32740
32754
32746
32727
32627
32534
32590
32527
32400
32342
32221
32156
32294
32263
32320
32317
32299
32357
32583
32667
32703
32719
32713
32660
32583
32500
32429
32351
32470
32431
32402
32263
32236
32157
32217
32420
32524
32677
32709
32637
32663
32852
32867
32847
32786
32695
32583
32476
32543
32438
32346
32369
32277
32229
32374
32458
32543
32621
32679
32695
32687
32705
32871
32845
32804
32767
32642
32551
32415
32326
32415
32392
32389
32362
32414
32415
32511
32540
32599
32756
32888
32940
32923
32902
32867
32999
33031
32978
32911
32791
32647
32633
32743
32783
32743
32758
32868
32997
33009
33028
33084
33090
33147
33119
33070
33012
32996
33004
33039
33014
33021
33071
33099
33151
33212
33263
33358
33508
33775
33905
33964
34047
34038
34071
34150
34070
33953
33814
33623
33481
33354
33251
33135
33114
33079
33118
33207
33276
33436
33381
33417
33472
33492
33483
33423
33359
33306
33199
33107
32983
32869
32791
32796
32809
32833
32847
32908
32940
32993
32856
32895
32855
32887
32813
32838
32708
32587
32503
32412
32311
32228
32127
32069
32070
32138
32164
32180
32247
32274
32343
32319
32370
32302
32282
32254
32236
32207
32151
32073
32012
31956
31936
31923
31945
31991
32088
32175
32261
32327
32384
32423
32452
32430
32293
32263
32239
32223
32125
32109
32020
31938
31846
31792
31793
31954
32039
32146
32231
32367
32394
32483
32500
32555
32482
32459
32378
32391
32183
32100
32170
32135
31969
32012
32090
31986
32150
32255
32324
32289
32459
32615
32612
32553
32639
32586
32463
32508
32510
32391
32195
32208
32172
32072
32207
32249
32176
32260
32310
32179
32289
32388
32301
32374
32390
32293
32098
32095
32117
32214
32325
32508
32636
32916
33415
33875
34372
35060
35700
36263
36711
37163
37751
38353
38948
39431
39895
40263
40606
40991
41497
41975
42399
42804
43164
43612
44032
44436
44677
44702
44518
44113
43592
43098
42556
41871
41301
40822
40330
39793
39100
38380
37581
36668
35629
34552
33657
33059
32598
32253
32037
31900
31815
31935
31965
31955
31872
31630
31367
31117
30937
30966
30878
30788
30687
30599
30542
30524
30471
30499
30448
30460
30517
30693
30736
30741
30727
30628
30515
30367
30284
30335
30293
30292
30281
30323
30398
30513
30622
30719
30746
30808
30847
30910
30862
30788
30741
30801
30814
30740
30711
30667
30688
30636
30710
30741
30828
30921
30999
31092
31135
31231
31394
31423
31461
31478
31447
31404
31356
31306
31231
31209
31072
31074
31076
31025
31263
31300
31297
31538
31565
31589
31616
31640
31789
31770
31714
31591
31576
31559
31489
31353
31437
31449
31436
31476
31513
31613
31650
31718
31852
32006
32064
32116
32148
32107
32097
31997
31974
31861
31802
31719
31661
31637
31661
31674
31826
31934
32042
32150
32157
32188
32156
32097
32098
32100
32206
32223
32143
32062
31962
31860
31837
31813
31791
31791
31863
31977
32100
32340
32414
32471
32491
32503
32473
32495
32426
32398
32329
32217
32135
32092
32169
32180
32220
32277
32348
32420
32519
32612
32701
32735
32730
32743
32789
32932
32933
32873
32732
32599
32505
32420
32417
32517
32551
32647
32743
32787
32956
33046
33054
33095
33107
33141
33206
33326
33300
33287
33156
33127
33079
33028
32959
32999
33031
33095
33172
33245
33397
33431
33505
33596
33695
33798
33823
33747
33700
33599
33540
33542
33461
33395
33260
33185
33126
33303
33385
33515
33497
33596
33612
33599
33716
33755
33687
33635
33555
33557
33597
33502
33415
33225
33252
33207
33208
33177
33135
33171
33319
33380
33361
33351
33407
33443
33394
33319
33176
33201
33069
32945
32737
32757
32681
32559
32588
32519
32694
32767
32748
32828
32807
32868
32996
32929
32879
32759
32623
32692
32604
32487
32343
32186
32277
32263
32276
32212
32263
32319
32348
32549
32596
32621
32581
32583
32541
32486
32490
32519
32447
32336
32244
32069
32059
31972
31935
31953
32081
32205
32250
32290
32311
32395
32401
32475
32404
32351
32455
32404
32273
32135
32189
32169
32085
31996
31956
31975
32175
32226
32255
32301
32380
32575
32620
32631
32530
32539
32476
32383
32456
32378
32292
32205
32071
32057
32199
32231
32311
32381
32445
32572
32570
32583
32596
32769
32767
32747
32688
32549
32542
32402
32291
32349
32317
32327
32370
32418
32415
32535
32575
32670
32740
32759
32940
32967
32967
32847
32884
32767
32623
32606
32623
32551
32488
32503
32441
32477
32444
32603
32687
32772
32837
32860
32852
32857
32820
32743
32829
32761
32715
32670
32613
32550
32500
32494
32460
32506
32575
32599
32644
32771
32903
32999
33039
33055
33063
33002
32956
32797
32735
32774
32714
32613
32574
32535
32484
32657
32739
32769
32863
32922
33151
33167
33103
33079
33181
33152
33028
32974
32858
32748
32710
32700
32650
32519
32608
32605
32757
32867
32929
32948
32997
33019
33142
33184
33188
33180
33119
33031
32990
32864
32716
32700
32700
32687
32626
32714
32700
32783
32958
33010
33071
33099
33145
33219
33127
33138
32989
33066
32956
32774
32684
32731
32602
32547
32634
32623
32693
32685
32740
32962
33020
33028
32962
33055
33009
32957
32919
32951
32917
32860
32717
32614
32519
32436
32413
32605
32663
32766
32775
32895
32907
32966
33087
33095
33072
32977
32890
32820
32845
32773
32621
32580
32452
32386
32542
32611
32618
32582
32639
32677
32785
32916
32941
32968
32959
32903
32842
32825
32710
32663
32677
32621
32613
32519
32519
32540
32532
32594
32813
32908
32835
32934
32897
32922
33022
33028
33011
32855
32811
32641
32564
32591
32563
32468
32468
32431
32497
32670
32701
32730
32711
32775
32905
32951
32919
32899
32865
32739
32812
32727
32601
32549
32435
32517
32487
32518
32601
32669
32873
32935
32964
32940
32989
32944
33023
33046
32999
32993
32945
33040
32969
32838
32823
32796
32934
32983
32945
33031
33041
33111
33335
33381
33240
33199
33077
33189
33069
32904
32945
32866
32861
32863
32905
32852
32948
33140
33270
33417
33461
33621
33758
33940
33999
34011
34102
34172
34094
34174
34086
33968
33732
33607
33482
33525
33546
33455
33358
33405
33426
33412
33494
33614
33647
33643
33671
33647
33610
33545
33464
33399
33252
33181
33167
33148
33046
33031
33047
33078
33196
33189
33198
33188
33108
33135
33113
33003
32844
32775
32626
32619
32623
32455
32391
32279
32235
32365
32356
32363
32321
32325
32261
32282
32390
32302
32283
32151
32072
32116
32007
31916
31821
31843
31940
31827
31863
31820
32016
32127
32153
32212
32178
32214
32420
32407
32355
32221
32313
32231
32058
32021
32014
31877
31816
31789
31724
31788
31943
32021
32086
32202
32215
32282
32426
32391
32329
32303
32263
32142
32197
32153
32047
31951
31893
31804
31887
31996
32070
32065
32191
32195
32372
32386
32381
32359
32407
32420
32327
32260
32110
32207
32096
32036
32063
32103
32119
32095
32210
32207
32391
32511
32559
32519
32427
32382
32289
32199
32195
32145
32027
31879
31751
31598
31596
31642
31723
32074
32464
32815
33185
33640
34247
34756
35307
35967
36447
36940
37455
37934
38389
38883
39471
40071
40604
40989
41414
41925
42501
43068
43558
44012
44532
44982
45247
45253
45119
44800
44286
43655
43054
42419
41855
41319
40812
40357
39877
39247
38501
37664
36714
35656
34650
33734
33045
32676
32332
32047
31949
31751
31743
31672
31543
31239
31111
30890
30700
30639
30719
30804
30786
30695
30548
30508
30375
30427
30481
30466
30416
30247
30122
30039
30047
30067
29946
29929
29855
30044
30119
30102
30116
30183
30391
30466
30402
30408
30484
30599
30567
30438
30373
30287
30260
30329
30260
30175
30122
30311
30428
30471
30604
30741
30884
30941
30887
30943
30951
31065
31036
30975
30837
30861
30818
30759
30646
30614
30791
30873
30855
30906
30977
31183
31333
31345
31311
31303
31483
31468
31376
31329
31190
31223
31137
31063
30975
31078
31151
31137
31133
31390
31484
31500
31507
31651
31729
31724
31724
31683
31639
31740
31652
31570
31572
31429
31516
31510
31535
31519
31591
31684
31782
31852
31873
31907
31955
31983
31966
31913
31850
31847
31852
31826
31639
31660
31605
31611
31650
31740
31815
31897
31988
32076
32113
32172
32204
32260
32292
32285
32211
32162
32162
32124
32007
31964
31893
31850
31768
31879
31986
32183
32364
32471
32535
32650
32705
32735
32692
32670
32643
32617
32538
32488
32343
32299
32286
32335
32335
32484
32613
32710
32806
32895
32942
33007
33067
33084
33111
33092
33060
33001
32947
32903
32838
32783
32724
32713
32774
32868
32935
33031
33101
33181
33308
33407
33415
33421
33476
33353
33429
33330
33263
33199
33062
33092
33034
32941
33031
33062
33191
33265
33393
33468
33535
33582
33639
33636
33646
33579
33527
33325
33310
33158
33143
33031
33077
33023
33053
33022
33101
33184
33299
33287
33391
33409
33412
33343
33287
33263
33215
33147
33066
32924
32775
32676
32595
32519
32485
32587
32578
32654
32677
32775
32764
32847
32775
32732
32642
32680
32639
32647
32580
32471
32359
32252
32158
32143
32126
32103
32103
32180
32222
32247
32361
32337
32342
32302
32298
32231
32223
32101
32055
31865
31810
31701
31709
31746
31763
31818
31892
31967
32072
32156
32215
32262
32225
32135
32131
32223
32130
32055
31983
31915
31852
31798
31775
31735
31742
31790
31815
31814
31929
32007
32100
32181
32215
32274
32298
32236
32196
32220
32088
31983
31833
31890
31903
31865
31827
31866
32036
32024
32149
32261
32310
32319
32378
32455
32492
32479
32372
32299
32180
32117
32229
32170
32039
32028
31905
32124
32212
32263
32405
32367
32449
32516
32541
32485
32501
32487
32380
32393
32442
32404
32305
32215
32211
32074
32050
32231
32277
32331
32409
32578
32561
32596
32660
32695
32722
32566
32642
32573
32423
32367
32193
32221
32186
32142
32276
32284
32429
32550
32599
32645
32663
32733
32811
32833
32839
32829
32743
32702
32708
32613
32478
32457
32453
32395
32393
32374
32460
32647
32709
32711
32833
32818
32941
32963
32923
32860
32879
32870
32815
32791
32693
32586
32549
32444
32436
32525
32607
32666
32820
32919
32951
33005
33007
33015
33022
32931
32917
32775
32775
32711
32630
32506
32476
32519
32458
32476
32527
32673
32726
32775
32906
32850
33004
32989
32927
32868
32804
32743
32697
32657
32559
32460
32431
32374
32327
32313
32481
32613
32703
32763
32797
32872
32872
32895
32871
32925
32935
32863
32755
32671
32656
32505
32445
32412
32491
32500
32514
32621
32635
32761
32847
32838
32801
32895
32964
32794
32884
32868
32799
32710
32602
32543
32461
32439
32327
32407
32527
32671
32768
32815
32836
32871
32893
32857
32853
32871
32861
32790
32786
32695
32711
32652
32604
32552
32495
32463
32527
32692
32702
32831
32871
32924
32935
32943
32930
32919
32898
32759
32772
32712
32676
32585
32549
32487
32519
32555
32591
32711
32751
32844
32918
32956
33007
33054
33010
32949
32868
32877
32831
32660
32743
32596
32509
32489
32455
32631
32678
32750
32804
32877
32903
32884
33016
33019
33005
33026
32895
32942
32877
32795
32724
32626
32557
32588
32562
32607
32655
32799
32980
33056
33075
33183
33247
33220
33305
33229
33214
33215
33096
33060
32911
32847
32820
32764
32780
32887
32886
32902
33031
33197
33154
33204
33265
33287
33335
33361
33422
33404
33429
33477
33463
33429
33476
33447
33495
33571
33671
33889
34134
34238
34291
34250
34287
34286
34262
34210
34090
33991
33835
33706
33516
33366
33340
33341
33359
33367
33470
33500
33582
33668
33719
33791
33799
33823
33761
33745
33671
33508
33423
33369
33255
33138
32972
32903
32887
32906
32837
32975
32943
33011
33045
33004
33025
32968
32922
32888
32836
32751
32699
32566
32372
32149
32048
31940
31959
31943
32016
32065
32175
32279
32196
32292
32316
32394
32415
32391
32283
32254
32263
32141
32071
32007
32020
31976
31932
31953
32031
32148
32166
32327
32383
32427
32435
32434
32447
32478
32429
32337
32300
32198
32094
32038
31988
32038
32041
32076
32098
32199
32390
32389
32480
32484
32508
32492
32499
32482
32447
32471
32294
32293
32257
32175
32101
32095
32077
32156
32252
32319
32404
32479
32488
32642
32589
32638
32679
32575
32623
32661
32590
32457
32437
32365
32194
32239
32255
32249
32207
32252
32295
32206
32332
32315
32279
32284
32148
32130
31962
32033
32023
32100
32199
32396
32593
32959
33285
33836
34310
34972
35614
36291
36811
37255
37863
38568
39175
39687
40236
40748
41096
41500
41916
42461
42983
43389
43746
44199
44634
45048
45197
45114
44828
44231
43597
42980
42455
41984
41502
41023
40489
39846
39020
38204
37306
36324
35139
34039
33215
32661
32303
32126
31878
31831
31765
31790
31899
31684
31633
31444
31175
31014
30706
30546
30576
30458
30316
30172
30160
30095
30114
30257
30372
30401
30431
30388
30366
30400
30276
30343
30289
30183
30126
29987
30030
30072
30028
30050
30060
30241
30380
30411
30537
30534
30724
30772
30762
30694
30588
30598
30533
30487
30519
30374
30300
30439
30389
30441
30488
30663
30807
30868
31009
31014
31055
31159
31169
31139
31123
31082
31026
31087
31043
30965
30909
30854
30820
30986
31046
31087
31220
31319
31319
31468
31500
31476
31527
31478
31533
31472
31431
31471
31301
31343
31335
31295
31206
31327
31419
31448
31564
31654
31647
31822
31834
31855
31863
31779
31879
31863
31835
31870
31751
31770
31715
31652
31650
31701
31780
31844
32020
32035
32098
32218
32201
32215
32231
32175
32207
32132
32119
31951
31906
31821
31758
31820
31821
31849
31932
31984
32047
32183
32237
32294
32308
32356
32378
32439
32405
32379
32357
32309
32281
32140
32149
32151
32102
32175
32231
32412
32543
32599
32628
32743
32770
32844
32836
32775
32839
32828
32760
32742
32649
32577
32575
32487
32517
32533
32674
32843
32995
33106
33139
33135
33125
33204
33215
33183
33204
33073
33052
33031
33007
32935
32855
32857
32871
33045
33122
33168
33253
33322
33485
33580
33525
33543
33489
33527
33500
33515
33429
33399
33327
33171
33178
33241
33181
33215
33215
33255
33428
33498
33497
33512
33518
33603
33678
33596
33540
33412
33309
33206
33179
33067
33065
33031
32974
32975
33075
33097
33123
33181
33159
33222
33199
33151
33048
33029
32872
32754
32631
32502
32447
32365
32352
32247
32243
32286
32344
32359
32489
32458
32541
32516
32495
32574
32559
32487
32409
32344
32236
32236
32113
32025
31933
31852
31842
31895
31918
31963
32052
32028
32103
32077
32145
32137
32147
32100
32059
32109
32001
31909
31765
31715
31669
31629
31647
31618
31589
31671
31820
31815
31966
31972
31961
31996
32044
31994
31988
31943
31865
31814
31830
31659
31615
31628
31597
31638
31706
31751
31888
31935
32065
32151
32194
32172
32108
32169
32063
32055
32069
31993
31925
31857
31761
31751
31770
31814
31895
32031
32056
32167
32149
32182
32366
32343
32347
32319
32241
32253
32196
32145
32078
32026
31939
31927
32033
31991
32115
32199
32309
32439
32452
32542
32545
32527
32653
32605
32566
32431
32428
32330
32278
32189
32142
32166
32143
32183
32237
32439
32543
32612
32692
32710
32766
32829
32775
32708
32607
32603
32623
32557
32412
32359
32239
32247
32343
32372
32468
32559
32564
32655
32807
32837
32876
32886
32843
32966
32870
32787
32737
32667
32645
32619
32462
32483
32395
32455
32506
32604
32711
32759
32866
33023
33087
33078
33031
33007
32930
32987
32970
32836
32756
32578
32518
32569
32502
32615
32703
32735
32748
32820
32833
32886
32997
32967
32980
32884
32916
32850
32767
32775
32686
32592
32519
32527
32449
32505
32532
32687
32850
32893
32964
32922
32911
33007
33018
32959
32863
32838
32794
32739
32725
32655
32557
32477
32420
32566
32548
32661
32681
32855
32935
32956
32951
32879
32975
32998
32990
32949
32831
32703
32620
32565
32489
32388
32436
32436
32450
32538
32772
32862
32919
32953
32945
32923
32922
32943
32927
32738
32682
32676
32627
32501
32463
32409
32514
32578
32543
32632
32726
32748
32809
32860
32883
32945
32921
32897
32794
32743
32774
32692
32661
32575
32471
32510
32500
32596
32684
32679
32723
32785
32764
32813
32967
32983
32916
32877
32839
32652
32364
32168
32074
32023
32039
32007
32102
32177
32207
32250
32369
32463
32612
32655
32682
32677
32634
32630
32676
32732
32677
32596
32524
32437
32348
32231
32295
32391
32387
32518
32673
32743
32723
32748
32879
32890
32898
32863
32833
32741
32638
32676
32615
32559
32527
32437
32412
32483
32646
32708
32831
32952
33005
33031
33116
33279
33247
33219
33143
33091
33027
33043
33012
32889
32866
32816
32727
32713
32859
32929
33023
33053
33055
33201
33424
33600
33696
33694
33670
33820
33829
33781
33716
33660
33719
33846
33815
33778
33856
34110
34095
34129
34111
34175
34179
34039
33927
33951
34015
33870
33671
33428
33427
33372
33311
33166
33283
33397
33398
33444
33483
33615
33624
33612
33658
33626
33651
33679
33543
33476
33383
33234
33103
33030
32999
32850
32783
32728
32783
32882
32855
32821
32886
32992
32965
32900
32847
32839
32700
32591
32495
32375
32201
32094
32054
32113
32040
31971
32060
32128
32193
32262
32391
32524
32527
32535
32514
32415
32404
32447
32306
32263
32167
32082
32097
32081
32023
32111
32207
32263
32314
32379
32426
32597
32623
32613
32535
32495
32525
32527
32405
32268
32135
32054
31982
31973
32055
32164
32221
32285
32408
32474
32444
32464
32539
32636
32655
32682
32547
32437
32372
32277
32237
32275
32251
32162
32221
32167
32191
32340
32348
32428
32577
32634
32675
32716
32759
32794
32775
32647
32613
32579
32587
32481
32451
32388
32263
32311
32263
32367
32441
32468
32487
32479
32567
32503
32403
32407
32407
32391
32453
32707
32967
33119
33388
33666
34050
34599
35189
35847
36463
36966
37508
38014
38623
39210
39630
40101
40386
40647
41143
41769
42159
42672
43302
43687
43976
44319
44487
44537
44497
44132
43600
43015
42266
41674
41202
40885
40586
40101
39431
38852
38005
36962
35800
34727
33799
33126
32725
32543
32458
32293
32143
32085
32028
32007
31970
31942
31893
31591
31343
31119
31034
30903
30804
30722
30633
30569
30447
30527
30607
30649
30632
30667
30695
30786
30821
30759
30740
30671
30536
30471
30478
30426
30263
30183
30183
30316
30397
30471
30588
30672
30777
30883
30958
30896
30954
30965
31021
31095
31061
30900
30760
30687
30677
30625
30611
30695
30786
30920
30967
31108
31247
31278
31235
31229
31320
31347
31364
31371
31297
31231
31175
31045
31108
31081
31033
31159
31189
31260
31347
31441
31590
31607
31650
31665
31631
31602
31636
31569
31529
31526
31404
31351
31412
31398
31421
31479
31495
31509
31659
31764
31846
31891
31823
31903
32004
31958
31974
31970
31920
31819
31794
31823
31671
31684
31635
31656
31839
31955
32040
32141
32218
32284
32399
32506
32389
32356
32215
32297
32385
32335
32292
32229
32157
32119
32154
32358
32364
32476
32585
32556
32600
32766
32880
32894
32889
32846
32892
33017
32850
32723
32642
32583
32635
32673
32706
32680
32726
32763
32956
33209
33216
33225
33254
33270
33473
33423
33406
33325
33447
33397
33318
33191
33233
33159
33089
33057
33229
33404
33415
33471
33660
33751
33761
33710
33863
33874
33831
33785
33828
33799
33701
33623
33553
33467
33590
33587
33600
33683
33943
33970
33944
33914
34100
34135
34011
33931
34013
33989
33912
33866
33927
33781
33565
33479
33569
33607
33637
33671
33758
33951
33897
33879
33893
33999
33951
33919
33813
33782
33753
33543
33365
33437
33267
33140
33013
33093
33124
33132
33130
33237
33428
33383
33309
33183
33109
33204
33215
33027
32759
32615
32637
32518
32391
32415
32354
32348
32343
32372
32504
32581
32579
32604
32583
32493
32512
32495
32359
32204
32102
32079
31943
31933
31809
31772
31732
31700
31836
31876
31853
31971
32060
32004
32095
32044
32108
32116
31919
31903
31789
31840
31781
31661
31599
31518
31474
31535
31719
31743
31794
31853
31845
31943
32086
32025
31971
31889
31879
31952
31819
31742
31666
31547
31530
31501
31411
31436
31455
31461
31589
31801
31797
31822
31860
31843
31908
31871
31847
31774
31631
31487
31478
31516
31391
31358
31271
31258
31367
31463
31633
31687
31674
31751
31921
31981
31876
31895
31974
31975
31871
31792
31708
31598
31670
31638
31668
31719
31793
31833
31889
31941
32109
32362
32300
32327
32380
32375
32309
32261
32217
32167
32071
32028
32021
31986
31941
31919
32007
32214
32373
32458
32508
32548
32591
32617
32707
32604
32547
32548
32629
32620
32479
32375
32302
32206
32207
32356
32431
32476
32567
32655
32799
32855
32823
32815
32823
32901
32948
32980
32924
32775
32701
32556
32468
32516
32569
32463
32466
32579
32751
32900
33007
33026
33011
32943
32938
32989
33015
33024
32964
32837
32666
32509
32559
32646
32636
32619
32620
32628
32769
32919
33031
33124
33207
33175
33116
33103
33093
33018
33019
32954
32822
32702
32580
32654
32695
32676
32667
32727
32855
33005
33088
33121
33137
33078
33151
33268
33220
33085
33005
32842
32725
32761
32719
32652
32652
32674
32676
32665
32751
32946
33023
32924
32971
32966
33011
33031
33028
32948
32910
32782
32742
32740
32635
32501
32383
32467
32599
32682
32724
32765
32753
32852
32931
32901
32903
32868
32727
32619
32558
32526
32481
32455
32415
32407
32404
32380
32388
32384
32479
32621
32796
32801
32641
32645
32661
32591
32540
32591
32591
32523
32491
32364
32311
32414
32345
32327
32297
32406
32594
32756
32810
32827
32794
32775
32894
32870
32787
32749
32835
32769
32551
32447
32340
32354
32418
32444
32541
32652
32865
33011
33095
33146
33175
33254
33239
33203
33178
33186
33222
33103
32903
32751
32669
32717
32727
32695
32735
32749
32869
33089
33218
33226
33229
33271
33508
33551
33485
33407
33386
33438
33468
33486
33484
33463
33455
33543
33625
33767
33868
33949
34037
34138
34181
34125
34076
33977
33821
33756
33631
33426
33261
33153
33146
33159
33223
33260
33329
33375
33386
33425
33506
33583
33551
33511
33414
33423
33407
33421
33320
33159
33060
32953
32852
32756
32724
32712
32751
32748
32831
32802
32853
32870
32907
33005
32999
32858
32719
32578
32434
32401
32348
32216
32167
32134
32031
31991
32048
32191
32293
32337
32383
32403
32471
32533
32606
32688
32609
32560
32500
32340
32263
32277
32247
32263
32311
32287
32279
32344
32423
32506
32643
32716
32788
32898
32812
32716
32639
32559
32471
32417
32458
32423
32331
32257
32295
32348
32332
32397
32471
32524
32647
32775
32789
32774
32770
32724
32668
32619
32570
32564
32581
32501
32385
32324
32333
32410
32470
32490
32522
32677
32746
32855
32910
32909
32893
32871
32854
32863
32908
32773
32734
32740
32612
32647
32633
32591
32652
32757
32836
32917
32935
32976
33007
33003
32985
32885
32823
32787
32838
32922
32999
33158
33173
33268
33495
33902
34431
34967
35493
35983
36489
36943
37308
37615
37892
38164
38458
38767
39047
39330
39775
40367
40845
41240
41646
42044
42351
42458
42391
42255
42076
41823
41429
40839
40303
39679
39047
38506
38076
37706
37447
36993
36231
35262
34276
33449
32970
32758
32743
32743
32582
32384
32195
32145
32145
32149
32128
31951
31722
31530
31263
31042
30963
30949
30967
31100
31270
31334
31387
31383
31345
31335
31338
31368
31382
31430
31476
31506
31356
31256
31174
31041
31025
31070
30959
31007
31006
31051
31247
31463
31516
31477
31500
31482
31581
31674
31641
31623
31575
31534
31427
31335
31215
31218
31287
31409
31524
31601
31689
31770
31790
31820
31849
31964
32102
32108
32036
31975
31879
31721
31637
31588
31606
31558
31532
31554
31629
31686
31743
31873
32046
32263
32263
32223
32407
32286
32159
32113
32081
32067
32020
31943
31833
31815
31751
31748
31845
31935
32031
32173
32287
32326
32372
32404
32390
32322
32263
32353
32367
32263
32176
32075
31985
31944
32014
32135
32255
32347
32500
32575
32718
32870
32967
32926
32885
32899
32988
32961
32879
32748
32691
32775
32743
32647
32636
32664
32730
32882
33071
33143
33168
33181
33271
33338
33396
33373
33323
33278
33222
33127
33063
32956
32970
32995
32978
32943
32979
33030
33076
33156
33260
33389
33492
33529
33567
33542
33500
33440
33343
33255
33220
33234
33231
33222
33263
33300
33277
33343
33447
33562
33733
33879
33981
33985
33993
33958
33916
33879
33873
33830
33799
33719
33647
33646
33609
33633
33711
33742
33788
33811
33928
34012
34039
34020
33983
34003
34012
33927
33823
33757
33764
33692
33588
33469
33433
33567
33532
33503
33578
33723
33909
33928
33887
33856
33799
33755
33748
33709
33553
33469
33349
33223
33121
33033
33039
33028
32987
32967
33039
33031
33018
33074
33100
33004
32949
32878
32738
32719
32692
32599
32407
32245
32075
31934
31927
31983
32063
32068
32078
32103
32103
32090
32212
32176
32122
32047
32048
31988
31847
31718
31559
31503
31539
31495
31386
31279
31357
31487
31583
31621
31613
31616
31618
31705
31741
31711
31642
31574
31513
31413
31281
31204
31169
31058
30994
30991
31175
31236
31279
31318
31367
31486
31556
31524
31477
31486
31519
31436
31367
31223
31108
31141
31081
31018
31012
30983
31047
31228
31248
31334
31337
31405
31543
31567
31543
31478
31410
31380
31440
31404
31285
31210
31111
31085
31149
31173
31255
31255
31385
31596
31681
31748
31834
31804
31788
31703
31764
31768
31670
31540
31465
31486
31397
31389
31318
31479
31548
31567
31601
31811
31855
31839
31895
32007
32057
32039
31994
31860
31861
31823
31759
31735
31709
31629
31527
31628
31747
31801
31896
31929
32089
32221
32300
32320
32319
32214
32176
32236
32271
32322
32285
32156
32028
31901
31871
31892
31975
32154
32253
32311
32359
32383
32449
32484
32599
32581
32502
32415
32326
32280
32335
32229
32110
32039
32103
32084
32088
32210
32417
32489
32541
32497
32519
32636
32657
32620
32532
32481
32498
32420
32231
32095
32100
32149
32097
32033
32045
32076
32228
32372
32466
32527
32527
32489
32538
32587
32551
32471
32388
32311
32279
32163
32054
31959
31977
32023
32063
32135
32197
32262
32405
32474
32559
32554
32547
32491
32551
32515
32395
32293
32153
32067
32079
32063
32015
31987
32015
32167
32327
32391
32444
32452
32519
32628
32615
32577
32492
32410
32379
32311
32175
32094
31989
31951
32014
32124
32183
32228
32292
32449
32433
32511
32551
32535
32559
32503
32399
32399
32389
32233
32214
32183
32070
32100
31967
32084
32149
32263
32407
32423
32396
32419
32487
32447
32452
32548
32573
32474
32382
32354
32314
32224
32117
32135
32183
32183
32218
32318
32425
32404
32435
32596
32631
32583
32604
32671
32582
32501
32543
32518
32391
32262
32205
32164
32079
32191
32320
32375
32423
32647
32772
32879
32975
33084
33027
32990
33079
33015
32898
32903
32807
32706
32622
32659
32625
32519
32519
32572
32715
32797
32781
32815
32879
33018
33182
33237
33220
33204
33252
33278
33287
33281
33203
33159
33228
33281
33369
33482
33613
33742
33855
33849
33799
33791
33841
33808
33692
33529
33364
33269
33180
33070
32995
32972
32972
33019
33140
33303
33351
33369
33407
33397
33418
33487
33503
33439
33361
33255
33120
33055
32983
32839
32693
32594
32591
32636
32629
32605
32655
32719
32724
32775
32833
32826
32805
32743
32659
32553
32528
32315
32133
32061
31934
31847
31854
31811
31826
31855
31890
31994
32135
32224
32231
32243
32215
32188
32222
32231
32150
32060
31966
31879
31917
31965
31896
31913
31930
32057
32207
32308
32357
32357
32393
32397
32409
32478
32482
32418
32327
32199
32029
32029
31983
31935
31884
31853
31991
32097
32123
32190
32291
32324
32404
32478
32543
32489
32455
32401
32405
32344
32273
32198
32116
32023
32034
32122
32218
32226
32257
32323
32381
32468
32559
32628
32607
32627
32604
32551
32569
32511
32423
32340
32300
32232
32132
32151
32141
32167
32241
32284
32336
32421
32423
32346
32227
32212
32349
32479
32623
32751
32967
33209
33474
33827
34266
34823
35373
35895
36469
37031
37669
38319
38918
39359
39804
40212
40621
41165
41609
41990
42277
42626
43120
43527
43807
43895
44113
44090
43734
43207
42895
42494
41895
41338
41140
40847
40316
39718
39078
38479
37575
36468
35302
34227
33322
32709
32332
32117
32020
31966
31965
31943
31932
31990
31932
31731
31501
31324
31140
31012
31008
30854
30628
30391
30379
30278
30245
30220
30386
30441
30493
30511
30480
30558
30658
30623
30583
30503
30525
30492
30364
30304
30221
30139
30098
30190
30289
30381
30486
30588
30624
30718
30862
30935
30901
30885
30815
30917
30969
30873
30791
30662
30678
30719
30671
30665
30711
30866
30977
31051
31100
31145
31217
31355
31358
31352
31294
31295
31312
31220
31133
31047
31041
31083
31116
31090
31057
31127
31199
31328
31476
31607
31617
31654
31736
31727
31670
31623
31521
31487
31463
31440
31431
31382
31335
31394
31542
31663
31786
31918
31975
32034
32081
32180
32215
32234
32180
32117
32024
31937
31875
31834
31782
31720
31711
31685
31772
31944
32031
32067
32110
32169
32263
32342
32359
32332
32293
32243
32171
32055
31969
31983
31981
31918
31909
31927
31956
32060
32229
32359
32428
32504
32543
32559
32603
32615
32612
32578
32507
32469
32431
32442
32468
32452
32427
32395
32488
32615
32722
32815
32866
32917
32951
33039
33077
33078
33047
32983
32991
32951
32885
32785
32716
32716
32790
32823
32839
32893
33004
33167
33277
33315
33329
33332
33397
33399
33380
33323
33278
33223
33157
33122
33127
33116
33108
33140
33174
33237
33313
33411
33543
33631
33679
33711
33773
33756
33748
33751
33700
33623
33528
33474
33441
33381
33326
33298
33335
33396
33477
33529
33567
33604
33635
33669
33703
33667
33626
33525
33422
33356
33259
33154
33099
33045
33043
33071
33046
33095
33159
33197
33188
33215
33260
33268
33221
33185
33140
33031
32927
32871
32751
32661
32599
32551
32488
32453
32468
32559
32621
32676
32679
32701
32711
32796
32845
32741
32649
32582
32495
32423
32348
32235
32171
32143
32135
32143
32135
32167
32219
32263
32289
32334
32442
32486
32447
32359
32275
32237
32210
32191
32144
32056
31991
31890
31969
32004
32007
32045
32162
32239
32247
32332
32412
32436
32431
32399
32365
32293
32190
32101
32047
32019
31982
31929
31942
31926
31918
32020
32204
32305
32349
32342
32390
32486
32504
32469
32424
32420
32367
32282
32187
32157
32188
32140
32101
32103
32098
32135
32305
32424
32501
32545
32605
32583
32556
32579
32609
32591
32573
32483
32388
32295
32194
32156
32143
32197
32326
32460
32564
32669
32727
32762
32780
32860
32959
32970
32911
32863
32803
32714
32623
32485
32382
32346
32374
32442
32485
32535
32609
32701
32787
32851
32905
32936
32943
32919
32892
32785
32703
32630
32583
32486
32450
32406
32362
32372
32391
32490
32608
32670
32796
32854
32880
32887
32896
32907
32965
32951
32874
32775
32710
32620
32577
32615
32592
32567
32639
32768
32839
32882
33002
33085
33083
33116
33174
33191
33142
33049
32919
32843
32805
32725
32660
32613
32591
32602
32655
32743
32847
32938
33015
33095
33146
33182
33180
33196
33223
33151
33054
32981
32980
32878
32747
32661
32683
32665
32659
32712
32849
32907
32908
32956
33043
33127
33120
33108
33098
33055
32951
32843
32789
32740
32631
32567
32638
32654
32629
32660
32775
32879
32897
32932
32989
32999
33004
32987
32958
32924
32924
32903
32795
32674
32573
32532
32543
32607
32667
32719
32807
32916
32968
33020
33066
33149
33134
33081
33005
32968
32941
32891
32825
32724
32639
32598
32532
32578
32661
32759
32835
32881
32965
33044
33086
33061
33089
33084
33111
33044
32943
32868
32855
32804
32736
32644
32620
32603
32679
32733
32765
32838
32903
32967
33067
33119
33126
33098
33039
33039
32989
32929
32822
32725
32687
32644
32622
32730
32796
32813
32865
32943
33049
33113
33132
33152
33181
33158
33098
33017
32917
32791
32742
32687
32668
32590
32572
32573
32612
32714
32838
32962
33037
33083
33130
33186
33205
33221
33252
33231
33233
33178
33142
33136
33061
32975
32908
32913
32968
33054
33181
33272
33358
33426
33464
33479
33461
33391
33324
33286
33284
33227
33161
33159
33172
33197
33205
33263
33423
33595
33773
33931
34081
34188
34311
34405
34516
34550
34493
34419
34371
34282
34183
34044
33895
33777
33692
33639
33588
33606
33644
33686
33705
33783
33792
33799
33775
33765
33782
33751
33671
33570
33432
33327
33301
33272
33231
33204
33188
33266
33339
33343
33334
33358
33413
33396
33317
33251
33227
33135
33057
32932
32834
32771
32628
32519
32461
32497
32479
32434
32426
32532
32555
32525
32497
32508
32502
32445
32399
32414
32338
32223
32102
31991
31948
32017
32016
32018
32023
32026
32126
32265
32419
32426
32428
32434
32457
32471
32471
32450
32412
32345
32246
32130
32049
32042
32050
32053
32107
32156
32224
32304
32415
32500
32494
32479
32483
32495
32460
32468
32505
32468
32375
32263
32164
32135
32207
32207
32213
32226
32247
32311
32479
32494
32519
32609
32557
32645
32607
32643
32547
32414
32383
32353
32263
32199
32182
32260
32334
32348
32415
32511
32641
32724
32749
32737
32740
32690
32551
32446
32332
32214
32155
32101
32004
31863
31734
31639
31799
32003
32225
32542
32900
33327
33740
34198
34715
35263
35789
36166
36638
37127
37621
38082
38486
38985
39589
40236
40895
41425
41906
42405
42872
43380
43879
44442
44894
45198
45330
45191
44826
44482
43837
43231
42580
41908
41446
41184
40863
40390
39731
39247
38605
37697
36549
35444
34416
33575
32977
32519
32209
31967
31844
31788
31689
31532
31481
31335
31143
31017
30956
31014
31103
31083
30907
30744
30613
30507
30509
30449
30357
30227
30244
30111
30020
29991
29954
29955
29951
30023
30150
30319
30391
30417
30434
30452
30599
30560
30487
30445
30488
30473
30471
30372
30278
30161
30179
30286
30388
30388
30445
30535
30647
30846
30894
30935
30935
30892
30914
30951
30970
30921
30838
30773
30663
30647
30727
30743
30782
30831
30895
31010
31132
31251
31336
31379
31343
31348
31407
31420
31348
31239
31140
31079
31071
31103
31157
31149
31150
31294
31379
31442
31519
31557
31607
31703
31804
31818
31766
31751
31746
31711
31641
31597
31556
31535
31550
31524
31526
31572
31708
31919
32033
32135
32173
32173
32200
32235
32207
32119
32036
31970
31851
31817
31715
31607
31569
31568
31572
31633
31801
31946
32001
32037
32069
32139
32234
32189
32122
32173
32183
32110
32020
31879
31834
31831
31868
31959
32028
32077
32167
32251
32382
32470
32503
32500
32524
32591
32629
32647
32597
32532
32487
32503
32448
32410
32356
32361
32419
32519
32621
32709
32773
32852
32949
33031
33092
33095
33060
33018
33021
32974
32915
32828
32742
32708
32748
32791
32805
32899
33071
33178
33245
33364
33450
33527
33519
33495
33467
33487
33479
33389
33276
33232
33150
33110
33131
33116
33213
33303
33391
33522
33607
33647
33702
33728
33757
33703
33620
33596
33538
33505
33427
33333
33239
33191
33159
33159
33223
33242
33295
33382
33463
33518
33562
33560
33583
33551
33492
33412
33327
33222
33134
33015
32876
32757
32702
32676
32682
32701
32789
32879
32908
32937
32959
32972
32967
32934
32889
32836
32735
32669
32540
32377
32263
32175
32147
32169
32174
32189
32204
32216
32335
32461
32496
32429
32359
32370
32389
32367
32289
32173
32101
32060
31940
31861
31828
31878
31945
31983
31959
31970
32044
32074
32161
32223
32230
32194
32154
32111
32081
32049
31945
31829
31751
31682
31631
31719
31822
31911
31978
31981
32013
32186
32295
32359
32394
32367
32335
32365
32300
32231
32103
31975
31882
31868
31877
31974
32038
32084
32143
32216
32310
32425
32497
32535
32495
32515
32509
32514
32449
32407
32383
32263
32124
32035
32062
32105
32162
32231
32324
32426
32547
32660
32713
32729
32718
32716
32746
32705
32623
32519
32466
32433
32370
32291
32228
32279
32354
32404
32503
32571
32634
32700
32743
32785
32791
32775
32787
32775
32739
32678
32556
32461
32436
32391
32351
32345
32439
32538
32612
32700
32757
32805
32812
32788
32775
32745
32769
32814
32799
32717
32631
32557
32496
32476
32476
32475
32484
32543
32610
32723
32882
32935
32990
33077
33099
33107
33070
33015
32963
32876
32807
32731
32653
32625
32596
32607
32687
32735
32820
32907
32991
33054
33044
33009
32999
33012
33009
32993
32959
32883
32819
32772
32679
32609
32615
32589
32547
32556
32586
32718
32839
32887
32939
32990
33031
33064
33092
33033
32938
32837
32775
32699
32610
32516
32460
32453
32553
32638
32700
32775
32848
32921
32977
32999
33003
32999
32993
32983
32949
32870
32765
32697
32651
32550
32480
32465
32541
32623
32704
32788
32844
32903
33002
33045
33043
33011
32999
32978
32975
32919
32837
32716
32631
32633
32588
32510
32579
32709
32743
32764
32829
32927
32951
32989
32999
32999
33030
32995
32930
32919
32844
32775
32711
32653
32610
32636
32671
32679
32711
32823
32884
32933
32959
32964
32997
32932
32931
32965
32923
32835
32704
32611
32483
32476
32539
32591
32636
32669
32733
32821
32933
32999
33029
33066
33055
33063
33017
33005
32980
32871
32775
32718
32654
32583
32559
32559
32588
32654
32751
32822
32911
32966
33002
33003
33007
33012
32995
32941
32852
32775
32725
32697
32643
32534
32519
32549
32588
32618
32671
32815
32937
32980
32975
32988
32998
33022
33001
33047
33069
33023
32980
32942
32871
32821
32748
32702
32757
32841
32951
33079
33187
33241
33268
33296
33317
33316
33287
33249
33213
33242
33186
33086
33030
32981
32980
33007
33053
33063
33130
33262
33396
33493
33580
33716
33791
33863
33911
33924
33919
33903
33878
33868
33862
33813
33792
33814
33847
33903
33966
34055
34108
34127
34066
34015
34001
33980
33919
33781
33711
33653
33583
33495
33404
33303
33243
33190
33244
33317
33428
33479
33501
33575
33623
33663
33663
33618
33510
33415
33287
33223
33133
32983
32887
32801
32726
32607
32687
32735
32795
32827
32931
33010
33005
32974
32875
32839
32751
32613
32474
32303
32183
32111
32025
31903
31847
31843
31844
31876
31996
32084
32162
32257
32311
32338
32332
32291
32292
32263
32237
32201
32131
32070
31968
31879
31879
31941
32020
32111
32169
32295
32358
32393
32405
32391
32415
32430
32423
32379
32295
32287
32204
32066
31947
31881
31897
31988
32068
32085
32113
32149
32294
32391
32441
32465
32513
32524
32505
32532
32535
32473
32365
32252
32284
32178
32164
32212
32213
32206
32247
32327
32467
32606
32620
32653
32663
32597
32579
32531
32489
32431
32354
32342
32326
32300
32276
32224
32186
32215
32252
32279
32324
32346
32375
32369
32309
32197
32075
31998
32037
32111
32288
32505
32707
33001
33391
33838
34366
34918
35545
36208
36804
37310
37847
38527
39247
39823
40230
40652
41132
41652
42039
42503
42997
43300
43612
43999
44429
44744
45012
45021
44803
44173
43527
43106
42651
42110
41548
41012
40607
40151
39263
38365
37423
36389
35190
34119
33281
32699
32299
32020
31876
31793
31802
31876
31908
31788
31642
31425
31196
31086
30908
30719
30571
30349
30144
29991
29975
30004
30052
30098
30220
30322
30364
30397
30495
30491
30410
30397
30324
30178
30119
30087
30085
30018
30023
29983
29975
30068
30254
30398
30487
30523
30511
30559
30674
30727
30697
30655
30588
30557
30559
30548
30479
30407
30351
30360
30355
30619
30709
30734
30855
30943
31061
31142
31138
31135
31117
31074
31075
31078
31050
30951
30892
30795
30764
30795
30889
30975
31070
31181
31238
31284
31382
31455
31514
31510
31477
31428
31484
31423
31306
31190
31133
31111
31140
31146
31166
31236
31378
31493
31623
31727
31783
31871
31887
31860
31836
31813
31805
31815
31799
31751
31688
31612
31592
31567
31616
31789
31918
32037
32095
32118
32167
32205
32249
32247
32206
32130
32071
31991
31879
31821
31791
31759
31772
31791
31783
31861
31965
32052
32163
32220
32332
32399
32438
32458
32469
32499
32463
32388
32329
32261
32239
32233
32215
32231
32261
32340
32465
32573
32660
32764
32798
32834
32839
32859
32879
32852
32811
32719
32645
32605
32568
32587
32532
32506
32524
32598
32735
32913
33031
33099
33117
33191
33263
33301
33308
33285
33265
33223
33164
33103
33095
33042
33030
33031
33108
33204
33276
33375
33504
33596
33655
33676
33732
33761
33759
33710
33662
33620
33572
33525
33479
33415
33359
33324
33349
33423
33499
33550
33591
33636
33708
33783
33860
33799
33735
33671
33605
33552
33485
33342
33231
33157
33121
33098
33086
33100
33124
33172
33233
33350
33351
33314
33287
33257
33199
33135
33073
33010
32868
32732
32635
32540
32431
32490
32495
32508
32543
32676
32694
32728
32806
32797
32743
32665
32615
32599
32560
32444
32303
32164
32018
31927
31908
31866
31907
31978
32018
32074
32148
32245
32253
32275
32301
32292
32272
32249
32175
32091
31981
31912
31879
31823
31751
31735
31719
31751
31870
32063
32141
32164
32159
32239
32232
32227
32171
32092
32042
32023
31982
31931
31852
31763
31708
31698
31742
31813
31938
32043
32165
32219
32238
32287
32367
32391
32348
32353
32323
32203
32108
32079
32068
32027
31994
31928
31894
31948
32063
32199
32326
32372
32391
32455
32541
32542
32527
32515
32420
32361
32286
32229
32222
32199
32111
32074
32086
32226
32326
32412
32495
32528
32555
32625
32622
32618
32603
32613
32612
32551
32477
32459
32420
32311
32231
32194
32251
32314
32407
32497
32554
32629
32663
32690
32687
32657
32647
32663
32636
32586
32486
32407
32381
32343
32276
32256
32291
32383
32431
32492
32573
32636
32758
32810
32804
32842
32868
32855
32820
32743
32647
32564
32478
32444
32380
32341
32401
32534
32589
32656
32731
32843
32953
33007
33017
33041
33028
33013
32943
32820
32658
32596
32606
32558
32508
32501
32509
32569
32663
32751
32827
32878
32933
32969
32977
32963
32911
32867
32797
32764
32640
32536
32443
32428
32424
32446
32470
32532
32597
32695
32755
32799
32816
32820
32833
32855
32829
32795
32799
32759
32651
32567
32480
32419
32391
32359
32415
32409
32450
32525
32659
32758
32755
32789
32826
32853
32887
32813
32740
32661
32572
32530
32463
32423
32419
32411
32423
32459
32519
32613
32703
32775
32831
32845
32907
32910
32874
32844
32804
32725
32661
32596
32539
32474
32403
32356
32358
32346
32459
32612
32702
32743
32759
32742
32775
32805
32805
32828
32829
32767
32707
32617
32516
32455
32436
32423
32385
32423
32462
32596
32689
32798
32879
32920
32958
32951
32911
32863
32757
32708
32610
32491
32431
32343
32313
32310
32300
32403
32519
32637
32717
32758
32820
32855
32885
32879
32847
32852
32852
32839
32709
32559
32439
32369
32389
32422
32422
32431
32515
32607
32723
32785
32863
32942
32978
32951
32868
32815
32767
32674
32602
32576
32517
32485
32447
32427
32450
32528
32661
32730
32762
32810
32892
32971
33001
33023
33045
33031
32998
32905
32791
32716
32690
32651
32669
32729
32775
32823
32854
32927
32999
33055
33165
33279
33356
33367
33330
33262
33198
33143
33084
32995
32865
32756
32743
32805
32844
32935
33077
33249
33411
33519
33657
33790
33924
34010
34082
34086
34067
34043
34025
33966
33883
33772
33711
33671
33679
33677
33661
33670
33703
33755
33738
33714
33711
33733
33748
33711
33612
33495
33383
33305
33229
33164
33103
33145
33183
33200
33196
33250
33348
33351
33342
33357
33375
33377
33311
33205
33071
32883
32749
32666
32591
32495
32478
32463
32470
32559
32566
32567
32525
32469
32431
32460
32447
32445
32396
32332
32234
32182
32135
32031
31920
31874
31853
31790
31797
31885
32007
32109
32224
32324
32410
32412
32403
32428
32393
32373
32354
32331
32263
32135
32015
31938
31967
31948
31920
31935
32058
32158
32263
32357
32431
32455
32503
32519
32503
32475
32404
32369
32259
32149
32179
32123
32036
32076
32102
32123
32197
32331
32469
32539
32545
32586
32625
32594
32535
32487
32464
32420
32349
32263
32231
32239
32215
32214
32275
32383
32457
32556
32626
32740
32804
32828
32823
32806
32812
32811
32822
32775
32677
32579
32471
32318
32208
32202
32148
32141
32200
32285
32321
32295
32314
32364
32417
32481
32644
32867
33148
33488
33799
34084
34404
34855
35367
35867
36335
36851
37476
38164
38823
39319
39839
40404
40935
41428
41949
42428
42932
43315
43647
44012
44478
44719
44754
44551
44167
43610
43191
42747
42106
41500
41318
41110
40732
40028
39350
38598
37737
36798
35540
34370
33479
32859
32407
32095
31869
31764
31742
31797
31912
31956
31958
31806
31636
31492
31353
31341
31306
31124
30866
30631
30539
30421
30262
30131
30098
30230
30294
30421
30488
30618
30670
30681
30690
30703
30727
30787
30722
30551
30471
30476
30484
30411
30331
30330
30460
30544
30577
30637
30673
30791
30935
30958
30928
30911
31011
30983
31052
30911
30862
30863
30785
30684
30717
30711
30727
30767
30858
30983
31119
31186
31183
31253
31284
31329
31338
31343
31239
31195
31195
31133
31075
31103
31057
31015
31042
31102
31211
31356
31547
31645
31663
31697
31692
31665
31684
31677
31603
31559
31491
31412
31409
31363
31377
31373
31360
31433
31551
31724
31901
32003
32063
32089
32117
32178
32255
32273
32195
32052
31979
31934
31895
31871
31823
31814
31839
31926
31988
32079
32188
32282
32351
32387
32455
32446
32374
32295
32262
32294
32293
32230
32171
32117
32052
32037
32035
32119
32270
32365
32488
32567
32633
32727
32799
32751
32743
32775
32788
32766
32679
32623
32614
32607
32519
32470
32501
32574
32692
32843
32913
33024
33114
33223
33325
33327
33311
33293
33269
33236
33180
33130
33084
33095
33071
33031
33068
33173
33223
33313
33439
33513
33575
33638
33740
33823
33849
33814
33751
33719
33646
33561
33492
33444
33423
33468
33543
33605
33695
33775
33853
33977
33988
34016
34068
34086
34052
33927
33834
33772
33776
33778
33726
33654
33591
33590
33639
33659
33671
33703
33761
33837
33914
33933
33903
33863
33890
33854
33815
33763
33695
33555
33377
33260
33208
33230
33198
33191
33239
33311
33350
33340
33334
33322
33279
33247
33251
33181
33130
33058
32935
32855
32734
32591
32511
32421
32423
32463
32465
32509
32558
32604
32652
32751
32836
32790
32694
32580
32492
32383
32286
32172
32057
31966
31914
31870
31877
31887
31978
32097
32143
32135
32121
32149
32188
32247
32245
32127
32111
32092
32068
31951
31836
31785
31739
31714
31771
31831
31879
31997
32133
32213
32247
32263
32332
32292
32221
32201
32100
32029
31966
31909
31883
31839
31772
31787
31855
31879
31897
31953
32103
32187
32225
32239
32287
32323
32348
32317
32263
32178
32116
32085
32023
31999
31981
31979
31944
31963
32014
32199
32314
32388
32359
32364
32399
32387
32367
32386
32364
32297
32220
32122
32038
31999
31988
31940
31894
31982
32119
32244
32307
32343
32387
32437
32450
32495
32533
32574
32565
32491
32449
32389
32351
32281
32213
32172
32157
32254
32318
32411
32540
32585
32646
32736
32803
32860
32852
32767
32676
32601
32575
32498
32399
32305
32223
32253
32327
32381
32436
32526
32628
32684
32693
32739
32771
32821
32893
32919
32863
32775
32679
32580
32458
32350
32391
32463
32453
32469
32540
32625
32685
32804
32881
32857
32932
32967
32903
32838
32821
32748
32693
32631
32507
32418
32399
32409
32404
32420
32495
32654
32798
32828
32877
32943
32957
32916
32861
32762
32716
32705
32719
32641
32558
32525
32454
32421
32431
32526
32587
32671
32726
32804
32893
32887
32874
32879
32889
32879
32817
32745
32663
32508
32415
32353
32308
32263
32327
32402
32450
32486
32582
32684
32727
32803
32751
32775
32830
32792
32835
32761
32711
32594
32484
32417
32306
32290
32334
32431
32485
32574
32633
32663
32755
32793
32890
32853
32815
32772
32681
32583
32615
32615
32544
32503
32455
32404
32423
32535
32628
32707
32801
32873
32902
32879
32900
33012
33042
32999
32976
33020
32920
32692
32682
32585
32527
32515
32528
32522
32531
32623
32770
32919
32998
33031
32977
32953
32947
32943
32915
32831
32782
32735
32682
32615
32543
32455
32426
32462
32547
32631
32727
32791
32852
32911
32998
33068
33023
32961
32939
32926
32858
32721
32644
32615
32549
32543
32589
32630
32731
32855
32883
32911
33004
33067
33095
33103
33109
33023
33012
33045
32991
32863
32765
32727
32697
32769
32838
32890
32943
32975
33083
33183
33244
33287
33319
33346
33396
33370
33284
33247
33193
33119
33071
33084
33025
32959
32895
32956
33132
33240
33242
33271
33375
33500
33573
33631
33660
33678
33724
33788
33812
33727
33777
33854
33890
33924
33958
33999
34063
34180
34285
34354
34439
34354
34215
34117
34053
33943
33884
33839
33764
33620
33500
33460
33380
33370
33446
33476
33476
33516
33596
33620
33638
33641
33686
33726
33731
33662
33494
33383
33271
33173
33071
32977
32883
32803
32775
32767
32807
32869
32943
32999
33022
33023
33014
32999
32903
32764
32667
32564
32519
32407
32221
32073
32108
32087
31961
31895
31942
32087
32231
32340
32361
32423
32500
32489
32458
32452
32425
32351
32262
32199
32116
32039
32029
31943
31863
31924
32036
32138
32237
32294
32308
32343
32412
32434
32406
32391
32359
32282
32161
32032
31988
31995
31975
31990
31946
31983
32094
32247
32295
32333
32413
32503
32511
32510
32550
32535
32532
32445
32326
32251
32227
32217
32183
32103
32172
32223
32270
32330
32421
32494
32528
32551
32620
32613
32667
32675
32582
32527
32459
32341
32333
32295
32246
32280
32285
32415
32567
32641
32692
32686
32679
32724
32687
32691
32677
32665
32655
32737
32849
32918
32887
32999
33300
33636
33981
34375
34990
35687
36292
36679
37023
37439
37863
38143
38407
38676
38882
39176
39559
40061
40735
41165
41707
42151
42374
42357
42279
42209
42134
42132
41915
41397
40689
39990
39208
38591
38188
37936
37728
37352
36649
35612
34468
33515
32927
32652
32589
32491
32263
32066
31943
31960
31933
31894
31829
31763
31663
31441
31189
31017
30806
30621
30599
30725
30855
30922
30936
30926
30855
30790
30793
30863
30915
30949
30965
30955
30923
30916
30865
30751
30673
30653
30573
30523
30498
30588
30727
30813
30881
31008
31077
31097
31134
31159
31207
31205
31198
31127
31031
30965
30879
30798
30727
30790
30837
30825
30869
30918
31093
31245
31335
31406
31540
31623
31634
31590
31572
31605
31593
31508
31428
31359
31319
31353
31429
31447
31431
31527
31587
31623
31683
31775
31817
31895
31988
32002
31930
31868
31799
31737
31698
31691
31636
31631
31645
31658
31703
31763
31866
31911
32015
32077
32045
32017
32052
32123
32215
32093
31975
31943
31933
31935
31835
31788
31878
31955
32004
32110
32225
32389
32435
32442
32541
32609
32686
32663
32583
32486
32519
32511
32374
32269
32203
32231
32334
32372
32412
32539
32676
32793
32833
32812
32934
33031
33049
32948
32884
32871
32823
32797
32665
32553
32559
32621
32758
32775
32774
32869
33029
33095
33081
33170
33251
33356
33405
33318
33206
33228
33255
33248
33140
33051
33007
33012
33114
33276
33355
33460
33469
33671
33878
33933
33867
33839
33943
34052
34044
33886
33815
33871
33869
33753
33719
33696
33761
33788
33799
33916
34103
34247
34219
34279
34407
34458
34439
34382
34228
34182
34190
34127
34023
33787
33698
33715
33724
33829
33879
33879
33957
34111
34151
34083
34047
34141
34143
33941
33940
33966
33819
33584
33486
33442
33375
33375
33364
33251
33230
33399
33431
33407
33442
33492
33556
33455
33315
33317
33322
33253
33031
32757
32622
32558
32484
32416
32331
32356
32443
32533
32567
32583
32718
32815
32710
32613
32571
32540
32495
32359
32271
32165
32081
31974
31876
31775
31772
31759
31788
31893
31996
32063
32055
32005
32020
32045
32050
32047
32004
31909
31791
31647
31623
31604
31565
31511
31444
31449
31530
31642
31738
31719
31721
31823
31876
31959
31966
31870
31809
31748
31717
31693
31661
31597
31549
31521
31495
31525
31605
31775
31852
31878
31946
32050
32135
32172
32149
32039
31916
31927
31916
31877
31777
31707
31631
31591
31575
31627
31703
31853
31942
32004
32089
32207
32300
32353
32343
32309
32309
32375
32259
32074
31935
31839
31815
31815
31851
31917
32007
32007
32084
32213
32348
32480
32519
32509
32483
32471
32476
32501
32476
32391
32247
32087
32003
32048
32154
32172
32129
32263
32415
32433
32473
32524
32668
32700
32628
32607
32645
32620
32519
32353
32246
32234
32245
32258
32247
32282
32415
32495
32533
32547
32602
32759
32831
32748
32722
32731
32787
32775
32673
32500
32436
32407
32389
32340
32263
32343
32506
32591
32583
32708
32858
32918
32809
32758
32821
32869
32847
32801
32612
32499
32487
32509
32461
32381
32263
32235
32341
32508
32591
32699
32727
32759
32775
32801
32820
32847
32735
32647
32612
32637
32591
32439
32295
32292
32354
32390
32463
32556
32557
32615
32717
32831
32879
32852
32807
32703
32652
32645
32599
32623
32518
32302
32322
32202
32251
32358
32309
32423
32519
32425
32469
32580
32735
32835
32775
32631
32586
32596
32596
32519
32418
32251
32164
32180
32244
32263
32253
32309
32474
32629
32714
32759
32677
32647
32639
32631
32679
32731
32597
32454
32490
32423
32275
32246
32253
32411
32468
32426
32455
32551
32619
32705
32762
32831
32847
32801
32735
32601
32554
32516
32495
32327
32200
32211
32253
32357
32440
32411
32452
32589
32751
32859
32932
32919
32887
32767
32757
32751
32766
32716
32626
32507
32486
32500
32621
32711
32652
32738
32938
33047
33154
33086
33117
33244
33341
33242
33194
33193
33130
33017
32916
32803
32724
32605
32592
32750
32889
32812
33077
33081
33260
33510
33436
33560
33745
33775
33695
33635
33583
33577
33567
33567
33605
33697
33726
33598
33577
33636
33742
33922
33980
33950
33846
33775
33717
33622
33642
33631
33586
33521
33388
33189
33077
33028
33123
33206
33308
33391
33342
33398
33405
33396
33381
33369
33404
33372
33268
33094
32983
32863
32803
32759
32686
32644
32557
32508
32453
32508
32663
32769
32799
32754
32715
32677
32506
32363
32294
32204
32148
32062
31926
31748
31647
31620
31663
31791
31879
31941
32015
32106
32241
32350
32406
32372
32295
32261
32231
32263
32211
32091
31981
31830
31779
31827
31826
31829
31797
31853
31927
32037
32184
32301
32290
32193
32234
32316
32310
32175
31956
31878
31866
31843
31834
31815
31802
31773
31837
31934
32106
32191
32212
32196
32247
32295
32311
32261
32118
32017
32021
32022
31951
31863
31823
31769
31720
31879
32002
32183
32255
32236
32244
32342
32457
32519
32459
32383
32500
32332
32331
32341
32252
32031
31917
31965
32038
32029
31919
32031
32180
32269
32280
32318
32461
32594
32775
32995
33205
33330
33417
33614
34038
34601
35047
35311
35686
36244
36685
36988
37305
37816
38215
38636
38916
39266
39697
40508
41127
41538
41871
42087
42287
42332
42310
42159
41735
41398
41095
40751
40004
39399
39207
38881
38551
38381
38171
37621
36833
35847
34868
33958
33178
32582
32283
32083
31850
31714
31495
31367
31438
31652
31695
31592
31546
31516
31383
31164
31055
31022
31009
30943
30756
30551
30376
30308
30272
30239
30209
30316
30503
30622
30615
30652
30727
30788
30831
30815
30767
30697
30686
30691
30682
30534
30351
30326
30362
30438
30480
30521
30590
30605
30727
30855
30927
30903
30915
30971
31041
31061
30938
30879
30828
30836
30849
30714
30663
30727
30895
30930
31003
31103
31263
31361
31335
31332
31407
31482
31423
31367
31404
31406
31276
31175
31131
31175
31218
31335
31350
31395
31495
31624
31721
31748
31719
31742
31815
31885
31928
31857
31718
31652
31643
31644
31591
31467
31447
31513
31638
31814
31980
32071
32039
32099
32210
32287
32189
32180
32279
32166
32067
32036
31954
31891
31891
31855
31743
31732
31828
32018
32239
32295
32198
32244
32303
32426
32475
32365
32347
32255
32243
32291
32262
32063
31999
32044
32172
32283
32281
32369
32530
32765
32877
32791
32800
32833
32900
32897
32795
32638
32585
32556
32556
32519
32407
32295
32333
32452
32605
32676
32748
32909
33063
33167
33147
33124
33246
33276
33116
32999
32991
33012
32871
32775
32794
32934
32889
32883
32981
33175
33350
33365
33354
33423
33572
33700
33604
33543
33559
33600
33604
33420
33375
33391
33372
33367
33255
33249
33381
33625
33786
33701
33742
33887
33943
33798
33789
33842
33844
33621
33519
33553
33500
33407
33258
33243
33277
33353
33546
33630
33637
33570
33503
33489
33564
33626
33697
33566
33412
33356
33368
33343
33086
32935
32927
32788
32628
32753
32861
32765
32834
32991
33007
32973
33094
33117
32916
32927
32931
32741
32679
32775
32495
32325
32269
32263
32146
32222
32381
32412
32271
32327
32453
32435
32361
32373
32503
32423
32237
32183
32121
31916
31743
31705
31737
31735
31591
31648
31770
31935
31903
31965
32048
32167
32231
32100
32131
32199
32215
32090
31980
31823
31701
31663
31669
31747
31820
31828
31808
31919
32110
32303
32308
32451
32303
32230
32196
32230
32246
32108
31957
31920
31934
31959
31796
31744
31796
31868
31987
32055
32063
32085
32213
32367
32439
32462
32303
32263
32244
32263
32227
32119
31957
31930
31983
32003
32026
32059
32014
31966
32075
32217
32362
32436
32511
32429
32434
32516
32566
32507
32337
32231
32158
32086
32007
31912
31891
31964
32134
32252
32231
32335
32508
32644
32758
32730
32782
32875
32949
32775
32718
32667
32463
32180
32111
32127
32172
32176
32245
32231
32339
32469
32655
32749
32690
32633
32642
32663
32601
32443
32402
32423
32374
32276
32135
32127
32166
32323
32447
32354
32353
32539
32719
32743
32764
32868
33071
33124
32967
32838
32757
32652
32468
32400
32418
32542
32559
32411
32463
32672
32833
32919
32911
32982
32990
33108
33087
33012
32841
32783
32775
32813
32855
32628
32579
32572
32678
32703
32580
32659
32755
32899
33051
32959
32949
32991
33087
33149
33036
32869
32743
32788
32796
32689
32460
32372
32382
32540
32612
32551
32647
32817
32926
32972
32870
32876
32988
33030
32871
32722
32759
32743
32553
32461
32383
32421
32511
32485
32559
32785
33079
33253
33268
33298
33282
33306
33226
33091
32946
32833
32817
32790
32639
32492
32474
32465
32485
32557
32459
32384
32445
32577
32710
32623
32652
32735
32841
32833
32719
32599
32551
32623
32631
32396
32325
32377
32443
32255
32245
32388
32577
32570
32721
32859
32947
32859
32769
32810
32933
32845
32709
32596
32508
32586
32551
32373
32357
32494
32559
32510
32580
32752
32849
32775
32799
32865
32935
32961
32927
32755
32692
32637
32660
32609
32406
32399
32451
32599
32543
32539
32671
32851
32973
33077
33122
33015
32927
32911
32986
32948
32926
32839
32615
32519
32575
32605
32583
32518
32622
32717
32823
32985
33123
33190
33119
33159
33185
33279
33314
33309
33170
33060
32975
33019
33025
32991
32839
32847
32939
33022
33079
33067
33120
33163
33252
33328
33396
33316
33359
33380
33511
33564
33521
33422
33349
33350
33543
33671
33655
33773
33919
34223
34283
34294
34396
34436
34223
34071
34047
34044
33887
33567
33485
33412
33189
33086
33191
33162
33111
33197
33412
33556
33531
33487
33635
33733
33566
33543
33741
33538
33508
33466
33215
33055
33081
32991
32713
32656
32762
32807
32721
32775
32932
33026
32897
32900
33049
33091
32870
32823
32874
32631
32415
32284
32261
32162
31964
31930
32015
31974
31919
32058
32262
32196
32247
32381
32491
32402
32268
32166
32216
32078
31884
31798
31854
31860
31732
31750
31901
32055
32029
32132
32337
32452
32350
32364
32453
32503
32440
32399
32440
32442
32354
32239
32230
32140
31861
31823
31948
32089
32117
32143
32215
32260
32467
32587
32495
32421
32398
32313
32297
32318
32151
31983
31924
31964
32060
32146
32011
32044
32117
32288
32485
32551
32532
32482
32551
32652
32622
32607
32519
32342
32180
32161
32247
32324
32255
32150
32118
32166
32336
32531
32478
32556
32662
32629
32615
32617
32548
32571
32655
32799
33058
33301
33470
33697
34100
34540
35271
35884
36375
36759
37103
37766
38370
38788
38973
39582
40005
40223
40378
40900
41447
41879
42047
42146
42644
43031
43287
43123
43134
43068
42591
42025
41356
41092
40796
40380
39863
39593
39175
38607
37919
36988
35914
34983
34057
33152
32573
32215
32102
32100
32071
31998
32055
32141
32190
32039
31722
31511
31351
31175
30924
30719
30639
30492
30285
30054
30085
30223
30324
30294
30253
30343
30455
30590
30662
30537
30514
30556
30502
30295
30215
30160
30150
29995
29892
29959
30076
30263
30332
30367
30477
30663
30710
30630
30653
30755
30740
30630
30628
30725
30631
30516
30551
30463
30434
30566
30679
30618
30726
30883
30979
30886
30945
31133
31111
31106
31215
31151
31015
31036
31059
30844
30885
30948
30817
30900
31076
31199
31197
31231
31423
31428
31453
31540
31599
31589
31397
31379
31423
31481
31333
31263
31266
31306
31183
31167
31315
31530
31495
31617
31811
31905
31812
31911
32042
31961
31879
31879
31991
31855
31615
31509
31547
31580
31474
31495
31575
31732
31876
31845
31943
32098
32200
32083
32094
32067
32093
32070
31956
31762
31662
31675
31702
31670
31495
31507
31636
31775
31735
31860
32023
32114
32039
32094
32142
32239
32263
32091
31970
31941
31956
31989
31983
31943
31881
31937
31959
32030
32175
32388
32533
32508
32498
32548
32579
32599
32672
32676
32511
32348
32259
32223
32322
32356
32285
32291
32341
32542
32735
32790
32765
32761
32796
33063
33077
32959
32956
32933
33022
33076
32993
32830
32767
32807
32903
32895
32916
33020
33285
33287
33239
33287
33477
33591
33515
33383
33409
33447
33207
33084
33095
33095
33013
32881
32919
32967
33114
33257
33284
33316
33374
33431
33609
33550
33415
33464
33508
33379
33313
33370
33355
33232
33053
32979
33012
33091
32957
32993
33214
33193
33111
33199
33287
33300
33156
33090
33174
33115
32879
32839
32807
32727
32467
32447
32513
32317
32312
32486
32455
32473
32653
32756
32639
32695
32775
32691
32509
32437
32455
32403
32140
32028
32047
32039
31963
31827
31839
31993
32064
32039
32187
32315
32205
32202
32238
32292
32280
32066
32002
32044
31952
31787
31780
31841
31893
31740
31787
31988
32126
32100
32207
32338
32307
32262
32311
32364
32102
32055
32145
32122
31940
31831
31823
31879
31735
31788
31937
32094
32198
32159
32223
32359
32284
32391
32276
32309
32324
32452
32303
32359
32193
32141
32111
32006
32135
32046
32217
32201
32417
32438
32577
32655
32588
32555
32578
32647
32671
32685
32588
32391
32294
32195
32204
32263
32135
32129
32242
32463
32479
32519
32663
32801
32731
32764
32729
32775
32837
32726
32542
32428
32408
32436
32431
32331
32263
32295
32334
32412
32559
32731
32775
32738
32695
32703
32766
32857
32815
32663
32641
32655
32615
32601
32508
32367
32363
32495
32568
32454
32463
32589
32740
32795
32811
32874
32994
33015
32902
32775
32728
32746
32731
32647
32527
32376
32375
32494
32636
32739
32698
32810
32855
32994
33067
32975
32945
33026
33078
33069
32919
32835
32775
32839
32719
32551
32529
32631
32764
32719
32867
32998
33049
32980
32935
32927
33028
33105
33124
32986
32871
32785
32806
32746
32663
32501
32546
32647
32665
32596
32676
32891
32975
32900
32958
33127
33193
33012
32967
32999
33054
32914
32742
32667
32739
32611
32500
32631
32582
32598
32820
32862
32815
32967
33031
32919
32914
32989
33064
32981
32821
32853
32727
32561
32629
32519
32476
32590
32735
32695
32721
32958
33041
32932
32949
33137
33133
33039
33109
33189
32961
32853
32873
32837
32602
32513
32593
32695
32647
32618
32751
32923
32839
32871
33078
33149
33031
33017
33177
33014
32867
32953
32863
32653
32580
32676
32564
32511
32605
32746
32874
32823
32828
33038
33132
33026
33043
33185
33175
32959
32864
32903
32845
32598
32543
32643
32583
32484
32517
32727
32721
32657
32733
32919
33036
32922
32897
33039
32927
32773
32807
32853
32599
32517
32561
32636
32645
32621
32591
32641
32750
32926
33127
33223
33158
33198
33204
33367
33165
33217
33298
33158
32991
32975
33014
32955
32775
32831
33027
33070
33010
33069
33135
33244
33356
33422
33348
33319
33357
33515
33642
33663
33559
33519
33684
33742
33572
33594
33748
33975
34183
34252
34251
34285
34404
34515
34428
34247
34076
34156
34068
33781
33617
33624
33582
33431
33339
33338
33495
33623
33644
33687
33734
33859
33965
33847
33780
33727
33751
33729
33719
33463
33342
33287
33175
33063
32885
32853
32940
33052
33085
33021
32975
32959
33028
33098
33128
33066
32906
32822
32793
32765
32639
32324
32182
32185
32161
32111
31959
31996
32183
32226
32215
32383
32314
32327
32356
32447
32459
32273
32215
32158
32231
32212
32031
31971
31969
32007
31999
32025
32131
32335
32484
32539
32382
32372
32343
32474
32493
32350
32249
32145
32143
32143
31983
31910
31934
32023
32103
32199
32169
32260
32413
32539
32441
32363
32335
32401
32458
32519
32435
32279
32191
32135
32148
32167
32084
31961
31990
32153
32295
32413
32486
32493
32497
32519
32671
32735
32690
32486
32455
32501
32503
32408
32247
32148
32125
32113
32230
32316
32187
32263
32411
32561
32636
32471
32391
32412
32411
32250
32191
32226
32500
32607
32748
32999
33447
33927
34490
35059
35587
36071
36770
37418
38082
38596
39105
39487
39910
40527
41035
41464
41855
42076
42300
42949
43356
43527
43740
43997
44207
44235
44052
43510
42798
42217
41866
41429
41095
40748
40276
39608
38847
38183
37391
36268
35038
34095
33287
32551
32167
32090
32069
31909
31937
32190
32191
31980
31743
31657
31382
31122
31044
30890
30604
30447
30373
30121
30055
30119
30244
30215
30247
30311
30348
30419
30423
30419
30300
30273
30380
30335
30132
30073
30015
30013
30054
29970
30023
30114
30261
30435
30460
30500
30595
30716
30727
30611
30591
30589
30660
30667
30535
30495
30559
30615
30495
30464
30591
30764
30957
31060
31025
31055
31105
31223
31303
31303
31220
31221
31143
31065
31044
30867
30823
30871
30966
31036
30954
31070
31319
31393
31430
31545
31681
31623
31631
31703
31769
31554
31519
31562
31535
31204
31119
31107
31237
31355
31331
31399
31525
31777
31879
31721
31811
31980
32089
32082
31930
31891
31935
32015
31893
31817
31773
31797
31860
31854
31775
31881
32007
31974
31986
32039
32180
32292
32239
32190
32108
32076
31976
31811
31794
31844
31876
31901
31750
31732
31839
31950
32019
32027
32180
32279
32158
32227
32340
32367
32217
32253
32413
32230
32119
32151
32135
32007
32009
32165
32263
32251
32344
32638
32667
32612
32683
32789
32631
32644
32757
32775
32541
32471
32514
32419
32230
32235
32343
32250
32427
32550
32665
32788
33007
33166
33240
33209
33190
33327
33363
33127
33087
33233
33204
32926
32940
32973
32820
32820
32993
33127
33069
33143
33434
33488
33428
33534
33614
33399
33323
33475
33471
33311
33309
33216
32940
32947
33023
33031
33006
33154
33143
33207
33204
33212
33329
33442
33558
33621
33653
33783
33526
33287
32887
32898
32838
32908
33004
33127
33153
33003
32803
32838
32993
33020
32943
33068
32982
33119
33396
33437
33287
33159
32988
32885
32849
32749
32657
32683
32544
32470
32476
32550
32678
32819
33015
33007
33065
33079
32919
32647
32388
32372
32588
32420
32004
32042
32033
32223
32343
32324
32554
32654
32530
32451
32311
32471
32537
32467
32335
32363
32463
32542
32519
32438
32342
32231
31983
31879
31962
32059
32254
32463
32583
32558
32628
32604
32455
32383
32429
32463
32373
32223
32230
32165
32073
32047
32113
32132
32159
32213
32255
32356
32444
32477
32579
32614
32631
32590
32494
32445
32299
32247
32209
32130
31991
31991
32135
32241
32359
32436
32535
32473
32500
32575
32734
32746
32753
32645
32613
32603
32668
32765
32767
32704
32583
32468
32465
32343
32407
32615
32808
33018
32854
32924
33045
33108
33159
33147
33044
32921
32713
32687
32606
32535
32636
32701
32710
32695
32698
32757
32693
32727
32807
32839
32774
32797
32775
32711
32671
32751
32806
32879
32857
32708
32617
32645
32657
32578
32511
32459
32640
32775
32908
33019
33073
33042
32975
32895
32838
32725
32719
32607
32501
32508
32367
32279
32276
32331
32503
32484
32609
32774
32794
32792
32837
32924
32929
32962
32893
32787
32743
32774
32590
32342
32255
32198
32239
32343
32345
32444
32663
32703
32719
32767
32867
32971
32775
32617
32615
32639
32468
32364
32406
32391
32389
32314
32308
32413
32396
32327
32410
32675
32726
32791
32885
32892
32813
32724
32609
32538
32471
32423
32404
32298
32244
32167
32087
32111
32140
32252
32396
32462
32559
32628
32631
32565
32519
32490
32500
32574
32620
32564
32415
32308
32209
32116
32159
32204
32319
32458
32486
32521
32483
32538
32589
32628
32666
32730
32775
32703
32644
32622
32567
32460
32311
32225
32213
32216
32413
32559
32519
32759
32852
32935
32833
32843
32887
32810
32926
32821
32898
32655
32715
32487
32594
32422
32394
32511
32649
32602
32695
32793
32926
33053
32839
32796
32895
32976
32850
32801
32881
32887
32719
32474
32316
32375
32483
32582
32540
32547
32639
32941
32903
32965
33092
33231
33047
33041
33129
33087
32911
32775
32723
32673
32775
32739
32660
32700
32725
32607
32714
32977
33126
33100
33107
33150
33204
33203
33020
32941
32922
32982
32855
32661
32678
32821
32809
32708
32802
33029
33215
33194
33210
33274
33342
33244
33172
33149
33212
33299
33151
32978
32927
33045
32772
32706
32852
32739
32706
32846
33089
33171
33239
33486
33687
33583
33761
33951
34007
33946
33996
34028
33951
33855
33791
33930
33907
33733
33684
33899
34060
33980
33943
34047
34135
33959
33860
33828
33873
33807
33638
33382
33413
33389
33199
33165
33340
33340
33191
33212
33382
33553
33604
33462
33532
33527
33659
33622
33491
33393
33245
33239
33143
32885
32615
32585
32666
32535
32415
32487
32598
32739
32735
32668
32727
32806
32687
32613
32376
32255
32130
32103
32075
31928
31623
31503
31551
31623
31596
31519
31607
31802
31952
31994
31903
31951
32053
32159
32007
31956
31979
31967
31869
31785
31746
31789
31703
31698
31716
31791
31714
31714
31806
31980
31919
31952
32137
32290
32109
32095
32155
32105
31868
31727
31786
31719
31636
31701
31743
31591
31647
31852
31986
32007
32049
32250
32207
32173
32079
32122
32113
31926
31841
31943
31959
31767
31803
31926
31811
31811
32068
32230
32223
32218
32326
32495
32418
32372
32487
32509
32327
32258
32326
32331
32156
32062
32159
31948
32130
32085
32260
32383
32258
32263
32423
32447
32396
32470
32775
32934
33075
33210
33622
33903
34391
34846
35431
35996
36586
37137
37532
38041
38563
39377
39991
40532
40907
41156
41495
42037
42516
42887
43015
43308
43748
43975
43924
43822
43709
43271
42766
42092
41315
41005
40802
40447
39943
39743
39315
38692
37783
36687
35668
34597
33599
32710
32149
31700
31660
31631
31550
31639
31768
31991
31950
31611
31435
31367
31372
31327
31084
30881
30674
30551
30353
30174
30040
29948
30055
30127
30229
30373
30446
30396
30462
30527
30614
30579
30388
30335
30274
30355
30340
30193
30037
30021
30077
30189
30223
30143
30199
30287
30460
30650
30703
30719
30746
30794
30801
30762
30755
30701
30605
30591
30575
30566
30576
30569
30539
30598
30814
31047
31157
31180
31239
31365
31524
31461
31367
31293
31332
31198
31060
30962
30975
31004
30906
30875
31004
31182
31166
31341
31509
31559
31558
31573
31615
31767
31815
31644
31639
31719
31751
31517
31535
31493
31431
31506
31629
31711
31758
31837
31966
32122
32090
32103
32151
32263
32211
32121
32148
32185
31988
31866
31964
31823
31685
31749
31853
31860
31957
32145
32096
32119
32286
32368
32277
32246
32322
32290
32164
32284
32204
31935
31914
31995
32007
31880
31941
32108
32339
32367
32349
32380
32592
32534
32519
32577
32661
32564
32476
32428
32482
32393
32281
32311
32292
32227
32447
32634
32582
32719
32892
32775
32836
32943
33046
33099
33047
32998
33131
33011
32852
32855
32939
32775
32686
32757
32863
32941
32901
32940
33149
33345
33287
33323
33388
33527
33525
33361
33331
33359
33428
33241
33115
33158
33237
33214
33199
33470
33595
33539
33649
33789
33731
33606
33777
33780
33614
33623
33671
33639
33460
33356
33391
33383
33220
33145
33279
33437
33427
33377
33466
33590
33561
33458
33596
33687
33564
33574
33437
33452
33263
33234
33100
32903
32815
32932
32774
32671
32815
33003
32852
32839
33001
33005
32903
32820
32879
32831
32606
32495
32542
32453
32302
32229
32260
32087
32036
32085
32296
32431
32359
32358
32457
32557
32355
32293
32404
32359
32135
31982
32046
31911
31772
31759
31716
31581
31638
31748
31782
31767
31875
32100
32086
32032
32070
32164
31982
31852
31877
31885
31732
31684
31601
31578
31570
31487
31566
31738
31686
31741
32015
32102
31983
32035
32133
32175
32005
31941
32014
32012
31846
31860
31876
31599
31545
31698
31646
31684
31886
32066
32005
32039
32150
32057
32065
32244
32126
32049
32198
31983
31972
32069
31885
31813
31911
31927
31834
31989
32228
32173
32208
32407
32479
32454
32588
32596
32542
32524
32583
32380
32310
32215
32276
32231
32103
32109
32199
32189
32272
32418
32574
32645
32608
32569
32692
32700
32516
32443
32381
32411
32388
32389
32186
32060
32135
32165
32123
32201
32359
32530
32700
32647
32659
32666
32678
32627
32676
32671
32530
32412
32322
32407
32416
32401
32307
32207
32229
32367
32556
32583
32564
32615
32752
32862
32924
32884
32827
32711
32853
32935
32660
32565
32719
32727
32543
32447
32462
32517
32655
32839
32802
32815
32871
32966
33073
33007
32897
32837
32796
32793
32747
32615
32492
32382
32460
32490
32447
32519
32625
32780
32901
32919
32902
32884
32959
33046
33040
32887
32804
32703
32724
32709
32497
32330
32231
32288
32438
32476
32436
32511
32607
32836
32900
32850
32753
32826
32887
32699
32678
32766
32569
32519
32548
32503
32423
32301
32308
32608
32747
32663
32699
32804
32803
32727
32766
32923
32916
32678
32711
32732
32599
32501
32553
32480
32355
32354
32340
32503
32639
32623
32615
32640
32749
32898
32900
32766
32628
32746
32615
32574
32607
32661
32579
32435
32353
32492
32535
32463
32575
32799
32760
32802
32813
32973
32942
32852
32838
32877
32869
32696
32549
32541
32575
32463
32340
32227
32380
32573
32663
32655
32708
32831
32943
33018
32956
32903
32798
32876
32926
32882
32697
32602
32636
32672
32653
32438
32397
32601
32645
32663
32759
32911
33007
32982
32916
32923
32972
33020
32893
32730
32723
32709
32567
32453
32481
32569
32586
32614
32659
32850
32971
32901
32948
32964
33185
33260
33119
33151
33191
32999
32987
33048
32943
32828
32839
32924
32878
32898
33095
33197
33190
33127
33076
33137
33330
33471
33343
33319
33209
33287
33335
33361
33316
33320
33223
33405
33607
33734
33735
33879
34031
34254
34371
34292
34183
34322
34428
34420
34183
34005
34031
33938
33717
33543
33333
33442
33473
33455
33428
33401
33677
33829
33741
33721
33887
33887
33722
33589
33734
33666
33407
33247
33301
33183
32932
32756
32875
32821
32805
32840
33053
33146
33103
32983
33039
33103
32989
32831
32934
32839
32612
32499
32414
32247
32031
31975
32019
32022
31997
32100
32252
32382
32396
32279
32282
32503
32454
32283
32164
32157
32132
31919
31818
31767
31789
31895
31863
31879
31975
32197
32291
32196
32223
32402
32519
32409
32421
32353
32367
32391
32239
32116
32007
32055
32078
31899
31916
31921
32175
32236
32161
32189
32284
32439
32505
32377
32399
32503
32467
32252
32199
32202
32207
32036
32014
31940
32044
32151
32210
32204
32292
32509
32615
32454
32437
32559
32508
32495
32295
32246
32252
32231
31996
31869
31932
32007
31964
32017
32167
32308
32289
32317
32459
32516
32412
32385
32441
32280
32091
32135
32102
32037
32116
32485
32647
32879
33415
33975
34384
35002
35727
36271
36741
37319
37939
38349
38895
39375
39880
40109
40391
40839
41258
41575
41749
42414
43032
43415
43596
44062
44244
44124
43700
43268
42724
42004
41222
40686
40374
39968
39495
39012
38262
37577
36818
35732
34644
33822
33028
32551
32444
32333
31999
31863
31919
31975
31871
31819
31811
31519
31175
31103
31009
30780
30708
30593
30391
30375
30380
30300
30335
30442
30446
30399
30490
30457
30438
30542
30534
30322
30165
30127
30140
30018
30026
30027
30182
30257
30199
30303
30591
30727
30711
30702
30766
30777
30708
30691
30607
30649
30609
30471
30419
30500
30334
30281
30399
30596
30614
30662
30798
30844
30994
31162
31216
31111
31066
31035
31031
31070
31015
30917
30798
30796
30908
30855
31049
31263
31236
31204
31283
31516
31548
31460
31409
31478
31569
31571
31435
31436
31430
31487
31508
31385
31256
31230
31235
31425
31612
31703
31724
31782
31751
31844
31919
31895
31975
32005
32040
31751
31654
31679
