ECG
32799
32786
32769
32698
32743
32637
32634
32504
32519
32471
32556
32565
32650
32774
32855
32916
33003
33092
32983
33089
33088
33052
33099
32966
33009
32880
32938
32894
32853
32897
32795
32946
33020
33084
33238
33371
33397
33569
33470
33583
33436
33559
33412
33494
33412
33441
33446
33354
33476
33317
33415
33422
33566
33665
33775
33890
33917
34088
33974
34085
34095
34071
34159
34024
34080
34079
33915
33992
33929
33948
34010
33945
34114
34237
34196
34407
34504
34452
34567
34543
34541
34603
34479
34543
34356
34444
34228
34253
34135
34119
34067
34079
34164
34124
34282
34174
34295
34302
34114
34156
34110
33973
33962
33751
33727
33447
33418
33116
33063
32894
32823
32866
32700
32796
32745
32831
32775
32822
32823
32638
32623
32452
32406
32348
32159
32107
31908
31838
31713
31597
31546
31562
31527
31636
31730
31751
31836
31766
31814
31797
31788
31781
31622
31626
31573
31508
31472
31348
31296
31257
31271
31205
31320
31420
31466
31574
31570
31660
31702
31693
31670
31648
31655
31652
31531
31541
31454
31454
31380
31343
31390
31450
31415
31527
31588
31714
31815
31751
31876
31918
31859
31874
31791
31849
31884
31743
31706
31678
31597
31628
31636
31641
31719
31707
31847
31876
31985
31918
31994
32052
32047
32087
31949
31964
31865
31903
31871
31782
31748
31660
31694
31658
31784
31839
31942
32068
32007
32071
32071
32139
32080
32111
32119
32026
32040
31958
31990
31972
31815
31808
31749
31815
31817
31937
31938
32068
32159
32127
32241
32167
32224
32136
32179
32056
32059
31983
31991
31895
31870
31852
31772
31844
31832
31967
32004
32153
32199
32252
32320
32263
32340
32194
32244
32164
32213
32149
32138
32132
32028
32060
31922
31959
31952
32028
32126
32189
32290
32395
32351
32447
32337
32428
32351
32410
32249
32310
32144
32166
32004
32034
31957
31999
32047
32137
32129
32298
32375
32438
32543
32450
32525
32417
32487
32553
32407
32399
32251
32231
32123
32119
32150
32066
32167
32154
32318
32402
32531
32591
32598
32677
32581
32694
32516
32587
32461
32479
32407
32422
32401
32412
32493
32367
32463
32420
32514
32572
32486
32572
32462
32535
32444
32516
32518
32508
32549
32403
32500
32431
32488
32423
32483
32510
32479
32583
32519
32613
32669
32558
32630
32595
32549
32591
32613
32567
32639
32538
32603
32602
32620
32606
32681
32573
32675
32549
32631
32704
32590
32677
32604
32654
32714
32560
32647
32554
32638
32549
32639
32636
32636
32740
32588
32698
32645
32687
32745
32681
32719
32786
32730
32829
32810
32755
32836
32684
32756
32786
32743
32822
32671
32761
32767
32790
32820
32785
32887
32774
32868
32912
32802
32928
32790
32879
32815
32855
32790
32805
32865
32716
32806
32878
32744
32822
32900
32809
32903
32821
32876
32884
32909
32791
32858
32949
32788
32871
32868
32769
32762
32681
32746
32799
32691
32789
32767
32797
32800
32805
32900
32809
32859
32900
32730
32775
32870
32759
32858
32895
32916
32986
32954
33063
33103
33068
33237
33251
33298
33415
33358
33432
33563
33431
33529
33447
33496
33477
33423
33446
33274
33367
33335
33316
33394
33389
33259
33373
33425
33273
33358
33383
33281
33367
33163
33230
33212
33167
33272
33085
33191
33079
33146
33068
33078
33056
33003
33076
32951
33006
32812
32852
32911
32727
32796
32844
32680
32759
32679
32664
32714
32612
32685
32713
32596
32692
32602
32650
32750
32607
32695
32636
32692
32718
32572
32653
32556
32638
32625
32572
32628
32583
32653
32721
32587
32655
32666
32693
32781
32645
32711
32689
32723
32775
32626
32695
32615
32662
32727
32573
32677
32585
32701
32620
32679
32721
32647
32723
32822
32679
32788
32765
32804
32903
32720
32820
32802
32834
32925
32756
32839
32863
32812
32884
32816
32845
32854
32644
32618
32404
32299
32168
31897
31854
31751
31662
31663
31580
31621
31694
31636
31792
32034
32120
32428
32770
33124
33863
34577
35391
36404
37415
38407
39260
40070
40910
41626
42166
42980
43580
44039
44703
45190
45220
45191
44655
44007
43190
41950
40868
39541
38108
36756
35439
34420
33419
32583
32101
31746
31335
31088
30791
30436
30228
30064
29935
29862
29926
30087
30147
30279
30439
30540
30580
30692
30826
30860
31006
31010
31084
31175
31198
31215
31315
31391
31335
31448
31556
31473
31565
31614
31620
31660
31700
31702
31714
31698
31745
31736
31701
31732
31689
31780
31847
31719
31806
31843
31775
31868
31822
31863
31951
31884
31972
32026
31969
32031
32036
32007
32006
32020
31974
32000
32034
32114
32047
32127
32110
32086
32198
32226
32171
32260
32145
32232
32284
32190
32253
32165
32197
32247
32123
32199
32156
32194
32230
32188
32256
32365
32229
32322
32359
32255
32337
32331
32263
32322
32356
32261
32345
32215
32307
32356
32270
32380
32356
32333
32399
32428
32460
32505
32488
32526
32585
32489
32514
32604
32415
32485
32545
32407
32479
32519
32450
32554
32543
32516
32655
32791
32668
32734
32767
32756
32726
32837
32837
32775
32846
32751
32774
32863
32711
32767
32824
32719
32834
32804
32924
33068
32987
33141
33180
33134
33246
33108
33223
33167
33127
33207
33199
33225
33319
33145
33247
33176
33287
33329
33369
33502
33438
33627
33543
33678
33589
33708
33641
33716
33695
33660
33772
33671
33748
33798
33751
33856
33740
33902
33887
33995
34119
34076
34201
34070
34178
34151
34191
34164
34150
34145
34102
34132
34045
34118
33975
34111
34055
34191
34183
34238
34369
34384
34294
34308
34391
34423
34279
34343
34165
34238
34143
34090
34064
33888
33930
33743
33799
33680
33690
33723
33577
33615
33550
33395
33443
33248
33252
33127
32992
32958
32798
32773
32592
32519
32558
32370
32398
32287
32305
32309
32247
32287
32165
32225
32205
32111
32102
31995
32003
32004
31769
31788
31708
31662
31719
31569
31678
31651
31702
31716
31656
31738
31777
31682
31737
31765
31593
31675
31671
31655
31668
31491
31502
31473
31495
31536
31453
31557
31556
31631
31740
31655
31739
31711
31768
31725
31742
31777
31668
31732
31574
31620
31532
31570
31609
31604
31628
31555
31642
31679
31719
31811
31708
31758
31779
31711
31751
31648
31716
31580
31613
31601
31574
31627
31511
31562
31548
31646
31647
31711
31787
31701
31828
31750
31823
31780
31807
31815
31748
31799
31693
31767
31645
31683
31682
31719
31777
31737
31873
31863
31980
32063
31955
32081
31996
32035
32100
31951
32006
32030
31929
31975
31911
31899
31938
31893
31967
31955
31956
32060
32018
32142
32053
32138
32146
32177
32263
32137
32224
32084
32127
32178
32224
32116
32092
32188
32236
32160
32263
32337
32284
32410
32341
32470
32444
32444
32518
32399
32412
32506
32373
32442
32509
32364
32493
32350
32458
32519
32446
32572
32557
32631
32700
32601
32673
32715
32646
32720
32615
32703
32525
32580
32544
32455
32535
32487
32510
32616
32519
32666
32621
32743
32808
32772
32831
32706
32829
32681
32729
32609
32638
32692
32625
32678
32614
32647
32626
32679
32732
32687
32812
32748
32830
32890
32804
32871
32807
32828
32877
32728
32797
32775
32702
32758
32767
32738
32798
32726
32799
32928
32824
32938
32887
32915
32929
32904
32943
32828
32921
32762
32811
32773
32685
32746
32610
32700
32641
32712
32759
32762
32873
32847
32960
32852
32935
32895
32846
32880
32822
32892
32759
32855
32686
32791
32660
32740
32676
32716
32794
32671
32866
32791
32901
32829
32903
32885
32854
32950
32772
32806
32661
32676
32741
32628
32679
32567
32669
32590
32724
32663
32768
32772
32802
32849
32775
32837
32742
32847
32833
32902
32942
32903
32999
32903
33039
32963
33065
33115
33189
33297
33319
33482
33423
33559
33488
33573
33464
33489
33404
33445
33361
33371
33294
33331
33274
33383
33318
33368
33300
33375
33406
33428
33444
33399
33431
33287
33380
33241
33302
33137
33183
33012
33014
32866
32899
32860
32864
32882
32842
32935
32836
32905
32845
32910
32847
32852
32838
32791
32782
32730
32726
32625
32674
32543
32623
32538
32575
32543
32623
32641
32597
32701
32646
32759
32655
32724
32790
32683
32700
32720
32576
32637
32595
32524
32604
32476
32576
32484
32587
32663
32599
32700
32711
32679
32789
32684
32805
32750
32735
32788
32647
32663
32639
32572
32676
32567
32661
32668
32746
32819
32761
32894
32834
32927
32873
32883
32933
32847
32914
32814
32833
32847
32903
32767
32799
32750
32647
32632
32372
32263
32230
31999
32015
31820
31806
31796
31639
31716
31671
31833
31879
32172
32335
32635
32801
33195
33735
34376
35158
36030
36964
37874
38596
39461
39942
40688
41351
41751
42486
42790
43230
43586
43450
43358
43044
42140
41186
40179
38892
37562
36358
35079
33980
32952
32260
31615
31284
31057
30778
30681
30454
30304
30154
29923
29839
29828
29795
29894
29933
30187
30367
30608
30754
30917
31118
31073
31238
31221
31366
31477
31431
31559
31476
31594
31654
31615
31767
31660
31847
31810
31986
31991
32053
32175
32108
32199
32097
32173
32065
32135
32082
32050
32093
32071
32098
31994
32140
32059
32215
32135
32263
32329
32382
32460
32362
32468
32417
32466
32455
32278
32305
32231
32200
32185
32078
32124
32028
32152
32106
32260
32294
32407
32500
32567
32522
32566
32503
32548
32572
32486
32519
32342
32345
32319
32292
32311
32260
32388
32336
32541
32563
32727
32747
32804
32875
32831
32903
32790
32813
32679
32695
32601
32510
32501
32326
32378
32343
32436
32554
32622
32794
32842
32967
32923
33014
32994
32993
32973
32927
32928
32836
32839
32675
32709
32591
32642
32613
32666
32772
32821
32996
33015
33182
33214
33314
33311
33261
33279
33199
33199
33143
33062
33052
32933
32948
32966
32941
33044
33094
33137
33316
33390
33490
33596
33632
33700
33660
33676
33638
33618
33628
33556
33460
33434
33366
33373
33406
33431
33577
33727
33817
33990
34106
34197
34239
34248
34276
34278
34271
34228
34180
34124
34020
33980
33959
33956
34040
34100
34196
34310
34396
34517
34593
34660
34713
34718
34727
34703
34679
34633
34554
34503
34404
34355
34325
34292
34306
34331
34405
34492
34540
34632
34730
34750
34772
34703
34655
34607
34508
34397
34284
34144
34025
33866
33766
33692
33607
33555
33538
33543
33570
33566
33560
33535
33471
33421
33336
33175
33023
32919
32803
32654
32543
32359
32263
32107
32063
31998
32049
32004
32136
32142
32220
32175
32159
32118
32037
31991
31861
31841
31690
31669
31494
31456
31279
31343
31223
31316
31309
31451
31450
31618
31631
31762
31697
31790
31663
31663
31568
31526
31529
31364
31359
31346
31177
31254
31170
31285
31257
31446
31519
31655
31743
31726
31810
31709
31792
31654
31719
31596
31619
31548
31447
31420
31268
31311
31335
31267
31417
31441
31574
31722
31765
31894
31831
31881
31877
31850
31825
31718
31711
31596
31607
31451
31460
31399
31421
31501
31612
31654
31684
31809
31938
31994
31940
31972
32028
32018
31961
31872
31860
31751
31663
31639
31559
31610
31535
31631
31751
31804
31995
32038
32198
32196
32237
32202
32236
32247
32173
32161
32007
31948
31884
31852
31860
31741
31742
31813
31861
32006
32031
32179
32290
32314
32358
32431
32386
32391
32342
32263
32262
32135
32105
31963
31941
31852
31897
31967
32013
32153
32239
32385
32458
32488
32514
32493
32491
32476
32391
32350
32234
32222
32109
32058
31967
31946
31999
31975
32077
32118
32254
32393
32490
32554
32548
32607
32571
32602
32551
32500
32422
32386
32287
32206
32140
32128
32148
32124
32199
32230
32377
32491
32567
32615
32642
32677
32659
32666
32647
32612
32500
32447
32388
32263
32205
32132
32162
32178
32230
32380
32450
32588
32699
32732
32772
32744
32774
32740
32676
32644
32575
32503
32391
32325
32259
32233
32263
32247
32333
32431
32538
32676
32766
32807
32827
32863
32866
32836
32775
32692
32620
32588
32464
32405
32378
32373
32374
32407
32510
32640
32780
32924
33061
33167
33263
33319
33332
33335
33285
33274
33268
33183
33140
33026
32949
32852
32840
32870
32941
32999
33088
33223
33276
33383
33391
33422
33399
33311
33270
33175
33095
32982
32883
32788
32701
32651
32623
32620
32618
32655
32759
32791
32836
32878
32871
32858
32845
32764
32679
32615
32524
32438
32333
32224
32143
32092
32105
32123
32207
32289
32405
32538
32578
32628
32662
32668
32653
32638
32621
32542
32476
32380
32308
32238
32191
32151
32159
32155
32191
32257
32359
32478
32561
32652
32702
32711
32740
32718
32688
32665
32615
32549
32406
32289
32211
32162
32157
32152
32221
32350
32472
32602
32712
32774
32821
32885
32869
32838
32790
32732
32693
32626
32588
32481
32409
32332
32263
32298
32329
32418
32493
32576
32615
32590
32570
32430
32316
32159
32043
31896
31782
31665
31578
31484
31458
31458
31577
31764
32068
32465
32865
33427
34110
34710
35588
36264
37262
38007
38612
39327
39633
40267
40559
41190
41383
42064
42342
42588
42913
42671
42631
41918
41460
40343
39428
38060
36902
35428
34301
33089
32124
31311
30694
30348
30023
29846
29604
29502
29366
29384
29407
29543
29702
29895
30100
30249
30421
30535
30675
30723
30799
30819
30893
30937
31001
31015
31092
31199
31298
31465
31611
31796
31969
32063
32196
32204
32273
32254
32276
32252
32170
32098
32045
31945
31867
31815
31764
31814
31864
31982
32086
32247
32359
32439
32501
32506
32576
32548
32553
32511
32479
32415
32338
32250
32153
32091
32038
32082
32105
32225
32359
32471
32612
32668
32775
32743
32821
32788
32791
32703
32651
32545
32484
32345
32301
32199
32197
32239
32247
32406
32483
32673
32788
32846
32917
32877
32935
32903
32860
32836
32713
32661
32633
32554
32474
32353
32358
32345
32451
32527
32627
32824
32926
32980
33123
33085
33123
33070
32988
33039
32938
32837
32823
32699
32646
32614
32545
32600
32634
32767
32943
33030
33129
33238
33234
33353
33352
33286
33378
33271
33218
33205
33055
33060
32966
32910
32955
32910
32970
33103
33256
33377
33407
33567
33572
33660
33739
33628
33718
33569
33641
33482
33490
33372
33287
33297
33207
33338
33279
33462
33556
33655
33919
33932
34020
34143
34042
34183
34140
34082
34152
33997
34069
33909
33927
33871
33799
33921
33874
34119
34222
34304
34562
34481
34687
34724
34583
34706
34674
34551
34626
34439
34469
34306
34229
34255
34092
34260
34231
34351
34476
34439
34590
34780
34719
34813
34849
34690
34756
34663
34511
34512
34247
34247
34047
33897
33963
33807
33767
33911
33815
33868
34004
33981
33919
33859
33786
33647
33509
33358
33285
33050
32971
32775
32564
32522
32373
32332
32328
32263
32375
32359
32455
32494
32438
32504
32383
32359
32290
32161
32140
31972
31853
31746
31575
31529
31460
31420
31514
31493
31628
31692
31751
31898
31853
31884
31908
31825
31848
31764
31735
31660
31591
31532
31374
31343
31248
31278
31364
31407
31558
31644
31701
31846
31818
31940
31879
31854
31895
31769
31764
31681
31598
31575
31454
31456
31425
31389
31475
31487
31649
31740
31835
32007
31973
32007
32033
31972
32018
31991
31887
31911
31788
31697
31685
31575
31606
31588
31561
31718
31815
31846
32077
32094
32135
32235
32147
32162
32199
32095
32060
31994
31874
31873
31692
31698
31631
31590
31719
31743
31820
32031
32045
32166
32303
32253
32260
32369
32317
32191
32254
32132
32029
32028
31877
31788
31808
31787
31783
31948
32090
32118
32334
32390
32537
32527
32487
32600
32478
32565
32362
32415
32246
32183
32078
31948
32020
31919
32063
32098
32167
32383
32379
32571
32538
32626
32694
32583
32637
32579
32438
32471
32316
32287
32186
32031
32103
32049
32083
32258
32277
32417
32631
32605
32713
32815
32717
32748
32748
32594
32677
32504
32527
32327
32294
32228
32133
32206
32142
32241
32471
32484
32710
32700
32799
32852
32734
32849
32746
32699
32689
32519
32590
32382
32420
32263
32303
32254
32359
32407
32441
32703
32687
32922
32863
33028
32935
33023
32922
32846
32868
32697
32775
32546
32599
32398
32490
32403
32556
32509
32701
32804
32823
32882
32967
33092
33116
32981
33102
32990
32842
32832
32791
32599
32527
32554
32403
32405
32567
32658
32660
32775
32998
32952
32927
33106
33079
32932
33066
32919
32805
32855
32652
32653
32519
32372
32471
32371
32497
32598
32638
32924
32968
33058
33207
33159
33339
33236
33308
33392
33254
33329
33255
33115
33217
33062
33078
33159
33060
33247
33332
33310
33543
33590
33503
33695
33534
33678
33527
33476
33509
33287
33357
33140
33031
33060
32868
32941
32935
32871
33103
33143
33117
33324
33216
33247
33293
33127
33167
32999
32948
32879
32687
32663
32439
32484
32327
32447
32335
32462
32525
32594
32804
32775
32846
32946
32839
32932
32855
32795
32788
32635
32697
32551
32428
32395
32263
32407
32310
32534
32487
32666
32775
32767
32982
32866
32924
32932
32806
32838
32650
32756
32519
32588
32356
32351
32295
32244
32336
32349
32484
32567
32708
32687
32900
32828
32871
32847
32831
32842
32692
32786
32584
32543
32476
32351
32415
32280
32446
32399
32652
32646
32928
32864
33090
32950
33120
32902
32933
32556
32508
32153
31932
31744
31495
31415
31271
31335
31290
31439
31572
31862
32064
32487
32687
33124
33425
33991
34501
35287
35938
36903
37615
38532
38964
39796
40268
40967
41574
42146
42876
43252
43985
44039
44311
43995
43410
42836
41762
40300
39116
37882
36327
34860
33732
32487
31647
31001
30620
30479
30267
30227
30040
29968
29825
29759
29762
29791
29926
29955
30120
30129
30276
30236
30343
30314
30510
30565
30820
30892
31175
31284
31454
31705
31700
31911
31852
32039
31913
32025
31887
31940
31803
31837
31599
31631
31495
31605
31559
31783
31761
32018
32113
32156
32289
32284
32321
32263
32318
32237
32247
32087
32086
31959
31892
31911
31764
31879
31810
32020
31978
32228
32218
32492
32426
32620
32500
32625
32456
32575
32362
32414
32216
32263
31985
32060
32010
31885
32038
32087
32135
32375
32398
32650
32566
32736
32660
32627
32785
32599
32666
32510
32411
32452
32255
32247
32253
32126
32319
32280
32455
32612
32625
32864
32933
32937
33020
32903
33031
32844
32943
32737
32716
32655
32494
32590
32414
32550
32476
32671
32642
32860
32888
33151
33092
33134
33124
33193
33181
33119
33114
32966
33065
32829
32846
32753
32621
32793
32639
32844
32798
33068
33075
33322
33279
33463
33391
33504
33372
33418
33348
33215
33287
33090
33166
32949
32933
33067
32989
33207
33113
33391
33380
33654
33572
33799
33701
33903
33751
33727
33844
33644
33655
33598
33450
33517
33380
33566
33444
33673
33638
33956
33924
34063
34311
34217
34407
34375
34327
34343
34212
34330
34087
34143
34103
33911
34039
33836
34038
33963
34172
34319
34424
34628
34529
34771
34630
34794
34722
34644
34649
34454
34420
34427
34278
34022
34055
34083
33900
34037
33964
34046
34220
34151
34320
34107
34156
34077
33883
33908
33635
33660
33308
33240
33007
32757
32775
32532
32537
32557
32486
32689
32615
32629
32725
32567
32613
32548
32372
32343
32237
32029
32028
31776
31725
31623
31404
31463
31414
31320
31548
31546
31623
31885
31787
31897
31783
31743
31830
31645
31745
31532
31531
31326
31239
31170
31046
31212
31124
31197
31359
31370
31505
31730
31682
31863
31771
31796
31880
31732
31704
31779
31547
31614
31377
31292
31335
31202
31366
31304
31440
31588
31634
31910
31847
31937
32079
31945
32092
31938
31878
31933
31735
31777
31623
31457
31531
31397
31559
31510
31629
31751
31830
32063
32041
32227
32169
32159
32263
32090
32190
31994
31956
31927
31718
31773
31602
31613
31685
31616
31829
31818
32034
32114
32106
32319
32193
32308
32186
32165
32195
32001
32086
31857
31779
31768
31583
31751
31636
31825
31784
31995
32061
32142
32295
32229
32441
32303
32316
32412
32242
32335
32107
32123
32029
31855
31959
31791
31817
31982
31925
32026
32255
32229
32444
32455
32419
32566
32415
32519
32334
32452
32235
32122
32203
31990
31922
32007
31870
32026
32095
32127
32411
32450
32455
32598
32652
32545
32719
32615
32478
32599
32366
32263
32296
32205
32071
31983
31998
32071
32277
32445
32524
32519
32603
32722
32783
32679
32804
32714
32593
32685
32449
32484
32354
32198
32239
32093
32166
32282
32258
32424
32548
32659
32804
32747
32937
32797
32761
32876
32656
32665
32658
32423
32340
32396
32196
32177
32332
32263
32449
32549
32580
32815
32837
32839
33020
32935
32844
32950
32862
32677
32742
32588
32431
32485
32364
32229
32420
32324
32436
32590
32607
32867
32786
32862
32982
32869
33004
32813
32775
32847
32591
32628
32491
32335
32420
32327
32263
32444
32367
32495
32740
32721
32807
33004
32870
32996
32994
32838
32931
32724
32827
32586
32491
32500
32306
32454
32306
32391
32599
32586
32887
32822
32966
33085
32997
33127
33038
32916
33021
32775
32786
32735
32544
32601
32383
32516
32343
32566
32495
32744
32775
32815
33015
32926
33160
33086
33047
33063
32935
32983
32871
32678
32735
32567
32420
32547
32413
32480
32636
32614
32865
32917
32948
33171
33080
33034
33172
33007
33108
32958
32852
32912
32620
32548
32581
32439
32601
32493
32615
32815
32829
33104
33000
33140
33245
33092
33223
33044
33045
33126
32957
33058
32892
32820
32911
32802
32991
33028
33076
33344
33314
33524
33734
33660
33880
33797
33780
33770
33594
33662
33386
33451
33179
33180
33139
33021
33185
33050
33199
33324
33324
33551
33566
33534
33685
33543
33655
33415
33534
33332
33191
33252
32935
32948
32810
32684
32807
32661
32817
32848
32838
33038
32925
33114
33007
33029
33068
32877
32965
32759
32791
32612
32407
32415
32355
32225
32407
32284
32392
32568
32585
32876
32769
32878
32962
32876
33016
32792
32828
32745
32587
32655
32391
32398
32339
32204
32354
32226
32435
32515
32543
32839
32825
32876
32985
32903
33028
32806
32831
32802
32631
32676
32444
32500
32285
32303
32290
32284
32516
32515
32836
32787
32965
33014
32980
33135
32972
33111
33030
32868
32913
32753
32581
32650
32423
32369
32388
32195
32254
32017
31975
32064
31991
31886
31881
31943
31815
31868
31876
31797
31909
32079
32003
32148
32557
32839
33508
34382
35167
36424
37412
38506
39564
40154
41236
41921
42375
43266
43759
44201
44824
45014
45191
44874
44295
43823
42750
41702
40653
39239
38055
36802
35518
34636
33649
32836
32422
31913
31466
31239
30741
30412
30162
29767
29574
29655
29620
29796
30062
30180
30457
30668
30767
31047
31078
31316
31322
31322
31505
31343
31375
31378
31204
31156
31223
31084
31140
31334
31337
31423
31701
31783
31836
32007
32011
31964
32014
32090
31890
31866
31936
31781
31614
31591
31631
31444
31495
31702
31714
31780
32004
32135
32083
32140
32322
32296
32191
32226
32296
32118
32119
32145
31903
31822
31887
31705
31711
31905
31841
31962
32220
32318
32295
32508
32436
32415
32556
32439
32326
32407
32339
32166
32159
32071
31915
31986
31989
31949
32167
32090
32207
32498
32460
32555
32749
32599
32611
32712
32599
32459
32458
32481
32237
32262
32145
32048
32225
32126
32279
32449
32447
32660
32802
32717
32789
32951
32775
32867
32863
32697
32772
32632
32460
32524
32349
32254
32405
32325
32433
32679
32637
32768
33028
32990
32983
33166
32980
32972
33076
32935
32845
32940
32826
32598
32621
32642
32670
32673
32673
32809
33093
33024
33216
33351
33300
33499
33389
33338
33451
33248
33230
33287
33026
33018
33071
32912
33102
33067
33113
33383
33412
33516
33772
33671
33895
33906
33879
34019
33775
33837
33868
33677
33620
33700
33537
33469
33627
33583
33655
33869
33870
34100
34228
34191
34423
34394
34250
34415
34390
34243
34343
34047
34119
34095
33896
33980
34003
33878
34060
34247
34199
34428
34630
34574
34538
34710
34598
34519
34533
34438
34179
34183
34138
33922
33749
33794
33538
33699
33594
33575
33783
33700
33703
33836
33662
33764
33582
33415
33453
33143
33143
32903
32685
32646
32334
32360
32221
32135
32270
32169
32308
32345
32327
32444
32335
32455
32333
32168
32227
32043
31878
31919
31639
31548
31468
31325
31447
31394
31350
31564
31548
31828
31719
31800
31897
31806
31940
31796
31703
31748
31502
31427
31495
31308
31163
31280
31159
31207
31396
31501
31511
31689
31892
31932
31865
31948
32006
31879
31953
31834
31722
31743
31559
31596
31410
31508
31359
31446
31567
31603
31856
31871
31898
32076
31950
32044
32097
31960
32022
31847
31881
31751
31636
31598
31477
31575
31465
31631
31598
31845
31761
32004
32087
32031
32224
32142
32077
32208
32037
32090
32049
31910
31718
31676
31727
31562
31672
31550
31778
31814
31884
32167
32144
32178
32332
32231
32253
32380
32190
32287
32059
32012
32022
31879
31775
31861
31730
31750
31860
32087
32208
32217
32455
32378
32478
32500
32431
32530
32426
32317
32388
32283
32050
31974
32026
31994
31973
31951
31978
32215
32143
32275
32482
32395
32522
32575
32508
32597
32376
32361
32300
32151
32198
31946
32022
31829
31933
31958
31972
32178
32133
32406
32436
32432
32603
32471
32644
32476
32484
32476
32327
32373
32184
32064
32143
32045
31983
31960
32031
32282
32252
32542
32490
32745
32720
32668
32775
32580
32676
32621
32452
32376
32284
32202
32208
32217
32100
32097
32286
32318
32383
32647
32582
32738
32773
32711
32858
32737
32679
32695
32556
32618
32333
32405
32208
32117
32202
32159
32373
32402
32399
32650
32551
32751
32738
32745
32823
32674
32775
32557
32647
32463
32308
32348
32174
32116
32257
32103
32199
32340
32375
32637
32594
32646
32775
32689
32807
32693
32645
32735
32573
32454
32463
32416
32181
32109
32131
32234
32343
32485
32502
32510
32647
32868
32775
32964
32868
32815
32926
32838
32610
32630
32572
32407
32440
32340
32460
32359
32533
32540
32561
32766
32703
32872
32871
32831
32943
32807
32932
32727
32798
32565
32674
32628
32494
32535
32420
32591
32502
32533
32708
32647
32812
32775
32720
32887
32733
32831
32798
32701
32773
32590
32728
32527
32439
32533
32351
32491
32572
32574
32860
32784
32973
33096
33071
33236
33294
33244
33195
33281
33220
33304
33226
33332
33101
33212
33217
33180
33317
33239
33412
33287
33413
33514
33342
33503
33500
33383
33479
33333
33287
33335
33125
33143
33133
32967
33071
32962
32926
33084
32934
33060
33116
33071
32942
33059
32855
32914
32775
32663
32715
32519
32665
32438
32451
32574
32422
32614
32623
32603
32759
32712
32679
32767
32657
32775
32548
32671
32550
32711
32502
32596
32511
32475
32439
32374
32449
32365
32549
32491
32653
32500
32716
32567
32671
32707
32630
32735
32603
32684
32451
32487
32570
32414
32559
32389
32485
32478
32479
32565
32623
32788
32749
32680
32712
32830
32876
32796
32733
32639
32671
32701
32613
32501
32655
32549
32561
32670
32588
32767
32743
32751
32871
32748
32823
32675
32486
32463
32115
32021
31838
31556
31539
31452
31345
31479
31451
31451
31719
31743
32039
32261
32518
32829
33179
33850
34400
35281
36021
37000
37823
38612
39511
40000
40449
41413
41956
42220
43006
43718
44013
44052
44103
43846
42969
41644
40845
39458
37914
36710
35448
34053
33077
32244
31663
31127
30908
30852
30564
30410
30379
30142
29953
29954
29843
29797
29911
30013
30055
30266
30374
30410
30647
30606
30759
30913
30886
31040
31210
31263
31333
31448
31545
31702
31599
31655
31805
31719
31711
31830
31657
31781
31722
31622
31709
31587
31783
31668
31689
31860
31806
32020
32031
32084
32285
32133
32292
32263
32119
32122
32175
31982
32007
31940
31803
31903
31740
31802
31988
31970
32091
32324
32310
32359
32566
32603
32560
32503
32605
32443
32376
32436
32263
32359
32177
32050
32169
32085
32274
32285
32357
32586
32594
32637
32847
32641
32690
32822
32681
32575
32623
32407
32470
32280
32172
32173
32261
32134
32343
32364
32466
32708
32618
32813
32847
32809
32961
32750
32788
32732
32608
32691
32413
32394
32442
32231
32364
32453
32439
32701
32703
32814
33060
32935
33160
33125
33111
33221
32956
33003
33093
32963
32851
32918
32740
32638
32661
32743
32716
32782
32983
33119
33071
33269
33364
33250
33342
33423
33287
33286
33412
33303
33180
33180
33271
33149
33071
33209
33279
33239
33466
33630
33743
33786
33813
33694
33839
33946
33813
33978
33826
33773
33903
33760
33676
33731
33553
33687
33882
33788
33953
34136
34084
34354
34366
34369
34511
34388
34368
34439
34268
34380
34311
34157
34244
34094
34081
34237
34086
34361
34393
34484
34729
34561
34814
34823
34737
34756
34855
34540
34695
34512
34423
34454
34088
34219
34233
34014
34127
34183
34133
34318
34150
34367
34343
34231
34256
33943
33973
33910
33574
33621
33359
33137
33060
32727
32829
32676
32628
32740
32589
32829
32722
32709
32732
32591
32619
32426
32409
32186
32205
31940
31917
31599
31615
31463
31375
31487
31407
31599
31588
31787
31650
31741
31823
31721
31823
31846
31665
31693
31612
31460
31471
31387
31204
31156
31220
31073
31130
31346
31349
31386
31495
31603
31503
31563
31719
31620
31572
31646
31504
31389
31426
31178
31132
31226
31151
31147
31364
31290
31410
31631
31664
31683
31871
31713
31796
31895
31716
31694
31759
31524
31451
31471
31258
31274
31335
31261
31488
31479
31579
31707
31758
31973
31912
31918
32046
31927
31822
31840
31825
31630
31583
31564
31311
31303
31441
31371
31439
31678
31591
31804
32017
31956
32079
32194
32020
32050
32135
32022
31879
31859
31780
31796
31607
31527
31642
31560
31724
31831
31836
32089
32133
32182
32382
32193
32374
32295
32234
32292
32073
32156
32004
31861
31892
31700
31823
31743
31894
32129
32005
32204
32412
32390
32575
32519
32476
32591
32383
32459
32319
32203
32228
31966
31996
31976
31886
31994
31966
32213
32126
32450
32499
32543
32703
32545
32519
32594
32574
32412
32407
32286
32180
32204
32061
31979
32081
31907
32172
32178
32285
32519
32542
32559
32707
32613
32751
32496
32547
32567
32343
32364
32315
32134
32190
31998
31951
32103
31986
32199
32366
32381
32647
32593
32679
32654
32579
32692
32572
32508
32538
32415
32260
32273
32064
31991
32131
32074
32097
32303
32375
32483
32728
32713
32623
32751
32687
32607
32708
32543
32439
32361
32364
32030
31982
32087
31915
31959
32151
32079
32240
32522
32586
32615
32831
32651
32731
32795
32567
32557
32606
32299
32255
32276
32103
32047
32196
32023
32223
32358
32358
32476
32753
32633
32744
32927
32832
32796
32876
32917
32725
32807
32799
32554
32567
32639
32533
32775
32881
32917
33173
33390
33329
33535
33611
33471
33623
33604
33361
33460
33447
33191
33149
33158
32938
32916
32910
33019
33073
33098
33127
33159
33250
33445
33420
33238
33342
33300
33172
33223
32877
32873
32759
32551
32551
32252
32315
32357
32281
32495
32400
32641
32769
32702
32807
32775
32695
32783
32708
32484
32548
32332
32263
32181
32053
32111
31966
32063
32086
32124
32357
32347
32665
32655
32711
32842
32614
32770
32602
32543
32583
32407
32402
32210
32120
32148
32058
32159
32094
32421
32429
32526
32707
32628
32830
32741
32606
32674
32714
32689
32575
32628
32327
32391
32235
32162
32292
32087
32280
32415
32474
32762
32710
32967
32775
32927
32903
32868
32922
32708
32748
32709
32585
32341
32148
32007
31934
31845
31716
31615
31589
31654
31815
31681
31815
31889
31832
32087
32005
32350
32476
32678
32986
33182
33861
34300
35079
35888
36767
37661
38450
39348
39844
40691
41087
41820
42325
42644
43159
43042
43335
42821
42396
41534
40389
39276
37743
36797
35398
34212
33263
32248
31684
31159
30767
30685
30383
30294
30187
29868
29793
29500
29367
29310
29215
29359
29359
29642
29768
30052
30430
30567
30918
31021
31182
31371
31407
31588
31495
31630
31547
31532
31583
31436
31381
31501
31402
31449
31663
31663
31860
32087
32070
32364
32391
32358
32454
32231
32386
32260
32199
32222
31999
32049
31951
31855
31998
31892
31964
32187
32127
32391
32511
32455
32676
32637
32628
32742
32485
32590
32488
32380
32396
32209
32308
32103
32225
32181
32214
32386
32305
32495
32623
32490
32655
32727
32549
32715
32682
32526
32629
32489
32511
32454
32374
32443
32299
32386
32452
32516
32647
32806
32842
32839
32763
32767
32690
32668
32674
32697
32709
32718
32730
32596
32720
32453
32655
32608
32642
32775
32775
32951
32796
32988
32975
32947
33063
32858
32981
32965
32876
32926
32786
32894
32638
32821
32718
32725
32894
32775
33050
33015
33143
33058
33143
33199
33125
33239
33000
33191
33044
33118
33006
32989
33031
32954
33108
33062
33082
33236
33364
33388
33367
33479
33551
33403
33572
33615
33439
33664
33487
33581
33561
33394
33586
33554
33441
33695
33663
33668
33902
33726
33988
33991
33988
34133
33992
34119
34074
34007
34167
34002
34062
34085
33978
34166
34023
34135
34157
34193
34337
34229
34466
34332
34421
34479
34439
34427
34414
34320
34300
34349
34195
34399
34207
34278
34287
34263
34420
34348
34359
34502
34393
34401
34463
34336
34396
34383
34227
33979
34043
34055
33825
33863
33676
33663
33573
33495
33491
33365
33476
33283
33261
33244
33009
33134
32823
32903
32735
32644
32625
32453
32433
32136
32231
32074
31991
32020
31933
32083
31903
31945
31926
31879
31940
31835
31911
31702
31806
31652
31647
31594
31483
31502
31411
31476
31335
31466
31351
31424
31475
31446
31528
31435
31559
31422
31559
31319
31508
31335
31426
31333
31305
31344
31190
31292
31263
31311
31385
31359
31513
31479
31631
31506
31647
31615
31653
31605
31599
31647
31547
31587
31388
31521
31343
31436
31487
31431
31539
31495
31638
31551
31732
31732
31614
31719
31734
31675
31751
31551
31667
31665
31501
31565
31536
31527
31654
31509
31665
31685
31663
31772
31767
31893
31844
31934
31918
31983
31911
31930
31862
31910
31775
31879
31702
31876
31751
31871
31762
31987
31831
32095
31957
32174
32087
32135
32156
31991
32129
32103
32026
32065
31919
32071
31853
32007
31988
31967
32062
31936
32110
32199
32125
32336
32259
32228
32323
32165
32346
32219
32196
32191
32047
32093
32188
31983
32192
32143
32263
32160
32348
32292
32401
32369
32442
32440
32444
32561
32421
32431
32391
32319
32349
32168
32318
32204
32308
32347
32341
32476
32328
32471
32535
32492
32550
32446
32615
32455
32537
32452
32535
32287
32478
32335
32378
32316
32300
32318
32365
32443
32453
32565
32380
32532
32612
32452
32652
32604
32553
32638
32492
32461
32519
32286
32468
32231
32388
32336
32364
32486
32481
32602
32455
32695
32595
32723
32660
32660
32711
32610
32663
32535
32557
32511
32295
32441
32383
32343
32458
32423
32454
32583
32542
32606
32733
32642
32699
32808
32678
32757
32702
32596
32585
32391
32516
32319
32348
32324
32287
32492
32427
32588
32514
32799
32631
32875
32746
32775
32860
32799
32838
32636
32764
32647
32607
32657
32534
32655
32723
32810
33062
33123
33300
33503
33445
33515
33602
33543
33405
33261
33299
33302
33263
33092
32932
32967
32838
32869
33012
32902
33108
33218
33298
33462
33278
33519
33428
33353
33396
33316
33158
33039
32976
32745
32738
32378
32482
32428
32383
32543
32508
32737
32643
32876
32932
32855
32951
32782
32709
32757
32540
32458
32448
32241
32135
32183
32006
32024
32165
32079
32349
32414
32532
32677
32582
32775
32724
32631
32694
32500
32463
32407
32263
32283
32058
31988
32065
31900
32142
32142
32327
32470
32548
32716
32604
32803
32811
32764
32759
32591
32650
32429
32474
32239
32185
32161
32087
32165
32095
32357
32263
32628
32689
32775
32879
32849
32967
32751
32810
32822
32652
32745
32444
32510
32335
32150
32151
31850
31855
31866
31778
31879
31798
31855
31917
31802
31943
31822
31878
31924
31976
32199
32152
32517
32631
33131
33679
34311
35235
35946
37136
37853
39071
39708
40290
41156
41574
42247
42724
43078
43600
43454
43750
43222
42690
41949
40647
39892
38471
37318
35998
34817
33851
32660
32038
31383
30903
30734
30387
30094
29894
29587
29415
29118
28927
28966
28957
29150
29391
29585
30012
30172
30506
30759
30883
31101
31100
31324
31400
31394
31461
31295
31362
31380
31182
31303
31142
31356
31398
31526
31711
31764
32068
31985
32239
32201
32231
32307
32081
32252
32070
31969
31991
31692
31796
31685
31684
31791
31719
31975
31902
32231
32215
32354
32463
32449
32547
32428
32543
32354
32358
32295
32154
32148
31943
31908
31950
31921
32092
32022
32348
32375
32592
32676
32684
32816
32632
32809
32576
32717
32571
32508
32498
32284
32244
32237
32095
32294
32235
32375
32588
32599
32924
32967
32955
33092
33119
32919
33091
32967
32881
32879
32598
32666
32452
32423
32460
32311
32535
32615
32610
32951
32943
33047
33108
33109
33231
32999
33183
32908
33031
32844
32764
32717
32587
32628
32551
32415
32679
32692
32880
33031
33121
33210
33167
33406
33260
33319
33300
33203
33230
33124
33027
32965
32750
32871
32706
32772
32925
32815
33175
33244
33367
33478
33401
33646
33600
33623
33638
33423
33596
33460
33380
33282
33183
33202
33143
33220
33287
33480
33389
33789
33719
34087
33901
34213
33998
34216
34159
33933
34085
33839
34022
33664
33783
33568
33770
33660
33887
33899
34014
34294
34311
34491
34543
34498
34735
34581
34692
34498
34423
34444
34140
34304
34142
34051
34130
33939
34180
34133
34343
34463
34366
34660
34597
34567
34688
34511
34454
34479
34229
33927
33911
33764
33451
33508
33256
33296
33244
33156
33359
33295
33386
33457
33244
33406
33261
33076
33130
32878
32791
32651
32352
32359
32134
31864
31978
31823
31811
31939
31862
32020
32135
32084
32234
32079
32054
32070
31848
31921
31684
31636
31463
31317
31252
31035
31164
30987
31175
31191
31292
31495
31494
31734
31676
31712
31791
31604
31716
31656
31430
31493
31341
31150
31199
31077
30929
31084
31086
31162
31377
31375
31550
31686
31637
31694
31735
31692
31724
31510
31582
31521
31270
31323
31180
31100
31167
31151
31141
31270
31486
31574
31652
31911
31913
31905
32000
31822
31906
31911
31908
31766
31515
31602
31457
31374
31437
31263
31486
31543
31588
31866
31879
32016
32085
31989
32182
32066
32086
31997
31910
31897
31700
31700
31588
31475
31579
31494
31532
31650
31673
31982
31885
32186
32154
32180
32238
32160
32223
31983
32074
31991
31812
31834
31639
31583
31639
31487
31636
31802
31810
31928
32143
32153
32283
32325
32212
32385
32229
32218
32197
31955
32079
31885
31783
31775
31697
31853
31687
31949
31974
32187
32310
32329
32518
32484
32427
32588
32470
32343
32423
32274
32046
32055
32086
31942
31814
31962
31983
32052
32196
32403
32383
32516
32693
32659
32582
32679
32634
32442
32542
32399
32277
32156
31970
31923
31958
32023
32134
32185
32244
32469
32534
32593
32790
32741
32646
32785
32643
32580
32543
32295
32388
32228
32103
32087
31874
32082
32055
32124
32323
32252
32599
32590
32677
32775
32647
32699
32647
32517
32613
32559
32359
32257
32262
32099
32086
32183
32132
32178
32379
32557
32596
32684
32855
32754
32789
32870
32735
32557
32679
32539
32378
32418
32228
32117
32207
32119
32164
32335
32325
32512
32735
32726
32844
32839
32786
32903
32775
32701
32695
32532
32428
32454
32210
32164
32206
32143
32209
32413
32418
32584
32765
32740
32851
32976
32839
32852
32831
32620
32712
32636
32494
32475
32261
32231
32319
32207
32287
32423
32468
32647
32884
32887
32839
33055
32967
32904
33021
32865
32867
32706
32519
32625
32444
32375
32358
32290
32466
32450
32652
32761
32852
33036
32833
33045
32938
33016
32987
32935
32890
32734
32876
32687
32647
32622
32575
32708
32580
32874
33004
33036
33423
33455
33586
33591
33550
33764
33650
33552
33580
33356
33254
33164
33028
32922
32799
33000
32796
33088
33065
33222
33347
33223
33477
33407
33401
33399
33236
33319
33125
33021
32959
32668
32666
32366
32446
32428
32314
32538
32484
32667
32722
32766
32892
32817
32806
32883
32684
32690
32614
32462
32530
32293
32247
32143
32078
32159
32116
32306
32228
32518
32628
32655
32749
32687
32833
32819
32718
32742
32535
32631
32460
32314
32303
32159
32127
32218
32162
32194
32504
32551
32623
32862
32830
32853
32879
32758
32894
32772
32687
32679
32465
32372
32321
32223
32222
32193
32354
32292
32586
32508
32847
32775
32889
32945
32796
32998
32882
32793
32834
32675
32594
32610
32375
32362
32263
32151
32276
32061
32242
32142
32045
32132
32038
31942
31954
31793
31818
31767
31598
31746
31689
31733
31948
31961
32237
32587
33159
34092
34812
35861
36812
37893
39004
39706
40455
41031
41650
42438
42743
43268
43753
43956
44255
43835
43805
43044
42326
41372
40221
39188
37750
36574
35281
34055
33351
32412
31796
31396
30892
30655
30382
29911
29695
29392
29180
29165
29247
29492
29644
29992
30116
30498
30582
30727
30930
30919
31191
31139
31210
31196
31091
31164
30972
30958
30980
30959
31196
31135
31448
31588
31700
31876
31928
31952
31972
31972
32026
31836
31946
31783
31808
31626
31628
31473
31464
31551
31414
31696
31703
31919
32044
32151
32313
32255
32292
32371
32287
32214
32222
32044
32025
31966
31854
31759
31606
31768
31646
31780
31855
31868
32159
32214
32196
32273
32092
32276
32143
32080
32103
31949
31791
31804
31644
31587
31607
31543
31541
31743
31797
31839
32143
32174
32095
32309
32317
32207
32290
32115
32102
32110
31905
31867
31846
31706
31695
31751
31717
31791
31990
32028
32216
32421
32354
32415
32526
32411
32396
32376
32263
32309
32138
32071
32060
31895
31844
31887
31894
32134
32157
32319
32449
32414
32694
32645
32695
32769
32549
32721
32492
32575
32429
32244
32332
32263
32103
32280
32239
32383
32551
32583
32892
32890
32986
33062
33063
33063
32975
33123
32943
32936
32822
32668
32775
32637
32610
32724
32695
32802
33045
33110
33298
33497
33470
33535
33671
33519
33566
33502
33447
33455
33462
33247
33206
33258
33158
33084
33350
33420
33415
33790
33870
33826
34148
34102
34129
34172
34065
34075
34107
33903
33931
33773
33622
33708
33796
33706
33605
33959
33982
34038
34362
34385
34359
34599
34455
34352
34529
34324
34205
34225
34027
33799
33778
33695
33509
33376
33535
33399
33344
33516
33697
33648
33605
33650
33471
33336
33373
33115
33021
32867
32567
32554
32407
32155
32145
32007
31909
32102
32126
32066
32327
32262
32204
32324
32303
32154
32109
32084
31927
31718
31770
31653
31476
31278
31351
31254
31212
31374
31471
31426
31654
31717
31721
31782
31876
31719
31723
31751
31612
31537
31570
31343
31278
31297
31150
31169
31262
31223
31373
31562
31631
31662
31855
31772
31823
31870
31745
31737
31734
31492
31485
31483
31283
31190
31239
31190
31226
31358
31367
31543
31798
31771
31842
31943
31801
31931
31927
31725
31863
31706
31556
31626
31415
31358
31341
31235
31429
31454
31557
31751
31744
32004
32047
31993
32147
32035
32055
32054
31838
31880
31828
31669
31610
31615
31463
31543
31583
31549
31870
31951
32064
32263
32237
32279
32356
32232
32255
32242
32043
32093
32094
31890
31829
31847
31773
31659
31814
31975
31954
32151
32258
32245
32442
32516
32349
32569
32455
32391
32414
32213
32170
32052
31956
31974
31879
31803
31900
31871
32014
32230
32245
32359
32386
32421
32458
32545
32428
32310
32342
32223
32092
32127
31927
31879
31884
31855
31818
32012
32175
32207
32362
32543
32484
32447
32652
32579
32493
32350
32370
32382
32231
32060
32172
32005
31965
32046
32011
32127
32332
32308
32495
32580
32671
32764
32799
32623
32772
32676
32518
32599
32517
32251
32317
32167
32052
32159
32251
32213
32538
32548
32731
32844
32766
33018
32926
32959
32942
32752
32826
32647
32590
32547
32359
32335
32298
32313
32375
32338
32470
32532
32745
32860
32996
33031
32980
32961
32850
32847
32844
32620
32567
32553
32363
32343
32381
32294
32287
32309
32581
32703
32768
32983
32974
33005
33142
33052
33010
33023
32833
32799
32742
32452
32549
32439
32289
32486
32437
32534
32724
32741
32919
33117
33183
33140
33087
32959
33007
32988
32990
32937
32805
32645
32583
32463
32438
32444
32582
32690
32740
32764
33057
33079
33133
33300
33172
33143
33190
33052
32891
32990
32828
32631
32662
32535
32503
32608
32519
32650
32843
32855
32890
33058
33217
33191
33031
33219
33122
32964
32991
33004
32860
32628
32640
32620
32491
32474
32619
32645
32685
32901
32940
32936
33166
33135
33021
33207
33109
32924
32990
32948
32784
32721
32596
32383
32554
32516
32419
32633
32692
32729
32991
33145
33053
33309
33196
33082
33233
33041
32834
32956
32722
32548
32662
32462
32485
32613
32571
32786
32899
32995
33310
33310
33287
33606
33555
33622
33605
33517
33519
33458
33370
33287
33251
33087
32949
33020
33045
33180
33199
33167
33444
33675
33559
33604
33652
33722
33559
33404
33487
33287
33103
33188
32975
32860
32852
32732
32836
33012
32881
33140
33165
33186
33271
33391
33253
33207
33070
32991
32908
32804
32620
32519
32398
32314
32306
32377
32303
32405
32628
32664
32658
32932
32922
32865
32986
32852
32839
32881
32604
32721
32599
32437
32479
32245
32239
32244
32222
32447
32398
32620
32732
32839
32927
32808
32994
32903
32709
32799
32767
32619
32564
32431
32247
32335
32277
32144
32367
32359
32460
32609
32566
32892
32892
32938
32980
32855
32967
32822
32782
32775
32514
32636
32463
32391
32445
32263
32485
32479
32516
32775
32848
32833
33058
32933
32743
32775
32513
32140
32063
31796
31599
31517
31303
31175
31214
31146
31236
31493
31588
32060
32351
32716
33132
33645
34265
35006
35889
36711
37530
38710
39281
39843
40612
41068
41799
42375
42647
43585
44039
44518
44828
44646
44121
43199
42116
40691
39602
38215
36815
35490
34242
33131
32172
31463
30880
30708
30527
30260
30197
30175
30001
29860
29888
29959
29942
30151
30298
30279
30499
30505
30439
30556
30663
30582
30686
30821
30836
31012
31239
31285
31524
31635
31726
31838
31986
31934
31905
31970
31834
31778
31748
31543
31519
31532
31409
31495
31566
31517
31821
31882
32006
32220
32208
32154
32351
32292
32127
32285
32161
31943
32053
31899
31820
31780
31595
31762
31791
31834
32031
32088
32244
32410
32363
32411
32489
32391
32418
32399
32294
32363
32190
32071
32075
31927
31819
31966
31915
32024
32165
32258
32538
32487
32602
32644
32674
32725
32509
32663
32493
32481
32425
32177
32263
32089
32079
32151
32028
32283
32346
32399
32723
32711
32838
32871
32897
33019
32871
32870
32769
32615
32615
32529
32347
32412
32289
32280
32407
32310
32640
32620
32839
32951
33031
33020
32981
33172
33014
33007
32871
32758
32927
32775
32557
32658
32514
32574
32636
32639
32909
32920
33086
33235
33130
33408
33364
33388
33429
33172
33317
33188
33126
33127
32815
32940
32804
32887
32942
33005
33204
33165
33568
33574
33673
33678
33718
33775
33616
33815
33671
33634
33678
33476
33446
33409
33303
33461
33448
33559
33687
33764
34048
34120
34204
34268
34225
34359
34196
34311
34143
34204
34101
34015
33908
33748
33937
33777
33954
33898
34092
34263
34340
34575
34525
34591
34631
34481
34740
34567
34509
34509
34311
34334
34146
33999
34064
33785
33983
33974
33996
34262
34231
34333
34255
34172
34386
34201
34118
33940
33751
33831
33639
33359
33311
32998
32853
33008
32837
32858
32935
32866
32855
33033
32990
32927
32914
32878
32671
32583
32559
32261
32162
31960
31732
31775
31580
31544
31551
31585
31689
31694
31853
31879
32032
31845
31996
31860
31936
31745
31748
31567
31543
31438
31303
31239
31100
31254
31140
31287
31327
31560
31620
31747
31797
31821
31916
31695
31869
31773
31676
31638
31362
31424
31295
31183
31207
31066
31275
31236
31361
31560
31631
31709
31884
31750
31991
31871
31941
31764
31716
31682
31551
31481
31409
31352
31303
31296
31254
31535
31532
31772
31852
31820
32100
31995
32063
32062
31919
32071
31972
31740
31815
31607
31567
31551
31377
31562
31529
31597
31782
31693
32028
32039
32190
32246
32085
32255
32191
32155
32187
32006
31974
31844
31727
31727
31655
31616
31656
31763
31938
31868
32141
32215
32199
32418
32276
32348
32199
32104
32233
32107
32018
31934
31815
31796
31684
31735
31614
31893
31862
32094
32172
32285
32407
32380
32554
32417
32438
32391
32311
32200
32114
32120
31847
31882
31736
31780
31806
31901
32015
32164
32340
32420
32453
32479
32524
32483
32410
32247
32406
32143
32135
32034
31929
31918
31746
31911
31814
31943
32103
32213
32314
32372
32654
32538
32647
32566
32524
32463
32343
32391
32148
32235
31934
32035
31826
32014
31855
32103
32167
32327
32504
32584
32631
32658
32692
32579
32727
32556
32506
32458
32382
32219
32068
32135
31956
32098
32043
32247
32314
32385
32644
32565
32695
32599
32838
32759
32773
32658
32591
32556
32334
32374
32119
32214
32071
32101
32127
32191
32404
32399
32650
32653
32805
32823
32811
32775
32716
32795
32524
32638
32383
32479
32175
32291
32078
32188
32143
32243
32308
32439
32705
32700
32853
32862
32873
32948
32758
32773
32628
32542
32503
32383
32251
32226
32263
32122
32263
32159
32463
32460
32596
32891
32879
33069
33108
33094
33131
33041
33077
33044
32989
32931
32843
32863
32847
32826
33014
32962
33203
33316
33390
33630
33535
33639
33558
33617
33540
33391
33476
33247
33268
33059
32964
32964
32767
32882
32727
32911
32903
33068
33127
33172
33285
33149
33233
33164
33100
33101
32857
32801
32620
32413
32498
32239
32220
32159
32157
32327
32298
32515
32502
32668
32739
32763
32703
32639
32768
32596
32552
32480
32412
32336
32055
32127
31942
32017
31996
32111
32204
32348
32555
32525
32749
32622
32848
32722
32782
32691
32615
32555
32327
32286
32083
32167
32034
32075
32108
32204
32310
32372
32478
32527
32788
32735
32767
32707
32708
32764
32519
32670
32466
32484
32247
32279
32113
32215
32143
32263
32300
32479
32642
32712
32732
32767
32978
32791
32967
32839
32656
32727
32350
32317
31972
31850
31515
31490
31301
31332
31405
31451
31594
31675
31872
31882
32181
32446
32467
32895
32893
33314
33575
34380
34834
35747
36372
37367
37860
38781
39364
40245
40694
41836
42242
42948
43203
43500
43740
43138
43047
42204
41078
39730
38344
37103
35636
34340
33135
32162
31618
31044
30790
30685
30586
30581
30294
30269
30025
29851
29745
29565
29510
29389
29537
29477
29743
29766
30079
30142
30529
30627
30935
31111
31323
31463
31580
31687
31581
31725
31526
31658
31612
31513
31484
31317
31492
31330
31565
31548
31823
31835
32078
32111
32315
32294
32391
32294
32415
32235
32249
32105
32035
31983
31770
31855
31709
31751
31847
31792
32116
32143
32299
32540
32519
32558
32547
32433
32655
32527
32462
32324
32202
32307
32056
32044
31928
31950
32055
32007
32207
32197
32335
32639
32594
32808
32686
32714
32685
32613
32499
32402
32514
32279
32305
32191
32144
32155
32102
32258
32183
32532
32624
32716
32879
32716
32988
32849
32939
32823
32746
32775
32569
32564
32431
32314
32308
32168
32413
32364
32503
32647
32716
32988
32871
33167
32998
33222
33054
33140
32943
32902
32717
32734
32646
32535
32585
32481
32627
32700
32802
32935
32972
33283
33162
33484
33387
33535
33391
33460
33304
33263
33191
32999
33029
32775
32956
32789
32975
32981
33281
33263
33551
33559
33725
33732
33819
33767
33748
33879
33660
33799
33520
33709
33482
33543
33391
33413
33495
33573
33711
33692
34124
33980
34383
34318
34410
34391
34350
34246
34116
34342
34151
34097
34012
33927
33966
33748
33990
33927
34174
34204
34410
34463
34628
34628
34542
34804
34620
34638
34589
34521
34378
34292
34329
34114
34084
33983
33924
34248
34195
34453
34415
34548
34580
34567
34487
34332
34493
34258
34152
33933
33820
33687
33403
33283
33119
33094
32957
32985
32950
33084
32999
33238
33010
33192
33054
32909
32743
32667
32545
32313
32301
32023
32041
31727
31760
31584
31636
31615
31559
31788
31790
31956
31958
32015
31941
31892
31878
31686
31713
31428
31510
31268
31263
31081
31012
30987
30956
30972
31057
31350
31396
31615
31584
31764
31665
31756
31663
31658
31549
31458
31348
31138
31226
31040
31020
30999
31039
31167
31163
31442
31448
31682
31639
31815
31725
31844
31723
31700
31575
31514
31465
31328
31229
31132
31153
31003
31130
31089
31340
31316
31667
31670
31830
31812
31851
31795
31820
31828
31702
31568
31482
31479
31316
31380
31166
31321
31216
31428
31450
31708
31751
32007
31973
32085
32091
32063
32052
32039
31967
31802
31869
31681
31663
31558
31481
31375
31457
31651
31687
31751
31986
32141
32191
32142
32201
32346
32191
32302
32102
32132
31920
31877
31751
31693
31684
31653
31578
31713
31868
31868
32185
32204
32374
32377
32386
32487
32372
32351
32358
32122
32222
32001
31926
31820
31646
31782
31686
31755
32070
32098
32295
32457
32447
32495
32556
32482
32527
32420
32298
32409
32178
32182
32010
31907
31813
31724
31879
31879
32104
32114
32311
32418
32519
32535
32456
32647
32495
32479
32386
32218
32362
32193
32103
32012
31852
32039
31959
32103
32175
32250
32501
32514
32551
32735
32524
32741
32534
32681
32486
32527
32360
32294
32146
31938
32101
31946
32068
32113
32207
32219
32378
32631
32519
32772
32637
32761
32646
32711
32594
32398
32476
32279
32193
32076
32070
32038
31969
32075
32074
32390
32398
32647
32581
32768
32669
32828
32657
32724
32535
32515
32359
32272
32180
32070
31958
31948
32140
32079
32216
32340
32463
32627
32724
32775
32841
32895
32866
32919
32743
32919
32669
32789
32602
32710
32601
32644
32615
32660
32981
32982
33240
33368
33441
33483
33308
33560
33255
33482
33275
33247
33080
32965
33028
32773
32826
32705
32667
32792
32762
32820
32936
33081
33116
33122
33189
33287
33031
33119
32897
32924
32654
32580
32352
32360
32067
32202
32097
32236
32320
32423
32485
32634
32660
32657
32668
32598
32762
32487
32565
32319
32421
32140
32173
31916
32066
31993
32046
32048
32159
32308
32428
32519
32615
32686
32692
32615
32621
32727
32467
32559
32366
32390
32160
32140
32016
32034
32039
32118
32175
32375
32539
32644
32615
32668
32707
32756
32824
32631
32639
32500
32469
32332
32179
32260
32082
32081
32135
32046
32335
32367
32553
32623
32721
32868
32796
32794
32959
32783
32716
32535
32375
32406
32085
31738
31679
31471
31279
31424
31305
31451
31638
31678
31828
31878
31873
32253
32335
32671
32847
33098
33414
33946
34540
35052
36125
36772
37694
38337
38993
39879
40388
41189
41765
41991
42954
43092
43511
43380
43126
42709
41613
40825
39580
38446
36917
35562
34224
33103
32116
31365
30898
30585
30424
30249
30222
29895
29873
29601
29502
29318
29323
29305
29370
29397
29533
29734
29846
30012
30324
30545
30808
31142
31260
31431
31551
31623
31655
31679
31684
31665
31518
31503
31596
31388
31479
31347
31524
31468
31719
31791
31982
32143
32241
32255
32281
32302
32262
32180
32148
32080
31936
31991
31718
31860
31662
31690
31615
31658
31986
31980
32257
32249
32352
32431
32482
32471
32487
32447
32378
32252
32246
32127
32015
31854
31844
31927
31805
32020
32039
32299
32364
32502
32511
32581
32767
32623
32775
32600
32623
32516
32419
32242
32172
32230
32035
32147
32042
32260
32245
32493
32534
32804
32769
32943
32854
32976
32935
32903
32804
32736
32740
32587
32387
32499
32327
32327
32436
32382
32549
32569
32663
33026
33014
33081
33031
32980
33202
32910
33071
32844
32868
32717
32654
32497
32488
32557
32433
32526
32535
32870
32827
33206
33130
33337
33301
33326
33250
33168
33359
33150
33221
32911
33012
32806
32804
32711
32965
32891
33163
33152
33450
33454
33615
33606
33710
33727
33686
33689
33643
33738
33543
33628
33431
33351
33332
33260
33347
33314
33690
33687
33995
34047
34193
34205
34271
34236
34290
34386
34221
34349
34140
34207
33916
34014
33822
34002
33839
34067
34022
34247
34302
34427
34493
34634
34586
34629
34578
34590
34591
34496
34450
34378
34319
34151
34110
34046
34048
34023
34023
34351
34207
34540
34484
34671
34488
34552
34422
34375
34220
34069
33834
33740
33501
33383
33195
32966
33130
32855
33055
32978
33199
33119
33206
33063
33127
33006
33023
32794
32766
32588
32441
32212
32084
31919
31844
31732
31703
31703
31733
31788
31956
32011
32146
32053
32174
32000
32059
31903
31860
31680
31654
31487
31371
31273
31159
31022
31081
31215
31112
31388
31413
31611
31636
31751
31687
31784
31711
31686
31527
31478
31456
31399
31310
31365
31343
31308
31381
31287
31428
31442
31508
31456
31589
31503
31642
31536
31551
31548
31524
31423
31472
31581
31462
31548
31415
31540
31504
31432
31548
31526
31691
31598
31719
31588
31570
31769
31717
31654
31644
31584
31749
31562
31724
31574
31671
31656
31658
31601
31677
31822
31748
31898
31844
31876
31838
31770
31975
31878
31904
31819
31748
31832
31713
31884
31769
31863
31847
31876
31935
31981
31924
31943
32143
32111
32081
32133
32033
32050
32070
31964
32145
31991
32098
32047
32007
31922
31983
32012
32159
32108
32127
32141
32122
32153
32277
32145
32055
32175
32067
32021
32227
32120
32103
32035
31957
32180
32058
32124
32075
32069
32311
32231
32295
32225
32339
32364
32199
32199
32263
32148
32115
32273
32180
32166
32251
32110
32204
32142
32209
32309
32319
32231
32431
32327
32382
32335
32324
32360
32297
32420
32263
32314
32260
32291
32279
32263
32196
32182
32429
32383
32412
32354
32347
32581
32447
32486
32404
32424
32503
32471
32420
32367
32346
32545
32295
32510
32412
32579
32450
32565
32486
32567
32540
32554
32655
32488
32602
32407
32620
32466
32575
32423
32534
32429
32484
32437
32470
32524
32471
32494
32620
32436
32654
32596
32596
32639
32495
32548
32434
32478
32569
32371
32572
32439
32434
32431
32399
32420
32449
32647
32441
32528
32612
32550
32615
32517
32516
32615
32519
32619
32489
32540
32532
32487
32406
32426
32580
32378
32593
32466
32636
32605
32629
32611
32655
32632
32661
32583
32547
32710
32520
32644
32510
32576
32750
32655
32812
32749
32823
32999
32860
33160
33102
33190
33223
33220
33375
33327
33400
33375
33297
33380
33246
33353
33203
33223
33178
33237
33409
33335
33379
33374
33405
33325
33241
33452
33265
33333
33173
33207
33276
33085
33156
33038
33023
32958
32918
32886
32837
32988
32844
32935
32775
32775
32716
32731
32674
32639
32538
32517
32479
32478
32426
32318
32553
32402
32468
32407
32423
32378
32359
32398
32350
32552
32359
32532
32357
32582
32401
32526
32372
32437
32332
32335
32341
32284
32352
32308
32308
32479
32427
32549
32527
32431
32599
32482
32454
32607
32463
32548
32427
32464
32462
32442
32343
32357
32441
32367
32565
32434
32614
32533
32650
32605
32681
32616
32646
32574
32604
32602
32577
32495
32429
32479
32657
32507
32644
32551
32567
32564
32560
32495
32361
32430
32175
32048
31937
31695
31598
31644
31413
31553
31431
31586
31509
31716
31864
32134
32433
32631
33199
33574
34454
35006
35988
36700
37677
38372
39076
39735
40238
40951
41428
42124
42532
43196
43303
43860
43470
43574
42844
42260
41137
39801
38916
37377
36172
34723
33676
32491
31716
31032
30638
30371
30122
29783
29637
29501
29239
29291
29203
29375
29526
29672
29740
29908
30195
30176
30431
30443
30589
30726
30815
30855
30922
31157
31143
31310
31327
31528
31495
31671
31661
31766
31825
31846
31775
31788
31804
31788
31812
31671
31855
31691
31838
31719
31841
31821
31890
31924
31980
32089
31982
32215
32091
32234
32135
32167
32130
32129
32117
32094
31970
31922
32138
32017
32068
32002
32053
32255
32202
32391
32356
32380
32497
32367
32391
32335
32369
32361
32221
32409
32263
32290
32295
32268
32303
32344
32359
32312
32468
32464
32645
32542
32621
32551
32514
32565
32495
32490
32404
32619
32447
32554
32463
32558
32519
32566
32557
32644
32689
32725
32665
32735
32788
32652
32717
32740
32864
32767
32787
32684
32698
32610
32542
32687
32551
32842
32748
32833
32804
32849
33059
32923
32893
33055
32916
33028
32915
32958
32886
32936
32914
32874
32770
32753
32910
32807
33058
32995
33126
33107
33106
33357
33218
33297
33201
33159
33367
33210
33222
33348
33183
33233
33184
33223
33263
33287
33306
33263
33578
33543
33592
33736
33621
33554
33806
33751
33728
33868
33745
33642
33844
33737
33755
33723
33670
33970
33861
33981
33998
33959
34239
34168
34118
34055
34329
34151
34078
34371
34217
34230
34327
34147
34118
34257
34183
34378
34272
34463
34335
34532
34412
34629
34471
34613
34457
34598
34389
34529
34311
34439
34247
34231
34135
34119
34065
34141
33998
34145
33861
33958
33956
33876
33861
33724
33684
33588
33562
33269
33229
33223
33058
33038
32802
32847
32535
32655
32568
32502
32598
32519
32458
32447
32286
32346
32178
32034
32101
32108
31888
31936
31738
31823
31547
31719
31623
31598
31567
31693
31562
31599
31655
31704
31695
31630
31686
31527
31620
31441
31486
31524
31387
31474
31284
31281
31278
31333
31355
31320
31503
31445
31487
31564
31502
31640
31508
31647
31495
31617
31468
31434
31495
31299
31442
31375
31385
31349
31420
31457
31508
31659
31634
31669
31579
31590
31690
31562
31687
31591
31679
31590
31582
31472
31469
31607
31535
31587
31630
31652
31839
31781
31909
31848
31868
31811
31780
31885
31706
31902
31760
31751
31691
31692
31678
31674
31653
31703
31802
31761
31914
31864
31972
31996
31985
31871
31829
32021
31797
31984
31823
31913
31750
31739
31688
31652
31847
31748
31839
31791
31834
32067
31972
32133
31982
32113
32049
32076
31989
31982
31900
31814
31953
31837
31790
31958
31839
31932
31876
31956
32055
32198
32134
32120
32181
32070
32226
32109
32134
32031
31987
32141
31971
32060
31938
31942
31897
31837
32075
32091
32075
32292
32202
32321
32238
32183
32389
32294
32135
32295
32150
32198
32110
32007
32245
32109
32221
32181
32230
32178
32254
32391
32332
32451
32402
32399
32495
32404
32263
32454
32295
32297
32344
32188
32241
32161
32215
32295
32402
32315
32429
32503
32455
32543
32527
32441
32641
32479
32434
32599
32398
32454
32343
32303
32493
32333
32431
32387
32420
32467
32480
32508
32484
32694
32610
32543
32575
32500
32588
32532
32486
32362
32315
32454
32335
32399
32324
32369
32526
32456
32628
32548
32660
32660
32649
32727
32602
32711
32492
32596
32430
32470
32361
32368
32324
32338
32298
32271
32498
32433
32528
32724
32610
32676
32630
32617
32721
32630
32576
32582
32516
32631
32441
32486
32396
32331
32559
32434
32510
32481
32500
32798
32671
32807
32714
32721
32762
32669
32714
32588
32537
32681
32494
32493
32615
32479
32536
32556
32504
32713
32607
32629
32884
32775
32711
32877
32747
32678
32844
32671
32682
32579
32519
32511
32559
32495
32413
32559
32535
32605
32707
32647
32731
32794
32708
32724
32767
32844
32735
32690
32622
32746
32794
32828
32735
32851
32823
32793
33114
33109
33196
33328
33270
33428
33374
33428
33391
33356
33476
33287
33194
33310
33044
33215
33114
33223
33181
33178
33155
33191
33351
33286
33311
33249
33225
33358
33213
33191
33231
33053
33072
33103
32910
32922
32964
32732
32744
32711
32693
32740
32823
32868
32831
32663
32708
32648
32577
32484
32612
32469
32391
32526
32398
32382
32238
32303
32345
32256
32508
32444
32554
32558
32611
32590
32510
32732
32633
32606
32502
32470
32503
32450
32396
32423
32276
32356
32363
32263
32500
32447
32485
32677
32551
32671
32598
32583
32683
32528
32580
32468
32462
32479
32334
32412
32332
32341
32367
32279
32544
32481
32668
32595
32749
32618
32658
32676
32628
32657
32550
32664
32565
32543
32569
32385
32582
32415
32519
32467
32486
32359
32257
32236
32028
31984
31774
31655
31628
31486
31524
31439
31412
31359
31399
31716
31731
32007
32207
32556
33379
33914
34751
35573
36570
37717
38531
39380
40112
40774
41646
42202
42448
43294
43910
44146
44532
44495
44022
43850
42974
42066
40892
39640
38503
36957
35667
34410
33367
32548
31751
31359
31021
30620
30284
30142
29719
29562
29471
29492
29438
29698
29794
30035
30158
30303
30381
30503
30645
30628
30781
30824
30900
30868
30878
30974
30878
31060
30990
31082
31092
31196
31442
31406
31517
31446
31434
31611
31519
31537
31590
31536
31540
31522
31405
31585
31430
31532
31462
31432
31695
31647
31718
31736
31743
31943
31847
31954
31901
31974
31927
32007
31938
31823
31974
31837
31844
31781
31793
32019
31940
32086
32125
32040
32260
32208
32231
32231
32247
32132
32125
32186
32024
32191
32038
32125
32053
32054
31962
32074
32060
32077
32311
32282
32252
32443
32304
32444
32283
32354
32337
32194
32374
32245
32257
32177
32116
32319
32198
32346
32345
32383
32346
32372
32583
32432
32593
32487
32612
32502
32586
32492
32481
32421
32364
32463
32331
32380
32357
32340
32623
32583
32677
32801
32715
32845
32741
32737
32966
32851
32760
32909
32748
32802
32690
32620
32758
32684
32759
32721
32799
32930
32937
32996
33078
33192
33095
33199
33132
33142
33159
33082
32988
33201
33008
32935
33111
33008
33064
33196
33190
33252
33372
33559
33490
33404
33647
33556
33469
33681
33582
33588
33673
33591
33534
33694
33524
33644
33590
33661
33798
33964
34037
34035
34078
34045
34076
34242
34152
34154
34190
34101
34148
34197
34062
34023
34161
34020
34075
34054
34148
34278
34252
34209
34476
34348
34402
34540
34399
34364
34506
34267
34271
34164
34036
34222
33966
34066
33927
33983
33876
33860
33950
33840
33819
33834
33662
33728
33511
33333
33439
33155
33122
33059
32854
32813
32692
32577
32503
32370
32565
32424
32423
32561
32412
32421
32327
32257
32263
32098
32053
32025
32006
31751
31846
31649
31654
31612
31540
31711
31656
31583
31781
31660
31702
31615
31562
31676
31633
31567
31727
31554
31614
31495
31476
31348
31373
31410
31385
31358
31458
31391
31452
31641
31605
31652
31751
31719
31783
31760
31682
31766
31634
31611
31655
31415
31379
31250
31216
31445
31391
31537
31572
31621
31828
31912
31906
32038
31916
31949
31841
31792
31892
31735
31586
31616
31436
31381
31495
31585
31580
31682
31780
31861
32030
31937
32193
32109
32114
31978
31986
32095
31879
31887
31769
31655
31612
31471
31588
31527
31730
31717
31922
31932
32087
32063
32253
32172
32310
32159
32262
32067
32151
31943
32004
31799
31751
31726
31684
31708
31695
31990
31928
32084
32070
32182
32304
32323
32304
32233
32158
32259
32052
32076
31931
31831
31804
31700
31765
31660
31772
31983
31956
32154
32171
32180
32441
32330
32448
32335
32319
32328
32093
32188
31975
32076
31882
31870
31824
31777
31976
31953
32138
32284
32263
32370
32539
32459
32467
32364
32263
32383
32185
32279
32052
32066
31953
31870
31942
31814
32098
32069
32276
32317
32423
32428
32514
32556
32508
32543
32436
32308
32375
32167
32274
32096
32038
31910
31887
32088
31980
32278
32263
32403
32572
32471
32629
32537
32604
32699
32542
32483
32485
32335
32217
32206
32233
32063
32106
32053
32101
32353
32332
32378
32699
32615
32711
32648
32580
32766
32536
32459
32588
32415
32339
32350
32151
32124
32191
32198
32198
32351
32359
32439
32732
32647
32646
32797
32650
32691
32532
32687
32511
32332
32431
32206
32087
32197
32085
32039
32295
32303
32364
32533
32542
32732
32711
32753
32805
32660
32772
32649
32558
32665
32459
32358
32381
32228
32166
32239
32343
32364
32447
32694
32617
32627
32857
32849
32821
32749
32739
32826
32710
32574
32444
32341
32378
32295
32159
32362
32332
32479
32526
32660
32663
32636
32897
32831
32749
32834
32616
32792
32628
32590
32462
32409
32271
32215
32311
32247
32428
32412
32439
32757
32696
32895
32808
32852
32775
32683
32871
32709
32730
32604
32498
32639
32559
32476
32674
32636
32753
32918
32931
33287
33276
33375
33509
33477
33618
33454
33364
33575
33391
33301
33126
32991
33129
32986
32964
33055
32978
33082
33090
33094
33356
33222
33186
33339
33143
33176
33080
33057
33126
33002
32921
32965
32798
32785
32699
32703
32626
32868
32748
32865
32775
32674
32860
32746
32660
32842
32670
32663
32502
32487
32492
32461
32362
32453
32383
32390
32519
32463
32671
32600
32559
32759
32680
32633
32774
32564
32623
32567
32519
32526
32388
32419
32271
32215
32380
32336
32332
32528
32478
32561
32548
32579
32733
32634
32636
32526
32506
32630
32504
32500
32382
32414
32447
32255
32407
32476
32354
32370
32634
32568
32646
32595
32592
32816
32670
32732
32634
32663
32690
32572
32492
32498
32381
32349
32390
32335
32293
32493
32367
32334
32308
32042
32108
31846
31764
31636
31583
31605
31391
31367
31463
31372
31579
31652
31823
32148
32474
33250
33899
34780
35659
36620
37913
38702
39618
40292
40717
41786
42356
42602
43488
43732
44198
44498
44423
44343
43645
43087
41908
40994
39634
38344
36909
35507
34542
33378
32751
31946
31649
31158
30839
30336
30038
29782
29588
29415
29350
29515
29774
29919
30182
30373
30552
30690
30654
30849
30828
30821
30996
30935
30942
30869
30875
30862
30794
30995
30952
31292
31329
31539
31606
31704
31726
31764
31804
31772
31796
31686
31572
31687
31448
31391
31349
31311
31204
31404
31399
31471
31719
31769
31983
31967
32037
32068
31981
32103
31988
32100
31967
31871
31911
31638
31568
31695
31604
31766
31746
31890
32111
32127
32279
32260
32372
32422
32286
32475
32271
32243
32117
32076
32015
31879
31903
31797
31836
31821
31919
32166
32151
32424
32406
32579
32547
32567
32469
32492
32511
32288
32459
32263
32306
32134
32092
31968
31968
32105
32092
32207
32263
32629
32590
32758
32742
32751
32695
32599
32775
32587
32644
32454
32410
32443
32132
32304
32196
32391
32372
32617
32635
32900
32775
32883
32997
32972
33036
33094
32885
32910
32718
32726
32640
32492
32644
32508
32617
32587
32714
32775
32951
33055
33188
33210
33303
33338
33342
33220
33287
33203
33188
33078
32911
33098
32871
32975
32867
33039
33015
33223
33273
33385
33700
33593
33871
33762
33911
33742
33884
33702
33836
33650
33710
33459
33556
33301
33398
33439
33549
33706
33831
34034
34119
34321
34214
34361
34311
34311
34164
34175
34198
34022
34044
33863
33842
33765
33817
33756
33933
34030
34230
34295
34356
34639
34430
34644
34422
34652
34311
34389
34148
34293
34053
34085
33817
33895
33562
33740
33629
33718
33749
33831
33893
33890
33888
33747
33631
33746
33517
33404
33162
32966
32991
32711
32570
32345
32222
32346
32282
32321
32239
32327
32500
32372
32446
32279
32271
32305
32015
32096
31855
31823
31680
31542
31484
31402
31349
31398
31407
31380
31543
31463
31619
31484
31621
31495
31619
31572
31459
31407
31340
31465
31331
31390
31253
31261
31310
31178
31343
31273
31447
31373
31463
31386
31467
31430
31455
31405
31476
31451
31437
31450
31301
31477
31346
31490
31373
31506
31431
31533
31457
31640
31521
31682
31513
31703
31633
31652
31583
31645
31646
31665
31676
31556
31682
31559
31718
31532
31710
31596
31820
31798
31827
31955
31786
31906
31785
31836
31837
31835
31724
31798
31732
31718
31847
31787
31846
31831
31887
31836
31839
32061
31940
32072
31982
32010
31977
31915
32119
31966
31999
31895
31844
31885
31839
32055
31926
31935
31862
31879
32127
32076
32118
32020
31972
32138
32002
32076
32022
32030
32111
31978
32039
31916
31927
31999
32002
32030
32025
31925
32134
32135
32140
32092
32070
32279
32122
32103
32171
32071
32132
32073
32042
32159
32079
32049
32204
32093
32165
32151
32221
32247
32186
32359
32262
32330
32358
32334
32236
32145
32345
32223
32352
32231
32381
32246
32319
32233
32255
32349
32304
32466
32380
32442
32378
32365
32511
32388
32465
32334
32366
32351
32356
32310
32391
32277
32427
32324
32492
32482
32473
32450
32358
32565
32476
32604
32471
32589
32455
32495
32377
32295
32510
32362
32468
32385
32391
32356
32325
32540
32447
32523
32625
32476
32516
32670
32551
32677
32549
32563
32512
32518
32551
32423
32535
32391
32570
32350
32574
32445
32493
32660
32556
32684
32621
32665
32676
32639
32659
32514
32569
32585
32581
32454
32502
32434
32460
32542
32439
32647
32631
32666
32629
32655
32798
32669
32695
32646
32658
32571
32559
32532
32530
32663
32420
32579
32422
32426
32647
32569
32622
32774
32648
32724
32605
32537
32785
32679
32799
32817
32805
32765
32823
32954
32821
32853
33054
33003
33109
33109
33088
33415
33306
33452
33388
33418
33373
33367
33460
33285
33287
33167
33108
33338
33239
33191
33269
33167
33277
33184
33226
33342
33237
33204
33191
33169
33053
33067
33148
32971
32999
32869
32852
32775
32711
32839
32655
32676
32684
32549
32758
32679
32719
32607
32602
32735
32599
32615
32661
32482
32543
32425
32353
32362
32241
32455
32371
32406
32385
32398
32550
32471
32576
32527
32513
32586
32471
32561
32518
32434
32511
32373
32301
32409
32327
32316
32413
32329
32365
32494
32413
32519
32506
32488
32601
32558
32532
32439
32454
32572
32415
32491
32412
32277
32436
32303
32351
32310
32327
32598
32511
32548
32484
32583
32543
32526
32604
32518
32639
32538
32529
32426
32494
32486
32396
32386
32366
32449
32273
32278
32068
32020
31799
31711
31602
31535
31553
31481
31469
31398
31412
31695
31735
32085
32191
32571
32763
33349
33926
34676
35471
36316
37344
38166
38939
39652
40100
40974
41309
42319
42421
43313
43415
43871
43453
43426
42503
41821
40398
39359
38020
36864
35471
34354
33146
32159
31631
31066
30740
30583
30317
30176
30020
29781
29671
29466
29428
29415
29482
29612
29782
30040
30118
30438
30559
30663
30846
30876
30991
30976
31094
31252
31321
31340
31374
31423
31474
31502
31495
31557
31815
31783
31960
31875
31990
31977
31981
31915
31915
31999
31879
32020
31909
32026
31926
31942
31855
31969
31994
32037
32040
32057
32263
32135
32314
32108
32334
32162
32234
32175
32215
32167
32118
31996
32034
32141
32066
32234
32114
32299
32223
32327
32285
32327
32490
32366
32449
32365
32362
32292
32202
32375
32210
32202
32367
32292
32260
32327
32247
32340
32391
32367
32482
32409
32366
32581
32468
32460
32383
32389
32421
32513
32377
32436
32324
32330
32490
32434
32418
32420
32564
32699
32587
32604
32747
32548
32803
32684
32708
32667
32608
32767
32610
32628
32623
32548
32638
32607
32594
32839
32751
32868
32839
32858
33046
32922
33039
32983
32975
32871
32845
33006
32883
32966
32856
32794
33030
32964
32970
33178
33103
33228
33169
33213
33317
33331
33319
33239
33167
33413
33287
33304
33240
33156
33398
33348
33287
33503
33452
33607
33629
33551
33799
33745
33919
33841
33730
33917
33867
33781
34039
33903
33948
33879
33799
34018
33914
34110
34016
34122
34191
34195
34376
34249
34332
34423
34308
34370
34273
34165
34437
34292
34288
34196
34114
34351
34166
34215
34312
34428
34326
34399
34388
34343
34442
34219
34420
34229
34237
34151
33982
34148
33908
33927
33766
33748
33796
33652
33586
33708
33495
33473
33483
33542
33327
33261
33086
32931
33031
32840
32660
32711
32535
32470
32323
32244
32370
32159
32236
32097
32074
32007
31996
32039
31911
31962
31879
31846
31797
31669
31572
31495
31604
31378
31434
31309
31367
31352
31292
31390
31460
31378
31436
31455
31435
31348
31268
31454
31317
31331
31263
31257
31316
31223
31139
31342
31238
31228
31281
31174
31349
31287
31438
31402
31407
31311
31319
31460
31338
31442
31349
31337
31313
31298
31212
31177
31366
31300
31392
31319
31372
31562
31450
31529
31485
31471
31588
31367
31534
31415
31388
31349
31215
31343
31270
31293
31397
31359
31503
31470
31530
31564
31573
31564
31502
31710
31556
31636
31533
31549
31492
31455
31510
31383
31516
31412
31461
31399
31519
31613
31583
31761
31717
31788
31702
31654
31846
31751
31751
31759
31679
31751
31634
31657
31684
31591
31796
31700
31870
31854
31893
31892
31909
31974
31965
31943
32069
31956
32042
31982
31977
31846
31793
31967
31871
31886
31806
31927
32071
32026
31968
32169
32063
32132
32180
32071
32137
32050
32070
32154
32036
32026
32076
31986
31974
31986
32078
32038
32021
32175
32098
32260
32245
32295
32239
32263
32244
32253
32157
32142
32287
32129
32209
32150
32144
32066
32031
32164
32042
32142
32116
32277
32415
32254
32297
32365
32308
32254
32482
32286
32342
32190
32204
32185
32111
32336
32197
32247
32388
32283
32470
32406
32460
32508
32454
32564
32418
32447
32346
32279
32307
32284
32374
32290
32284
32207
32204
32316
32217
32411
32285
32534
32487
32508
32423
32383
32605
32455
32490
32367
32297
32452
32314
32318
32217
32165
32387
32310
32351
32324
32303
32535
32508
32372
32601
32429
32538
32436
32518
32359
32474
32320
32423
32260
32391
32263
32352
32309
32372
32364
32391
32519
32455
32655
32516
32548
32448
32509
32529
32417
32589
32416
32486
32367
32313
32435
32313
32470
32468
32519
32647
32618
32837
32775
32951
32906
32975
33029
32991
33154
33071
33115
33039
33076
33180
33020
33240
33104
33256
33180
33132
33324
33119
33369
33271
33316
33374
33255
33340
33198
33109
33287
33126
33057
32989
32935
32994
32879
32919
33007
33012
32977
32934
33120
33008
33000
32954
32807
32767
32686
32604
32622
32477
32463
32492
32451
32359
32465
32367
32454
32468
32473
32601
32484
32623
32446
32540
32398
32495
32391
32388
32285
32228
32383
32135
32362
32215
32369
32255
32401
32375
32415
32370
32460
32381
32417
32519
32420
32417
32323
32247
32423
32315
32300
32212
32214
32351
32222
32388
32316
32420
32499
32516
32478
32518
32519
32529
32457
32482
32404
32343
32532
32358
32423
32346
32364
32297
32417
32411
32450
32519
32583
32727
32647
32652
32686
32582
32556
32462
32226
32194
31951
31878
31713
31511
31591
31438
31476
31463
31566
31623
31758
32129
32250
32615
32845
33228
33631
34206
34803
35449
36550
37242
38240
38772
39566
40092
40743
41329
41927
42571
43012
43599
43488
43924
43408
43031
42319
41161
40136
38772
37604
36034
34724
33534
32486
31557
30876
30669
30327
30192
29978
29863
29762
29516
29487
29319
29471
29433
29585
29670
29822
29976
30002
30269
30361
30473
30727
30703
31013
31097
31335
31299
31471
31458
31526
31574
31605
31551
31644
31676
31548
31739
31618
31702
31668
31663
31637
31647
31879
31858
31868
31850
31862
32116
32036
32143
31986
32028
31986
31988
31912
31854
32051
31908
32006
31944
31990
32027
32071
32199
32118
32087
32310
32294
32205
32378
32238
32250
32231
32167
32263
32089
32044
32242
32102
32180
32124
32209
32379
32356
32335
32471
32401
32399
32458
32391
32380
32423
32450
32356
32341
32388
32303
32248
32339
32218
32458
32334
32507
32451
32548
32555
32476
32689
32561
32606
32599
32578
32607
32631
32493
32542
32423
32492
32557
32473
32447
32633
32554
32641
32788
32734
32764
32738
32753
32884
32831
32770
32903
32735
32784
32740
32730
32654
32620
32862
32788
32855
32796
32845
33070
33021
33031
33194
33062
33132
33148
33093
33147
33043
33070
33149
33103
33085
33084
32988
33278
33145
33275
33222
33300
33503
33415
33479
33447
33474
33574
33468
33550
33436
33437
33629
33518
33552
33639
33551
33691
33668
33791
33782
33855
33895
33865
34127
33994
34076
34076
34039
34031
33932
34180
34050
34103
34033
34094
34087
34122
34222
34234
34418
34326
34220
34526
34375
34460
34388
34366
34359
34252
34516
34324
34340
34308
34343
34263
34308
34223
34287
34290
34300
34271
34239
34344
34198
34232
34072
34036
33882
33783
33653
33664
33536
33456
33301
33275
33206
33146
33062
33004
32980
32911
32841
32735
32807
32627
32684
32500
32460
32357
32354
32180
32050
32131
31935
32025
31869
31894
31867
31918
31832
31735
31914
31769
31893
31710
31776
31594
31687
31519
31548
31503
31479
31367
31320
31495
31359
31461
31367
31423
31356
31358
31519
31375
31610
31519
31532
31426
31418
31410
31526
31376
31468
31343
31399
31381
31298
31436
31402
31464
31530
31567
31487
31557
31598
31527
31623
31560
31541
31676
31507
31566
31508
31519
31520
31508
31441
31427
31627
31474
31713
31618
31781
31679
31781
31764
31852
31796
31793
31739
31759
31738
31618
31639
31580
31796
31622
31814
31717
31901
31861
31918
31892
31911
31974
31905
32019
31890
31996
31886
31892
31861
31878
31868
31853
31772
31800
31908
31783
31956
31869
32138
31983
32143
32031
32141
32047
32068
31991
31942
32050
31863
31998
31908
31999
31904
31972
31951
31930
32167
32060
32061
32157
32259
32132
32203
32167
32194
32257
32198
32066
32209
32068
32177
32077
32081
31993
31967
32207
32101
32247
32198
32221
32432
32287
32332
32263
32228
32398
32263
32378
32180
32382
32202
32263
32165
32212
32308
32281
32354
32300
32416
32415
32422
32519
32431
32490
32487
32437
32319
32237
32498
32326
32364
32251
32231
32415
32332
32287
32507
32437
32636
32536
32612
32564
32587
32493
32423
32583
32463
32478
32383
32326
32370
32285
32503
32428
32428
32390
32478
32503
32553
32500
32467
32687
32588
32527
32524
32480
32662
32456
32565
32430
32450
32353
32263
32387
32311
32503
32426
32529
32466
32450
32647
32588
32589
32478
32551
32540
32579
32487
32508
32476
32420
32338
32326
32359
32429
32422
32550
32542
32630
32571
32676
32585
32745
32588
32738
32556
32664
32462
32607
32419
32612
32452
32547
32474
32558
32454
32415
32679
32573
32775
32660
32834
32681
32775
32641
32788
32519
32558
32512
32711
32519
32652
32545
32693
32584
32775
32677
32796
32703
32830
32721
32844
32711
32801
32725
32749
32685
32658
32548
32582
32592
32508
32711
32567
32748
32676
32920
32892
33042
33063
33044
33109
33192
33243
33287
33231
33282
33238
33242
33213
33191
33165
33190
33127
33172
33220
33230
33399
33310
33370
33506
33318
33441
33311
33323
33190
33074
33241
33047
33128
32996
32923
32942
32859
32999
32886
32952
32935
32945
32892
32775
32951
32751
32839
32668
32702
32575
32549
32615
32423
32513
32409
32415
32340
32301
32492
32295
32565
32420
32550
32511
32535
32463
32404
32624
32516
32542
32569
32449
32383
32399
32452
32263
32502
32358
32512
32436
32519
32516
32445
32551
32503
32714
32556
32672
32510
32621
32476
32575
32455
32445
32414
32396
32361
32408
32455
32481
32677
32591
32658
32622
32614
32578
32615
32743
32668
32629
32554
32486
32670
32495
32614
32503
32567
32538
32535
32607
32620
32794
32697
32741
32614
32449
32502
32230
32182
31852
31831
31567
31525
31395
31432
31351
31408
31432
31578
31706
31958
32185
32502
32978
33319
34028
34604
35492
36337
37312
38123
38919
39655
40282
41118
41580
42335
42928
43284
44014
44227
44503
44140
43750
43151
41764
41010
39431
38444
36660
35632
34254
33286
32277
31575
31184
30711
30593
30278
30162
29907
29732
29575
29536
29572
29679
29768
29916
30023
30076
30343
30321
30482
30572
30671
30761
30866
31121
31049
31286
31247
31380
31452
31511
31481
31510
31652
31552
31743
31647
31781
31719
31716
31647
31583
31777
31686
31735
31666
31687
31947
31901
32007
31938
31977
32116
32037
32038
31960
31939
32109
31964
32038
31878
31830
32030
31961
31950
31902
31990
32121
32140
32279
32193
32311
32183
32356
32109
32250
32132
32292
32079
32226
32015
32045
32040
32135
32073
32216
32128
32360
32206
32327
32290
32485
32331
32367
32368
32463
32308
32454
32283
32273
32313
32263
32293
32279
32406
32371
32540
32420
32591
32527
32705
32467
32698
32573
32750
32589
32657
32446
32607
32466
32647
32541
32690
32466
32555
32637
32716
32753
32791
32772
32741
33014
32863
33005
32855
32885
32775
32696
32933
32781
32918
32751
32794
32726
32737
32904
32911
33087
32966
33031
33118
33072
33186
33072
33182
33139
33236
33125
33245
33078
33207
33047
33195
33142
33226
33183
33246
33324
33322
33394
33380
33650
33494
33638
33536
33677
33607
33603
33535
33462
33732
33585
33716
33649
33730
33764
33873
33817
33946
33949
33918
34041
34102
34273
34110
34140
34258
34000
34082
34189
34120
34266
34103
34095
34196
34181
34378
34153
34340
34248
34381
34447
34470
34570
34428
34551
34221
34334
34364
34324
34413
34223
34343
34056
34115
34223
34159
34295
34039
34262
34000
34054
34010
33940
34012
33777
33753
33527
33579
33301
33310
32969
32970
33004
32852
32880
32839
32750
32852
32590
32611
32631
32483
32527
32313
32308
32199
32098
32113
31909
31810
31697
31615
31621
31672
31611
31646
31634
31588
31724
31623
31747
31489
31654
31510
31505
31436
31447
31455
31269
31250
31295
31339
31356
31185
31285
31260
31329
31450
31387
31523
31415
31446
31449
31439
31337
31295
31482
31321
31355
31202
31236
31302
31262
31272
31254
31330
31463
31368
31576
31477
31548
31651
31548
31621
31524
31503
31527
31396
31348
31532
31399
31429
31374
31431
31556
31454
31564
31613
31572
31812
31699
31787
31676
31716
31684
31632
31787
31558
31605
31558
31695
31528
31639
31591
31647
31708
31626
31854
31770
31915
31855
31855
31823
31835
31990
31814
31873
31786
31845
31751
31751
31655
31635
31815
31733
31884
31841
31909
32082
31951
32103
32051
32014
32082
31924
32052
31866
31925
31809
31804
31842
31767
31991
31910
31975
31941
31950
32172
32059
32199
32107
32159
32166
32090
32135
32036
32007
32127
31942
32089
31946
31932
31935
31876
32044
32010
32141
32152
32134
32204
32140
32374
32245
32339
32194
32306
32180
32141
32035
32066
32179
32048
32066
32036
32059
32128
32129
32388
32263
32406
32356
32359
32311
32350
32302
32191
32263
32175
32301
32132
32241
32012
32196
32052
32324
32244
32426
32359
32466
32370
32442
32407
32372
32427
32292
32471
32314
32431
32190
32366
32225
32276
32167
32238
32220
32181
32447
32372
32491
32478
32505
32457
32500
32500
32476
32396
32374
32313
32226
32297
32123
32374
32210
32295
32188
32428
32278
32528
32439
32607
32439
32583
32442
32527
32463
32452
32340
32356
32435
32303
32148
32254
32196
32250
32461
32349
32555
32450
32625
32490
32620
32548
32598
32563
32459
32626
32487
32487
32490
32391
32479
32368
32420
32423
32559
32484
32442
32683
32574
32743
32629
32766
32543
32751
32594
32732
32612
32614
32500
32399
32498
32557
32424
32508
32455
32526
32668
32582
32691
32652
32666
32711
32601
32831
32686
32783
32662
32636
32519
32492
32624
32531
32420
32623
32526
32644
32593
32662
32806
32727
32719
32847
32660
32847
32575
32746
32615
32748
32484
32647
32492
32622
32511
32589
32586
32660
32650
32636
32910
32757
32900
32793
32807
32740
32761
32705
32612
32777
32611
32636
32545
32575
32510
32497
32585
32618
32795
32727
32700
32696
32759
32926
32799
32813
32717
32724
32660
32676
32514
32566
32611
32513
32630
32534
32615
32593
32638
32655
32647
32895
32739
32866
32703
32755
32660
32711
32643
32708
32611
32719
32546
32635
32381
32607
32481
32684
32586
32775
32693
32771
32764
32812
32759
32747
32711
32695
32650
32588
32676
32742
32649
32749
32775
32878
32865
32994
33051
33172
33236
33306
33489
33439
33476
33464
33475
33591
33436
33415
33262
33111
33286
33119
33142
33266
33110
33159
33287
33209
33442
33322
33460
33304
33287
33207
33062
33243
33101
33058
32949
32906
33022
32906
32871
32794
32841
32991
32890
32956
32843
32891
32902
32775
32857
32700
32751
32663
32625
32551
32449
32642
32422
32498
32342
32369
32479
32382
32535
32447
32487
32704
32597
32670
32604
32647
32597
32592
32476
32398
32563
32369
32414
32327
32388
32385
32431
32425
32473
32534
32558
32706
32607
32706
32638
32659
32550
32533
32583
32391
32590
32405
32524
32373
32497
32415
32498
32459
32491
32542
32663
32739
32685
32756
32699
32686
32763
32677
32657
32542
32567
32700
32581
32540
32579
32517
32626
32529
32453
32623
32431
32336
32117
31932
31871
31670
31652
31441
31444
31470
31348
31316
31557
31490
31748
31847
32234
32492
33132
33702
34486
35382
36298
37420
38326
39009
40004
40502
41615
42076
42862
43244
43936
44368
44829
45050
44822
44652
43709
43215
41902
40810
39313
37980
36551
35142
34280
33138
32502
31880
31613
31162
30960
30502
30320
29956
29928
29733
29879
29873
30166
30191
30401
30471
30605
30590
30642
30871
30815
30985
30931
31008
30959
31044
31053
31135
31112
31183
31399
31367
31527
31450
31551
31534
31537
31689
31551
31589
31482
31438
31518
31388
31550
31456
31468
31435
31511
31670
31677
31750
31714
31742
31848
31758
31930
31803
31852
31792
31739
31748
31831
31722
31741
31654
31637
31838
31781
31796
32021
31962
32071
32033
32013
32216
32108
32026
32155
32039
32113
32038
32022
31943
31946
31921
32028
32028
32111
32146
32095
32292
32287
32421
32346
32422
32351
32407
32358
32311
32357
32238
32148
32340
32180
32234
32159
32294
32191
32357
32308
32391
32396
32545
32660
32577
32554
32449
32657
32511
32532
32487
32476
32353
32383
32310
32333
32396
32373
32663
32490
32653
32622
32745
32724
32758
32684
32749
32697
32694
32620
32588
32828
32663
32748
32591
32762
32666
32782
32753
32810
32942
32897
32965
32967
33132
33093
33204
33078
33108
33089
33023
33007
32903
33134
32974
33093
33028
33092
33254
33287
33407
33383
33473
33655
33575
33610
33576
33570
33488
33686
33532
33602
33471
33523
33508
33509
33523
33537
33828
33740
33946
33876
33871
34094
34009
34005
33998
34012
34061
34127
33926
33954
33989
34088
33908
33959
33970
34055
34095
34103
34279
34212
34172
34439
34248
34428
34287
34374
34231
34142
34371
34171
34223
34081
34093
34046
34062
33977
33940
34086
33887
34154
33982
34062
33914
33943
33746
33732
33570
33584
33348
33373
33153
33094
32913
32789
32903
32662
32839
32654
32783
32668
32639
32560
32511
32388
32324
32206
32046
32183
31950
32007
31812
31796
31720
31687
31743
31615
31680
31650
31654
31724
31597
31758
31621
31684
31577
31566
31454
31401
31337
31294
31405
31236
31327
31236
31351
31236
31392
31365
31492
31405
31549
31510
31520
31487
31484
31406
31407
31346
31295
31250
31248
31199
31255
31257
31271
31383
31380
31462
31462
31511
31692
31540
31710
31588
31711
31623
31583
31551
31481
31521
31476
31387
31433
31391
31375
31420
31389
31524
31624
31599
31708
31678
31631
31812
31690
31731
31652
31679
31596
31552
31662
31477
31689
31584
31760
31674
31788
31740
31743
32024
31934
32085
31966
32056
31991
31999
31852
31814
31976
31852
31854
31746
31649
31851
31788
31869
31801
31870
32073
31985
32077
32026
31996
32169
32001
32089
31988
32007
31982
31941
32007
31844
31847
31763
31820
31915
31882
32002
32115
32198
32088
32231
32164
32167
32282
32121
32154
32034
31940
32106
31976
31942
32044
31924
31961
32065
32055
32177
32193
32198
32292
32290
32180
32337
32232
32165
32309
32173
32210
32125
32116
32087
31978
32180
32083
32175
32103
32203
32366
32263
32252
32479
32395
32454
32412
32411
32350
32308
32213
32223
32193
32081
32239
32103
32223
32202
32258
32263
32292
32524
32432
32603
32501
32503
32447
32436
32516
32364
32359
32271
32190
32346
32191
32292
32255
32306
32266
32263
32548
32487
32502
32492
32513
32574
32622
32503
32533
32366
32365
32408
32282
32314
32207
32175
32382
32310
32354
32471
32644
32551
32636
32718
32596
32604
32714
32550
32555
32461
32422
32309
32411
32389
32430
32310
32324
32375
32452
32422
32572
32558
32541
32775
32663
32655
32751
32556
32559
32628
32516
32428
32459
32340
32358
32377
32319
32492
32431
32554
32611
32656
32631
32671
32718
32696
32563
32727
32583
32553
32655
32484
32575
32409
32444
32362
32335
32583
32488
32618
32580
32580
32662
32665
32914
32804
32772
32693
32620
32638
32534
32545
32479
32471
32398
32463
32436
32461
32599
32580
32759
32682
32817
32762
32807
32752
32798
32673
32716
32646
32500
32596
32487
32598
32455
32534
32445
32526
32532
32623
32591
32576
32812
32662
32805
32672
32748
32613
32762
32631
32617
32492
32405
32559
32455
32489
32510
32591
32715
32751
32972
32958
33115
33154
33237
33199
33264
33389
33302
33308
33299
33158
33356
33168
33108
33298
33122
33311
33250
33371
33333
33332
33619
33455
33606
33434
33366
33490
33279
33255
33130
33095
33045
32900
33030
32894
32890
32845
33015
33127
33159
32990
33046
32924
32994
33020
32993
32756
32702
32550
32588
32665
32471
32527
32426
32415
32375
32352
32615
32524
32590
32727
32637
32756
32677
32677
32722
32590
32656
32506
32414
32564
32391
32405
32287
32231
32487
32343
32530
32479
32599
32598
32566
32614
32655
32751
32648
32607
32543
32482
32606
32423
32447
32307
32280
32459
32381
32436
32446
32481
32795
32705
32839
32715
32742
32895
32735
32647
32798
32630
32701
32604
32494
32415
32412
32550
32503
32558
32543
32565
32839
32775
32823
32730
32648
32458
32202
32166
31854
31613
31671
31471
31415
31269
31192
31413
31451
31649
31823
32060
32569
32726
33127
33626
34184
35180
35847
36909
37631
38521
39170
39719
40439
40788
41799
42167
42849
43336
43792
44215
43918
43911
43156
42212
41310
39863
38569
37099
35572
34626
33420
32462
31772
31263
30855
30673
30577
30425
30263
30015
29934
29887
29871
29773
29884
29890
30022
30240
30257
30419
30425
30538
30626
30575
30788
30741
30851
30896
31039
31270
31292
31414
31500
31468
31674
31558
31758
31595
31703
31609
31665
31587
31568
31514
31591
31508
31633
31592
31710
31782
31847
31822
31952
31999
32057
31985
32029
31938
31893
32028
31917
31907
31778
31751
31694
31713
31796
31788
31843
32124
32052
32188
32146
32143
32175
32167
32367
32215
32238
32138
32135
32069
32040
31947
31946
32015
31946
32015
32047
32310
32248
32478
32374
32503
32334
32387
32439
32508
32385
32391
32218
32292
32127
32292
32133
32227
32178
32278
32292
32405
32428
32545
32556
32572
32738
32601
32672
32606
32596
32513
32549
32415
32423
32326
32350
32310
32393
32431
32488
32503
32655
32647
32663
32938
32816
32967
32815
32947
32800
32812
32695
32690
32614
32550
32754
32598
32719
32652
32805
32863
32902
33158
33060
33158
33111
33118
33180
33042
33244
33090
32948
33060
33130
32963
32988
33031
33079
33148
33375
33314
33455
33504
33583
33719
33583
33636
33575
33549
33551
33588
33687
33561
33515
33542
33462
33559
33478
33572
33682
33673
34056
34004
34111
34026
34125
34116
33989
34239
34079
34095
34029
33975
33972
33924
34088
33925
34095
34038
34161
34188
34230
34240
34346
34524
34351
34520
34383
34436
34374
34348
34242
34221
34079
34041
34003
33985
34036
33902
34117
34119
34255
34215
34253
34161
34092
34044
33857
33894
33654
33671
33402
33497
33208
33204
33046
32956
32815
32807
32946
32836
32844
32770
32774
32822
32655
32536
32647
32417
32431
32226
32102
32159
31909
31835
31794
31667
31751
31639
31782
31726
31808
31751
31759
31687
31614
31772
31627
31695
31509
31519
31303
31259
31239
31110
31164
31056
31035
31135
31143
31326
31321
31398
31444
31431
31526
31448
31558
31312
31317
31367
31287
31284
31178
31220
31017
31152
31169
31178
31314
31287
31492
31431
31644
31647
31653
31679
31623
31650
31516
31616
31382
31374
31394
31318
31228
31229
31238
31405
31388
31468
31631
31735
31815
31804
31872
31844
31847
31785
31887
31703
31780
31580
31613
31415
31491
31344
31466
31510
31521
31711
31772
31868
31840
31879
31864
31903
31831
31842
31858
31765
31708
31710
31691
31711
31550
31675
31469
31563
31706
31743
31888
31898
32021
32063
32116
32036
32116
31999
32063
31916
31944
31823
31751
31746
31718
31740
31687
31660
31871
31847
31916
32027
32020
32110
32081
32122
32098
32151
32034
32093
31972
31927
31906
31852
31844
31790
31925
31844
32065
31941
32052
32175
32221
32362
32164
32183
32209
32148
32174
32032
32045
31981
31975
31847
31975
31846
31866
31955
32039
32187
32167
32382
32284
32442
32254
32478
32271
32288
32316
32245
32171
32120
32005
31929
31912
32012
32053
32078
32074
32113
32114
32223
32289
32244
32312
32274
32431
32409
32388
32301
32245
32215
32156
32007
32018
32007
32035
32087
32182
32213
32300
32500
32574
32594
32572
32447
32421
32354
32502
32439
32339
32237
32202
32193
32250
32044
32019
32285
32197
32415
32364
32551
32476
32548
32431
32468
32520
32416
32360
32317
32177
32223
32095
32208
31966
32180
32079
32172
32146
32314
32487
32434
32471
32423
32358
32596
32450
32479
32365
32364
32223
32133
32273
32092
32190
32085
32127
32122
32119
32404
32321
32534
32458
32629
32486
32571
32428
32449
32325
32361
32281
32306
32239
32222
32279
32262
32540
32505
32641
32644
32819
32994
33026
33252
33143
33252
33176
33134
33319
33124
33166
33029
32881
33004
32839
32937
32905
32955
32981
33055
33078
33310
33197
33243
33169
33147
33221
33054
33028
32853
32710
32775
32631
32686
32510
32477
32431
32461
32442
32455
32679
32596
32584
32769
32621
32620
32540
32450
32559
32349
32233
32299
32135
32090
32153
31998
32025
32172
32127
32334
32259
32417
32388
32380
32598
32477
32487
32405
32341
32509
32322
32284
32167
32022
32196
32090
32233
32159
32206
32217
32304
32501
32483
32452
32661
32531
32552
32418
32347
32460
32326
32307
32169
32132
32212
32106
32143
32296
32261
32369
32334
32567
32560
32501
32722
32631
32653
32567
32461
32614
32441
32314
32455
32300
32304
32229
32234
32412
32314
32452
32263
32335
32078
32078
31778
31786
31574
31599
31495
31411
31431
31281
31475
31420
31688
31805
32124
32431
32887
33397
34020
35052
35786
36711
37567
38452
39295
39823
40199
41176
41610
42341
42623
43133
43642
43681
43781
43511
42918
42154
40820
40123
38639
37450
35870
34718
33447
32494
31644
31114
30652
30377
30236
29876
29637
29380
29281
29183
29164
29361
29405
29700
29832
30066
30295
30284
30362
30647
30638
30745
30836
30774
30928
30879
30951
30983
31055
31031
31153
31416
31445
31605
31584
31596
31802
31735
31716
31820
31670
31705
31687
31548
31590
31484
31557
31527
31588
31643
31652
31869
31857
31973
31974
32039
31990
32056
31962
31975
32003
31908
31918
31927
31782
31814
31783
31756
31751
31733
31984
31956
32163
32144
32272
32252
32295
32428
32290
32327
32286
32236
32323
32162
32139
32166
32074
32068
32077
32166
32255
32361
32476
32566
32485
32551
32548
32474
32583
32606
32614
32615
32538
32330
32375
32290
32207
32337
32271
32263
32556
32532
32527
32769
32703
32807
32903
32851
32934
32775
32805
32753
32824
32572
32508
32484
32508
32575
32644
32700
32775
32711
32815
33021
32943
33007
32949
33021
33146
32995
32948
32859
32786
32997
32810
32769
32863
32740
32667
32924
32924
32995
33159
33151
33148
33420
33287
33410
33268
33340
33224
33198
33159
33100
33070
32974
33178
33047
33144
33165
33236
33399
33447
33594
33834
33766
33647
33871
33756
33672
33867
33681
33588
33756
33542
33465
33689
33548
33658
33647
33786
33833
33923
34120
34107
34186
34246
34311
34172
34300
34119
34037
34243
34073
33863
34002
33861
33898
34028
33966
34071
34324
34296
34334
34498
34268
34421
34396
34539
34311
34378
34190
34165
33989
33895
33972
33758
33806
33709
33717
33679
33727
33838
33732
33680
33892
33646
33600
33529
33367
33415
33138
33025
32858
32689
32729
32503
32346
32490
32317
32263
32421
32313
32333
32407
32311
32289
32151
32042
32186
31997
31913
31816
31674
31634
31652
31431
31473
31373
31430
31583
31567
31638
31614
31674
31769
31663
31750
31636
31612
31567
31502
31367
31398
31267
31271
31158
31207
31340
31263
31436
31389
31592
31564
31689
31637
31713
31692
31685
31567
31513
31651
31390
31519
31319
31381
31303
31268
31239
31324
31551
31494
31633
31611
31612
31719
31653
31790
31654
31639
31702
31534
31527
31396
31311
31418
31286
31382
31284
31324
31534
31509
31654
31634
31718
31815
31797
31694
31855
31719
31699
31590
31487
31569
31407
31388
31446
31311
31382
31502
31509
31574
31818
31820
31812
31991
31930
31968
32034
31879
31908
31804
31727
31886
31692
31743
31607
31595
31758
31715
31876
31892
31996
32031
32095
32239
32135
32173
32292
32212
32163
32095
32045
32068
31951
31871
31944
31814
31751
31962
31973
32024
32285
32263
32239
32465
32393
32431
32352
32325
32332
32421
32268
32156
32199
32022
32023
32078
31972
32083
32096
32188
32413
32388
32516
32494
32416
32589
32400
32383
32497
32323
32281
32313
32139
32021
32164
32038
32021
32277
32250
32245
32473
32436
32499
32542
32516
32595
32490
32410
32558
32431
32305
32436
32239
32169
32279
32150
32025
32236
32207
32310
32531
32502
32658
32541
32634
32761
32580
32673
32517
32535
32488
32457
32335
32297
32362
32292
32404
32311
32331
32557
32581
32792
32701
32865
32807
32802
32687
32642
32794
32604
32644
32475
32342
32452
32308
32273
32426
32353
32427
32501
32562
32696
32678
32629
32794
32696
32575
32747
32586
32647
32564
32490
32665
32564
32585
32698
32660
32812
32879
32932
33263
33279
33352
33358
33420
33543
33386
33428
33301
33172
33158
32993
33152
32935
33019
32927
32988
32959
33063
33100
33183
33345
33243
33303
33217
33100
33271
33070
33066
32902
32785
32911
32677
32647
32564
32562
32500
32516
32467
32535
32727
32659
32628
32821
32678
32724
32606
32552
32559
32423
32396
32351
32389
32159
32072
32295
32242
32219
32426
32350
32455
32628
32606
32623
32767
32631
32673
32567
32455
32638
32434
32479
32318
32247
32321
32188
32263
32376
32396
32460
32614
32588
32671
32695
32685
32671
32597
32796
32539
32692
32506
32574
32428
32409
32391
32304
32423
32417
32484
32515
32575
32767
32728
32839
32710
32684
32917
32742
32817
32654
32644
32516
32422
32590
32390
32448
32330
32279
32148
32143
32110
31949
31914
31847
31759
31852
31724
31688
31610
31607
31854
31879
32101
32214
32449
32989
33357
34095
34756
35708
36577
37591
38439
38998
40093
40566
41185
41769
42023
42940
43160
43614
43829
43599
43537
42814
42261
41085
40212
38823
37663
36236
34984
33742
32765
31839
31198
30878
30416
30276
29908
29711
29484
29271
29104
29129
29074
29258
29590
29703
30052
30170
30438
30523
30738
30766
31028
31031
31189
31196
31257
31192
31173
31301
31198
31314
31328
31486
31513
31711
31612
31722
31839
31892
31932
31906
31980
31959
31926
31851
31890
31770
31773
31679
31714
31684
31722
31698
31847
31863
32036
32052
32119
32223
32114
32332
32190
32236
32103
32020
32186
32039
32017
31910
31904
32016
31967
32039
32103
32188
32179
32319
32284
32385
32348
32442
32436
32428
32355
32355
32381
32192
32252
32119
32141
32084
32109
32099
32284
32340
32420
32452
32573
32548
32625
32570
32623
32535
32529
32447
32352
32505
32244
32452
32312
32424
32401
32453
32419
32561
32591
32644
32820
32774
32925
32756
32861
32775
32789
32762
32774
32621
32533
32548
32484
32514
32517
32655
32637
32805
32815
32910
33058
33012
33161
33080
33079
33066
32966
33096
32966
32918
32786
32739
32831
32775
32824
32813
32902
33150
33132
33268
33223
33351
33332
33370
33343
33231
33470
33263
33411
33212
33347
33060
33308
33199
33341
33309
33535
33475
33734
33685
33903
33791
34013
33899
33983
33903
33881
34024
33743
33842
33820
33751
33806
33772
33847
33840
33987
33982
34166
34233
34305
34251
34372
34379
34476
34358
34480
34303
34420
34218
34221
34069
34136
34311
34196
34394
34166
34408
34302
34446
34588
34536
34667
34492
34589
34433
34437
34217
34252
34026
33988
33846
33649
33729
33813
33603
33718
33574
33606
33537
33591
33438
33374
33393
33204
33239
32983
32914
32729
32607
32448
32337
32222
32167
32180
32047
32236
32114
32251
32158
32278
32124
32220
32017
32100
31862
31813
31825
31665
31620
31487
31476
31364
31413
31378
31455
31471
31540
31530
31663
31654
31700
31663
31666
31573
31582
31526
31431
31439
31343
31268
31212
31199
31177
31134
31263
31239
31473
31412
31550
31544
31591
31663
31614
31660
31597
31603
31488
31466
31549
31391
31447
31295
31335
31305
31381
31359
31495
31556
31603
31770
31708
31747
31813
31719
31763
31815
31621
31624
31682
31566
31503
31415
31436
31457
31545
31550
31676
31680
31806
31885
31958
31932
32007
31879
31919
31903
31727
31887
31740
31781
31653
31732
31589
31751
31650
31835
31788
31959
31986
32052
32036
32070
32191
32024
32126
31980
31981
31943
31823
31735
31662
31796
31679
31798
31786
31944
31916
32089
32087
32231
32178
32340
32221
32371
32190
32242
32082
32105
31972
31986
31805
31898
31762
31889
31823
32016
31941
32164
32107
32319
32214
32367
32255
32388
32199
32213
32124
32145
31949
31956
31977
31935
31937
31910
31903
32190
32111
32284
32247
32407
32414
32432
32356
32429
32423
32400
32263
32356
32151
32244
32070
32191
32073
32117
32082
32109
32270
32238
32498
32429
32584
32515
32538
32412
32391
32489
32359
32386
32261
32217
32124
32031
32222
32125
32319
32239
32375
32417
32652
32545
32716
32583
32652
32536
32548
32463
32463
32370
32301
32390
32170
32326
32141
32316
32278
32340
32481
32548
32642
32621
32653
32646
32665
32775
32631
32476
32557
32565
32391
32366
32220
32167
32135
32131
32348
32276
32463
32424
32628
32614
32700
32628
32695
32611
32587
32519
32422
32599
32447
32551
32405
32458
32420
32409
32727
32682
32842
32932
33110
33156
33106
33404
33229
33313
33253
33341
33214
33319
33068
33154
32905
33094
32925
33092
32977
33159
33094
33278
33210
33311
33258
33313
33254
33188
33082
33062
33158
32972
32953
32812
32791
32681
32647
32572
32612
32638
32710
32672
32729
32717
32740
32704
32788
32656
32695
32555
32548
32444
32414
32292
32327
32199
32241
32171
32263
32227
32411
32380
32616
32391
32480
32565
32528
32600
32495
32566
32404
32495
32233
32252
32140
32248
32074
32146
32235
32238
32362
32389
32483
32500
32569
32543
32637
32515
32665
32387
32414
32345
32356
32320
32239
32181
32258
32175
32418
32327
32435
32455
32567
32559
32659
32596
32589
32582
32498
32604
32494
32593
32416
32527
32391
32260
32445
32222
32390
32361
32422
32391
32537
32333
32301
32026
31905
31805
31590
31542
31396
31326
31248
31188
31326
31320
31566
31676
32033
32239
32708
33239
33854
34875
35591
36646
37540
38520
39231
39710
40743
41167
41950
42276
43039
43317
43905
44025
44223
43815
43516
42558
41759
40215
39175
37820
36600
35111
34004
32825
31982
31336
30855
30410
30110
29937
29589
29476
29238
29247
29196
29431
29508
29767
29983
30094
30226
30302
30481
30660
30677
30894
30844
31020
30901
31030
30913
31111
31014
31196
31265
31540
31501
31696
31666
31743
31762
31855
31764
31779
31710
31661
31647
31552
31659
31560
31593
31495
31597
31812
31791
31943
31925
31999
32173
32038
32127
32037
32160
32068
32037
31931
31860
31784
31733
31719
31735
31892
31748
31934
31976
32168
32180
32227
32177
32174
32404
32257
32248
32131
32112
32235
32057
32164
31970
32047
31972
32027
31972
31994
32258
32165
32454
32276
32557
32395
32561
32389
32547
32372
32511
32332
32453
32220
32249
32151
32191
32143
32163
32283
32368
32600
32556
32681
32652
32718
32669
32654
32645
32679
32647
32546
32545
32515
32534
32348
32414
32364
32451
32577
32637
32748
32958
32887
33056
32945
33113
32934
33062
32926
33025
32821
32901
32623
32770
32629
32639
32722
32685
32846
32854
32999
33041
33139
33172
33167
33189
33182
33175
33126
33116
33183
33095
33098
33020
33105
33052
33140
33089
33174
33231
33339
33484
33618
33614
33711
33637
33809
33543
33740
33510
33604
33647
33596
33578
33499
33655
33556
33738
33684
33900
33906
33989
34127
34182
34286
34182
34336
34183
34206
34141
34009
34171
33871
33908
33890
33912
33886
33972
34036
34123
34260
34343
34427
34458
34541
34428
34544
34367
34487
34190
34185
34110
34031
33943
33798
33812
33735
33775
33756
33798
33765
33922
33735
33820
33610
33695
33326
33340
33120
33145
32898
32810
32718
32579
32582
32474
32332
32419
32291
32355
32321
32398
32334
32348
32215
32253
32077
32143
31914
31970
31708
31782
31584
31586
31380
31508
31343
31540
31450
31613
31535
31719
31658
31801
31691
31700
31596
31594
31678
31500
31497
31349
31270
31354
31263
31231
31277
31239
31374
31421
31502
31532
31526
31780
31677
31716
31671
31709
31663
31654
31533
31556
31455
31487
31316
31461
31383
31525
31487
31582
31708
31730
31833
31824
31751
31718
31780
31838
31765
31835
31672
31741
31570
31570
31556
31497
31660
31505
31615
31743
31799
31986
31889
31980
32062
31927
31978
32028
31935
31926
31925
31724
31733
31806
31714
31820
31694
31671
31836
31906
32015
32031
32135
32098
32149
32198
32127
32103
32109
32102
32158
32092
32034
31950
31924
31927
31943
31921
31966
31942
32045
32182
32244
32310
32348
32394
32384
32348
32140
32052
32046
32013
31964
31951
32002
31908
31880
31903
32020
32116
32175
32255
32255
32262
32444
32431
32427
32420
32384
32319
32294
32263
32225
32167
32092
32036
31967
31950
32044
32042
32094
32223
32289
32367
32403
32457
32407
32333
32301
32291
32260
32216
32165
32109
32107
32084
32056
32148
32230
32263
32333
32422
32486
32567
32594
32599
32615
32562
32519
32454
32306
32295
32149
32212
32170
32078
32089
32108
32099
32216
32414
32545
32613
32661
32719
32716
32720
32681
32638
32636
32572
32499
32372
32295
32230
32182
32195
32258
32342
32463
32483
32702
32751
32673
32775
32775
32783
32759
32716
32609
32512
32463
32355
32276
32326
32331
32358
32330
32295
32419
32488
32733
32646
32766
32851
32821
32759
32913
32826
32635
32654
32550
32453
32375
32300
32330
32279
32370
32362
32540
32591
32749
32749
32892
32838
32918
32876
32851
32796
32726
32606
32549
32470
32420
32403
32295
32323
32399
32462
32564
32635
32833
32839
32870
32901
32970
32916
32924
32995
32758
32769
32575
32550
32500
32378
32391
32334
32372
32487
32588
32743
32742
33071
32967
33158
32991
33101
32952
32996
32855
32892
32722
32594
32634
32408
32508
32308
32408
32571
32582
32817
32831
32841
32971
32878
32935
33054
32774
32804
32795
32682
32550
32484
32407
32465
32399
32500
32550
32669
32755
32919
33105
33186
33281
33476
33395
33553
33416
33580
33382
33329
33253
33113
33004
33031
32882
33022
32844
32999
33185
33249
33543
33365
33454
33619
33390
33377
33492
33300
33237
33070
33031
33066
32774
32772
32645
32623
32711
32788
32871
32967
33063
33114
33111
33070
33046
33015
32909
32849
32742
32662
32575
32487
32422
32366
32330
32317
32258
32343
32457
32586
32775
32841
32805
32844
32913
32903
32892
32811
32719
32796
32702
32539
32418
32305
32223
32263
32330
32396
32423
32551
32767
32938
32854
32995
32871
32953
32802
32922
32719
32790
32469
32527
32299
32290
32307
32287
32431
32390
32553
32655
32832
32819
32980
32901
33004
32862
32983
32759
32798
32651
32599
32498
32433
32284
32329
32304
32427
32426
32588
32692
32865
32866
32998
32798
32730
32415
32359
32006
31876
31550
31364
31293
31127
31170
31026
31035
31159
31444
31541
31879
32263
32690
33005
33853
34276
35292
35980
37012
38042
38886
39758
40350
41156
41332
42406
42679
43763
44220
44791
45141
45132
44919
44330
43594
42375
41324
39809
38583
36943
35748
34329
33404
32292
31863
31275
31047
30684
30481
30230
30174
30107
30016
29972
30091
30124
30258
30289
30391
30447
30532
30431
30504
30516
30540
30510
30615
30895
30893
31108
31167
31432
31417
31638
31527
31639
31623
31611
31652
31613
31470
31431
31341
31448
31263
31356
31252
31459
31431
31668
31644
31914
31854
32059
31903
32108
31978
32057
31892
31870
31828
31706
31661
31474
31586
31445
31583
31527
31650
31694
31785
32016
32039
32186
32143
32191
32305
32161
32274
32080
32139
31975
31916
31715
31639
31823
31670
31799
31807
31983
32062
32159
32398
32316
32494
32384
32547
32426
32318
32407
32199
32190
32066
32014
32042
31933
31981
32014
32108
32145
32324
32529
32500
32591
32732
32630
32787
32625
32668
32524
32486
32416
32229
32362
32176
32178
32098
32110
32363
32304
32620
32628
32865
32791
32924
32846
32847
32759
32690
32830
32548
32693
32474
32546
32325
32423
32321
32559
32428
32783
32754
32984
32885
33060
33158
33155
33196
33068
33156
33079
33097
32933
33020
32808
32911
32679
32892
32810
33071
32958
33339
33272
33511
33457
33599
33494
33407
33460
33341
33607
33407
33511
33284
33415
33222
33380
33182
33447
33340
33540
33602
33930
33831
34148
34086
34119
34128
34131
34152
34071
34052
33973
33953
33863
33879
33782
33823
33823
33981
34048
34290
34376
34518
34495
34579
34505
34500
34525
34457
34433
34260
34452
34188
34214
34000
34055
33908
34005
33984
34065
34148
34294
34328
34375
34267
34308
34174
34190
33910
33947
33635
33631
33324
33287
33077
33015
32825
32940
32772
32919
32879
32960
32900
32890
32847
32775
32740
32628
32545
32372
32294
32068
32004
31780
31746
31651
31644
31604
31710
31774
31861
31847
31949
31975
31998
31940
31927
31857
31783
31638
31595
31439
31313
31382
31186
31292
31169
31300
31271
31534
31433
31630
31604
31793
31770
31781
31814
31780
31725
31610
31607
31449
31423
31227
31288
31090
31276
31178
31357
31351
31540
31618
31766
31732
31879
31767
31833
31775
31733
31580
31534
31574
31423
31437
31311
31322
31274
31349
31345
31471
31717
31673
31939
31839
31996
31965
31991
31879
31863
31890
31713
31829
31604
31612
31476
31438
31381
31422
31655
31588
31784
31905
32127
32084
32119
32048
31975
32110
31962
32015
31855
31817
31663
31589
31620
31509
31604
31597
31686
31788
31900
32030
32029
32190
32074
32274
32060
32103
32025
32150
32004
31918
31735
31636
31655
31513
31548
31533
31790
31736
31887
31978
32301
32220
32396
32286
32369
32279
32276
32116
32103
31926
31785
31873
31695
31796
31696
31839
31831
32077
32055
32308
32231
32435
32353
32477
32403
32516
32292
32375
32183
32111
32119
31912
31847
31788
31855
31959
31896
32019
32276
32257
32495
32440
32534
32540
32445
32528
32462
32420
32259
32277
32122
32039
31914
31891
32012
31972
32144
32116
32359
32386
32580
32548
32649
32625
32687
32628
32590
32530
32436
32282
32223
32244
32062
32046
31975
31964
32252
32263
32477
32502
32630
32640
32577
32615
32642
32657
32569
32502
32380
32378
32158
32196
32007
32202
32053
32234
32159
32417
32381
32627
32575
32814
32687
32835
32647
32757
32545
32642
32471
32480
32275
32198
32164
32135
32284
32092
32324
32356
32636
32594
32783
32743
32815
32750
32751
32670
32662
32583
32591
32391
32479
32236
32263
32077
32236
32089
32287
32238
32554
32512
32596
32661
32760
32666
32750
32644
32722
32558
32527
32390
32295
32181
32205
32089
32164
32185
32294
32321
32527
32625
32734
32741
32831
32806
32870
32847
32892
32791
32798
32676
32614
32567
32516
32540
32695
32716
32902
32955
33143
33431
33263
33578
33376
33671
33479
33511
33327
33330
33248
33185
33018
32980
32910
32868
32812
32892
32950
33055
33056
33182
33124
33322
33402
33231
33143
33164
33055
33135
32866
32878
32615
32572
32410
32345
32218
32281
32350
32298
32593
32594
32748
32710
32754
32678
32734
32724
32732
32575
32438
32271
32317
32308
32105
32046
32181
32181
32287
32303
32488
32564
32687
32654
32791
32661
32807
32668
32775
32487
32583
32428
32486
32236
32303
32123
32222
32147
32311
32359
32532
32581
32636
32901
32692
32951
32763
32880
32698
32717
32543
32596
32380
32343
32241
32242
32156
32258
32315
32398
32636
32676
32916
32853
32932
32930
32863
32938
32815
32762
32812
32572
32498
32543
32359
32321
32167
32101
32142
32017
31989
31885
31813
31918
31751
31783
31673
31663
31577
31532
31727
31777
31922
31991
32207
32502
33069
33865
34526
35689
36519
37764
38543
39590
40136
41026
41548
42267
42634
43329
43564
44100
43799
43999
43244
42806
41502
40726
39319
38279
36871
35647
34503
33484
32651
31994
31530
31317
31029
30845
30588
30286
29959
29734
29566
29439
29315
29404
29676
29870
30284
30456
30767
30861
31087
31132
31255
31257
31268
31268
31340
31303
31313
31215
31325
31151
31396
31309
31527
31542
31835
31873
32069
32090
32148
32192
32103
32092
32060
31938
31857
31775
31764
31620
31626
31583
31668
31671
31878
31859
32134
32134
32364
32310
32498
32313
32379
32356
32311
32325
32207
32197
32103
32076
31943
31887
32058
31979
32198
32154
32356
32412
32490
32498
32580
32742
32581
32663
32494
32495
32430
32373
32228
32164
32237
32138
32127
32252
32192
32406
32476
32631
32629
32738
32753
32744
32646
32735
32686
32738
32536
32611
32343
32311
32197
32158
32248
32244
32444
32419
32550
32702
32762
32925
32893
32868
33066
32962
32844
32923
32702
32550
32596
32588
32420
32535
32421
32466
32634
32676
32899
32999
33181
33143
33287
33158
33287
33104
33211
33095
33059
32938
32836
32719
32676
32656
32740
32798
32966
33006
33311
33266
33500
33471
33564
33543
33638
33522
33631
33476
33453
33339
33371
33231
33303
33175
33316
33169
33363
33541
33671
33895
33894
34023
33990
34020
34069
34068
34013
33927
33940
33911
33799
33736
33703
33697
33903
33836
33991
34019
34101
34492
34442
34562
34529
34596
34558
34549
34527
34452
34323
34341
34165
34183
34074
34071
34221
34141
34311
34359
34494
34670
34719
34852
34729
34910
34603
34630
34430
34431
34388
34205
34185
33895
33943
33572
33724
33466
33734
33591
33772
33620
33732
33611
33618
33556
33490
33287
33066
33191
32839
32728
32439
32382
32238
32055
32052
31947
32031
32014
32010
32247
32111
32279
32057
32071
32013
31901
31820
31670
31639
31462
31343
31215
31144
31020
31060
31020
31173
31174
31300
31335
31479
31441
31462
31523
31422
31391
31308
31449
31239
31253
31034
30946
30884
30935
30868
30975
31020
31183
31233
31363
31628
31465
31572
31605
31567
31595
31500
31527
31362
31263
31189
31111
31140
31070
31157
31061
31258
31228
31411
31564
31562
31718
31635
31777
31643
31743
31606
31579
31483
31412
31425
31258
31212
31151
31174
31140
31329
31418
31631
31583
31727
31876
31838
31994
31833
31790
31872
31697
31764
31495
31469
31428
31317
31385
31195
31251
31406
31526
31740
31780
31930
31974
31962
32121
32023
32140
31959
31900
31855
31730
31719
31642
31583
31524
31492
31618
31616
31859
31855
32108
32064
32164
32151
32185
32123
32151
32036
32020
31931
31927
31793
31738
31655
31701
31606
31770
31639
31751
31927
32037
32199
32210
32354
32309
32315
32127
32222
32180
32097
32036
31919
31871
31697
31733
31681
31682
31913
31917
32063
32166
32290
32503
32312
32431
32420
32308
32401
32303
32389
32172
32076
31988
31866
31956
31836
31855
31987
32127
32322
32252
32388
32519
32468
32581
32470
32399
32429
32377
32417
32207
32284
32028
32003
32023
31984
32042
32071
32225
32341
32487
32519
32602
32572
32728
32543
32680
32415
32415
32396
32321
32262
32081
32147
31919
31919
32068
32034
32294
32181
32364
32533
32519
32626
32591
32647
32569
32622
32460
32457
32294
32261
32144
32094
32004
32115
32063
32202
32203
32453
32451
32669
32625
32839
32700
32742
32590
32591
32601
32498
32527
32359
32359
32145
32278
32167
32159
32348
32322
32413
32620
32606
32823
32639
32720
32791
32796
32850
32837
32826
32714
32669
32556
32503
32591
32598
32734
32888
32895
33141
33201
33271
33510
33324
33435
33513
33347
33405
33239
33207
33115
32991
33007
32799
32894
32710
32743
32887
32861
33076
32934
33119
33127
33236
33060
33287
33119
33191
32958
32938
32764
32709
32484
32398
32406
32231
32255
32331
32439
32452
32632
32606
32753
32638
32811
32528
32554
32561
32502
32510
32315
32223
32215
32111
32125
32078
32206
32092
32287
32368
32396
32565
32566
32570
32743
32608
32557
32566
32527
32547
32324
32363
32305
32199
32308
32101
32151
32292
32180
32339
32561
32551
32588
32711
32650
32639
32675
32622
32618
32526
32443
32419
32292
32288
32294
32087
32326
32358
32421
32536
32683
32709
32676
32612
32713
32684
32680
32669
32649
32519
32491
32428
32304
32204
32111
32095
31908
31783
31716
31634
31630
31594
31478
31543
31564
31623
31655
31682
31864
32017
32218
32429
32640
33060
33596
34327
35024
36026
36878
37988
38686
39641
39925
40823
41399
42154
42738
43097
43695
43636
43750
43578
42872
42274
41044
40111
38631
37377
36142
34850
33892
32720
31938
31438
31010
30812
30465
30373
30045
29859
29637
29447
29346
29100
29053
29225
29380
29616
29815
30168
30343
30553
30804
30896
31147
31142
31209
31329
31298
31360
31351
31399
31226
31332
31173
31145
31278
31322
31495
31538
31770
31883
32014
32033
32077
32191
32063
32158
31944
31900
31927
31823
31889
31687
31594
31689
31668
31793
31719
31876
32076
32162
32348
32284
32302
32447
32358
32450
32163
32212
32198
32087
32052
31966
32038
31804
31878
32007
32052
32338
32176
32320
32471
32511
32551
32505
32660
32380
32444
32476
32375
32434
32177
32102
32164
32109
32197
32174
32358
32349
32580
32519
32764
32674
32799
32653
32694
32722
32660
32663
32575
32574
32382
32456
32309
32311
32410
32356
32405
32573
32639
32876
32838
32862
33050
32909
32911
32974
32847
32838
32743
32711
32711
32537
32668
32538
32576
32547
32669
32844
32884
33119
32916
33055
33127
33128
33237
33071
33195
32926
32979
32807
32831
32872
32797
32942
32861
32872
32999
33121
33271
33181
33316
33412
33409
33550
33425
33447
33345
33355
33381
33308
33309
33260
33367
33280
33427
33430
33513
33586
33868
33827
34028
33833
33932
34052
33956
34136
33837
33927
33967
33898
33961
33895
33943
33940
34076
34027
34286
34223
34269
34257
34409
34359
34447
34374
34433
34486
34391
34507
34350
34459
34251
34232
34164
34175
34254
34279
34399
34375
34613
34500
34479
34428
34469
34532
34415
34471
34274
34108
34167
33799
33714
33679
33527
33492
33309
33532
33415
33532
33378
33306
33316
33156
33228
32939
32894
32867
32748
32647
32455
32412
32135
31994
31959
31969
31898
31991
31833
31868
31983
31968
32042
31959
32026
31847
31903
31711
31777
31484
31469
31372
31266
31221
31160
31213
31137
31282
31262
31439
31391
31565
31454
31575
31468
31560
31407
31485
31347
31367
31204
31273
31102
31169
31060
31114
31053
31226
31151
31317
31276
31500
31428
31596
31455
31569
31441
31543
31340
31373
31379
31265
31293
31207
31278
31191
31296
31228
31433
31388
31470
31535
31540
31620
31621
31700
31649
31687
31556
31611
31440
31439
31356
31391
31302
31409
31382
31370
31550
31623
31831
31711
31897
31845
31814
31910
31911
31896
31732
31799
31664
31732
31570
31669
31452
31478
31575
31550
31705
31764
31902
32048
31932
31972
32103
32038
32177
31920
31919
31839
31868
31866
31743
31819
31751
31872
31684
31805
31944
31999
32119
32132
32279
32187
32271
32251
32297
32160
32286
32048
32017
32094
31988
32043
31900
32043
31934
32142
32004
32158
32139
32290
32391
32382
32421
32277
32422
32271
32246
32094
32068
32054
32018
32005
31970
31972
31905
32039
32046
32194
32216
32414
32397
32494
32380
32458
32359
32300
32308
32228
32318
32048
32118
32036
32017
32055
32062
32146
32179
32313
32359
32512
32497
32655
32390
32424
32443
32453
32475
32375
32364
32223
32237
32143
32198
32200
32329
32241
32459
32399
32478
32586
32572
32629
32615
32597
32567
32554
32508
32426
32518
32306
32319
32275
32334
32164
32240
32242
32518
32428
32509
32610
32620
32575
32729
32645
32695
32706
32583
32661
32482
32398
32431
32348
32458
32297
32334
32431
32465
32706
32559
32709
32787
32775
32865
32708
32803
32578
32605
32542
32495
32477
32357
32387
32348
32437
32326
32540
32396
32518
32714
32663
32652
32724
32733
32781
32711
32735
32644
32724
32540
32622
32407
32512
32277
32399
32434
32502
32723
32719
32966
32932
33013
33015
33066
33179
33173
33316
33164
33319
33114
33218
33054
33205
33031
32989
33016
33004
33135
33127
33398
33188
33318
33388
33379
33450
33287
33423
33212
33175
32994
33096
32812
32810
32690
32909
32803
32943
32886
33029
32978
33100
32988
33031
32964
32868
32840
32700
32715
32592
32570
32452
32495
32295
32396
32222
32357
32298
32319
32423
32460
32479
32606
32463
32500
32468
32492
32382
32551
32305
32455
32232
32225
32240
32180
32270
32165
32359
32278
32483
32417
32486
32494
32480
32582
32566
32650
32388
32490
32327
32363
32352
32230
32319
32099
32132
32221
32203
32447
32351
32435
32599
32546
32570
32609
32571
32636
32551
32643
32470
32558
32386
32497
32292
32421
32287
32370
32407
32449
32591
32630
32679
32711
32761
32742
32767
32645
32671
32311
32148
31980
31711
31623
31367
31367
31162
31183
31183
31423
31430
31642
32048
32215
32588
32764
33308
33523
34225
34836
35666
36611
37430
38447
39012
39864
40216
41085
41604
42523
43215
43684
44356
44519
44566
44455
43794
43183
42058
40798
39571
38050
36574
35156
33849
32763
31852
31152
30807
30548
30375
30161
30071
29811
29746
29479
29524
29439
29491
29670
29758
29885
29861
30076
30022
30200
30244
30495
30574
30719
30933
31100
31293
31284
31348
31473
31476
31612
31559
31679
31493
31479
31538
31445
31527
31380
31375
31400
31335
31466
31646
31724
31888
31953
32099
31980
31996
32184
32031
32048
32126
31950
31890
31765
31775
31588
31629
31631
31802
31757
31972
31980
32116
32225
32278
32310
32341
32279
32311
32332
32340
32263
32084
31919
31906
31879
31781
31818
31930
31983
32120
32195
32333
32451
32397
32519
32394
32459
32566
32325
32345
32455
32308
32339
32212
32097
32119
32122
32150
32204
32302
32388
32495
32663
32707
32682
32673
32653
32615
32510
32442
32478
32385
32314
32143
32128
32154
32272
32409
32500
32588
32728
32775
32737
32957
32912
32940
32815
32834
32908
32814
32919
32590
32599
32527
32403
32485
32429
32565
32609
32833
32905
33172
33105
33255
33124
33325
33255
33165
33213
33128
33118
33007
33103
32759
32789
32826
32854
33001
32911
33100
33326
33383
33588
33543
33750
33508
33663
33719
33470
33505
33540
33428
33528
33214
33268
33348
33351
33554
33524
33636
33870
33950
34215
34104
34298
34148
34207
34229
34100
34240
34042
33991
33975
33906
33991
33837
33910
34047
34026
34260
34189
34394
34526
34564
34668
34581
34631
34659
34577
34470
34547
34241
34176
34161
33991
34104
33951
33949
34096
34118
34285
34279
34407
34354
34460
34223
34279
33967
33829
33877
33602
33425
33217
33060
32968
32766
32799
32747
32798
32756
32911
32842
32996
32713
32703
32727
32580
32631
32385
32319
32092
31964
31913
31743
31695
31556
31650
31590
31638
31685
31731
31871
31879
32010
31801
31854
31853
31717
31732
31540
31557
31343
31251
31110
31058
31062
31006
31073
31155
31338
31436
31626
31572
31751
31628
31759
31612
31625
31476
31408
31318
31343
31141
31149
31090
31170
31149
31223
31279
31418
31436
31529
31612
31701
31748
31818
31724
31751
31654
31743
31556
31607
31292
31295
31287
31193
31205
31262
31374
31520
31706
31788
31940
31926
31991
31975
32023
31861
31916
31678
31698
31586
31643
31383
31377
31414
31376
31517
31591
31727
31821
32086
32004
32195
32102
32194
32065
32015
32031
31917
31943
31692
31655
31644
31527
31506
31606
31612
31769
31826
32006
32076
32210
32174
32295
32191
32287
32132
32223
31911
31854
31813
31727
31623
31724
31578
31623
31807
31810
31902
31988
32110
32230
32274
32295
32284
32247
32159
32298
32132
32180
31970
31846
31796
31711
31804
31790
31953
31928
32174
32185
32495
32448
32644
32548
32734
32594
32573
32482
32426
32468
32316
32328
32152
32087
32127
32112
32208
32221
32427
32503
32725
32686
32894
32711
32744
32825
32679
32738
32468
32479
32467
32325
32254
32223
32236
32167
32300
32324
32486
32574
32815
32739
32930
32801
32962
32775
32879
32709
32594
32708
32514
32519
32284
32343
32126
32232
32167
32300
32436
32516
32711
32766
32857
32815
32914
32840
32908
32693
32802
32475
32474
32429
32329
32354
32207
32381
32213
