ECG
31213
31095
31157
31205
31108
31158
31019
31058
31084
30956
31047
31083
31143
31292
31293
31526
31505
31712
31687
31844
31815
31910
31879
31958
31974
31961
32013
31850
31911
31954
31871
31969
32041
32071
32230
32205
32383
32544
32525
32631
32700
32639
32732
32747
32681
32729
32575
32593
32615
32493
32570
32615
32574
32710
32695
32815
32868
32868
32943
33012
32950
33081
33001
33031
32950
32932
32919
32764
32807
32724
32724
32775
32700
32829
32940
32910
33125
33127
33180
33244
33247
33301
33222
33255
33171
33131
33156
33003
33082
33005
32978
33102
33078
33204
33348
33301
33415
33541
33537
33613
33635
33581
33629
33478
33531
33455
33345
33354
33194
33206
33255
33125
33215
33297
33269
33380
33524
33474
33553
33632
33521
33542
33584
33451
33477
33439
33281
33269
33247
33065
33141
33151
33053
33164
33300
33263
33391
33455
33453
33527
33495
33420
33460
33425
33319
33327
33139
33135
33088
32986
33023
32962
32972
33111
33178
33190
33338
33340
33425
33517
33419
33470
33468
33378
33368
33216
33123
33148
32943
32959
32926
32855
33005
33009
33042
33191
33265
33212
33355
33427
33316
33335
33356
33156
33123
33076
32918
32916
32799
32684
32750
32636
32733
32791
32813
32999
32999
33078
33201
33137
33207
33268
33143
33067
33056
32854
32792
32796
32591
32555
32572
32525
32590
32702
32678
32738
32826
32861
32960
33057
33014
32977
32982
32912
32772
32788
32699
32583
32585
32495
32446
32519
32498
32537
32693
32737
32845
32964
32895
32954
33055
32932
32999
32951
32830
32836
32736
32618
32649
32615
32570
32677
32775
32957
33080
33098
33172
33341
33474
33409
33478
33591
33423
33452
33450
33256
33237
33250
33063
33078
33111
32972
33030
33207
33172
33210
33365
33390
33415
33498
33367
33399
33411
33194
33204
33042
32924
32893
32660
32625
32591
32487
32571
32479
32639
32775
32730
32903
32897
32943
33008
32846
32871
32855
32636
32631
32503
32350
32407
32250
32239
32311
32277
32311
32423
32479
32574
32734
32769
32729
32847
32701
32731
32767
32554
32559
32511
32313
32356
32373
32199
32271
32356
32329
32477
32618
32605
32782
32820
32767
32900
32740
32791
32810
32634
32652
32644
32472
32390
32404
32344
32255
32309
32126
32157
32148
32080
32052
31812
31801
31783
31662
31670
31588
31584
31515
31348
31300
31236
31223
31382
31595
31924
32406
33095
33789
34769
35882
37080
38420
39676
41196
42710
43967
45338
46360
47166
47876
48031
47751
47530
47054
46260
45657
44852
43710
42780
41564
40121
38822
37302
35662
34217
33072
32533
32127
31841
31582
31363
31309
31204
31040
31072
31061
31070
31250
31415
31465
31580
31692
31650
31668
31522
31426
31270
31106
31004
30917
30865
30828
30863
30893
30889
30907
30954
31033
31086
31106
31196
31108
31167
31120
31108
31012
30922
30838
30846
30772
30724
30743
30727
30641
30682
30791
30812
30906
31002
31138
31206
31223
31265
31276
31326
31319
31172
31109
30998
30917
30838
30870
30906
30857
31008
31134
31138
31266
31364
31431
31476
31516
31531
31519
31484
31446
31367
31204
31143
31055
31036
30983
31001
31046
31047
31191
31249
31372
31479
31467
31500
31484
31487
31380
31356
31279
31186
31172
31154
31063
30951
30886
30922
31018
31058
31220
31268
31409
31469
31548
31588
31591
31645
31562
31594
31617
31523
31407
31316
31261
31188
31095
31101
31119
31174
31257
31274
31436
31626
31711
31792
31740
31746
31743
31661
31621
31509
31465
31306
31167
31111
31001
30921
30964
31047
31106
31263
31349
31284
31391
31446
31397
31450
31459
31300
31198
31056
30945
30817
30676
30625
30513
30445
30452
30508
30580
30647
30783
30922
31019
31060
31076
31066
31064
31022
30927
30790
30694
30682
30558
30470
30446
30364
30332
30253
30260
30283
30260
30379
30398
30446
30532
30514
30623
30742
30768
30727
30702
30604
30535
30412
30393
30375
30311
30388
30413
30500
30615
30630
30845
30970
31023
31079
31015
30902
30887
30826
30810
30801
30668
30709
30718
30676
30662
30703
30786
30918
31092
31242
31321
31495
31591
31790
31796
31822
31822
31868
31822
31781
31695
31573
31544
31599
31665
31743
31838
32004
32191
32324
32516
32556
32694
32732
32639
32646
32591
32485
32444
32335
32327
32303
32303
32341
32337
32480
32495
32647
32684
32852
32941
33053
33130
33060
33130
33058
32938
32948
32932
32775
32783
32771
32656
32727
32713
32807
32933
32919
33108
33169
33287
33430
33339
33431
33461
33347
33345
33283
33222
33175
32999
33047
32997
33065
33127
33058
33234
33300
33464
33663
33620
33759
33703
33790
33843
33671
33721
33641
33615
33615
33446
33431
33236
33294
33268
33424
33573
33606
33830
33863
34074
34118
34119
34190
34021
34095
33958
33919
33927
33716
33716
33583
33595
33628
33530
33670
33687
33775
33950
33918
34047
34159
34047
34099
34076
34014
34009
33772
33741
33711
33476
33455
33447
33287
33407
33490
33667
33693
33882
34036
33937
34050
34044
34004
34087
33998
33924
33938
33732
33708
33647
33466
33484
33429
33397
33506
33502
33623
33815
33799
33940
33995
34006
34070
33976
34008
33981
33779
33710
33548
33497
33523
33381
33452
33532
33543
33754
33932
33860
34013
34061
34076
34148
34135
33967
34006
33946
33876
33725
33701
33603
33454
33531
33554
33486
33632
33651
33756
33868
33975
33894
34011
34135
33991
33981
33965
33909
33733
33631
33593
33447
33503
33495
33377
33423
33367
33516
33618
33638
33827
33820
33898
33943
33855
33858
33854
33640
33679
33633
33418
33437
33433
33244
33300
33383
33367
33551
33732
33730
33933
34108
34087
34214
34228
34110
34183
34148
34047
34055
34014
33775
33789
33799
33678
33759
33855
33780
33918
34019
34022
34089
34223
34181
34083
34086
34082
33847
33820
33730
33543
33420
33335
33267
33135
33157
33215
33163
33259
33354
33405
33476
33505
33545
33499
33463
33447
33380
33229
33205
33108
32926
32901
32835
32711
32767
32796
32841
32892
33047
33191
33147
33224
33223
33143
33199
33171
33023
32989
32915
32775
32769
32743
32595
32588
32586
32707
32844
32812
32967
33100
33060
33182
33233
33287
33151
33165
33101
33094
32895
32891
32815
32684
32714
32742
32647
32719
32751
32757
32814
32822
32799
32703
32597
32527
32293
32236
32060
32073
32006
31991
31927
31841
31790
31788
31762
31959
32197
32500
32970
33491
34150
34990
35898
36798
37916
39164
40399
41760
43149
44295
45191
46191
46804
46932
46942
46708
46215
45820
45191
44256
43381
42100
40898
39575
38251
36717
35244
33722
32654
32093
31802
31741
31533
31503
31503
31471
31445
31565
31548
31647
31774
31877
31948
31948
31991
32039
32020
31938
31712
31631
31531
31388
31325
31337
31287
31351
31452
31584
31711
31772
31837
31944
31949
31889
31829
31835
31747
31639
31590
31553
31451
31402
31349
31398
31431
31486
31530
31594
31703
31846
31874
31964
32013
32034
32003
31948
31943
31773
31786
31745
31664
31678
31630
31592
31660
31682
31787
31910
31946
32101
32123
32135
32246
32278
32183
32173
32053
32047
31991
31891
31791
31818
31775
31785
31801
31841
31966
31966
32158
32244
32263
32294
32287
32224
32296
32219
32218
32196
32066
32022
31899
31818
31847
31871
31893
31892
32080
32132
32294
32423
32412
32511
32538
32518
32524
32446
32446
32396
32299
32246
32127
32095
32080
32093
32063
32103
32231
32316
32372
32491
32595
32519
32611
32589
32519
32552
32486
32378
32373
32222
32183
32188
32116
32172
32164
32238
32238
32324
32490
32567
32535
32621
32570
32597
32570
32499
32381
32365
32254
32207
32134
32060
31950
31892
31869
31900
31973
32036
32095
32231
32196
32210
32180
32161
32109
31915
31904
31855
31734
31602
31567
31407
31439
31359
31335
31324
31308
31437
31551
31619
31617
31530
31603
31615
31605
31525
31322
31292
31170
30989
30948
30967
30887
30884
30833
30887
30991
31138
31174
31322
31395
31301
31424
31478
31376
31421
31433
31271
31268
31287
31220
31207
31103
31188
31283
31302
31422
31626
31625
31828
31964
31997
32060
32115
32039
32048
32103
32058
31960
31967
31846
31876
31941
31905
31995
32091
32077
32263
32457
32583
32612
32728
32697
32725
32749
32706
32687
32655
32514
32493
32508
32439
32436
32452
32478
32567
32630
32744
32868
32900
33000
33030
33092
33072
33079
33055
32970
32917
32918
32830
32796
32811
32719
32759
32714
32814
32882
32991
33168
33179
33255
33333
33311
33347
33383
33231
33228
33193
33079
33093
33039
32940
32881
32940
32964
33052
33140
33270
33345
33369
33488
33559
33499
33519
33540
33471
33470
33331
33314
33283
33151
33116
33095
33092
33087
33132
33248
33370
33433
33503
33532
33606
33657
33606
33575
33543
33492
33407
33286
33190
33078
33051
33060
33042
33039
33147
33151
33255
33315
33380
33512
33448
33455
33510
33394
33366
33285
33270
33093
33051
33008
32911
32893
32886
32889
32983
33017
33186
33223
33298
33424
33381
33430
33391
33365
33303
33255
33148
33045
32895
32847
32773
32751
32769
32746
32822
32868
32855
33021
33068
33120
33211
33085
33063
33039
32972
32883
32839
32751
32595
32535
32359
32319
32126
32172
32218
32173
32218
32157
32167
32029
32066
32127
32183
32151
32159
32196
32164
32146
32015
32015
32055
31946
32015
32110
32116
32207
32324
32320
32520
32613
32645
32686
32640
32668
32492
32461
32454
32332
32241
32222
32055
32109
32116
32183
32246
32378
32583
32615
32832
32922
33053
33111
33117
33164
33084
33072
32959
32956
32891
32932
32815
32855
32759
32900
32990
33047
33120
33269
33278
33340
33314
33389
33374
33263
33180
33110
32999
32866
32773
32692
32492
32534
32496
32532
32597
32590
32638
32759
32838
32863
32884
32886
32766
32850
32743
32735
32587
32550
32418
32390
32277
32279
32316
32244
32300
32340
32308
32460
32526
32548
32624
32604
32603
32551
32516
32482
32432
32302
32238
32102
32106
32140
32100
32196
32260
32271
32442
32614
32671
32798
32839
32850
32865
32846
32817
32710
32613
32599
32479
32421
32449
32359
32373
32428
32391
32516
32590
32647
32703
32647
32677
32449
32436
32240
32135
31855
31819
31676
31502
31489
31564
31588
31648
31623
31727
31708
31868
32109
32188
32404
32683
33127
33705
34311
34818
35604
36453
37395
38359
39626
40892
42036
43015
43742
44312
44579
44350
44148
43753
43162
42559
41897
40961
39902
38533
37246
35799
34381
32924
31626
30831
30410
30593
30848
31031
31324
31526
31610
31501
31559
31606
31398
31422
31431
31270
31343
31375
31231
31296
31282
31330
31207
31269
31364
31262
31296
31377
31255
31369
31463
31396
31495
31495
31495
31335
31394
31427
31208
31214
31230
31050
31116
31181
31031
31138
31287
31284
31467
31450
31596
31716
31637
31717
31732
31563
31530
31527
31380
31322
31334
31412
31398
31414
31515
31588
31588
31709
31862
31871
31944
31955
31999
31866
31887
31897
31761
31717
31685
31650
31457
31431
31393
31455
31526
31506
31680
31863
31862
32071
32247
32270
32392
32506
32367
32388
32316
32122
32130
32108
32159
32188
32263
32336
32211
32271
32412
32428
32646
32837
32806
32879
32932
32881
32902
32804
32673
32510
32364
32380
32294
32236
32197
32231
32107
32287
32442
32599
32724
32783
32922
32847
32909
32948
32834
32826
32831
32615
32529
32468
32327
32235
32071
32115
32212
32348
32458
32585
32695
32851
32895
32934
32899
32828
32780
32679
32532
32465
32371
32115
32084
32066
31903
31974
32039
31966
32130
32319
32413
32532
32544
32611
32695
32604
32623
32591
32417
32359
32116
32060
31996
31831
31846
31870
31844
31911
32052
32035
32236
32390
32397
32423
32420
32375
32261
32221
32116
31922
31815
31749
31472
31502
31521
31364
31523
31606
31654
31823
31919
32003
32099
32041
32138
32140
32036
32022
31856
31791
31743
31518
31440
31404
31222
31312
31453
31461
31637
31850
31863
32033
32215
32135
32263
32263
32238
32180
32004
31929
31871
31612
31594
31532
31491
31562
31477
31666
31839
31981
32135
32242
32372
32452
32397
32487
32390
32401
32372
32116
32113
32054
31847
31819
31847
31791
31932
31948
32143
32396
32472
32655
32775
32676
32802
32808
32838
32686
32751
32678
32644
32345
32263
32200
32092
32084
32191
32225
32478
32586
32749
32867
32829
33011
33127
33008
33021
32935
32679
32591
32540
32310
32173
32066
32083
31958
32106
32230
32437
32486
32770
32949
32910
33028
33159
33073
33051
32849
32756
32651
32444
32343
32290
32078
32131
32199
32189
32405
32623
32705
32993
33159
33255
33183
33218
33239
33142
33043
32978
32825
32674
32551
32301
32303
32346
32222
32362
32556
32607
32903
33178
33349
33396
33429
33519
33399
33343
33304
33068
32971
32812
32572
32519
32352
32259
32292
32232
32450
32639
32796
33047
33275
33256
33422
33524
33450
33381
33252
32970
32903
32775
32463
32363
32311
32132
32239
32385
32426
32661
32903
32999
33179
33374
33311
33423
33385
33326
33092
32991
32841
32513
32391
32263
31998
32043
32117
32181
32323
32510
32767
32948
33050
33212
33344
33278
33302
33220
32924
32885
32749
32564
32230
32098
32064
31985
32054
32108
32215
32405
32694
32790
33030
33229
33190
33270
33345
33159
33142
33013
32727
32569
32431
32135
32101
32140
32202
32328
32709
32910
33324
33670
33773
34047
34150
34083
34130
34117
33847
33742
33533
33140
32919
32711
32497
32442
32401
32476
32773
32955
33239
33567
33661
33845
33971
33847
33831
33751
33405
33221
32952
32658
32385
31971
31903
31853
31739
31887
32132
32253
32651
33007
33140
33407
33579
33559
33590
33415
33281
33143
32892
32505
32337
32047
31828
31809
31662
31883
32141
32271
32609
32981
33048
33234
33283
33114
33063
32958
32662
32546
32223
32076
31916
31612
31626
31671
31660
31860
32031
32119
32303
32330
32485
32447
32420
32519
32445
32558
32574
32357
32367
32375
32242
32235
32209
32132
32122
31935
32039
32071
31921
31972
31926
31748
31751
31770
31585
31654
31636
31485
31437
31418
31378
31196
31367
31495
31532
31784
32034
32323
32933
33386
34072
34839
35546
36357
37300
38247
39351
40535
41284
41972
42534
42756
42807
42651
42246
41891
41534
40839
40204
39460
38334
37310
36223
35155
34073
32796
31900
31349
31137
31115
31294
31451
31608
31695
31670
31642
31525
31596
31646
31617
31503
31630
31793
31735
31953
32004
31912
32050
32203
32052
32188
32172
32024
32099
32170
32159
32067
32219
32252
32127
32230
32287
32196
32148
32126
32247
32239
32125
32222
32279
32143
32279
32298
32190
32271
32322
32329
32190
32279
32312
32287
32141
32223
32190
32218
32036
32112
32119
31962
32098
32159
32130
32053
32185
32181
32052
32180
32258
32149
32252
32271
32127
32221
32236
32207
32078
32154
32132
32071
32006
32095
32184
32049
32148
32199
32085
32187
32275
32140
32302
32391
32256
32395
32455
32452
32365
32450
32436
32254
32295
32299
32176
32230
32277
32296
32231
32366
32543
32494
32655
32843
32959
32903
33055
33119
32949
32991
32951
32796
32775
32734
32676
32519
32657
32724
32695
33031
33361
33510
33855
33978
34002
34138
34247
34146
34183
34100
33983
33918
33766
33557
33563
33561
33532
33555
33733
33831
34109
34339
34479
34593
34623
34384
34327
34226
33871
33742
33585
33342
33295
33041
33092
33127
33007
33116
33093
33026
32876
32903
32906
32679
32711
32629
32391
32295
32180
31865
31846
31775
31524
31557
31516
31503
31462
31302
31365
31276
31071
30886
31004
31028
30897
31151
31343
31305
31469
31449
31116
31055
30884
30551
30622
30711
30685
31038
31493
31885
32609
33286
33664
34214
34621
34769
35048
35256
35215
35293
35359
35280
35404
35540
35532
35725
35815
35737
35773
35719
35438
35325
35144
34852
34710
34616
34322
34335
34214
34147
34295
34289
34606
34896
35087
35303
35463
35447
35263
34876
34627
34109
33799
33531
33181
33166
33139
33022
33259
33452
33498
33874
34188
34351
34818
35126
35268
35575
35705
35581
35511
35404
35119
35021
34783
34692
34815
34964
35095
35550
35863
36079
36214
36508
36826
36941
37186
37205
36939
36628
36249
35572
35047
34447
33875
33709
33582
33551
33534
33901
34382
34864
35400
36090
36756
37304
37511
37598
37306
36741
36017
35247
34387
33461
32910
32390
31820
31726
31808
31867
32403
32943
33378
34088
34688
34942
35319
35356
34985
34591
34021
33149
32458
31908
31465
31169
31059
31041
31220
31470
31676
32254
32794
33225
33598
33992
34148
34067
33967
33569
32869
32290
31823
31143
30865
30641
30332
30453
30615
30684
31119
31525
31748
32187
32583
32641
32740
32690
32300
32023
31568
30828
30444
30169
29754
29605
29738
29767
29777
30198
30613
30943
31253
31820
32250
32487
32486
32664
32660
32333
32166
31765
31380
30892
30839
30586
30309
30524
30586
30718
31198
31713
32119
32852
33461
33894
34190
34465
34371
34034
33849
33423
32830
32582
32367
32207
32087
32302
32670
32983
33383
34014
34738
35370
36213
36844
36967
36951
36445
35439
34484
33315
32263
31407
30537
30043
29725
29764
30015
30436
31133
32013
32914
33771
34470
34998
35280
35272
34886
34182
33314
32196
31416
30635
29890
29606
29572
29575
29734
30395
30976
31559
32484
33339
34046
34486
34882
34761
34172
33500
32572
31311
30241
29593
29127
28720
28413
28673
29170
29866
30559
31386
32465
33343
33924
34607
34924
34863
34311
33740
32881
31667
30724
30028
29352
28805
28732
28725
28852
29503
30160
30727
31664
32466
32944
33466
33610
33318
32551
31476
30214
28971
28013
27005
26191
25774
25301
24988
25348
25739
26262
27290
28180
28880
29690
30438
30850
30876
30847
30508
29845
28951
28480
27972
27404
27281
27408
27535
27838
28597
29302
29892
30802
31751
32435
32824
33229
33252
32924
32261
31751
30967
30180
29863
29548
29182
29327
29586
29967
30780
31825
32865
33922
35303
36582
37672
38883
39780
40418
40786
40943
41058
41175
41251
41310
41478
41708
41705
41380
41182
41061
40932
40727
40436
39967
39476
38700
37670
36516
34935
32953
31293
29913
28788
28396
28076
27935
27818
28122
28673
29264
29842
30687
31640
32236
32724
32796
32764
32490
31945
31230
30343
29937
29570
29213
28933
29148
29308
29578
30088
30763
31343
31900
32732
33338
33623
33810
33902
33466
32737
32197
31405
30532
30150
29675
29302
29364
29356
29443
29983
30354
30644
31188
31907
32383
32614
32916
32764
32186
31751
31055
30227
29621
29173
28804
28483
28615
28673
28864
29493
30071
30598
30946
31486
31900
32169
32135
32039
31636
30967
30117
29642
29015
28411
28261
28122
27935
27899
28204
28505
28752
28887
29330
29644
29803
29799
30008
29913
29547
29420
29212
28964
28665
28727
28754
28582
28707
28942
28983
28945
29284
29501
29476
29623
29914
29951
29929
30181
30151
30128
30369
30309
30203
30440
30484
30471
30705
30647
30406
30503
30486
30252
30343
30510
30609
30538
30807
30916
30948
31239
31391
31503
31692
31887
31764
31946
31940
31743
31780
31719
31399
31423
31263
30949
30922
31070
31015
31073
31340
31547
31682
32124
32445
32613
32732
32943
32916
32759
32828
32604
32294
32318
32092
31783
31841
31767
31668
31969
32227
32314
32692
33092
33230
33196
33287
33432
33386
33244
32915
32799
32509
32014
31711
31606
31430
31175
31140
31272
31344
31327
31749
32391
32752
32957
33037
33124
33261
33262
32983
32724
32604
32330
32071
31818
31865
31858
31743
31673
31811
32193
32404
32634
33114
33348
33502
33575
33722
33782
33604
33335
33357
33303
33048
32948
33135
33117
33058
33388
33601
33641
33940
34255
34351
34287
34460
34383
34167
34154
34004
33865
33550
33575
33420
33213
33105
33125
33309
33503
33576
33628
34002
34100
34023
34178
34199
34175
34076
34220
33991
33799
33654
33354
33349
33255
33102
32942
33103
33190
33245
33527
33799
33918
34042
34117
34248
34406
34439
34374
34116
34140
34051
33911
33705
33719
33692
33635
33510
33743
33970
34108
34345
34600
34876
35140
35244
35245
35091
35141
35015
34770
34857
34663
34415
34520
34447
34509
34546
34497
34737
34922
35006
35049
35239
35295
35213
35015
35088
34957
34732
34700
34492
34180
34148
33964
33744
33855
33837
33718
33909
34042
34107
34141
34372
34340
34336
34220
34402
34388
34188
34199
34168
34036
33855
33898
33722
33527
33701
33743
33815
34228
34502
34549
34784
34860
34741
34871
34823
34589
34575
34426
34165
34224
34160
34014
34094
34081
33952
33788
34009
34046
34015
34300
34330
34271
34546
34719
34772
35015
34940
34823
34607
34511
34098
33879
33594
33311
33440
33556
33659
33907
34233
34391
34548
34813
34823
34762
34727
34519
34152
34117
33828
33478
33328
32988
32715
32802
32731
32791
33187
33412
33729
34151
34294
34376
34606
34628
34530
34207
34055
33826
33426
33299
33236
33089
32864
33046
33152
33198
33687
33978
34206
34724
34865
34990
35220
35188
34995
34932
34762
34407
34309
34044
33687
33660
33548
33332
33425
33602
33749
33863
34245
34516
34645
34591
34743
34735
34609
34343
34303
34042
33652
33592
33278
32912
32911
32868
32734
32930
33172
33356
33574
33935
34112
34119
34368
34277
33983
33894
33684
33284
33223
32998
32748
32440
32503
32485
32429
32788
33019
33116
33542
33748
33911
34293
34311
34188
34284
33948
33895
33631
33359
32972
32898
32585
32351
32442
32383
32410
32795
32967
33166
33549
33630
33575
33768
33743
33566
33422
33300
33020
32887
32767
32389
32258
32240
32060
31860
32099
32481
32740
32985
33484
33687
33653
33872
33835
33479
33367
32932
32484
32300
31916
31571
31503
31322
31146
31327
31335
31724
31980
32259
32934
33265
33616
34157
34584
35127
35772
36342
37190
37804
38373
39214
39908
40762
41517
42268
43063
43851
43850
44005
44109
43444
43015
42534
41565
40577
39480
38362
37023
35877
34655
33104
32031
31040
30432
30453
30543
30647
30934
31361
31573
31773
32169
32263
32229
32420
32354
32093
32075
31880
31631
31222
31214
31028
30884
31159
31400
31613
32080
32428
32662
32806
32991
33013
32855
32895
32755
32525
32321
32134
31911
31726
31502
31303
31220
31296
31479
31770
31967
32390
32500
32871
32915
32793
32988
32893
32660
32692
32487
32140
32112
31965
31716
31764
31816
31814
31939
32283
32500
32681
32935
33263
33333
33254
33391
33354
33242
32985
32966
32748
32574
32282
32290
32199
32037
32173
32342
32513
32716
33070
33248
33282
33428
33610
33501
33285
33375
33156
32876
32854
32586
32250
32209
32199
32140
32057
32305
32515
32572
32840
33150
33264
33230
33488
33359
33210
33197
32970
32743
32597
32255
32201
32106
31911
31918
32015
32027
32374
32575
32687
33042
33119
33031
33252
33206
33054
33026
32749
32735
32500
32231
32219
31885
31981
32034
31940
32277
32382
32452
32860
32965
32994
33245
33204
33147
33122
32879
32838
32645
32329
32373
32109
32071
31991
31847
32063
32228
32247
32618
32845
32868
33159
33133
33227
33164
32939
32981
32732
32593
32401
32087
32060
31868
31767
31767
31650
31930
32049
32093
32293
32560
32689
32610
32803
32754
32583
32550
32207
32206
31955
31628
31545
31391
31143
31220
31402
31394
31602
31828
31972
32124
32362
32405
32311
32436
32370
32092
32113
31968
31663
31676
31486
31295
31424
31399
31351
31742
31911
31964
32369
32589
32625
32838
32869
32703
32758
32757
32620
32356
32309
32132
31829
31944
31740
31879
31970
31973
32310
32541
32617
33021
33057
33108
33250
33158
33126
33074
32782
32793
32644
32327
32390
32181
31963
32125
32164
32145
32389
32771
32935
32970
33286
33270
33279
33303
33116
33140
32992
32716
32733
32495
32217
32263
32166
32061
32262
32186
32463
32721
32791
33001
33191
33216
33134
33155
33206
33127
32817
32827
32646
32322
32365
32212
32201
32190
32095
32338
32538
32647
32916
32938
33166
33260
33152
33356
33197
33068
33031
32691
32692
32515
32231
32318
32060
32198
32270
32224
32489
32735
33003
33119
33220
33172
33189
33329
33253
32975
33015
32788
32557
32535
32294
32151
32194
32063
32263
32375
32401
32775
32954
32993
33305
33277
33203
33303
33132
33138
33012
32698
32676
32349
32397
32271
32057
32167
32348
32409
32455
32791
32964
32959
33207
33278
33184
33287
33204
32966
32919
32855
32614
32441
32382
32238
32052
32220
32260
32242
32553
32719
32862
32940
33236
33223
33108
33207
33133
32984
32721
32764
32550
32328
32376
32223
32007
32210
32247
32255
32596
32689
32724
33038
33107
33041
33212
33123
32970
33031
32854
32591
32544
32484
32310
32183
32199
32066
32276
32393
32533
32572
32828
33052
33113
33030
33198
33130
32998
32842
32901
32742
32438
32397
32487
32327
32228
32460
32561
32601
32885
33159
33304
33364
33620
33695
33606
33679
33636
33385
33344
33373
33199
32946
32990
32871
32646
32805
32894
32865
33137
33281
33260
33487
33577
33440
33566
33534
33423
33141
33185
32978
32695
32679
32450
32167
32120
32219
32282
32332
32367
32684
32781
32728
32828
32980
33019
32932
32837
32837
32674
32384
32340
32217
31936
31972
31903
31743
31927
32084
32137
32290
32510
32482
32713
32767
32663
32756
32685
32423
32505
32324
32044
32057
31972
31810
31661
31847
31860
31861
32116
32295
32332
32537
32749
32748
32650
32842
32710
32559
32543
32394
32229
31996
32078
31944
31750
31906
31968
31934
32135
32220
32279
32125
32205
32135
31932
31691
31709
31489
31343
31052
31023
30916
30671
30580
30712
30814
30930
31463
31962
32551
33097
34023
34984
35862
36964
38131
39102
40274
41309
42423
43271
43968
44849
45002
45205
45344
44764
44373
44151
43223
42612
41844
40791
39684
38608
37335
35880
34452
33150
32126
31339
31011
30759
30566
30324
30335
30538
30641
30669
30978
31334
31503
31462
31631
31807
31740
31520
31436
31311
31069
30756
30807
30720
30544
30716
30829
30758
31004
31238
31372
31410
31650
31716
31719
31580
31724
31622
31396
31407
31279
31110
30926
30927
30703
30822
30868
30849
30925
31279
31471
31508
31780
31876
31769
31933
31924
31758
31764
31677
31449
31339
31296
31089
31068
31095
31094
31038
31352
31535
31588
31989
32045
32045
32240
32263
32100
32218
32094
31923
31730
31740
31580
31468
31399
31363
31257
31341
31476
31681
31961
32162
32219
32302
32161
32175
32287
32228
32090
31879
31940
31714
31576
31524
31296
31414
31473
31405
31671
31863
31919
32188
32320
32346
32344
32447
32351
32191
32263
32075
31788
31838
31655
31407
31557
31470
31351
31613
31596
31938
32038
32047
32380
32374
32340
32409
32207
32285
32192
31942
32020
31799
31484
31538
31476
31295
31487
31551
31519
31839
32012
32040
32275
32318
32196
32316
32275
32058
32135
31911
31655
31639
31340
31333
31246
31020
31213
31060
31318
31443
31428
31780
31804
31857
31915
31716
31728
31749
31462
31395
31300
31092
30829
30910
30735
30586
30801
30796
30812
31072
31069
31400
31428
31349
31548
31487
31302
31399
31077
31076
30971
30655
30687
30544
30317
30489
30382
30603
30746
30717
31111
31151
31244
31460
31458
31386
31537
31508
31263
31352
31136
31092
31043
30866
30956
30946
30878
31151
31399
31388
31622
32004
32090
32037
32321
32218
32284
32230
31999
32087
31994
31751
31860
31743
31598
31764
31748
31934
32116
32160
32571
32719
32798
32969
32898
33078
33037
32873
32918
32676
32732
32594
32324
32432
32305
32213
32373
32449
32492
32820
33001
32986
33247
33303
33188
33346
33334
33140
33156
33056
32791
32827
32651
32401
32502
32476
32385
32590
32783
32914
32955
33287
33436
33460
33452
33615
33493
33317
33365
33210
32936
32954
32823
32570
32596
32648
32646
32710
33004
33088
33188
33500
33629
33637
33599
33697
33761
33609
33343
33319
33245
33082
32810
32829
32796
32619
32775
32935
33060
33086
33382
33543
33646
33658
33831
33838
33727
33543
33540
33415
33097
33076
33005
32772
32707
32799
32804
32833
33092
33068
33399
33593
33690
33608
33725
33852
33774
33553
33543
33444
33287
33009
33031
32940
32804
32676
32881
32980
32974
33236
33483
33623
33602
33724
33861
33797
33646
33532
33493
33387
33214
32959
32932
32841
32739
32580
32763
32885
32980
33035
33383
33484
33593
33540
33687
33710
33639
33421
33436
33315
33127
32831
32784
32736
32611
32530
32763
32775
32772
33102
33253
33276
33488
33550
33407
33438
33505
33407
33130
33117
32972
32676
32598
32618
32518
32357
32471
32647
32739
32758
33086
33248
33201
33446
33404
33244
33328
33278
33127
32860
32917
32719
32471
32557
32397
32365
32561
32516
32698
32908
33048
33159
33407
33431
33335
33492
33378
33173
33160
32988
32753
32726
32588
32397
32436
32519
32580
32597
32997
33162
33219
33575
33666
33657
33850
33827
33676
33820
33692
33426
33428
33359
33135
33107
33100
33079
33023
33268
33369
33415
33738
33825
33892
33950
33805
33943
33859
33599
33620
33380
33274
33131
32839
32873
32804
32612
32796
32818
32765
32953
33164
33226
33254
33390
33241
33376
33334
33084
33089
32956
32647
32636
32541
32272
32282
32333
32196
32452
32428
32748
32933
32919
33159
33247
33130
33287
33169
32964
32994
32695
32724
32567
32261
32301
32282
32134
32269
32475
32479
32785
32998
32990
33227
33284
33164
33284
33283
33038
33083
32910
32675
32666
32485
32369
32397
32271
32374
32511
32498
32736
32770
32626
32798
32621
32455
32399
32151
32050
31910
31629
31648
31451
31193
31208
31141
31018
31292
31582
31812
32478
33148
33718
34753
35757
36831
38071
39415
40707
42234
43500
45004
46172
47098
48014
48516
48612
48557
48241
47738
47143
46615
45686
44599
43620
42269
40748
39175
37512
35825
34346
33308
32584
32054
31669
31564
31300
31326
31516
31564
31552
31927
32046
32046
32296
32327
32158
32231
32086
31750
31644
31207
31142
30994
30737
30910
30863
30914
31135
31147
31511
31636
31577
31715
31887
31742
31856
31801
31575
31540
31215
31175
31121
30983
30727
30869
30853
30763
31002
31200
31341
31432
31772
31852
31823
31996
31927
31760
31807
31534
31593
31367
31126
31093
30833
30960
31007
30902
31188
31348
31388
31734
31818
31902
32005
31880
31986
31922
31669
31749
31609
31347
31401
31255
31015
31082
31122
31023
31288
31478
31518
31855
31879
32066
32127
31983
32010
32108
31933
31694
31734
31557
31348
31362
31271
31108
31259
31284
31273
31591
31796
31809
32095
32207
32105
32257
32300
32209
31982
31990
31884
31572
31524
31487
31349
31239
31379
31287
31510
31767
31876
31991
32220
32239
32308
32407
32333
32143
32183
32020
31798
31830
31615
31367
31356
31348
31265
31308
31504
31598
31718
31950
31910
32103
32196
32048
32208
32039
31835
31823
31486
31436
31257
30936
30950
30938
30760
30943
31060
31031
31303
31495
31423
31612
31655
31472
31516
31464
31182
31190
31039
30654
30530
30502
30403
30155
30248
30327
30386
30438
30717
30836
30814
31071
31004
30873
30978
30930
30662
30716
30489
30238
30202
29891
29928
29919
29740
29949
30138
30116
30409
30626
30740
30669
30881
30946
30807
30991
30869
30630
30713
30590
30334
30407
30413
30250
30485
30620
30614
30980
31192
31239
31485
31720
31850
31801
31992
31978
31790
31879
31635
31639
31580
31335
31458
31431
31431
31716
31847
31946
32256
32442
32487
32631
32900
32875
32751
32887
32815
32625
32647
32522
32294
32306
32269
32108
32370
32406
32420
32773
32917
33137
33287
33268
33445
33430
33357
33389
33103
33154
33044
32751
32806
32525
32583
32612
32480
32714
32823
32928
33204
33226
33495
33624
33512
33643
33668
33479
33516
33396
33124
33108
32977
32775
32842
32628
32773
32895
32887
33119
33365
33381
33628
33751
33652
33815
33828
33621
33598
33476
33211
33199
33091
32813
32849
32846
32718
32992
33089
33154
33442
33463
33711
33836
33707
33828
33808
33690
33639
33382
33386
33104
33094
33012
32810
32896
32869
32804
33077
33236
33265
33602
33645
33799
33845
33703
33806
33775
33502
33492
33335
33148
33049
32792
32852
32674
32775
32897
32868
33192
33404
33436
33655
33746
33646
33841
33772
33548
33517
33423
33107
33066
32980
32663
32687
32716
32591
32772
32958
33068
33114
33354
33500
33415
33575
33601
33471
33542
33244
33278
33106
32871
32820
32498
32613
32516
32551
32679
32665
32946
33110
33167
33351
33484
33508
33388
33517
33399
33199
33153
32863
32857
32721
32438
32486
32396
32357
32549
32582
32775
32996
33038
33294
33298
33274
33358
33287
33250
33206
32933
32934
32639
32639
32509
32284
32378
32375
32449
32615
32615
32935
32937
33191
33269
33253
33278
33110
33135
32840
32853
32751
32460
32348
32367
32293
32244
32116
32291
32508
32567
32668
32967
33119
33061
33151
33255
33084
33116
32999
32730
32692
32608
32307
32366
32148
32243
32295
32364
32615
32660
32999
33244
33374
33566
33524
33599
33620
33424
33471
33380
33140
33142
32861
32876
32820
32700
32879
32796
33065
33236
33351
33500
33685
33547
33692
33692
33502
33524
33415
33126
33028
32986
32832
32583
32634
32566
32398
32604
32701
32675
32927
33142
33121
33298
33321
33148
33184
33119
32876
32905
32607
32583
32473
32229
32298
32206
32121
32284
32263
32512
32708
32713
32962
33054
32943
33028
33077
32856
32852
32751
32503
32545
32382
32143
32220
32196
32136
32385
32461
32519
32749
32967
32933
33116
33198
33062
33150
33124
32842
32878
32714
32473
32439
32211
32263
32275
32167
32375
32399
32526
32636
32527
32644
32600
32306
32306
32160
31855
31826
31687
31404
31474
31351
31026
31072
31015
30977
31285
31559
31863
32557
33231
33944
34958
35975
37145
38528
40036
41754
43285
44866
46376
47717
48919
49804
50343
50564
50417
50252
49898
49199
48454
47457
46249
44842
43288
41805
39863
37817
35833
34126
33170
32614
32060
31858
31724
31655
31647
31692
31572
31743
31932
31878
32127
32100
31943
32036
31948
31566
31467
31252
30823
30715
30583
30279
30422
30376
30398
30667
30636
30918
31111
31036
31210
31271
31083
31239
31092
30847
30911
30722
30416
30467
30348
30174
30260
30363
30300
30452
30734
30863
30929
31223
31264
31263
31353
31141
31183
31135
30941
30763
30813
30558
30542
30540
30373
30586
30519
30831
30983
31054
31370
31436
31495
31581
31495
31553
31324
31383
31188
31145
31023
30748
30820
30635
30744
30810
30742
31014
31220
31257
31599
31658
31647
31759
31756
31634
31660
31527
31340
31313
31167
30926
30997
30975
30799
30947
31101
31103
31386
31596
31587
31819
31942
31944
31995
31819
31793
31790
31650
31491
31438
31135
31162
31155
30999
31244
31303
31390
31668
31826
31844
32132
32127
32063
32141
32151
31908
31844
31860
31572
31513
31435
31151
31116
31232
31246
31185
31407
31598
31741
31732
31970
32045
31871
31967
31919
31743
31700
31405
31378
31260
30991
31036
30774
30847
30908
30797
31052
31204
31213
31440
31532
31556
31596
31409
31439
31365
31044
31046
30925
30600
30565
30449
30252
30378
30362
30255
30471
30619
30811
30874
30839
30993
31009
30807
30865
30799
30517
30531
30400
30086
30055
30022
29790
29929
29982
29910
30164
30378
30380
30704
30829
30727
30878
30950
30852
30743
30790
30638
30407
30485
30212
30260
30300
30156
30369
30559
30620
31008
31153
31294
31536
31495
31740
31692
31695
31705
31678
31617
31441
31468
31227
31338
31178
31316
31449
31425
31790
31949
32151
32419
32420
32666
32675
32634
32703
32649
32444
32480
32215
32234
32173
31952
32047
32116
32051
32241
32498
32539
32903
32974
33096
33220
33103
33208
33234
33071
33090
32914
32799
32714
32444
32447
32445
32356
32534
32485
32741
32951
32980
33260
33396
33302
33423
33482
33298
33381
33264
33049
32842
32711
32644
32620
32582
32585
32634
32662
32924
33151
33319
33407
33567
33668
33558
33654
33657
33452
33418
33356
33099
33088
32932
32740
32775
32775
32788
32946
33049
33212
33451
33439
33660
33764
33752
33774
33565
33600
33331
33311
33225
32935
32940
32847
32652
32728
32841
32855
33132
33175
33431
33676
33663
33812
33694
33753
33767
33572
33543
33268
33186
33116
32852
32880
32852
32760
32915
32870
33126
33303
33383
33588
33708
33710
33799
33622
33662
33573
33312
33298
33180
32894
32879
32852
32736
32735
32805
32765
33013
33198
33308
33524
33479
33575
33632
33554
33589
33436
33228
33190
32903
32858
32775
32540
32572
32590
32612
32743
32831
33017
33223
33220
33411
33501
33431
33486
33332
33303
33056
33020
32730
32703
32619
32428
32455
32292
32459
32592
32686
32877
32932
33210
33190
33302
33383
33214
33306
33172
33015
32950
32684
32615
32512
32301
32359
32237
32457
32407
32605
32826
32977
33148
33124
33303
33169
33260
33242
33070
33055
32803
32716
32605
32365
32367
32140
32330
32218
32420
32628
32671
32998
33039
33253
33169
33266
33251
33143
33111
32908
32883
32636
32543
32460
32209
32297
32134
32283
32454
32485
32832
32857
33094
33231
33217
33388
33362
33359
33328
33160
33131
33086
32956
32704
32695
32743
32679
32814
33026
33177
33222
33439
33649
33600
33759
33829
33668
33678
33569
33479
33265
33163
32962
32785
32734
32572
32595
32700
32846
32815
33094
33342
33381
33481
33524
33495
33326
33324
33153
33022
32910
32728
32460
32401
32295
32223
32300
32335
32346
32595
32740
32903
33052
32996
33124
32999
33078
33039
32828
32841
32667
32527
32413
32143
32170
32191
32037
32257
32386
32471
32668
32842
33053
33031
33236
33255
33140
33176
33060
32965
32857
32532
32511
32450
32308
32276
32367
32303
32559
32751
32775
33047
33239
33189
33380
33382
33327
33276
32971
32861
32633
32291
32080
31665
31572
31271
31383
31238
31517
31708
31811
32110
32119
32223
32365
32263
32429
32550
32534
32940
33374
33732
34486
35400
36374
37724
39263
41121
42882
44721
46374
47927
49341
50386
50799
50935
50797
50262
49647
48843
47687
46473
45024
43460
41711
40096
38427
36505
34748
33447
32933
32612
32725
32604
32694
32637
32471
32415
32076
31988
31846
31542
31519
31430
31258
31342
31316
31334
31436
31359
31559
31636
31620
31692
31543
31683
31591
31565
31548
31287
31239
31125
30837
30796
30751
30535
30665
30727
30709
31004
31011
31295
31485
31447
31581
31679
31615
31612
31367
31353
31303
31029
31047
30937
30754
30791
30811
30814
31071
31226
31277
31560
31751
31711
31894
31782
31839
31861
31663
31697
31558
31278
31215
31196
30972
31060
31109
31074
31301
31495
31524
31840
32028
31964
32092
32167
32066
32134
32047
31827
31797
31639
31462
31415
31199
31247
31343
31356
31557
31571
31846
32088
32099
32305
32391
32338
32421
32239
32292
32171
31997
31926
31635
31663
31599
31401
31537
31701
31695
31991
32183
32191
32444
32602
32670
32548
32604
32588
32360
32292
32255
32084
31905
31860
31631
31706
31751
31775
31879
32117
32314
32365
32538
32695
32607
32731
32724
32642
32466
32393
32149
32036
31946
31686
31687
31711
31591
31751
31887
31919
32125
32313
32343
32477
32527
32330
32393
32354
32060
32001
31911
31602
31500
31367
31093
31157
31173
31036
31252
31414
31399
31630
31773
31711
31802
31863
31650
31658
31567
31365
31121
31086
30807
30711
30672
30463
30536
30647
30582
30823
31012
31034
31291
31228
31245
31340
31124
31164
31090
30805
30864
30709
30521
30543
30306
30378
30458
30502
30567
30847
30880
31199
31414
31413
31623
31524
31637
31615
31511
31351
31390
31148
31176
31162
30959
31060
31164
31135
31461
31620
31789
32095
32143
32343
32467
32434
32527
32367
32405
32382
32165
32100
32080
32000
31956
31861
31992
32116
32114
32367
32604
32803
32967
32943
33063
33093
33131
33100
32892
32882
32721
32644
32567
32343
32326
32357
32254
32445
32614
32710
32887
33146
33183
33335
33359
33359
33356
33171
33165
33085
32970
32733
32628
32622
32414
32486
32575
32557
32775
32943
32949
33239
33428
33394
33519
33617
33460
33486
33445
33170
33161
33063
32796
32802
32767
32654
32743
32871
32960
33190
33224
33453
33654
33630
33718
33812
33628
33632
33599
33396
33372
33238
32997
32927
32939
32806
32932
32960
33125
33316
33375
33571
33732
33751
33818
33863
33819
33683
33603
33527
33287
33227
33025
32972
32736
32800
32860
32850
33050
33223
33332
33575
33691
33666
33736
33799
33666
33660
33511
33381
33281
33003
32944
32895
32715
32709
32815
32788
33060
33184
33212
33395
33600
33503
33639
33657
33594
33511
33364
33304
33031
32987
32894
32733
32626
32660
32572
32717
32876
32999
33162
33351
33332
33434
33530
33393
33450
33444
33208
33133
33012
32815
32655
32538
32540
32431
32553
32623
32599
32835
32993
33201
33193
33324
33428
33422
33287
33227
33191
32943
32927
32817
32639
32428
32403
32482
32368
32528
32702
32710
32980
33135
33230
33235
33311
33268
33164
33092
33031
32792
32711
32634
32383
32384
32375
32359
32337
32462
32654
32736
32937
33084
33255
33201
33332
33351
33247
33142
33049
33018
32737
32701
32608
32382
32396
32343
32484
32538
32655
32895
33106
33234
33423
33611
33623
33732
33747
33701
33604
33407
33342
33262
33190
32960
32966
32999
33114
33238
33239
33474
33639
33799
33831
33892
34004
33991
33847
33781
33718
33471
33350
33236
32970
32860
32862
32695
32767
32897
32989
33063
33138
33327
33409
33497
33359
33412
33391
33247
33138
33067
32807
32698
32594
32459
32388
32439
32457
32563
32693
32807
32942
32996
33061
33134
33231
33120
33148
33108
32904
32839
32757
32493
32432
32376
32318
32230
32326
32507
32547
32757
32951
33063
33148
33215
33292
33187
33231
33172
33052
32802
32747
32658
32559
32385
32418
32432
32364
32494
32711
32710
32916
33071
33167
32999
32999
32969
32702
32601
32396
32184
31868
31719
31670
31530
31522
31706
31791
31744
31945
32106
32383
32471
32744
33043
33274
33896
34516
35163
36004
36886
37996
39277
40594
42116
43551
44874
45872
46804
47462
47588
47601
47407
46932
46495
45782
44900
43832
42440
40940
39152
37559
35798
34000
32473
31618
31311
31334
31567
31917
32031
32314
32468
32484
32376
32364
32359
32159
32135
32117
32028
31798
31759
31640
31639
31432
31541
31575
31562
31571
31686
31623
31829
31935
31959
31943
32019
32035
31831
31864
31687
31508
31418
31141
31144
31133
30973
31079
31239
31267
31557
31744
31783
31999
31902
32033
32070
31929
31976
31729
31684
31623
31376
31322
31316
31173
31314
31206
31390
31639
31644
31903
32103
32065
32204
32295
32163
32202
32167
31903
31876
31778
31614
31480
31495
31477
31376
31540
31659
31700
31895
32126
32127
32287
32356
32483
32330
32380
32369
32293
32184
32095
31981
31876
31750
31618
31663
31779
31857
32042
32255
32435
32543
32581
32711
32790
32797
32836
32710
32630
32558
32434
32221
32231
32111
32007
32071
32143
32295
32481
32473
32751
32926
32901
33071
33117
32991
33028
33005
32836
32770
32695
32565
32410
32378
32175
32305
32407
32464
32583
32741
32982
33039
33198
33266
33253
33295
33094
33110
33040
32860
32740
32591
32436
32349
32360
32335
32353
32450
32631
32628
32873
33031
33105
32988
33051
33023
32937
32775
32703
32565
32292
32222
32137
31884
31855
31878
31785
31933
32094
32194
32260
32383
32493
32365
32423
32422
32203
32142
32102
31858
31720
31679
31444
31472
31348
31335
31429
31559
31564
31796
31914
32015
32115
32013
32089
32148
31975
31911
31845
31588
31540
31416
31386
31208
31223
31271
31238
31460
31624
31623
31892
32091
32084
32193
32281
32125
32162
32133
31924
31916
31881
31683
31603
31620
31484
31581
31650
31815
31999
32172
32325
32348
32547
32652
32564
32591
32629
32444
32416
32363
32164
32076
32042
31845
31910
32020
31938
32146
32339
32483
32614
32757
32895
32964
32890
32903
32918
32783
32684
32605
32487
32225
32208
32154
32159
32023
32202
32367
32372
32594
32775
32959
32921
33054
33079
32927
32974
32932
32868
32684
32587
32519
32365
32314
32332
32349
32357
32499
32662
32727
32938
33127
33172
33230
33205
33223
33151
33073
33041
32870
32786
32679
32498
32458
32493
32396
32511
32674
32748
32955
33191
33279
33396
33421
33427
33412
33385
33293
33248
33105
32885
32828
32813
32681
32696
32764
32722
32860
33084
33159
33357
33511
33529
33591
33588
33599
33577
33428
33340
33215
33098
33031
32824
32799
32755
32817
32821
32999
33047
33215
33399
33473
33558
33577
33485
33540
33514
33359
33242
33133
32910
32868
32815
32734
32689
32574
32711
32884
32956
33164
33327
33348
33463
33543
33539
33479
33329
33302
33207
33085
32987
32829
32714
32599
32592
32628
32713
32791
32895
33055
33200
33262
33287
33360
33371
33333
33295
33173
32980
32920
32670
32594
32558
32399
32367
32428
32438
32560
32680
32873
32989
33125
33094
33207
33213
33180
33137
32965
32791
32758
32636
32543
32367
32351
32263
32346
32292
32503
32711
32864
32923
33028
33126
33133
33143
33114
33074
32940
32857
32733
32598
32532
32414
32391
32444
32516
32660
32875
32990
33234
33394
33492
33628
33700
33616
33676
33679
33527
33508
33412
33231
33175
33055
32945
32966
32990
32942
33060
33231
33303
33471
33527
33584
33617
33534
33582
33535
33287
33174
33078
32879
32718
32636
32519
32436
32503
32519
32620
32786
32879
33005
33091
33194
33211
33172
33153
33038
32986
32935
32714
32550
32443
32310
32207
32102
32128
32135
32299
32438
32584
32725
32830
32879
32887
32911
32884
32828
32691
32553
32434
32333
32185
32061
32067
32007
32012
32070
32199
32388
32554
32666
32809
32807
32893
32884
32879
32881
32671
32596
32510
32322
32201
32139
31978
31925
31893
31897
31929
31978
31991
31994
31975
31901
31930
31871
31751
31775
31629
31527
31399
31133
30997
30944
30868
31063
31239
31698
32301
33030
33868
34964
36166
37284
38607
39997
41559
43109
44288
45529
46394
47144
47581
47505
47052
46741
46212
45505
44931
44102
42892
41797
40496
39047
37636
36060
34325
32952
32079
31716
31522
31388
31324
31221
31126
31020
31018
31020
31071
31258
31357
31614
31751
31895
31911
31983
32007
31940
31771
31639
31330
31127
30894
30716
30599
30623
30685
30763
30998
31063
31278
31443
31504
31573
31586
31613
31578
31467
31399
31308
31085
31015
30862
30804
30791
30786
30845
30852
31036
31272
31349
31553
31663
31703
31769
31769
31742
31705
31535
31509
31356
31261
31139
31073
31026
30982
31020
31174
31249
31476
31678
31751
31927
32032
31959
32036
32063
31859
31844
31774
31596
31545
31463
31285
31301
31359
31332
31454
31612
31718
31948
32055
32181
32329
32270
32335
32386
32183
32160
32084
31853
31802
31645
31618
31623
31553
31575
31732
31901
32004
32181
32436
32483
32572
32678
32537
32602
32612
32357
32319
32247
32007
32007
31987
31802
31844
31938
31959
32167
32388
32420
32632
32775
32735
32885
32877
32786
32775
32676
32476
32414
32263
32148
32126
31969
32039
32102
32094
32308
32356
32529
32740
32745
32849
32904
32774
32774
32749
32510
32472
32289
32144
32070
31842
31837
31846
31745
31879
32065
32059
32263
32428
32421
32519
32554
32422
32393
32341
32103
32007
31922
31660
31541
31448
31218
31265
31324
31279
31440
31566
31644
31805
31739
31816
31853
31729
31717
31679
31448
31396
31182
31079
30988
30796
30789
30790
30698
30809
30957
31123
31193
31400
31528
31484
31503
31538
31476
31377
31329
31205
31079
31041
30918
30789
30812
30749
30870
31034
31069
31311
31493
31575
31782
31751
31871
31884
31808
31839
31766
31572
31541
31461
31274
31298
31252
31275
31366
31510
31599
31771
31999
32185
32242
32341
32442
32428
32425
32415
32287
32239
32167
31994
31919
31879
31833
31855
31948
32027
32151
32326
32538
32647
32762
32836
32849
32852
32835
32732
32642
32548
32413
32256
32146
32067
31983
32019
32067
32125
32284
32457
32629
32788
32895
32940
32956
32962
32881
32813
32706
32587
32490
32350
32263
32207
32156
32172
32226
32308
32456
32606
32755
32911
33047
33116
33111
33066
33063
33023
32919
32818
32679
32529
32391
32326
32294
32312
32370
32467
32599
32787
32941
33083
33184
33220
33211
33261
33215
33095
33043
32891
32743
32636
32519
32405
32372
32391
32409
32508
32671
32806
32984
33183
33243
33287
33383
33319
33230
33226
33076
32937
32871
32688
32545
32543
32447
32429
32524
32580
32775
32927
33062
33242
33287
33324
33414
33356
33270
33264
33094
32950
32871
32688
32551
32529
32453
32452
32519
32576
32729
32887
32978
33185
33287
33266
33335
33372
33250
33238
33135
32922
32892
32714
32546
32532
32422
32426
32503
32581
32711
32914
32987
33187
33285
33265
33335
33375
33253
33132
33092
32935
32743
32671
32578
32419
32354
32403
32383
32492
32701
32773
32868
33057
33156
33127
33181
33236
33106
32967
32908
32853
32708
32518
32479
32372
32239
32338
32363
32386
32594
32746
32863
33031
33174
33082
33159
33159
32999
32910
32873
32695
32564
32545
32353
32255
32353
32358
32351
32598
32741
32867
33137
33391
33431
33517
33643
33543
33482
33575
33492
33314
33170
33151
33071
32911
32827
32967
33023
33052
33169
33415
33574
33591
33630
33799
33734
33592
33671
33483
33239
33229
33049
32795
32751
32684
32552
32503
32637
32714
32727
32785
32974
33166
33190
33132
33126
33191
33012
32954
32893
32654
32605
32462
32260
32293
32202
32075
32188
32239
32262
32502
32638
32676
32830
32903
32790
32871
32807
32615
32494
32504
32359
32166
32017
32037
32046
31999
31965
32077
32359
32440
32599
32860
32930
32927
32858
32856
32935
32724
32654
32636
32378
32279
32263
32090
32055
32183
32087
32196
32415
32343
32377
32551
32458
32274
32180
32064
31750
31564
31471
31198
31046
30975
30735
30645
30668
30615
30700
31035
31352
31842
32641
33263
33970
35074
36294
37447
38983
40639
42062
43540
45159
46836
48276
49607
50884
51836
52125
52551
52439
51940
51334
50691
49629
48516
47095
45431
43929
41734
40056
37729
35479
33863
32556
31983
31503
31239
31304
31236
31300
31511
31523
31650
31797
31747
31794
31815
31658
31468
31380
31083
30737
30538
30383
30183
30086
30098
30164
30306
30526
30750
30791
30847
31012
31008
30947
30999
30958
30762
30599
30607
30471
30285
30199
30222
30196
30155
30206
30426
30636
30727
30828
31007
31199
31232
31193
31119
31116
31095
30990
30877
30746
30703
30607
30455
30415
30470
30666
30692
30834
31061
31292
31311
31358
31551
31542
31445
31442
31467
31215
31087
31012
31029
30876
30749
30694
30855
30950
30964
31163
31386
31412
31550
31703
31652
31642
31795
31610
31486
31530
31291
31167
31180
31008
30894
30995
30978
30980
31267
31334
31439
31741
31807
31799
31927
31972
31839
31916
31694
31583
31655
31454
31268
31279
31180
31103
31260
31380
31394
31519
31845
31819
31980
32149
32046
32214
32187
32051
32102
31908
31708
31737
31516
31364
31465
31373
31329
31545
31548
31671
31973
32041
32108
32295
32310
32165
32151
32212
32049
31838
31815
31686
31417
31365
31389
31239
31220
31281
31515
31556
31641
31916
31915
31916
32065
31946
31847
31855
31761
31510
31356
31219
31184
31029
30867
30753
30735
30929
30956
31011
31183
31379
31351
31389
31532
31493
31359
31302
31272
31067
30874
30812
30727
30484
30414
30500
30521
30492
30559
30846
30885
30964
31228
31186
31179
31238
31259
31106
31079
31033
30823
30774
30727
30548
30546
30605
30543
30662
30899
30960
31135
31332
31554
31696
31643
31639
31765
31620
31525
31589
31408
31265
31303
31165
31060
31119
31239
31230
31415
31680
31717
31943
32204
32254
32223
32296
32427
32284
32202
32263
32071
31937
31964
31845
31727
31833
31910
31956
32063
32332
32518
32591
32828
32810
32844
32997
32842
32767
32789
32534
32586
32485
32191
32180
32262
32174
32210
32436
32437
32567
32835
32895
32979
33204
33077
33084
33141
33015
32853
32899
32647
32519
32514
32327
32263
32396
32311
32387
32629
32716
32775
33127
33091
33150
33272
33092
33166
33165
32870
32831
32844
32661
32468
32514
32422
32315
32454
32541
32596
32762
33039
33039
33159
33362
33343
33224
33324
33286
33086
33124
32948
32684
32648
32638
32438
32561
32540
32585
32828
32956
32922
33251
33326
33262
33501
33394
33327
33383
33197
33079
33076
32793
32687
32719
32575
32463
32583
32717
32725
32879
33147
33222
33206
33470
33348
33387
33429
33287
33026
33095
32946
32767
32743
32600
32426
32508
32655
32689
32751
32911
33156
33257
33199
33417
33490
33382
33397
33404
33130
33048
33013
32891
32745
32583
32511
32412
32495
32621
32745
32874
33096
33213
33220
33259
33378
33373
33219
33166
33115
33044
32804
32711
32662
32503
32396
32431
32513
32519
32658
32903
32987
33045
33255
33308
33261
33271
33321
33177
32885
32881
32791
32579
32500
32527
32348
32363
32453
32443
32586
32813
32762
33082
33143
33023
33201
33218
33021
33114
32959
32757
32775
32638
32380
32444
32322
32219
32420
32433
32489
32746
32831
32902
33171
33148
33091
33135
33141
33030
32788
32783
32695
32477
32372
32380
32251
32156
32324
32437
32570
32702
32734
32980
33151
33118
33165
33279
33147
33055
33079
32901
32695
32801
32668
32539
32629
32623
32693
32879
33173
33342
33471
33538
33759
33909
33883
33719
33835
33799
33595
33391
33399
33304
33110
33036
33063
32907
32966
33111
33130
33243
33495
33583
33523
33741
33670
33507
33641
33458
33255
33183
32999
32766
32654
32603
32407
32309
32445
32507
32582
32773
32955
33007
33166
33159
33164
33135
33222
33031
32839
32810
32546
32455
32378
32183
32192
32196
32200
32311
32498
32483
32772
32830
32931
33041
33110
32954
33108
32948
32804
32629
32619
32561
32407
32195
32326
32232
32183
32367
32604
32720
32870
33133
33134
33084
33308
33194
33030
33105
32897
32805
32740
32692
32444
32181
32206
32055
32007
32047
31964
31935
31994
31897
31860
31800
31740
31737
31751
31585
31454
31351
31196
31101
31308
31455
31746
32457
33077
33924
35322
36832
38396
40137
42041
43744
45389
47465
49189
50740
52231
53295
53924
54212
53991
53404
52883
52066
51114
49890
48876
47516
45970
44128
42218
40260
37783
35687
34394
33311
32721
32229
31924
31764
31518
31335
31268
31302
31277
31399
31591
31562
31724
31878
31751
31662
31564
31279
31141
30964
30664
30542
30520
30389
30260
30269
30183
30145
30231
30206
30343
30383
30573
30758
30839
30754
30878
30763
30758
30636
30588
30508
30349
30311
30151
29996
30121
30134
30144
30325
30384
30593
30815
30901
30933
31086
31071
30977
31039
30941
30759
30760
30583
30435
30410
30368
30305
30271
30401
30564
30716
30743
31015
31201
31224
31164
31302
31155
31103
31137
31082
30924
30717
30697
30558
30529
30430
30575
30682
30736
30885
31100
31133
31281
31436
31447
31407
31399
31455
31330
31175
31031
30943
30919
30722
30646
30677
30801
30820
30842
31079
31308
31327
31500
31589
31623
31744
31602
31605
31581
31540
31305
31254
31197
31038
30906
30991
31087
31086
31153
31356
31410
31569
31811
31770
31836
31925
31927
31799
31618
31642
31556
31382
31287
31258
31106
31007
31143
31122
31239
31445
31666
31687
31831
31935
32002
31908
31852
31892
31709
31541
31536
31283
31180
31109
31038
31023
30993
31022
31257
31292
31380
31604
31647
31623
31740
31764
31623
31572
31418
31268
31184
31084
30834
30772
30710
30635
30575
30724
30727
30869
31052
31092
31124
31338
31254
31120
31175
31052
30951
30871
30772
30575
30474
30247
30198
30284
30261
30183
30407
30503
30638
30868
30946
30993
31090
31039
31046
31093
30895
30855
30636
30589
30522
30503
30375
30276
30470
30434
30564
30892
31014
31111
31327
31356
31453
31540
31610
31508
31462
31330
31219
31191
31009
30923
30983
30958
31050
31146
31364
31516
31746
31918
31981
32047
32221
32319
32241
32081
32147
31954
31853
31916
31701
31637
31638
31718
31679
31703
32030
32030
32234
32464
32580
32647
32742
32740
32647
32647
32479
32423
32357
32351
32141
32036
32063
31938
31918
32135
32180
32351
32577
32636
32694
32933
32874
32885
32959
32758
32694
32685
32483
32250
32351
32141
31978
32070
32100
32147
32348
32462
32614
32828
32980
32956
33030
33071
32897
32888
32830
32852
32587
32399
32385
32157
32133
32172
32230
32257
32402
32556
32676
32870
33116
33063
33103
33120
33039
32942
32975
32704
32644
32603
32340
32237
32341
32194
32271
32462
32487
32657
32903
33005
33095
33274
33164
33118
33237
33079
32994
32965
32733
32647
32622
32399
32341
32501
32434
32532
32631
32761
33004
33046
33092
33379
33287
33215
33358
33173
32980
33058
32782
32673
32605
32390
32391
32428
32557
32511
32582
32655
32853
33073
33236
33287
33287
33340
33286
33150
33020
32974
32754
32614
32545
32533
32374
32303
32389
32543
32569
32704
32986
33015
33108
33237
33195
33178
33049
33167
32959
32822
32715
32683
32416
32382
32246
32180
32295
32356
32591
32596
32791
33031
33047
33118
33188
33118
33094
33063
32926
32764
32758
32561
32471
32319
32223
32388
32317
32348
32504
32596
32688
32990
33042
33094
33181
33087
33048
33031
33005
32759
32535
32565
32310
32242
32255
32290
32239
32333
32420
32589
32660
32972
32934
32903
33111
32988
32953
32972
32772
32676
32622
32572
32325
32252
32240
32180
32255
32231
32430
32608
32707
32850
33026
32987
33031
33057
33094
32863
32764
32748
32501
32394
32360
32159
32143
32174
32300
32261
32311
32606
32796
32894
32855
33087
33006
33020
33057
32878
32684
32772
32516
32404
32383
32173
32126
32222
32132
32199
32498
32510
32626
32958
32925
32981
33047
33090
32991
32900
32884
32607
32559
32459
32428
32233
32077
32231
32155
32279
32494
32558
32791
32905
33165
33076
33114
33112
33210
32994
32838
32690
32615
32510
32413
32222
32100
32260
32178
32254
32607
32616
32750
33078
33012
33033
33315
33153
33130
33177
32868
32765
32683
32462
32335
32294
32346
32228
32153
32425
32456
32552
32959
32998
33046
33287
33180
33145
33283
33022
32833
32886
32613
32443
32458
32231
32199
32293
32196
32244
32551
32632
32830
33085
33036
33162
33118
33271
33089
33012
32965
32735
32654
32575
32431
32327
32302
32375
32297
32375
32668
32716
32791
33109
33073
33167
33237
33260
33163
32966
32977
32686
32527
32569
32330
32247
32071
32102
32206
32375
32422
32647
32946
32980
33126
33249
33150
33195
33071
33005
33031
32788
32558
32628
32358
32190
32301
32132
32199
32396
32402
32559
32899
32938
33015
33298
33225
33241
33359
33204
33111
33131
32884
32741
32824
32647
32511
32745
32702
32767
33152
33237
33274
33671
33635
33732
33872
33683
33644
33606
33357
33348
33009
32775
32773
32567
32452
32567
32496
32626
32699
32972
33218
33315
33310
33533
33403
33345
33423
33171
32938
32956
32666
32535
32484
32203
32215
32100
32166
32374
32430
32628
32929
32916
32967
33223
33127
33060
32983
32826
32759
32622
32439
32322
32262
32030
31937
32086
32015
32127
32421
32448
32671
32956
32943
33012
33103
33150
32999
32875
32927
32652
32534
32351
32322
32217
32084
32127
32177
32420
32500
32711
32913
33158
33115
33228
33246
33255
33319
33055
32820
32681
32363
32129
31933
31556
31340
31295
31108
31148
31262
31330
31416
31661
31555
31517
31592
31476
31359
31503
31518
31814
32303
32666
33168
34223
35183
36487
38401
40302
42116
43970
46006
48135
49806
51358
52863
53711
54261
54213
53675
53151
52253
51133
50162
48646
47138
45567
43780
41842
40455
38206
36195
34742
34009
33388
33143
32954
32842
32513
32212
32203
31847
31655
31439
31404
31174
31068
31239
31222
31228
31375
31274
31285
31350
31157
31080
31071
30830
30727
30686
30540
30375
30215
30102
29839
29803
29788
29919
29927
30108
30317
30399
30629
30824
30761
30765
30946
30830
30767
30815
30581
30431
30366
30096
29932
30020
29908
29926
30173
30326
30613
30938
31264
31307
31375
31436
31482
31251
31140
30916
30811
30668
30303
30128
30026
29798
29925
29993
30261
30478
30791
31183
31316
31484
31687
31556
31581
31543
31444
31174
30916
30820
30452
30284
30207
30042
30102
30286
30437
30679
31161
31388
31688
31972
31957
31930
31847
31879
31812
31519
31268
31207
30810
30599
30602
30403
30408
30628
30727
31095
31359
31822
31948
32135
32292
32413
32284
32119
32087
31799
31653
31444
31316
30926
30799
30774
30850
30847
31103
31324
31759
32016
32276
32300
32551
32421
32450
32399
32342
32002
31821
31491
31283
31108
30868
30821
30909
30941
31182
31538
31939
32157
32348
32487
32446
32597
32412
32359
32263
31908
31718
31541
31170
30990
30854
30667
30693
30854
30982
31271
31607
31788
31994
32283
32207
32226
32231
32014
31811
31636
31471
31116
30811
30701
30387
30349
30415
30459
30662
30879
31284
31451
31706
31917
31855
31892
31887
31801
31644
31300
31098
30916
30575
30374
30215
30201
30156
30276
30439
30796
30977
31308
31599
31831
31806
31751
31845
31812
31467
31303
31135
30988
30620
30471
30407
30238
30306
30524
30769
31022
31273
31739
31855
31988
32229
32144
32145
32159
31901
31780
31559
31479
31121
30941
30889
30794
30846
30980
31311
31470
31876
32292
32423
32633
32789
32885
32775
32721
32639
32340
32089
32002
31797
31572
31421
31457
31416
31568
31905
32172
32447
32767
33125
33130
33241
33343
33182
33189
32951
32731
32708
32361
32151
32047
31798
31775
31767
31814
32239
32399
32773
33004
33287
33495
33623
33658
33439
33335
33304
32981
32759
32628
32289
32098
31991
31879
31967
31957
32273
32607
32911
33191
33522
33559
33599
33766
33540
33524
33268
33101
33036
32614
32372
32375
32143
32095
32202
32254
32502
32841
33187
33350
33501
33860
33772
33703
33820
33585
33476
33200
33017
32853
32478
32316
32227
32117
32129
32399
32511
32807
33231
33391
33638
33692
33751
33888
33695
33527
33533
33211
32997
32758
32689
32359
32220
32236
32111
32298
32608
32775
33101
33514
33626
33730
33855
33767
33723
33557
33598
33271
33063
32868
32543
32413
32190
32088
32338
32308
32483
32945
33149
33422
33769
33773
33735
33908
33700
33617
33571
33202
33007
32825
32503
32306
32253
32108
32188
32362
32663
32763
32980
33503
33602
33679
33775
33746
33711
33750
33418
33149
33077
32702
32511
32233
32100
32135
32085
32207
32517
32660
32903
33401
33440
33479
33700
33613
33557
33543
33287
33084
32893
32681
32390
32183
32156
31945
32007
32183
32500
32644
32914
33327
33292
33428
33516
33516
33404
33530
33206
33020
32692
32506
32332
32181
32027
31936
32033
32212
32334
32558
33031
33178
33386
33516
33671
33518
33432
33465
33098
32955
32724
32444
32365
32015
31920
31942
32075
32075
32204
32647
32852
33150
33389
33390
33492
33515
33487
33275
33072
33024
32638
32336
32256
31925
31855
31923
31895
32001
32415
32532
32846
33094
33447
33421
33378
33543
33357
33190
33179
32857
32539
32463
32093
31880
31847
31717
31750
32066
32193
32444
32942
33112
33335
33454
33593
33397
33333
33241
33151
32853
32545
32491
32098
31932
31705
31799
31861
31960
32238
32484
32843
33171
33388
33425
33423
33567
33364
33219
33049
32895
32663
32425
32119
32057
31769
31711
31886
31969
32198
32413
32882
33023
33133
33410
33382
33253
33414
33130
32879
32894
32519
32342
31985
31895
31819
31812
31797
31996
32263
32505
32820
33170
33263
33434
33388
33364
33346
33121
32866
32868
32551
32300
32143
31843
31748
31815
31751
31873
32301
32436
32806
33223
33265
33436
33579
33448
33324
33260
32920
32745
32646
32291
32007
31991
31748
31703
31913
31962
32255
32517
32850
33223
33263
33413
33527
33350
33323
33268
33050
32925
32586
32345
32133
31875
31766
31823
31807
31989
32341
32540
32924
33300
33329
33354
33602
33454
33271
33357
33019
32761
32717
32335
32119
32030
31772
31757
32014
32103
32263
32694
32855
33116
33500
33460
33543
33438
33373
33335
32986
32774
32678
32344
32129
31962
31840
31863
31866
32000
32458
32602
32923
33097
33303
33454
33492
33455
33503
33229
32980
32991
32590
32447
32105
31919
31900
31799
31892
32115
32289
32587
32972
33228
33390
33579
33734
33578
33532
33569
33317
33180
33063
32735
32448
32519
32277
32308
32460
32615
32927
33164
33647
33788
33964
33994
34014
34109
33853
33612
33620
33246
32903
32855
32480
32215
32280
32102
32185
32483
32593
32867
33055
33287
33623
33567
33565
33647
33390
33135
33141
32805
32540
32247
31991
31946
31783
31688
31807
31956
32175
32606
32775
33017
33119
33115
33260
33103
33038
32827
32750
32471
32194
32117
31827
31679
31524
31631
31593
31845
32075
32386
32783
32903
33063
33143
33141
33047
33114
33071
32767
32531
32372
32095
31927
31783
31645
31738
31762
31874
32175
32475
32813
33015
33119
33191
33345
33268
32977
32683
32603
32166
31871
31586
31301
30948
30756
30799
30841
30989
31150
31569
31764
31927
32108
32036
32103
32139
32203
32166
32391
32727
33130
33880
34752
35591
36861
38091
39764
41670
43695
45232
46580
48250
49339
49879
49863
49492
49226
48535
47608
46972
45663
44204
42839
40998
39045
37740
35833
33959
32844
32157
32041
32365
32463
32511
32737
32529
32460
32228
32079
31725
31534
31397
31303
31159
31108
31151
31239
31202
31312
31474
31546
31768
31628
31574
31548
31319
31238
31136
30926
30784
30799
30556
30471
30434
30425
30353
30417
30561
30663
30815
31076
31159
31126
31294
31199
31228
31239
31094
31012
30948
30772
30623
30585
30495
30446
30526
30627
30694
30868
31135
31204
31420
31558
31588
31615
31670
31527
31425
31367
31156
31044
31006
30833
30705
30794
30756
30845
31023
31105
31249
31575
31618
31766
31815
31699
31879
31727
31701
31660
31471
31397
31220
31133
31039
31132
31138
31161
31352
31423
31622
31863
32135
32158
32116
32306
32154
32151
32082
32115
31916
31703
31681
31620
31399
31388
31449
31479
31533
31887
31942
32114
32489
32553
32582
32634
32549
32519
32588
32357
32296
32115
32039
31969
31951
31841
31911
31884
32001
32404
32515
32599
32932
32951
32996
33044
33063
33067
33020
32846
32732
32541
32350
32348
32167
32172
32281
32294
32317
32628
32682
32806
32999
33043
33178
33105
33132
33113
32967
32759
32852
32581
32392
32516
32281
32273
32282
32219
32375
32480
32534
32912
32903
32996
33025
32854
32988
32775
32610
32657
32452
32177
32138
31959
31751
31796
31821
31744
31895
32055
32084
32271
32300
32263
32461
32359
32319
32322
32076
31909
31701
31543
31437
31308
31125
31236
31103
31250
31343
31348
31644
31727
31785
31940
31951
31876
31910
31764
31698
31612
31285
31263
31077
30911
30973
30877
30849
30980
31029
31199
31421
31487
31644
31666
31759
31794
31833
31648
31605
31455
31338
31275
31221
31016
30996
30924
30896
31093
31238
31286
31574
31805
31911
32004
32098
31972
32145
32055
31895
31905
31751
31543
31551
31370
31332
31254
31390
31519
31547
31732
31982
32007
32212
32199
32375
32467
32380
32182
32247
32083
31951
31859
31797
31687
31495
31575
31559
31557
31828
32007
32124
32364
32390
32551
32558
32529
32620
32440
32314
32330
32140
31978
31911
31679
31617
31618
31583
31775
31815
31998
32255
32283
32478
32628
32572
32565
32594
32499
32309
32240
32191
32002
31849
31833
31631
31646
31703
31716
31900
32166
32198
32399
32561
32571
32519
32703
32647
32543
32528
32341
32167
32169
32003
31791
31856
31817
31706
31958
32036
32135
32436
32519
32763
32822
32839
32865
32722
32849
32666
32537
32479
32246
32244
32027
32034
32039
31959
32212
32326
32447
32639
32740
32943
33047
32911
33100
32991
32831
32902
32641
32614
32430
32320
32278
32107
32103
32220
32181
32357
32572
32661
32835
33058
33059
33038
33214
33032
33025
32974
32775
32644
32596
32263
32374
32198
32227
32280
32271
32529
32594
32670
33002
32977
33087
33140
33031
33208
33007
32907
32851
32534
32487
32384
32118
32196
32180
32087
32247
32392
32395
32679
32908
32847
33063
33100
32982
32993
33019
32826
32644
32660
32479
32243
32279
32149
31999
32106
32255
32285
32465
32692
32692
33012
33017
33030
33134
32972
32943
32933
32617
32604
32454
32214
32306
32134
32121
32225
32180
32324
32573
32647
32858
33023
32946
33073
33134
32877
32994
32821
32655
32684
32395
32359
32242
32113
32237
32127
32228
32423
32423
32775
32783
32927
33084
33004
33030
33103
32812
32831
32756
32559
32416
32415
32260
32124
32223
32165
32275
32503
32513
32681
32933
32956
33020
33167
33085
32977
33031
32862
32647
32654
32434
32327
32300
32103
32192
32257
32160
32447
32571
32687
32959
33071
32950
33084
33151
33069
32889
32970
32737
32568
32541
32223
32191
32236
32038
32149
32334
32396
32581
32862
32882
32955
33127
33063
32981
33049
32967
32682
32741
32591
32375
32348
32299
32121
32148
32286
32289
32353
32532
32703
32949
33078
33031
33074
33175
33131
32903
32878
32911
32735
32490
32455
32359
32145
32198
32263
32238
32527
32603
32788
33076
33139
33095
33319
33436
33364
33255
33273
33342
33101
33006
32965
32903
32700
32782
32892
32994
32983
33231
33487
33587
33506
33658
33828
33710
33652
33703
33471
33287
33254
33102
32802
32866
32812
32652
32724
32923
32973
33018
33303
33300
33351
33516
33431
33367
33421
33223
33070
33063
32671
32599
32546
32289
32324
32311
32249
32420
32419
32683
32740
32920
32964
32986
33126
33012
33116
32967
32819
32820
32467
32391
32307
32093
32132
32188
32079
32223
32431
32500
32796
32850
32871
33081
33005
32999
32999
32855
32871
32621
32636
32346
32420
32175
32175
32191
32167
32379
32404
32736
32724
32983
33028
33087
33127
33087
33082
32858
32759
32532
32209
32062
31846
31473
31266
31268
31068
31137
31261
31215
31359
31463
31376
31511
31327
31364
31507
31575
31983
32255
32775
33281
33968
35076
36010
37663
39189
40672
42639
44327
46087
47944
49316
50500
51588
52111
52180
51920
51422
50626
49574
48427
47145
45522
43927
42349
40532
39189
37189
35371
33907
32979
32660
32287
32231
32156
32004
32019
31691
31550
31473
31193
31159
31063
30916
30910
31031
30927
30970
31147
31057
31058
31175
31083
30970
30941
30923
30968
30767
30643
30634
30522
30276
30167
30266
30151
30162
30348
30395
30520
30759
30932
30959
31021
31189
31069
31008
31085
30869
30769
30786
30654
30455
30340
30434
30471
30443
30594
30799
30863
31022
31308
31341
31341
31479
31522
31366
31269
31303
31154
30975
30884
30868
30696
30656
30790
30749
30818
31079
31293
31348
31593
31654
31662
31823
31718
31599
31676
31454
31354
31306
31091
31101
30926
30881
30998
30959
31070
31303
31335
31581
31751
31765
31969
31869
31870
31949
31751
31679
31655
31422
31369
31335
31162
31175
31197
31186
31439
31488
31736
31929
31968
32227
32145
32259
32247
32129
32221
32055
31906
31890
31660
31593
31619
31478
31546
31631
31687
31946
32134
32196
32503
32463
32549
32716
32567
32494
32519
32294
32237
32185
31952
31829
31917
31787
31893
31919
31947
32234
32263
32520
32596
32707
32799
32726
32849
32642
32711
32423
32423
32257
32055
32091
31879
31863
31970
31887
32017
32229
32247
32406
32657
32585
32583
32713
32685
32519
32510
32373
32127
32127
31880
31751
31783
31590
31599
31692
31699
31931
32031
32090
32318
32245
32321
32391
32235
32177
32152
31919
31801
31743
31464
31361
31295
31189
31306
31286
31341
31566
31588
31847
31940
31919
32075
31972
31911
31958
31751
31776
31601
31436
31399
31180
31165
31130
31069
31219
31262
31528
31647
31733
31997
31962
32136
32070
32091
32100
31919
31935
31711
31668
31580
31410
31463
31343
31333
31524
31559
31788
31966
32077
32349
32338
32407
32551
32423
32479
32387
32196
32230
32071
31927
31948
31790
31866
31879
31889
32154
32245
32341
32669
32761
32775
32903
32791
32909
32828
32655
32670
32543
32327
32335
32117
32078
32158
32082
32180
32380
32391
32661
32807
32836
33077
32999
33108
33028
32964
32983
32759
32704
32604
32359
32404
32260
32215
32328
32280
32511
32646
32708
33015
33023
33111
33216
33119
33148
33148
32997
32852
32833
32605
32580
32508
32358
32316
32421
32383
32527
32785
32854
33100
33218
33231
33423
33287
33253
33323
33106
32967
32929
32689
32650
32539
32390
32471
32437
32454
32711
32750
32924
33175
33169
33327
33407
33331
33333
33358
33158
33110
32977
32748
32764
32614
32501
32575
32485
32647
32711
32828
33079
33132
33309
33445
33376
33489
33444
33287
33320
33127
32978
32964
32749
32671
32621
32524
32551
32719
32756
32868
33140
33231
33340
33500
33436
33436
33498
33310
33287
33204
33005
32949
32822
32662
32695
32627
32619
32775
32890
32937
33216
33317
33391
33591
33511
33487
33566
33422
33284
33319
33100
32959
32885
32699
32747
32670
32653
32775
32839
32988
33219
33310
33383
33559
33504
33533
33543
33390
33258
33231
33014
32879
32812
32636
32606
32593
32548
32667
32821
32895
33052
33263
33303
33366
33475
33466
33350
33305
33283
33127
32989
32919
32743
32583
32577
32599
32559
32603
32803
32940
33027
33220
33364
33367
33455
33434
33322
33372
33250
33083
32989
32853
32671
32603
32532
32480
32578
32606
32717
32903
33003
33162
33355
33385
33357
33422
33335
33286
33244
33055
32895
32831
32655
32534
32494
32482
32487
32535
32715
32844
32956
33159
33230
33252
33368
33302
33268
33247
33068
32966
32875
32704
32561
32496
32455
32414
32452
32530
32632
32770
32990
33090
33197
33278
33242
33327
33287
33166
33079
33007
32887
32729
32591
32481
32453
32447
32455
32480
32628
32828
33023
33126
33245
33332
33319
33270
33311
33206
33073
33007
32839
32716
32608
32504
32481
32445
32482
32592
32721
32854
33028
33215
33300
33396
33485
33479
33468
33441
33255
33158
33014
32837
32729
32652
32604
32611
32693
32798
32921
33099
33352
33599
33700
33783
33926
34006
34004
33909
33820
33759
33635
33452
33379
33275
33191
33236
33258
33342
33534
33676
33834
34047
34162
34155
34137
34140
34107
33974
33820
33717
33549
33374
33251
33130
33039
32999
33007
33055
33142
33263
33423
33511
33619
33662
33636
33593
33570
33468
33322
33210
33023
32809
32679
32540
32463
32460
32506
32580
32703
32851
33014
33155
33244
33316
33322
33287
33212
33115
32975
32871
32748
32620
32494
32397
32331
32284
32312
32440
32607
32730
32926
33074
33191
33231
33272
33272
33205
33148
33031
32934
32846
32693
32559
32489
32439
32405
32446
32548
32707
32819
32981
33116
33149
33095
33021
32899
32692
32471
32243
31948
31662
31457
31228
31004
30932
30910
30799
30875
30940
30994
31271
31537
31916
32413
32969
33550
34241
35143
36203
37402
39028
40542
41962
43831
45560
47238
49148
50791
52220
53471
54367
54554
54180
53886
53332
52380
51221
50048
48465
46648
44775
42992
40964
38548
36215
34399
33212
32601
32356
32180
32220
32278
32231
32124
32093
32071
32033
31884
31687
31578
31364
31142
30964
30677
30447
30342
30199
30197
30287
30311
30495
30685
30766
30750
30820
30804
30654
30647
30507
30352
30242
30052
29932
29858
29861
29863
29855
29996
30198
30343
30500
30607
30677
30824
30918
30878
30753
30743
30684
30496
30357
30321
30215
30097
30102
30113
30091
30263
30443
30543
30805
30946
30973
31124
31219
31108
31167
31132
30938
30850
30799
30631
30532
30538
30421
30503
30606
30660
30804
31012
31197
31271
31439
31563
31525
31503
31508
31460
31231
31214
31110
30919
30889
30877
30748
30871
30932
30994
31140
31381
31455
31654
31821
31778
31848
31890
31751
31732
31655
31456
31423
31239
31169
31176
31023
31117
31153
31257
31516
31559
31812
31925
32006
32167
32156
32167
32172
31996
31954
31902
31647
31615
31474
31372
31428
31334
31460
31611
31649
31902
32086
32143
32300
32427
32382
32343
32363
32342
32170
32038
31958
31858
31620
31613
31591
31588
31551
31734
31900
31970
32210
32374
32422
32391
32477
32538
32391
32318
32236
32054
31868
31788
31671
31465
31471
31521
31420
31556
31751
31824
31947
32126
32245
32143
32192
32211
32127
31903
31799
31702
31575
31326
31276
31222
31088
31056
31149
31246
31410
31541
31708
31830
31892
31943
31906
31819
31696
31622
31465
31458
31271
31086
30956
30954
30911
30897
30967
31043
31222
31399
31571
31671
31751
31802
31772
31826
31826
31636
31527
31463
31371
31188
31045
31027
30990
31038
30991
31213
31378
31553
31638
31799
31947
32053
32140
32151
32111
32021
31917
31813
31654
31573
31455
31439
31361
31344
31476
31642
31762
31879
32127
32324
32303
32391
32486
32479
32340
32324
32283
32133
32035
31948
31859
31743
31658
31751
31876
31892
32135
32357
32422
32635
32719
32819
32762
32686
32716
32668
32527
32341
32294
32233
31977
31974
31983
31978
31996
32204
32428
32478
32631
32829
32966
32943
32913
32961
32848
32699
32655
32569
32344
32276
32198
31994
32037
32070
32025
32223
32391
32458
32705
32917
32870
32981
33067
32891
32926
32786
32663
32595
32406
32284
32207
32148
32062
32167
32296
32253
32506
32720
32765
32926
33062
33115
33007
33076
33063
32839
32815
32702
32486
32442
32381
32247
32159
32273
32422
32431
32566
32820
32935
33059
33217
33226
33186
33210
33188
32983
32964
32828
32623
32560
32428
32340
32356
32391
32367
32596
32823
32863
33061
33233
33252
33325
33386
33322
33254
33205
32999
32921
32876
32684
32585
32550
32540
32431
32567
32731
32775
33007
33252
33222
33397
33524
33414
33492
33447
33259
33225
33103
32853
32828
32676
32539
32564
32618
32559
32775
33004
33028
33270
33404
33352
33469
33529
33367
33364
33346
33094
33011
32930
32724
32564
32542
32535
32542
32540
32710
32882
32948
33195
33395
33332
33460
33517
33349
33279
33216
33123
32902
32775
32708
32524
32453
32445
32388
32499
32640
32800
32871
33122
33301
33223
33267
33366
33380
33159
33124
33093
32819
32775
32616
32548
32511
32351
32433
32483
32621
32845
32902
33151
33230
33381
33348
33396
33366
33239
33207
32990
32943
32717
32658
32431
32418
32327
32387
32445
32628
32742
32927
33145
33138
33287
33229
33319
33221
33199
33108
32964
32884
32629
32519
32380
32340
32313
32317
32495
32534
32751
32823
33091
33141
33276
33306
33305
33352
33175
33143
32885
32870
32593
32527
32383
32387
32412
32299
32447
32631
32648
32894
33118
33086
33268
33262
33309
33335
33104
33045
32926
32708
32631
32556
32319
32303
32287
32342
32437
32510
32715
32863
32985
33143
33228
33150
33269
33182
33166
33135
32903
32844
32728
32495
32432
32396
32298
32377
32458
32566
32790
33029
33090
33318
33523
33490
33665
33655
33613
33631
33556
33398
33366
33130
33015
33005
32948
32980
33132
33143
33405
33638
33671
33855
34007
33890
33981
33947
33766
33702
33617
33336
33284
33195
32948
32956
32964
32838
32972
33099
33151
33333
33510
33479
33584
33619
33616
33579
33399
33196
33141
33052
32727
32652
32535
32380
32413
32456
32438
32629
32818
32874
33140
33316
33283
33370
33439
33229
33199
33039
32935
32849
32603
32501
32452
32284
32282
32278
32431
32503
32718
32910
33031
33229
33159
33276
33343
33159
33188
33110
32903
32839
32758
32550
32517
32481
32406
32477
32551
32734
32919
32988
33217
33399
33330
33378
33358
33058
32946
32753
32526
32192
31870
31596
31413
31303
31190
31162
31266
31334
31479
31578
31659
31883
32047
32292
32628
33103
33591
34047
34878
35921
37007
38418
39917
41519
43341
45094
46966
49004
50772
52284
53750
54519
54663
54653
54202
53362
52701
51607
50134
48687
46996
45048
43223
41281
38919
36524
34706
33649
32948
32759
32677
32555
32568
32532
32344
32258
32111
32004
31799
31583
31451
31230
31077
30932
30662
30604
30556
30570
30555
30638
30685
30842
30886
30960
30937
30798
30798
30692
30531
30313
30204
30087
29815
29823
29843
29777
29918
30054
30260
30327
30529
30695
30727
30820
30835
30749
30631
30532
30471
30357
30108
30118
30004
30008
29959
29964
30059
30282
30402
30655
30821
30870
31018
31076
31133
31054
31028
30926
30751
30649
30569
30447
30354
30302
30338
30261
30492
30666
30885
31036
31204
31324
31327
31458
31457
31455
31370
31237
31175
30895
30868
30789
30637
30675
30657
30682
30759
30958
31116
31349
31463
31573
31653
31708
31710
31744
31613
31562
31358
31276
31180
31050
30894
30943
30940
30990
31174
31286
31484
31716
31828
32004
32052
32046
32135
32055
32019
31907
31742
31674
31409
31402
31345
31295
31342
31374
31474
31631
31795
32042
32255
32318
32407
32466
32438
32388
32380
32199
32140
31853
31777
31684
31548
31538
31564
31541
31648
31852
31991
32106
32303
32420
32412
32506
32562
32412
32367
32220
32048
31942
31804
31610
31541
31359
31381
31471
31551
31675
31778
32021
32125
32206
32283
32203
32192
32118
32037
31954
31802
31578
31375
31258
31183
31071
31092
31088
31110
31290
31463
31589
31751
31823
31876
31900
31869
31798
31756
31608
31440
31311
31202
31085
31015
30919
30959
30874
31047
31239
31316
31540
31636
31794
31735
31854
31844
31874
31741
31622
31517
31262
31223
31159
31036
31012
30995
31113
31098
31333
31548
31724
31913
31997
32121
32133
32103
32143
32041
31932
31828
31647
31558
31428
31394
31329
31380
31462
31439
31740
31927
32113
32318
32348
32494
32482
32563
32516
32440
32382
32233
32124
31957
31863
31839
31723
31735
31879
31887
32125
32303
32475
32667
32750
32877
32853
32885
32790
32697
32610
32445
32306
32252
32122
31992
31975
32001
31943
32140
32318
32461
32636
32814
32885
32898
32982
32977
32900
32767
32667
32590
32455
32272
32201
31973
32055
31996
32111
32239
32343
32585
32697
32878
32962
33031
33103
33004
32991
32918
32794
32655
32583
32383
32301
32127
32145
32101
32212
32316
32518
32669
32815
33015
33071
33178
33214
33180
33103
33055
32871
32765
32683
32439
32367
32211
32261
32260
32372
32467
32689
32820
32988
33180
33274
33340
33304
33350
33362
33165
33102
32956
32798
32667
32540
32479
32415
32455
32484
32620
32834
33015
33263
33346
33497
33518
33502
33503
33476
33303
33213
33023
32899
32716
32596
32438
32466
32444
32532
32681
32807
33051
33151
33300
33445
33449
33516
33385
33393
33279
33228
33026
32902
32725
32599
32540
32484
32527
32571
32750
32839
33038
33174
33316
33352
33417
33415
33407
33333
33193
33047
32879
32704
32599
32447
32415
32348
32260
32407
32577
32697
32823
33038
33160
33194
33284
33329
33244
33287
33119
32988
32889
32730
32628
32474
32429
32358
32358
32452
32625
32721
32871
33031
33106
33232
33317
33282
33260
33239
33068
32977
32864
32625
32541
32358
32342
32366
32378
32405
32584
32634
32886
33060
33173
33263
33203
33244
33167
33095
33031
32892
32763
32647
32434
32395
32359
32258
32290
32335
32418
32583
32803
32932
33114
33095
33182
33148
33188
33103
33031
32943
32743
32693
32485
32428
32343
32316
32279
32386
32447
32649
32780
32935
33192
33254
33363
33461
33556
33479
33423
33397
33244
33196
33116
32949
32924
32812
32892
32951
33097
33261
33396
33564
33700
33799
33784
33830
33743
33692
33439
33297
33132
32894
32804
32612
32524
32451
32383
32500
32619
32735
32915
32965
33020
33123
33140
33089
33005
32852
32697
32545
32223
32127
31928
31836
31620
31655
31578
31668
31611
31814
32004
32018
32095
32039
32007
31974
31984
31917
31788
31663
31577
31348
31281
31230
31031
31095
31175
31084
31284
31534
31675
31836
31966
32103
32001
32096
32108
32196
32007
31982
31901
31657
31632
31599
31533
31429
31509
31615
31812
31892
32156
32374
32509
32621
32628
32656
32494
32388
32087
31879
31671
31268
31124
30935
30780
30676
30743
30949
31204
31397
31504
31784
32007
32157
32169
32356
32545
32750
33127
33548
34211
34886
35716
36645
37849
39253
40799
42460
44096
45615
46810
47623
48226
48338
48097
47567
47030
46403
45598
44396
43140
41660
40028
38317
36634
35021
33179
31789
30992
30985
31252
31482
31676
31832
31906
31743
31775
31718
31545
31227
31178
31112
30879
30942
30985
30983
30980
31136
31335
31335
31495
31619
31654
31682
31612
31597
31601
31382
31368
31349
31141
31106
30991
30799
30791
30726
30751
30876
30855
31057
31284
31303
31444
31579
31460
31518
31495
31400
31359
31156
31061
30980
30708
30703
30686
30615
30596
30753
30911
31025
31276
31383
31527
31605
31521
31632
31692
31502
31503
31481
31326
31306
31159
31140
31178
31104
31239
31290
31449
31645
31668
31918
32032
32206
32227
32295
32168
32165
32177
32031
31940
31851
31689
31655
31639
31558
31655
31800
31828
32042
32233
32330
32501
32594
32615
32722
32615
32570
32479
32354
32306
32090
32036
31937
31901
31995
31993
32167
32225
32479
32714
32804
32946
33054
33143
33190
33127
33065
32972
32831
32775
32596
32540
32543
32402
32460
32595
32658
32822
33058
33154
33337
33509
33543
33602
33626
33489
33482
33413
33287
33126
32983
32924
32857
32862
32775
32843
32983
33004
33222
33419
33573
33666
33663
33703
33652
33527
33540
33463
33354
33268
33135
32991
32918
32919
32866
32927
32930
33042
32981
33191
33337
33524
33510
33525
33513
33357
33188
32990
32835
32669
32490
32367
32292
32309
32271
32142
32291
32431
32471
32572
32732
32738
32809
32719
32730
32514
32540
32360
32336
32061
32033
31796
31799
31808
31694
31733
31852
31846
32020
32215
32306
32398
32290
32351
32151
32118
31940
31932
31887
31652
31618
31425
31466
31456
31503
31508
31748
31843
31884
32060
32122
32231
32228
32241
32156
32166
32079
32046
31878
31839
31678
31700
31625
31694
31840
31911
31912
32088
32300
32326
32456
32580
32566
32582
32610
32594
32578
32554
32308
32263
32214
32036
32094
32107
32060
32151
32238
32283
32411
32347
32604
32725
32759
32869
32946
33001
32884
32782
32698
32532
32332
32403
32477
32372
32423
32505
32417
32550
32695
32662
32865
32911
32902
32896
32912
32741
32782
32771
32626
32623
32548
32554
32463
32548
32548
32618
32744
32847
32906
33055
33089
33062
33060
33030
32918
32906
32892
32911
32944
32854
32919
32756
32772
32852
32704
32823
32965
33017
33183
33282
33194
33171
33107
32927
32951
32945
32884
32961
32831
32881
32918
32870
32988
33084
33263
33265
33424
33605
33551
33615
33641
33729
33728
33620
33487
33436
33343
33100
33196
33225
33271
33198
33158
33056
32810
32754
32787
32668
32788
32909
32835
32892
32967
32945
32913
32924
32919
32723
32666
32627
32471
32492
32588
32519
32687
32775
32852
32895
32895
32871
32917
32935
32743
32759
32704
32711
32598
32647
32677
32550
32337
32292
32231
32322
32356
32590
32756
32865
32767
32775
32750
32608
32566
32550
32428
32413
32445
32303
32348
32391
32252
32423
32529
32540
32614
32742
32735
32717
32724
32582
32506
32487
32471
32289
32316
32345
32239
32305
32351
32206
32359
32366
32455
32321
32421
32511
32390
32442
32508
32382
32455
32457
32261
32236
32263
32138
32244
32334
32263
32350
32511
32470
32622
32718
32643
32764
32838
32834
32834
32651
32640
32358
32380
32263
32295
32407
32324
32535
32660
32655
32817
32791
32885
32957
32893
32900
32966
32828
32924
32943
32919
33012
33080
33143
33191
33089
33148
33148
33197
33233
33119
33223
33322
33166
33180
33007
32920
32885
32680
32680
32449
32378
32358
32245
32292
32175
32263
32069
32188
32110
32077
32215
32127
32263
32159
32263
32230
32231
32240
32087
32147
31934
32002
31911
31751
31812
31631
31812
31652
31783
31855
31917
32006
31950
32131
32002
32125
32143
31948
32006
31972
31751
31887
31828
31765
31836
31721
31888
31951
31879
32079
32122
32134
32298
32275
32346
32417
32218
32335
32245
32086
32102
32064
31986
32036
31887
32007
32076
32237
32207
32358
32391
32346
32420
32224
32228
32054
31742
31751
31557
31486
31383
31115
31132
31019
30843
30887
30757
30961
31210
31375
31939
32509
33052
33687
34594
35657
36730
37900
39226
40322
41646
43079
44284
45364
46261
47060
47546
47698
47712
47398
46915
46323
45439
44455
43220
42036
40455
39075
37626
36084
34386
32918
31924
31151
30968
30903
30724
30902
30990
31076
31270
31211
31397
31532
31442
31596
31647
31601
31460
31462
31293
31030
31058
30906
30695
30806
30909
31010
31144
31194
31451
31585
31453
31580
31631
31510
31611
31550
31334
31389
31215
31206
31239
31188
31077
31160
31255
31155
31357
31482
31412
31607
31743
31666
31905
31870
31783
31850
31783
31659
31724
31669
31516
31621
31716
31713
31671
31876
31947
31896
32103
32255
32215
32407
32432
32334
32413
32431
32262
32348
32294
32075
32148
32162
31991
32154
32247
32167
32351
32436
32378
32476
32637
32548
32660
32719
32531
32599
32593
32405
32397
32388
32221
32327
32335
32225
32284
32363
32454
32311
32431
32598
32528
32647
32748
32607
32655
32738
32532
32559
32535
32348
32451
32421
32243
32324
32391
32257
32374
32548
32500
32720
32868
32805
33019
33070
32943
33039
33057
33025
32932
33022
32985
32802
32900
32958
32830
33015
33143
33207
33153
33255
33358
33261
33396
33443
33262
33287
33192
32932
32933
32775
32576
32584
32575
32430
32570
32615
32485
32631
32736
32712
32757
32835
32775
32596
32559
32479
32173
32152
32031
31706
31676
31622
31394
31545
31544
31455
31644
31805
31775
31948
32177
32308
32222
32350
32357
32143
32210
32032
31804
31823
31791
31740
31655
31783
31676
31876
32036
31999
32316
32351
32381
32549
32591
32420
32467
32355
32047
31989
31873
31628
31678
31751
31725
31602
31787
31933
31879
32071
32293
32354
32312
32481
32423
32262
32275
32204
31936
31860
31927
31786
31595
31729
31657
31553
31724
31858
31820
32076
32236
32380
32466
32385
32411
32382
32389
32311
32134
31853
31855
31824
31722
31720
31807
31705
31967
32143
32131
32431
32702
32759
33031
32974
33098
33048
32708
32652
32464
32127
32118
32028
31863
31930
31783
31972
32153
32228
32663
32962
33167
33497
33696
33604
33660
33489
33159
32967
32685
32286
32216
32042
31782
31868
31973
31972
32313
32591
32770
33192
33516
33604
33909
33959
33796
33701
33493
33086
32924
32626
32263
32228
32201
32007
32166
32326
32381
32748
33005
33223
33380
33554
33719
33799
33770
33654
33446
33082
32964
32836
32546
32599
32609
32596
32643
32887
32925
33258
33428
33527
33858
33817
33996
33988
33717
33599
33363
32866
32695
32371
31972
31823
31764
31791
31703
31972
32207
32299
32704
32983
33087
33415
33577
33500
33588
33468
33068
32917
32660
32374
32077
32088
32039
31863
32062
32228
32386
32497
32887
33209
33342
33666
33847
33826
33781
33630
33429
32964
32786
32550
32335
32042
32046
32120
32157
32236
32571
32845
32991
33380
33759
33973
33983
34177
34104
33741
33570
33255
32878
32501
32273
32247
32183
31984
32119
32429
32626
32789
33286
33628
33764
34069
34221
34212
33975
33854
33577
33177
32614
32421
32279
32119
32028
32036
32131
32289
32420
32727
33182
33560
33882
34103
34239
34092
34116
33897
33472
33249
32847
32396
32276
32080
31847
31994
32089
32154
32496
32828
33127
33452
33788
34003
33987
34089
34023
33642
33485
33125
32587
32397
32230
31892
31927
31957
31937
32289
32373
32831
33151
33383
33828
34022
34100
34251
34029
33981
33743
33255
33083
32858
32524
32454
32472
32508
32498
32831
33119
33351
33575
34016
34358
34463
34682
34802
34611
34500
34282
33805
33615
33374
33143
32894
32965
33025
32994
33248
33654
33982
34287
34535
34915
35176
35180
35291
35213
34860
34679
34378
34024
33614
33454
33354
33220
33064
33264
33453
33622
33735
34135
34433
34583
34711
34896
34919
34724
34439
34230
33879
33532
33089
32966
32829
32575
32605
32825
33017
33187
33373
33777
33918
34284
34534
34636
34551
34373
34215
33908
33543
33039
32849
32715
32485
32241
32366
32518
32647
32864
33252
33451
33751
34036
34227
34102
34111
33843
33317
32902
32459
31735
31325
31046
30674
30506
30541
30548
30629
31052
31333
31519
31968
32285
32468
32938
33172
33454
33670
33786
34329
35012
35872
37068
38389
39812
41460
42980
44983
46852
48492
50013
51304
52292
52647
52564
52143
51306
50302
49118
47741
46109
44309
42748
40911
39046
37158
35231
33779
32745
32308
32245
32181
32430
32543
32366
32436
32255
31834
31624
31298
30790
30661
30230
30142
30022
29718
29908
29948
29987
30434
30719
30943
31397
31588
31681
31764
31446
31313
30980
30522
29991
29898
29628
29348
29420
29390
29399
29812
30092
30276
30814
31137
31273
31684
31808
31655
31637
31378
30832
30566
30285
29831
29811
29658
29567
29470
29807
30029
30178
30559
31079
31380
31501
31884
32007
31850
31841
31580
31083
30878
30500
30060
30044
29841
29588
29783
29978
30084
30498
30899
31237
31530
31980
32151
32126
32272
31913
31832
31463
30996
30743
30426
30030
30017
30004
29882
30196
30439
30542
31046
31477
31681
32119
32359
32447
32291
32164
31962
31661
31216
30764
30509
30453
30263
30034
30239
30389
30471
30972
31271
31501
32022
32289
32411
32685
32591
32407
32159
31629
31363
31006
30529
30503
30383
30215
30484
30566
30652
31078
31477
31822
32079
32504
32662
32645
32622
32420
32175
31946
31487
31038
30924
30644
30322
30484
30327
30574
30884
31135
31351
31879
32190
32346
32678
32711
32585
32483
32118
31723
31399
30999
30572
30484
30316
30094
30276
30454
30649
30887
31124
31628
32004
32098
32348
32567
32445
32092
31871
31525
30908
30675
30380
29989
29964
29925
29790
30176
30343
30476
30976
31262
31567
31998
32135
32116
32184
31969
31547
31290
30679
30422
30205
29857
29751
29910
29940
29948
30356
30654
30940
31487
31790
32130
32389
32340
32462
32322
32007
31641
31127
30804
30661
30533
30279
30399
30516
30569
31023
31337
31574
32173
32563
32708
33076
33186
33020
32983
32702
32202
31954
31650
31266
31315
31150
30990
31205
31471
31704
31992
32481
32844
33197
33561
33606
33849
33799
33431
33275
32942
32404
32274
31951
31623
31668
31604
31676
31932
32035
32476
32887
33125
33625
33877
33918
34156
33948
33907
33599
33035
32806
32388
32100
32000
31700
31821
31908
32007
32348
32481
33012
33233
33662
33983
34149
34055
34130
33932
33493
33253
32870
32383
32236
32046
31786
31940
31975
32102
32428
32561
33072
33450
33628
34049
34092
34285
34209
33813
33669
33262
32772
32607
32277
32039
31990
31794
32014
32256
32459
32623
33092
33491
33697
34119
34249
34164
34149
34010
33682
33167
32908
32586
32159
32113
32002
31844
32113
32247
32356
32810
33174
33391
33894
34137
34220
34386
34152
34100
33759
33258
33028
32536
32399
32229
31946
32084
32197
32241
32643
32946
33128
33556
33981
34215
34276
34470
34376
34009
33831
33436
32925
32736
32420
32106
32112
31943
32180
32398
32484
32918
33279
33510
34028
34177
34233
34447
34286
34063
33799
33268
33012
32725
32308
32332
32178
32074
32246
32377
32654
32996
33142
33606
33955
34055
34322
34366
34134
34026
33767
33329
33019
32709
32426
32103
32143
32151
32215
32263
32528
32916
33341
33722
34001
34204
34298
34433
34166
34047
33770
33375
32903
32748
32420
32126
32232
32174
32097
32409
32712
32966
33302
33741
34024
34140
34382
34448
34204
34036
33799
33399
32910
32718
32439
32095
32135
32114
32024
32391
32606
32751
33255
33577
33799
34130
34240
34130
34169
33910
33462
33210
32807
32344
32263
32015
31817
31951
31943
32105
32502
32743
32966
33476
33737
33911
34204
34207
33992
33895
33633
33268
32775
32587
32420
32212
31994
32196
32224
32290
32756
33019
33231
33749
34016
34183
34415
34406
34253
34083
33740
33177
32919
32496
32183
32132
31994
31910
32095
32117
32383
32761
32910
33359
33681
33813
33860
33740
33701
33269
33114
32543
32233
32021
31677
31604
31340
31471
31569
31866
32061
32365
32762
32998
33428
33708
33842
33860
33655
33637
33191
33031
32527
32380
32033
32058
31859
32002
32093
32335
32619
32880
33220
33602
33792
34181
34108
34318
34031
33994
33486
33261
32839
32476
32382
32167
31936
32005
32202
32340
32580
32873
33048
33492
33630
33982
33903
34050
33698
33524
33076
32583
32085
31434
31136
30597
30534
30260
30424
30496
30686
31054
31207
31589
31665
31992
32276
32351
32512
32764
32850
33232
33799
34476
35720
37028
38632
40495
42588
44624
47023
49244
51361
53325
55071
56164
56788
56678
56386
55646
54535
53253
51752
50161
48476
46544
44718
42567
40396
38137
36116
35139
34460
34277
34088
34231
33970
34020
33604
33427
32837
32402
32086
31535
31375
30950
30983
30658
30772
30586
30844
30804
31143
31207
31596
31700
31892
31844
31708
31408
31054
30654
30184
29955
29556
29495
29277
29363
29423
29663
29884
30271
30439
30903
31270
31484
31534
31696
31572
31159
31031
30588
30133
29938
29655
29413
29505
29330
29613
29822
29946
30452
30727
30980
31428
31694
31684
31879
31649
31406
31150
30588
30420
29920
29871
29767
29575
29831
29866
30027
30433
30581
31099
31550
31768
31828
32111
32176
31876
31736
31482
31029
30620
30397
30148
29854
29988
30017
30161
30214
30494
30884
31301
31681
32007
32213
32183
32377
32226
31775
31598
31207
30692
30563
30285
29959
30090
30100
30103
30463
30796
30980
31430
31905
32048
32391
32563
32497
32274
32135
31595
31342
31009
30700
30405
30341
30223
30166
30500
30646
30781
31238
31647
31860
32241
32588
32628
32487
32476
32208
31828
31247
31049
30699
30287
30274
30224
30083
30350
30592
30725
31183
31562
31740
32152
32386
32312
32469
32214
31810
31564
31036
30615
30334
29911
29863
29799
29622
29866
30125
30198
30645
31014
31204
31641
31823
31725
31852
31548
31092
30846
30215
30028
29652
29295
29266
29050
29142
29350
29492
29694
30189
30492
30747
31200
31404
31382
31519
31165
31068
30631
30253
29924
29472
29468
29139
29279
29316
29407
29794
30046
30365
30921
31266
31469
31814
31999
31916
31647
31551
31110
30756
30511
30129
29993
29934
29759
29884
30203
30280
30756
31217
31465
32004
32356
32440
32743
32786
32484
32371
32024
31479
31319
31086
30693
30750
30766
30685
30975
31374
31675
31916
32535
32897
33218
33343
33610
33607
33435
33188
32669
32392
32062
31580
31528
31400
31192
31399
31615
31862
32175
32381
32886
33285
33431
33772
33879
33724
33669
33311
32823
32543
32165
31774
31693
31384
31538
31560
31685
31996
32259
32519
33031
33430
33726
33946
33885
33984
33812
33358
33014
32705
32247
31876
31828
31620
31441
31649
31852
31922
32421
32759
33023
33582
33847
33959
34235
34149
33839
33704
33220
32623
32350
32095
31831
31585
31668
31729
31820
31956
32425
32844
33247
33476
33955
34101
34055
34183
33958
33540
33263
32842
32416
32070
31970
31875
31693
31863
32133
32343
32545
33060
33542
33942
34133
34418
34497
34436
34067
33808
33471
33057
32492
32200
32086
31976
31790
31956
32132
32214
32721
33082
33357
33890
34172
34194
34327
34339
34034
33582
33260
32846
32388
31998
31910
31708
31517
31763
31968
32076
32553
32958
33325
33559
33990
34203
34104
34188
33989
33535
33163
32743
32301
31848
31851
31636
31436
31653
31900
31986
32512
32898
33115
33522
33951
34196
34115
34196
33958
33613
33040
32735
32379
31997
31721
31714
31724
31791
31855
32242
32576
32836
33218
33715
33948
34055
34254
34151
33779
33620
33169
32600
32433
32076
31789
31794
31706
31631
31939
32295
32510
32886
33378
33722
33856
34136
34220
34012
33866
33687
33210
32631
32398
32140
31894
31646
31760
31902
32102
32196
32647
33031
33447
33788
34043
34095
34301
34234
33959
33450
33094
32724
32399
31947
31837
31767
31715
31657
32024
32311
32609
32887
33444
33742
33828
34060
34207
34132
33843
33382
33128
32809
32431
32006
31948
31956
31975
31956
32316
32683
33030
33326
33860
34264
34381
34613
34821
34703
34311
34090
33767
33336
32919
32798
32562
32289
32375
32554
32708
32838
33221
33643
33987
34194
34516
34747
34727
34524
34409
34068
33465
33063
32775
32445
32075
32071
32018
31893
32214
32525
32677
33066
33543
33882
34052
34302
34366
34294
34010
33529
33095
32802
32397
32095
31782
31711
31774
31865
32069
32226
32671
33124
33518
33884
33997
34267
34364
34285
33976
33582
33319
32845
32316
32158
32023
31771
31847
32103
32291
32572
32793
33223
33660
34052
34334
34384
34482
34476
34167
33653
33278
32895
32532
32143
32036
32019
31768
31916
32049
32019
32439
32615
32703
33057
33222
33122
33164
33182
32860
32550
32013
31695
31317
31006
30644
30644
30791
31036
31445
32388
33423
34464
35925
37506
39081
40812
42586
44362
46220
47600
48804
49809
50612
50988
50964
50790
50511
50172
49818
49270
48641
47671
46519
45153
43523
42060
39911
37639
35422
34215
33204
32408
32118
31772
31333
31278
31319
31311
31223
31525
31841
32135
32351
32857
33105
33205
33114
33045
32670
32021
31581
31091
30585
30050
29896
29782
29723
29687
29930
30375
30717
30889
31379
31719
31941
31939
32076
31954
31621
31119
30567
30181
29959
29763
29541
29383
29551
29756
29951
30271
30455
30855
31385
31794
31988
32023
32169
32076
31735
31188
30837
30576
30247
29948
29628
29674
29731
29797
29936
30385
30792
31036
31655
31973
32075
32372
32423
32230
31956
31623
31041
30803
30524
30097
30075
29988
29855
30114
30395
30556
31015
31510
31863
32140
32471
32575
32437
32495
32184
31682
31373
31004
30480
30309
30230
30167
30078
30380
30654
30813
31261
31764
32205
32548
32719
33029
33021
32716
32471
32229
31751
31342
30856
30590
30534
30512
30559
30584
30974
31311
31535
32051
32535
32761
33158
33272
33111
33047
32799
32295
31922
31548
31184
30751
30716
30715
30743
30748
31137
31444
31817
32144
32556
32997
33273
33271
33385
33206
32892
32306
31847
31485
31188
30887
30532
30564
30628
30726
30855
31276
31666
31887
32402
32743
32849
33062
33071
32820
32410
32016
31338
31028
30665
30215
30175
30123
30092
30031
30431
30790
31108
31401
31934
32212
32386
32430
32487
32223
31706
31404
30959
30361
29992
29831
29668
29540
29447
29790
30074
30215
30705
31178
31463
31895
32242
32342
32191
32127
31775
31207
30895
30514
30156
29766
29650
29695
29790
29798
30150
30659
31063
31458
31809
32228
32537
32617
32570
32501
32202
31647
31357
30820
30519
30508
30278
30204
30408
30591
30759
31298
31743
32027
32604
32991
33108
33389
33372
33052
32860
32478
32021
31521
31343
31107
30803
30884
31027
31100
31516
31919
32314
32714
33213
33499
33726
33934
33866
33516
33318
32914
32364
32073
31688
31308
31289
31252
31239
31575
31818
32113
32653
33052
33354
33828
34106
34084
34143
33957
33493
33239
32736
32204
32015
31751
31468
31626
31692
31719
32111
32532
32767
33325
33796
34071
34190
34396
34406
34052
33813
33384
32758
32442
32159
31812
31779
31823
31709
32061
32353
32553
33126
33583
33871
34266
34522
34593
34500
34330
33972
33388
33051
32628
32356
32116
31977
31789
31970
32272
32418
32886
33308
33564
34142
34447
34626
34812
34613
34485
34157
33553
33158
32775
32305
32205
32049
31878
32044
32311
32437
32929
33404
33815
34101
34498
34727
34772
34791
34495
34142
33736
33239
32682
32476
32145
31863
31914
32098
32254
32414
32911
33324
33725
34172
34342
34702
34707
34665
34422
33900
33636
32932
32614
32194
32066
31903
31775
31970
32019
32490
32792
33096
33604
33996
34268
34551
34469
34484
34268
33831
33311
32919
32533
32063
31831
31751
31814
31697
31996
32367
32716
33007
33506
33987
34196
34533
34554
34371
34182
33715
33283
32859
32239
31986
31796
31466
31596
31706
31801
32215
32623
32871
33426
33877
34055
34351
34455
34413
34026
33633
33254
32775
32216
32031
31767
31453
31620
31638
31764
32157
32580
32877
33447
33908
34246
34455
34420
34374
34100
33627
33227
32734
32231
32038
31787
31471
31557
31718
31925
32172
32662
33172
33548
34157
34567
34760
34812
34814
34513
34092
33719
33219
32685
32462
32289
32177
32039
32292
32550
32722
33133
33600
34074
34311
34730
34981
34872
34870
34581
34018
33583
33150
32535
32298
32091
31810
31780
31968
32157
32326
32791
33192
33487
33994
34295
34332
34433
34369
33996
33703
33140
32666
32306
31980
31569
31509
31605
31671
31732
32153
32580
32950
33284
33775
34104
34292
34274
34214
33963
33422
33058
32585
32007
31804
31621
31332
31437
31589
31672
32095
32548
32838
33428
33855
34042
34292
34392
34268
33855
33559
33088
32450
32143
31830
31503
31515
31483
31458
31850
32230
32616
32879
33439
33825
34011
34063
34052
33889
33356
32935
32202
31694
31277
30771
30646
30598
30503
30811
31100
31327
31646
32165
32679
32980
33482
33892
34134
34588
35039
35375
35670
36231
36988
38006
39460
40885
42487
44132
45501
46668
47599
48182
48502
48606
48375
48116
47454
46595
45236
43559
41807
39656
37564
35471
33568
31855
30692
30534
30842
31141
31800
32398
32874
33157
33455
33661
33503
33399
33023
32455
32033
31647
31110
30950
30804
30677
30590
30814
31063
31230
31663
31930
32231
32613
32850
32892
32985
32887
32407
32126
31704
31204
30630
30425
30292
30154
30002
30257
30576
30748
31287
31735
32007
32481
32900
32993
33025
32964
32644
32124
31711
31281
30769
30599
30382
30136
30321
30502
30628
31086
31540
31965
32332
32783
33122
33180
33344
33135
32775
32475
31935
31402
31116
30790
30479
30486
30552
30548
30953
31322
31708
32061
32621
33018
33204
33487
33535
33374
32919
32605
32175
31540
31236
31061
30823
30580
30694
30886
31223
31560
31843
32414
32884
33255
33433
33686
33748
33617
33151
32892
32452
31996
31460
31246
31093
31001
31111
31283
31412
31867
32317
32662
33199
33596
33895
33998
34081
33920
33503
33164
32722
32103
31866
31670
31476
31239
31334
31566
31848
32031
32564
33073
33495
33740
34090
34278
34180
34035
33719
33370
32696
32324
31976
31662
31315
31374
31437
31423
31782
32161
32381
32938
33405
33606
33959
34100
33956
33809
33498
32917
32447
32040
31494
31188
31121
30951
30788
31021
31326
31636
31846
32315
32763
33054
33134
33351
33353
33142
32617
32180
31721
31239
30864
30558
30169
30165
30209
30284
30488
30881
31087
31599
32087
32263
32614
32716
32642
32488
31994
31622
31223
30575
30263
30060
29714
29805
29828
29859
30203
30559
30778
31341
31813
32154
32412
32530
32398
32322
31988
31469
30999
30714
30375
29966
29908
29919
29813
30135
30452
30630
31162
31684
32004
32505
32806
32813
32881
32770
32303
32039
31647
31115
30861
30695
30382
30458
30583
30628
31004
31394
31681
32206
32746
33103
33241
33454
33508
33223
33031
32634
32118
31680
31422
31155
30860
30978
30953
31223
31548
31710
32230
32701
32974
33428
33716
33711
33806
33678
33212
32871
32471
31916
31751
31452
31204
31242
31288
31349
31773
32064
32447
32979
33371
33674
34018
34121
34003
33862
33620
33071
32673
32284
31814
31646
31556
31376
31591
31582
31957
32351
32647
33068
33557
33909
34043
34195
34268
33980
33732
33184
32796
32447
32014
31868
31594
31590
31722
31914
32062
32548
32916
33252
33751
33932
34279
34438
34346
34165
33882
33437
33054
32511
32279
32038
31837
31908
31919
31991
32359
32553
33055
33519
33766
34183
34463
34512
34500
34311
33986
33456
33066
32698
32234
32091
31986
31799
31915
32151
32248
32713
33148
33365
33847
34190
34303
34497
34479
34135
33841
33480
32882
32599
32231
31917
31823
31644
31823
32030
32157
32552
32927
33181
33709
33958
34170
34295
34148
34055
33694
33246
32838
32290
32062
31849
31589
31661
31545
31846
32131
32318
32742
33230
33475
33895
34179
34151
34150
33953
33536
33212
32649
32312
32033
31660
31623
31575
31465
31737
32052
32204
32656
33108
33429
33738
34012
33985
33995
33830
33479
33062
32644
32111
31861
31655
31379
31420
31502
31739
31983
32249
32668
33175
33510
33780
34028
33988
34013
33799
33418
33071
32610
32177
31943
31586
31519
31539
31459
31772
32088
32336
32785
33258
33504
33918
34218
34274
34308
34129
33861
33466
33120
32804
32403
32290
32231
32084
32302
32480
32707
33043
33466
33783
34236
34399
34661
34819
34687
34497
34152
33710
33287
32719
32519
32325
32031
32036
32140
32181
32537
32877
33070
33537
33916
34028
34245
34333
34118
33869
33592
33055
32668
32300
31861
31733
31440
31494
31623
31773
31927
32356
32687
33063
33422
33671
33695
33885
33797
33570
33143
32821
32446
31899
31716
31575
31280
31399
31515
31556
31924
32316
32532
33028
33436
33617
33830
33964
33788
33670
33351
32852
32476
32137
31772
31689
31540
31378
31546
31832
31956
32399
32831
33068
33560
33866
33928
34071
34020
33575
33247
32835
32164
31700
31365
31012
30791
30600
30548
30471
30620
30991
31363
31578
31999
32275
32290
32439
32494
32349
32484
32564
32656
32977
33649
34695
35847
37564
39284
41316
43340
45500
47623
49855
51928
53692
55166
55815
56134
55702
54784
53794
52453
51012
49556
47821
46134
44421
42735
40847
38836
36868
35277
34418
33919
33734
33687
33508
33319
33027
32526
32171
31730
31191
30918
30693
30360
30416
30449
30338
30524
30757
30800
31159
31468
31527
31751
31816
31607
31533
31129
30666
30316
29767
29569
29450
29260
29103
29333
29467
29623
30063
30302
30756
31164
31397
31519
31697
31599
31265
31070
30694
30141
29927
29734
29506
29354
29474
29415
29770
30085
30257
30759
31228
31407
31793
32021
32029
31929
31751
31330
30973
30631
30245
29932
29852
29742
29757
29863
30056
30215
30554
31095
31461
31695
32033
32236
32119
32177
31956
31507
31178
30844
30316
30211
30036
29767
29911
29863
30220
30525
30756
31261
31694
31920
32263
32487
32412
32390
32191
31777
31535
31095
30663
30533
30369
30120
30252
30439
30471
30812
31213
31465
31980
32353
32543
32750
32842
32618
32452
32182
31686
31319
31077
30783
30519
30546
30524
30604
30895
31010
31485
31885
32175
32564
32852
32924
33103
32969
32575
32308
31943
31416
31140
30774
30620
30593
30410
30653
30877
31023
31460
31761
32084
32455
32533
32770
32839
32581
32435
32047
31567
31201
30687
30516
30359
30064
30143
30263
30324
30688
30994
31222
31685
31999
32177
32356
32184
32151
31924
31431
31108
30712
30196
30081
29876
29596
29703
29813
29976
30064
30490
30891
31096
31508
31823
31967
31848
31844
31530
31140
30847
30426
29973
29809
29703
29444
29542
29796
29987
30132
30602
31033
31399
31595
31983
32183
32295
32199
31872
31644
31111
30898
30646
30238
30220
30242
30127
30423
30727
30935
31335
31796
32242
32466
32877
33090
33039
33026
32844
32440
32192
31738
31556
31406
31123
31188
31268
31412
31575
31958
32391
32791
33185
33447
33775
33965
33928
33885
33666
33399
32871
32607
32377
32040
31878
31843
31931
31937
32200
32568
32966
33212
33668
34036
34260
34342
34392
34319
33925
33700
33324
32932
32476
32356
32239
32073
32110
32333
32554
32814
33180
33410
33840
34251
34415
34608
34574
34407
34197
33735
33420
33055
32642
32495
32197
32271
32290
32353
32671
32976
33243
33670
34062
34263
34532
34639
34638
34526
34175
33937
33396
33103
32820
32483
32404
32168
32335
32527
32604
33001
33381
33740
34041
34439
34641
34762
34791
34520
34334
34022
33519
33236
32940
32614
32545
32452
32349
32545
32853
32982
33439
33836
34052
34446
34687
34773
34730
34644
34311
33975
33626
33098
32871
32682
32377
32404
32471
32468
32775
33079
33271
33711
34085
34428
34535
34715
34733
34567
34295
34008
33483
33202
32903
32543
32459
32438
32324
32559
32831
33082
33284
33665
34100
34247
34533
34662
34551
34479
34228
33747
33425
33080
32671
32531
32364
32229
32327
32459
32567
32883
33250
33575
33905
34248
34444
34446
34462
34363
34047
33640
33308
32951
32484
32364
32263
32039
32118
32364
32602
32772
33190
33476
33820
34189
34320
34399
34396
34164
33982
33591
33202
32871
32426
32311
32191
31989
32156
32309
32418
32790
33095
33284
33695
33981
34257
34262
34311
34123
33772
33471
32929
32692
32420
32065
31964
31929
31844
32173
32325
32596
32980
33199
33612
33955
34091
34139
34151
33876
33718
33370
32855
32538
32329
32005
31935
31793
31889
32111
32313
32584
32971
33260
33638
34023
34130
34376
34447
34300
34046
33788
33367
33071
32823
32511
32434
32478
32388
32666
32894
33209
33525
33887
34231
34518
34631
34783
34741
34567
34141
33862
33479
33079
32647
32452
32359
32305
32295
32538
32707
32847
33223
33600
33813
34049
34236
34350
34269
34030
33721
33412
32911
32575
32325
32078
31855
31879
31957
32103
32248
32592
32902
33131
33481
33785
33846
34023
33999
33671
33491
33154
32598
32351
32086
31692
31668
31682
31706
31780
32105
32220
32615
33005
33415
33618
33902
34018
33826
33716
33477
33007
32751
32377
32024
31917
31772
31743
31855
31905
32271
32527
32767
33254
33586
33722
33945
34079
33901
33748
33397
32823
32439
31804
31565
31119
30817
30626
30415
30610
30700
30852
31228
31389
31790
32007
32047
32236
32098
32138
32196
32161
32396
32767
33292
34389
35716
37319
39236
41150
43420
45728
48132
50426
52802
54785
56324
57393
57627
57269
56701
55701
54425
52959
51538
49908
48028
46224
44378
42399
40212
37725
35953
34811
34305
34039
33727
33705
33470
33010
32695
32303
31696
31370
31109
30686
30447
30406
30382
30237
30447
30522
30508
30825
30996
31031
31283
31219
31111
30954
30530
30300
29951
29437
29286
29076
28774
28910
28927
28928
29295
29636
29788
30255
30628
30727
31070
31124
30957
30895
30616
30184
29933
29539
29287
29164
28891
29010
29146
29140
29524
29876
30061
30523
30954
31055
31335
31460
31290
31163
30964
30590
30068
29904
29657
29359
29398
29359
29316
29678
29901
30068
30559
30917
31140
31569
31724
31617
31660
31479
31076
30855
30530
30055
29855
29777
29620
29454
29772
29921
30019
30423
30805
30997
31452
31774
31796
31975
31951
31597
31495
31139
30606
30453
30223
29884
29908
29946
29895
30158
30507
30680
31166
31580
31780
32071
32327
32326
32231
32079
31834
31471
31012
30782
30552
30200
30215
30318
30391
30407
30708
31183
31487
31792
32175
32260
32481
32583
32351
32255
32005
31481
31209
30919
30651
30303
30247
30391
30444
30441
30787
31095
31348
31615
32023
32288
32407
32263
32240
32103
31764
31261
31015
30694
30413
30027
30004
30018
30033
30041
30392
30703
30876
31239
31628
31823
31818
31906
31834
31457
31133
30807
30458
29976
29825
29661
29349
29403
29563
29692
29820
30239
30481
30663
31093
31294
31378
31516
31399
30996
30794
30452
29938
29783
29350
29356
29265
29172
29354
29428
29826
29977
30466
30860
31046
31460
31527
31646
31631
31303
31141
30855
30534
30098
30041
29942
29723
29900
30025
30143
30573
30905
31173
31685
31998
32226
32551
32612
32423
32340
32111
31660
31503
31207
30874
30882
30797
30759
31012
31074
31461
31842
32041
32539
32918
33089
33352
33435
33300
33181
32791
32559
32277
31848
31813
31629
31488
31620
31584
31911
32193
32441
32885
33106
33525
33799
33873
34007
33829
33636
33407
32974
32720
32255
32202
31926
31894
31951
31897
32198
32493
32651
33094
33435
33695
34031
34038
34178
34055
33893
33587
33188
32870
32428
32297
32170
31943
32068
32192
32342
32672
32836
33242
33621
33831
34207
34197
34303
34231
33911
33694
33207
32970
32676
32421
32299
32064
32190
32275
32440
32740
32919
33357
33745
33952
34284
34323
34381
34356
33996
33774
33434
33017
32783
32364
32327
32302
32156
32361
32623
32748
33172
33487
33694
34038
34333
34376
34498
34364
34047
33855
33428
33063
32794
32462
32342
32340
32327
32261
32588
32847
33023
33424
33805
33952
34273
34448
34406
34346
34121
33637
33409
33073
32641
32469
32331
32123
32253
32391
32399
32762
33098
33327
33785
34063
34183
34370
34375
34254
34087
33687
33295
32997
32718
32359
32338
32253
32143
32388
32583
32782
33065
33440
33668
34023
34256
34294
34393
34118
33951
33684
33172
32947
32621
32247
32200
32151
32054
32346
32515
32596
32999
33375
33575
33951
34200
34199
34254
34191
33806
33596
33257
32865
32482
32367
32143
32039
32134
32207
32406
32695
32837
33300
33628
33818
34071
34241
34119
34071
33852
33398
33112
32804
32438
32282
32062
31975
32036
32050
32345
32501
32871
33230
33543
33702
34060
34138
34060
33954
33791
33310
33038
32726
32250
32165
32042
31906
31860
32105
32280
32369
32789
33172
33351
33751
33996
33965
34055
33948
33543
33390
32980
32487
32276
32121
31789
31825
31903
31893
32177
32482
32641
33015
33455
33687
33836
34030
33935
33847
33625
33284
32815
32567
32103
32007
31893
31698
31879
32030
32105
32519
32885
33117
33603
33979
34129
34426
34531
34324
34151
33889
33351
33119
32839
32503
32419
32410
32284
32587
32763
32957
33390
33727
33973
34382
34540
34589
34613
34324
34143
33818
33274
33008
32771
32517
32199
32222
32263
32196
32519
32799
33006
33268
33670
33937
33986
34127
34143
33846
33617
33278
32775
32487
32259
31916
31857
31847
31852
31863
32191
32430
32601
33014
33343
33487
33764
33895
33829
33559
33419
33047
32540
32287
32055
31711
31721
31628
31620
31857
32100
32204
32687
33007
33214
33566
33839
33847
33931
33693
33467
33183
32684
32356
32199
32026
31749
31824
31913
31901
32276
32555
32714
33148
33511
33736
33832
33879
33788
33352
33073
32670
31967
31551
31116
30623
30513
30332
30284
30484
30495
30829
31097
31198
31688
31968
32220
32660
32915
33407
33854
34358
35172
36077
37502
39180
41143
42893
45122
47316
49556
51612
53657
55244
56278
56878
56944
56651
56023
54904
53672
52070
50212
48135
46152
44012
41903
39174
36767
34919
33963
33451
33222
33331
33501
33486
33663
33598
33359
33207
32835
32338
32018
31586
31070
30898
30432
30338
30202
30077
30134
30287
30288
30631
30960
31015
31308
31407
31181
31117
30772
30247
29982
29666
29248
29183
29053
28959
28777
29047
29351
29463
29925
30332
30494
30901
31175
31105
31202
31079
30677
30468
30131
29606
29502
29263
29005
29144
29183
29244
29677
29959
30167
30687
31060
31166
31504
31620
31463
31347
31135
30613
30260
30056
29715
29508
29462
29237
29452
29668
29740
30161
30556
30779
31203
31542
31783
31892
31843
31634
31324
30793
30428
30186
29972
29606
29623
29662
29556
29844
30164
30302
30789
31221
31446
31840
32087
32175
31973
31896
31664
31140
30866
30566
30174
30097
30026
29824
30046
30311
30382
30805
31293
31643
31861
32250
32532
32480
32554
32383
31916
31601
31305
30934
30511
30493
30326
30167
30413
30591
30706
31176
31527
31874
32302
32428
32722
32810
32602
32476
32199
31635
31321
31015
30548
30430
30351
30130
30351
30557
30719
31107
31304
31856
32142
32381
32599
32494
32519
32321
31866
31580
31015
30683
30404
30088
29907
29960
30014
30004
30389
30716
30906
31392
31799
31924
32200
32196
31967
31840
31480
30897
30650
30125
29846
29727
29556
29316
29455
29774
29985
30132
30631
31025
31239
31669
31785
31751
31782
31375
31151
30791
30198
29958
29733
29343
29439
29407
29412
29691
29762
30251
30670
30952
31460
31797
31854
32062
32060
31684
31487
31154
30614
30396
30206
29874
29933
30004
29925
30356
30691
30879
31385
31875
32103
32526
32783
32782
32860
32490
32226
31924
31526
31175
31036
30747
30838
30894
30879
31294
31526
31828
32351
32740
33007
33381
33628
33639
33704
33426
33125
32838
32455
32015
31884
31689
31440
31585
31742
31776
32181
32557
32921
33239
33655
33958
34010
34161
34118
33759
33512
33110
32560
32322
32076
31727
31727
31798
31856
31930
32335
32679
32928
33415
33771
34119
34196
34356
34268
33905
33607
33233
32676
32436
32141
31943
31895
31737
31964
32239
32407
32868
33159
33596
33970
34108
34326
34436
34268
34135
33748
33246
32908
32551
32149
32103
31983
31850
32076
32332
32455
32935
33327
33615
34030
34352
34529
34471
34450
34216
33791
33415
33077
32636
32356
32290
32145
32016
32228
32483
32791
33134
33405
33927
34276
34446
34612
34719
34492
34342
33957
33525
33137
32623
32471
32262
32034
32129
32239
32379
32762
32983
33444
33896
34119
34443
34596
34487
34444
34220
33772
33427
33000
32511
32370
32159
32055
32095
32042
32418
32529
32961
33386
33620
34051
34359
34503
34561
34288
34076
33767
33228
32869
32413
32191
32034
31766
31909
32073
32261
32482
32887
33144
33687
34014
34224
34481
34396
34332
34081
33691
33176
32794
32495
32103
32060
31914
31788
32035
32255
32468
32940
33333
33592
34023
34303
34481
34410
34359
33929
33654
33260
32713
32412
32001
31940
31855
31719
31972
32223
32391
32863
33287
33571
33998
34302
34412
34383
34258
34018
33597
33247
32775
32375
32140
32007
31778
31911
32074
32177
32578
32939
33296
33788
34008
34335
34519
34380
34349
34093
33583
33186
32827
32303
32140
32000
31852
31895
32071
32162
32582
32943
33348
33648
34088
34369
34405
34446
34311
33930
33610
33193
32666
32294
32143
31959
31738
31792
32006
32261
32414
32900
33318
33580
34006
34289
34294
34381
34239
33844
33511
33076
32564
32290
31939
31765
31722
31769
31749
32108
32506
32836
33182
33627
33872
34163
34303
34281
34149
33911
33455
33004
32645
32164
31979
31792
31594
31717
31734
32100
32463
32727
33272
33725
33966
34340
34564
34512
34479
34256
33921
33543
33076
32881
32588
32359
32343
32238
32492
32766
33031
33466
33829
34344
34572
34880
35016
34909
34772
34484
33954
33500
33146
32648
32455
32297
32070
32194
32381
32468
32857
33233
33458
33940
34276
34388
34588
34612
34409
33980
33592
33023
32691
32291
31972
31813
31665
31743
31854
32157
32358
32810
33104
33567
33861
34145
34311
34194
34031
33684
33125
32750
32375
31987
31658
31569
31331
31495
31709
31797
32216
32680
33019
33504
33877
34093
34165
34154
34023
33554
33282
32855
32287
32007
31776
31521
31535
31620
31719
32031
32399
32726
33173
33645
33909
34183
34300
34100
33927
33582
32961
32428
31938
31289
30927
30727
30465
30373
30618
30703
31203
31669
32004
32451
32775
32829
32977
32970
32630
32486
32335
32286
32621
32997
33671
34621
35908
37486
39480
41516
43772
45925
48004
49741
51356
52356
52615
52646
52231
51415
50569
49460
48060
46513
44852
42964
41236
39267
37577
35654
34103
33413
33233
33549
33935
34085
34167
34116
33712
33381
32905
32275
31841
31409
31004
30940
30703
30854
30996
31184
31567
31908
32123
32452
32698
32782
32749
32609
32239
31709
31313
30886
30319
30101
29902
29708
29578
29526
29695
30018
30365
30791
31053
31548
31937
32007
32227
32276
31918
31689
31335
30719
30367
30096
29700
29689
29679
29620
29946
30124
30577
31022
31329
31828
32233
32351
32575
32540
32215
31916
31576
30981
30687
30397
29999
29950
29960
29908
30138
30558
30873
31124
31657
32203
32432
32732
32897
32702
32527
32277
31697
31338
30966
30636
30305
30079
30133
30257
30337
30754
31167
31463
32005
32519
32846
32993
33172
33206
32855
32564
32188
31575
31234
30948
30715
30514
30613
30696
30866
31205
31549
31913
32391
32875
33116
33400
33529
33380
33159
32862
32420
31823
31468
31210
30961
30759
30750
30922
30977
31409
31844
32180
32678
33100
33500
33639
33783
33754
33473
33063
32628
32060
31655
31396
31158
30949
31014
31042
31265
31602
31940
32225
32743
33186
33511
33639
33780
33667
33388
32996
32383
31975
31575
31111
30971
30668
30753
30697
30946
31285
31631
31925
32435
32716
33091
33320
33263
33238
32802
32456
32017
31364
31055
30662
30371
30260
30039
30215
30402
30612
31029
31265
31734
32188
32508
32715
32791
32556
32334
31846
31446
31001
30422
30220
29839
29748
29799
29689
30004
30322
30752
31026
31553
32001
32335
32422
32569
32546
32167
31844
31400
30933
30406
30132
29987
29745
29844
30031
30157
30434
30908
31233
31754
32243
32649
32766
32915
32815
32554
32231
31796
31256
30818
30519
30332
30310
30340
30478
30725
31033
31305
31784
32299
32793
33131
33391
33508
33422
33159
32733
32277
31889
31338
31074
30925
30668
30727
30892
31004
31448
31882
32391
32807
33271
33641
33878
33966
33799
33543
33038
32574
32020
31593
31315
31010
30980
30860
31014
31329
31531
32038
32556
32972
33484
33879
34087
34173
33996
33678
33205
32668
32161
31558
31309
31092
30810
30863
31040
31170
31620
32156
32526
33181
33638
34135
34391
34449
34351
33972
33415
32793
32129
31676
31239
30980
30875
30766
30948
31300
31642
32188
32815
33302
33964
34408
34727
34733
34615
34157
33594
32903
32283
31756
31203
31038
30954
30839
31080
31467
31796
32383
32897
33558
34143
34633
34819
34934
34700
34327
33780
33120
32401
31911
31384
31169
31047
30999
31234
31471
31958
32493
33081
33647
34172
34682
34855
34972
34834
34330
33855
33087
32486
31973
31468
31224
31133
31077
31311
31527
31994
32551
33015
33654
34260
34727
34917
34993
34772
34378
33831
33089
32397
31862
31495
31154
31021
31086
31098
31479
31947
32370
32971
33606
34160
34572
34861
34795
34654
34228
33729
33004
32372
31798
31364
31191
31031
31044
31221
31433
31884
32383
32892
33565
33993
34439
34664
34652
34525
34100
33542
32906
32252
31791
31398
31119
31039
30891
31148
31527
31917
32292
32884
33447
33920
34258
34498
34477
34371
33958
33507
32831
32263
31736
31456
31239
31191
31054
31267
31580
31978
32321
32845
33396
33872
34202
34307
34311
34140
33716
33278
32739
32247
31725
31500
31310
31081
31219
31422
31711
31936
32473
32887
33380
33788
34095
34322
34339
34183
33727
33324
32797
32365
31807
31575
31426
31212
31274
31523
31711
32088
32519
32844
33405
33850
34187
34284
34343
34083
33734
33357
32853
32361
31848
31647
31527
31311
31396
31605
31733
32116
32595
32980
33472
33885
34183
34440
34408
34306
34055
33625
33031
32631
32369
32022
31937
31922
31881
32087
32440
32710
33172
33642
34100
34567
34836
35036
34980
34837
34460
34023
33511
32980
32577
32262
31988
31872
31913
32132
32308
32725
33068
33536
34010
34362
34641
34820
34686
34539
34148
33653
33132
32615
32213
31781
31604
31551
31484
31673
31810
32220
32695
33068
33510
33935
34161
34372
34356
34165
33760
33319
32679
32255
31686
31479
31207
31143
31247
31315
31612
32006
32263
32834
33359
33716
34038
34162
34147
33922
33583
33060
32564
32101
31652
31401
31303
31172
31198
31383
31745
31988
32504
32969
33404
33780
34135
34292
34228
34084
33684
33159
32647
32055
31654
31302
31038
30925
30757
30899
31044
31218
31562
31804
32263
32703
32894
33019
33066
32715
32252
31787
31159
30776
30270
30145
30245
30511
31103
32030
33271
34763
36359
38159
40175
42286
44412
46449
47988
49320
50328
50646
50695
50183
49359
48751
48070
47231
46511
45596
44433
43327
42004
40767
39431
37909
36172
34759
34079
33639
33178
32796
32252
31807
31295
31022
30818
30602
30581
30589
30885
31298
31689
32160
32605
33046
33178
33366
33219
32982
32426
31878
31199
30631
30054
29799
29614
29431
29523
29793
29922
30356
30836
31296
31598
32079
32340
32397
32355
32138
31825
31224
30772
30368
29863
29735
29525
29355
29479
29759
29943
30448
30743
31305
31819
32082
32481
32623
32556
32340
32009
31464
31047
30438
30170
29974
29718
29789
29738
30024
30387
30650
31164
31641
32135
32574
32775
32910
32909
32680
32334
31812
31328
30830
30557
30215
30102
30103
30052
30387
30696
30989
31476
32043
32438
32861
33141
33271
33157
32978
32687
32110
31672
31271
30789
30611
30523
30363
30505
30838
30999
31429
31951
32351
32868
33270
33483
33707
33620
33438
33051
32535
32076
31556
31298
31045
30871
30834
30999
31060
31476
31887
32263
32791
33244
33568
33837
33989
33979
33654
33279
32770
32308
31810
31484
31151
31041
31087
31057
31348
31684
31943
32423
32949
33407
33724
34004
34113
33989
33772
33421
32840
32183
31791
31508
31231
31079
30932
31053
31207
31487
31854
32151
32708
33194
33481
33642
33756
33618
33304
32893
32306
31787
31364
30891
30706
30514
30356
30422
30653
30748
31141
31612
31997
32422
32732
32839
32963
32874
32615
32196
31567
31119
30596
30278
30020
29876
29675
29863
30070
30286
30694
31039
31533
32022
32258
32535
32686
32569
32316
31938
31459
30963
30450
30167
29985
29708
