ECG
32852
32775
32734
32670
32679
32680
32721
32762
32831
32911
32938
32947
32982
32991
32967
32953
32986
33020
32871
32831
32788
32839
32948
32850
32790
32785
32817
32882
32927
32969
32975
32958
32950
32943
32960
32935
32839
32854
32813
32855
32841
32846
32844
32871
32829
32734
32838
32845
32870
32940
33001
32966
32970
33004
32969
32935
33019
33006
33067
33011
33031
33004
32907
32853
32841
32820
32775
32869
32903
32919
32919
32894
32885
32741
32764
32832
32852
32852
32884
32871
32876
32847
32894
32912
32855
32877
32825
32791
32774
32817
32826
32876
32877
32903
32892
32820
32824
32901
32863
32925
32900
32950
32958
32959
32862
32750
32636
32615
32714
32696
32737
32732
32742
32703
32669
32657
32622
32647
32703
32666
32716
32668
32676
32654
32592
32588
32572
32727
32764
32737
32775
32795
32759
32764
32740
32767
32767
32831
32832
32890
32853
32847
32765
32813
32807
32852
32896
33006
32983
33062
33051
33119
33045
33023
32996
33032
32925
32980
33031
32831
32967
33056
33023
32973
32824
33001
32960
32804
32929
33031
33013
32991
32823
32968
32985
32841
33021
32998
32849
32860
32988
33007
32987
32938
33052
32979
32882
33049
33031
32903
33108
33046
32889
32913
33030
32940
32794
32969
32934
32927
32762
32906
32935
32873
32847
32770
32775
32763
32836
32847
32987
32999
33009
33026
33054
33061
33096
33131
33122
33105
33084
33090
33022
33054
33047
33073
33044
33071
33037
33073
33117
33175
33321
33399
33464
33524
33538
33558
33605
33483
33412
33364
33300
33404
33407
33391
33364
33317
33351
33362
33260
33295
33212
33213
33197
33237
33199
33300
33284
33300
33255
33306
33230
33236
33193
33319
33272
33220
33184
33207
33182
33186
33167
33273
33321
33332
33354
33287
33257
33247
33287
33177
33133
33047
33046
33020
33062
33122
33188
33199
33239
33242
33271
33282
33303
33301
33198
33148
33078
33007
32995
33053
33045
33082
33177
33182
33178
33207
33215
33247
33299
33191
33127
33127
33176
33295
33340
33356
33378
33324
33228
33178
33103
33036
32955
32833
32852
32734
32583
32509
32445
32388
32330
32263
32228
32058
32016
31918
31955
32029
32185
32295
32708
33068
33508
34009
34585
35171
35672
36341
36997
37732
38372
38981
39431
39748
40009
40230
40383
40499
40589
40586
40687
40664
40646
40474
40236
39800
39372
38981
38436
37940
37397
36834
36247
35598
34966
34405
33969
33653
33368
33155
32971
32766
32605
32447
32285
32340
32251
32150
32045
31918
31831
31823
31689
31575
31469
31534
31574
31548
31542
31451
31442
31342
31295
31255
31273
31254
31265
31249
31268
31223
31252
31239
31238
31221
31246
31327
31375
31345
31374
31441
31393
31435
31356
31350
31342
31371
31387
31422
31438
31467
31427
31526
31527
31575
31621
31440
31566
31574
31523
31382
31569
31393
31531
31607
31422
31473
31645
31612
31484
31601
31642
31588
31492
31623
31412
31519
31622
31479
31599
31631
31625
31539
31734
31821
31693
31606
31783
31813
31763
31578
31749
31780
31631
31778
31737
31570
31702
31758
31759
31685
31840
31840
31842
31884
31894
31847
31899
31805
31793
31655
31723
31642
31679
31596
31653
31606
31775
31774
31778
31751
31693
31606
31592
31572
31556
31559
31598
31597
31634
31622
31652
31652
31838
31852
31742
31884
31898
31865
31762
31818
31940
31915
31789
31934
31900
31783
31887
31948
31939
31975
31995
32025
31997
31879
31882
31911
32001
32081
32151
32181
32196
32181
32046
32017
31988
32052
32044
32203
32226
32060
32227
32316
32177
32288
32372
32431
32432
32471
32506
32557
32608
32514
32532
32525
32527
32708
32751
32756
32753
32741
32764
32782
32742
32732
32580
32561
32572
32708
32770
32815
32820
32836
32877
32838
32864
32855
32923
32906
32881
32809
32769
32759
32775
32855
32849
32860
32878
32939
32878
32854
32771
32758
32685
32676
32647
32662
32660
32684
32637
32607
32567
32567
32502
32502
32452
32513
32554
32515
32472
32487
32455
32410
32343
32226
32148
32060
32046
32105
32146
32144
32037
32085
32086
32103
32148
32132
32174
32158
32177
32175
32094
32113
32068
32095
32030
32023
32026
32181
32203
32211
32181
32257
32246
32123
32055
31983
32135
32123
32111
32119
32173
32215
32172
32133
32069
32082
32065
32103
32076
32053
32165
32227
32207
32210
32231
32228
32202
32237
32240
32283
32330
32341
32379
32373
32393
32401
32413
32427
32335
32252
32205
32200
32221
32315
32323
32518
32621
32662
32622
32669
32710
32743
32725
32729
32693
32639
32823
32857
32921
32913
32938
32911
32932
32934
32884
32900
32892
32868
32775
32871
32903
32860
32831
32844
32818
32802
32924
32929
32952
32935
32892
32822
32866
32878
32716
32762
32766
32879
32888
32743
32743
32854
32886
32876
32829
32826
32788
32764
32729
32737
32751
32742
32738
32711
32670
32678
32682
32807
32858
32863
32852
32799
32804
32764
32775
32785
32804
32804
32857
32871
32812
32857
32871
32890
32863
32839
32794
32767
32739
32755
32878
32907
32892
32919
32922
32956
32934
32934
32933
32916
32893
32900
32840
32834
32798
32774
32797
32695
32756
32727
32756
32742
32765
32759
32796
32723
32735
32686
32711
32657
32654
32669
32821
32839
32840
32872
32769
32775
32774
32799
32732
32698
32678
32737
32805
32914
32913
32927
32945
33005
33080
33046
32969
32860
32860
32820
32853
32914
32868
32906
32877
32759
32854
32881
32895
32911
32932
32947
32921
32870
32863
32868
32934
32970
32934
32944
32831
32772
32852
32853
32719
32858
32821
32662
32804
32866
32829
32761
32863
32784
32659
32868
32850
32818
32860
32860
32828
32783
32743
32666
32647
32608
32628
32608
32636
32618
32657
32620
32622
32581
32619
32607
32656
32655
32653
32616
32685
32671
32690
32666
32666
32639
32676
32834
32884
32874
32919
32924
32900
32917
32870
32916
32935
32909
33084
33058
33087
33120
33120
33129
33184
33169
33181
33075
33130
33220
33211
33185
33155
33127
33152
33160
33185
33248
33085
33226
33235
33099
33234
33268
33130
33161
33300
33241
33095
33180
33207
33159
32990
33090
33054
33031
33015
32978
32978
32933
32943
32884
32884
32819
32815
32775
32759
32630
32628
32671
32679
32663
32711
32700
32732
32750
32764
32772
32833
32851
32851
32802
32836
32820
32972
33021
33023
33058
32985
32937
32820
32836
32895
32874
32895
32956
32975
32890
32911
32814
32840
32809
32807
32902
32910
32903
32933
32978
32917
32921
32770
32629
32533
32422
32324
32302
32352
32092
32191
32151
31940
32054
32003
31916
31859
32053
32089
32085
32327
32575
32772
32942
33319
33863
34368
34900
35455
36033
36701
37332
37877
38293
38482
38720
38796
38958
39044
39118
39062
39123
39029
38909
38735
38493
38207
37868
37413
36953
36561
36134
35674
35279
34756
34275
33948
33687
33428
33252
33237
33132
32998
32877
32605
32444
32475
32358
32178
31988
31951
32030
31964
31967
31996
31981
31928
31989
31932
31887
31815
31772
31751
31719
31847
31853
31859
31815
31799
31796
31797
31670
31661
31644
31766
31815
31831
31804
31855
31903
31807
31685
31795
31847
31765
31686
31692
31695
31851
31879
31895
31886
31934
31993
31988
32012
31994
31997
31921
31906
31893
31878
31876
31879
31825
31807
31783
31806
31823
31961
32027
32036
32050
32075
32060
32053
32060
31964
31988
31907
31908
31911
31943
31948
31967
31963
31980
31970
31974
31937
31950
31900
31979
32076
32077
32103
32115
32203
32113
32159
32085
32087
32007
31956
31913
31950
31919
32016
32058
32089
32162
32074
32027
32039
32058
32084
32255
32303
32295
32298
32180
32207
32362
32412
32452
32548
32528
32402
32420
32500
32503
32529
32538
32529
32532
32513
32423
32442
32468
32596
32684
32751
32737
32775
32833
32790
32726
32660
32689
32704
32753
32746
32841
32918
32877
32873
32976
32950
32876
33061
33078
33013
33118
33173
33063
33119
33138
33156
33127
33119
33047
33180
33182
33251
33224
33140
33153
33076
33095
33183
33220
33201
33246
33201
33106
33166
33179
33236
33386
33463
33506
33493
33481
33512
33575
33491
33509
33511
33524
33635
33495
33636
33637
33653
33682
33676
33702
33766
33725
33700
33635
33652
33647
33797
33793
33835
33886
33849
33852
33788
33765
33697
33602
33535
33502
33405
33517
33481
33462
33396
33335
33342
33216
33163
33145
33168
33224
33232
33221
33206
33183
33176
33150
33076
33051
32956
32969
32933
32838
32732
32729
32680
32708
32775
32775
32762
32757
32760
32766
32727
32757
32745
32775
32806
32708
32618
32519
32554
32492
32618
32639
32631
32605
32596
32513
32442
32473
32462
32513
32506
32627
32677
32715
32769
32715
32769
32726
32584
32540
32572
32666
32665
32655
32686
32682
32645
32674
32623
32612
32551
32487
32423
32466
32581
32611
32611
32618
32615
32637
32583
32469
32665
32615
32549
32453
32447
32582
32581
32591
32598
32623
32606
32631
32658
32668
32677
32567
32511
32447
32484
32458
32459
32456
32500
32503
32517
32463
32543
32605
32623
32612
32647
32630
32677
32668
32681
32653
32671
32727
32695
32715
32660
32596
32565
32564
32551
32564
32509
32531
32511
32550
32644
32657
32649
32647
32631
32652
32668
32615
32623
32546
32458
32433
32462
32449
32519
32500
32622
32683
32649
32674
32659
32663
32709
32773
32714
32759
32730
32772
32734
32726
32668
32657
32610
32561
32535
32543
32543
32580
32487
32487
32452
32430
32375
32486
32307
32404
32464
32318
32468
32471
32311
32479
32475
32342
32487
32487
32308
32445
32477
32395
32443
32431
32278
32447
32448
32343
32484
32455
32297
32455
32434
32335
32465
32420
32417
32509
32389
32518
32517
32375
32485
32561
32444
32571
32558
32511
32385
32543
32516
32359
32495
32457
32420
32271
32396
32444
32407
32281
32442
32439
32287
32346
32477
32346
32331
32340
32334
32321
32311
32296
32273
32300
32288
32454
32444
32464
32432
32324
32299
32452
32487
32464
32474
32487
32447
32449
32420
32454
32340
32254
32215
32212
32292
32333
32335
32365
32311
32199
32197
32151
32159
32119
32138
32235
32223
32271
32301
32284
32281
32250
32260
32311
32260
32174
32118
32149
32111
32118
32094
32098
32229
32279
32274
32326
32412
32361
32271
32228
32231
32220
32250
32250
32391
32415
32412
32372
32389
32375
32397
32404
32436
32449
32396
32281
32208
32279
32327
32346
32323
32174
32163
32127
32142
32225
32231
32244
32254
32285
32317
32374
32347
32380
32327
32346
32333
32348
32228
32286
32241
32252
32335
32409
32426
32443
32455
32455
32479
32447
32391
32286
32296
32289
32322
32431
32452
32485
32513
32540
32508
32533
32564
32599
32577
32592
32485
32460
32426
32517
32525
32534
32584
32502
32445
32350
32401
32479
32499
32538
32476
32468
32340
32306
32266
32241
32249
32231
32362
32386
32354
32335
32325
32327
32207
32177
32270
32287
32287
32318
32230
32172
32152
32294
32292
32300
32367
32280
32239
32161
32247
32365
32390
32468
32436
32373
32316
32327
32311
32373
32471
32492
32495
32549
32535
32495
32497
32348
32246
32142
32129
31933
31871
31897
31771
31634
31547
31399
31336
31281
31230
31151
31140
31119
31158
31308
31502
31774
32113
32561
33105
33670
34271
34938
35517
36260
36901
37589
38268
38903
39412
39847
40207
40490
40719
40935
41005
41111
41094
41059
41055
40998
40957
40731
40383
39931
39471
38934
38433
37854
37260
36574
35912
35095
34380
33780
33333
32980
32708
32527
32228
31978
31948
31750
31591
31494
31373
31255
31179
31145
30991
30964
30870
30855
30759
30727
30574
30551
30533
30575
30532
30535
30645
30713
30694
30700
30740
30762
30795
30716
30745
30599
30577
30548
30694
30726
30716
30756
30710
30765
30697
30762
30727
30775
30760
30825
30787
30831
30767
30747
30655
30622
30604
30596
30599
30612
30599
30632
30698
30764
30779
30809
30830
30825
30807
30831
30870
30871
30876
30884
30889
30890
30913
30939
30941
30952
30997
30942
30954
30891
30898
30805
30795
30769
30765
30754
30855
30855
30772
30938
30799
30967
31034
30914
31014
31012
30831
30982
30997
30865
30956
31068
31044
30983
31143
31036
31239
31294
31206
31412
31415
31275
31458
31456
31335
31533
31511
31444
31586
31517
31362
31503
31546
31436
31550
31631
31614
31454
31604
31615
31448
31581
31599
31449
31607
31705
31551
31559
31587
31591
31611
31623
31647
31663
31712
31697
31751
31716
31793
31821
31885
31927
31960
31967
32002
32017
32002
31998
31968
32002
31941
31947
31936
31928
31886
31942
31887
31836
31847
31831
31841
31932
31881
31988
32079
32007
32015
32027
32049
32145
32239
32302
32359
32423
32500
32532
32596
32654
32687
32708
32756
32799
32836
32868
32895
32878
32903
32901
32913
32908
32949
32953
33057
33003
33051
33037
33071
32977
33023
33126
33138
33154
33166
33178
33230
33215
33063
33190
33161
33031
33186
33142
33031
33157
32922
33022
33086
33018
32988
33089
32925
33070
33103
32943
33083
33100
33055
32900
33021
33055
32884
32994
32940
32758
32861
32865
32699
32882
32815
32671
32821
32831
32714
32797
32822
32668
32709
32828
32821
32661
32813
32725
32720
32763
32648
32855
32804
32625
32816
32805
32703
32798
32822
32795
32692
32838
32617
32759
32717
32702
32586
32766
32771
32645
32823
32799
32636
32708
32812
32743
32694
32804
32621
32751
32783
32620
32798
32647
32684
32749
32606
32785
32735
32580
32711
32734
32669
32527
32672
32692
32564
32708
32770
32599
32709
32796
32660
32751
32829
32805
32702
32819
32826
32690
32869
32922
32805
32917
32955
32789
32775
32970
32933
32786
32876
32876
32710
32849
32879
32823
32775
32923
32871
32723
32908
32887
32757
32966
32893
32762
32911
32896
32724
32843
32823
32655
32712
32805
32803
32666
32743
32784
32784
32649
32828
32877
32738
32813
32897
32857
32753
32722
32671
32742
32877
32837
32716
32804
32837
32835
32836
32869
32871
32881
32848
32890
32817
32774
32772
32820
32764
32916
32949
32994
33007
33102
33138
33065
33073
32998
33009
32984
33128
33156
33172
33140
33015
32967
32927
33090
33116
33124
33165
33087
32978
32911
32903
32898
33006
33036
33044
33046
33046
33055
32973
32923
32849
32900
33015
33052
33068
33107
33123
33133
33152
33076
33013
32977
33004
33131
33175
33180
33194
33187
33153
33092
33002
33011
32993
33042
33002
33006
32935
32921
32853
32912
32855
32988
33004
33013
32996
33001
33026
33058
33075
33064
33052
33040
32967
32950
32938
32934
33031
33030
33025
33029
33042
33023
33060
33047
33075
32917
32923
33004
33031
33031
33058
33097
33114
33119
33049
33002
32966
32974
32951
32961
32927
32900
33085
33147
33212
33112
33031
33015
33129
33118
33147
33134
33159
33143
33115
33109
33098
33114
33054
33073
33028
33060
32999
32911
32918
32911
32965
32956
32995
32990
32975
32989
32959
32876
32869
32831
32847
32851
32892
32888
32865
32832
32805
32763
32774
32743
32854
32900
32981
32810
32967
32967
32788
32891
32876
32725
32868
32891
32723
32878
32916
32775
32926
32929
32964
32951
33013
33002
32884
32855
32828
32847
32783
32793
32813
32819
32775
32815
32929
32838
32626
32743
32681
32558
32747
32693
32588
32723
32640
32500
32664
32596
32405
32588
32601
32626
32582
32458
32434
32508
32586
32580
32621
32623
32554
32425
32351
32360
32462
32548
32575
32631
32552
32476
32549
32620
32642
32682
32620
32605
32513
32516
32510
32531
32529
32580
32600
32645
32743
32781
32759
32766
32767
32733
32711
32735
32722
32731
32714
32705
32681
32708
32745
32766
32836
32807
32818
32807
32833
32799
32822
32847
32906
32841
32869
32798
32775
32627
32602
32751
32740
32748
32732
32716
32756
32743
32717
32691
32659
32592
32572
32557
32518
32500
32486
32481
32488
32485
32423
32381
32390
32367
32391
32383
32412
32377
32421
32379
32403
32399
32453
32358
32407
32487
32484
32448
32420
32423
32406
32375
32404
32420
32439
32492
32388
32335
32270
32297
32253
32208
32263
32190
32095
31978
31842
31713
31593
31464
31367
31102
30970
30841
30798
30920
30975
31038
31165
31367
31524
31955
32558
33231
33901
34606
35278
35914
36558
37196
37985
38732
39420
40071
40608
41127
41518
41813
42128
42361
42607
42642
42732
42701
42721
42670
42503
42337
41801
41258
40679
40086
39490
38846
38140
37351
36541
35728
34940
34273
33732
33253
32854
32493
32166
31785
31460
31220
31065
30851
30887
30757
30662
30546
30460
30420
30295
30245
30205
30140
30094
30023
29970
30004
29983
30111
30113
30130
30149
30162
30140
30163
30215
30124
30092
30053
30016
29990
30007
30039
30106
30257
30276
30409
30446
30460
30480
30560
30444
30387
30394
30439
30552
30594
30602
30629
30689
30645
30662
30629
30599
30573
30596
30768
30834
30855
30926
30886
30774
30791
30780
30814
30936
30977
30989
31050
31087
31151
31188
31222
31269
31292
31354
31312
31349
31316
31268
31239
31253
31234
31252
31421
31453
31452
31461
31468
31508
31540
31548
31541
31420
31420
31442
31474
31464
31545
31591
31652
31681
31705
31720
31713
31701
31685
31667
31575
31582
31572
31588
31595
31632
31670
31702
31825
31834
31846
31865
31887
31889
31887
31932
31981
31911
31956
31901
31871
31751
31807
31764
31780
31768
31811
31903
31974
31962
31978
31974
31999
32007
32046
32078
32062
32098
32057
32073
31942
32007
31990
32164
32194
32228
32263
32241
32236
32174
32135
32227
32244
32259
32287
32255
32212
32153
32113
32180
32164
32357
32417
32469
32512
32537
32548
32439
32509
32623
32661
32655
32607
32519
32528
32660
32714
32755
32753
32819
32846
32879
32912
32902
32895
32886
32967
32957
32956
32863
32903
33015
33044
33095
33118
33159
33146
33154
33157
33092
33004
33005
33009
33054
33141
33196
33252
33287
33321
33305
33335
33249
33227
33183
33336
33367
33371
33423
33372
33324
33332
33349
33509
33516
33487
33495
33477
33359
33326
33256
33287
33240
33390
33304
33441
33475
33478
33528
33479
33472
33356
33287
33257
33186
33327
33311
33316
33323
33284
33183
33122
33077
33212
33238
33261
33271
33170
33211
33292
33343
33383
33361
33353
33241
33212
33188
33343
33348
33348
33354
33334
33311
33218
33171
33151
33185
33287
33308
33292
33361
33309
33172
33159
33239
33271
33281
33311
33353
33247
33118
33199
33255
33212
33279
33284
33204
33271
33252
33224
33077
33058
33238
33245
33297
33239
33277
33152
33164
33207
33243
33271
33464
33509
33514
33558
33485
33381
33340
33391
33467
33493
33519
33346
33318
33428
33441
33460
33327
33268
33286
33382
33416
33470
33461
33333
33344
33499
33503
33468
33492
33500
33489
33380
33335
33372
33489
33527
33511
33444
33332
33263
33375
33362
33372
33383
33404
33414
33420
33428
33497
33533
33500
33493
33380
33428
33497
33578
33619
33573
33543
33452
33431
33564
33583
33597
33585
33568
33533
33460
33365
33335
33481
33471
33486
33503
33503
33391
33348
33327
33319
33308
33356
33274
33369
33390
33413
33482
33490
33506
33455
33399
33301
33342
33413
33500
33556
33543
33611
33566
33590
33510
33522
33517
33576
33537
33695
33766
33810
33838
33703
33732
33812
33829
33799
33822
33783
33663
33774
33775
33828
33796
33677
33716
33820
33851
33860
33820
33817
33679
33703
33764
33764
33753
33767
33809
33780
33708
33594
33590
33676
33672
33685
33679
33676
33694
33734
33703
33719
33681
33682
33615
33628
33571
33573
33614
33650
33629
33655
33708
33620
33602
33551
33498
33483
33458
33450
33494
33596
33596
33593
33583
33599
33621
33604
33629
33610
33615
33592
33559
33586
33598
33586
33568
33540
33552
33567
33561
33572
33527
33567
33538
33479
33499
33479
33491
33455
33450
33457
33451
33449
33383
33374
33325
33287
33229
33220
33204
33226
33191
33209
33212
33236
33229
33313
33174
33178
33156
33191
33118
33115
33106
33127
33109
33089
33238
33227
33239
33253
33240
33260
33241
33232
33229
33173
33156
33113
33167
33136
33142
33192
33197
33148
33131
33113
33085
33231
33263
33299
33300
33269
33339
33295
33254
33279
33258
33269
33200
33207
33087
33140
33070
33063
33065
33116
33081
33057
33156
33172
33218
33215
33191
33182
33182
33188
33164
33129
33167
33106
33159
33117
33095
33059
32998
32914
32904
32880
32892
32804
32828
32839
32934
32853
32863
32828
32822
32813
32792
32783
32807
32799
32775
32791
32822
32795
32895
32836
32775
32825
32831
32687
32791
32844
32871
32894
32913
32917
32959
32910
32837
32970
33003
32926
32834
32893
32932
32898
32895
32884
32909
32900
32828
32884
32843
32847
32724
32657
32642
32668
32668
32820
32860
32892
32906
32919
32984
32945
32959
32904
32954
32938
32910
32865
32868
32802
32830
32788
32809
32732
32726
32698
32690
32666
32735
32674
32679
32660
32615
32596
32561
32542
32487
32535
32525
32549
32543
32540
32549
32548
32399
32563
32379
32471
32492
32354
32507
32501
32334
32487
32449
32481
32538
32422
32628
32572
32482
32646
32678
32575
32716
32722
32572
32744
32706
32564
32676
32566
32487
32260
32126
31957
31836
31686
31551
31423
31348
31268
31265
31300
31329
31344
31481
31593
31852
32204
32679
33186
33815
34494
35182
35887
36570
37284
38023
38760
39504
40186
40796
41344
41855
42365
42557
42982
43103
43111
43374
43230
43510
43461
43252
43311
43029
42309
41852
41221
40452
39824
39063
38273
37470
36708
35783
35118
34463
33996
33559
33059
32685
32309
32020
31911
31678
31555
31429
31289
31180
31071
30958
30918
30829
30791
30716
30706
30678
30652
30660
30719
30676
30715
30682
30657
30657
30615
30626
30578
30586
30566
30580
30582
30560
30556
30572
30562
30595
30606
30638
30654
30711
30721
30637
30684
30682
30766
30762
30765
30727
30718
30703
30669
30688
30687
30707
30695
30727
30727
30742
30727
30761
30761
30781
30790
30807
30791
30877
30858
30921
30784
31008
30847
30997
31018
30855
31018
30959
30841
30932
30791
30928
31015
30876
31028
31029
30868
30995
31079
30953
31092
31117
30988
31118
31137
31114
30970
31180
31124
31012
31127
31031
30999
31084
31064
30917
31079
31110
30972
31012
31211
31157
31004
31079
31221
31052
31148
31247
31212
31165
31350
31342
31260
31407
31340
31319
31468
31506
31381
31580
31500
31551
31455
31456
31425
31462
31492
31479
31463
31477
31482
31508
31514
31553
31557
31532
31526
31513
31490
31500
31479
31527
31527
31605
31588
31583
31580
31772
31764
31789
31801
31806
31792
31805
31820
31864
31861
31783
31740
31713
31742
31728
31766
31770
31840
31861
31895
32090
32024
31935
32138
31962
32070
32213
32159
32016
32231
32282
32156
32280
32407
32393
32291
32417
32369
32343
32527
32460
32422
32526
32527
32422
32612
32575
32457
32626
32660
32553
32685
32711
32574
32599
32815
32716
32711
32823
32820
32706
32910
32940
32830
32959
32946
32790
32938
32957
32812
32912
32916
32919
32789
32974
32821
32865
33004
32972
32793
32872
32940
32759
32929
32877
32731
32815
32808
32604
32644
32807
32748
32554
32614
32765
32758
32621
32757
32753
32630
32829
32823
32743
32945
32892
32749
32852
32927
32860
32798
32882
32813
32740
32871
32833
32836
32789
32808
32772
32787
32743
32747
32721
32740
32770
32668
32708
32572
32608
32600
32773
32825
32848
32934
32885
32804
32823
32957
33031
33060
33077
33057
33071
32938
32897
32867
32959
33004
33006
33029
33022
33001
32935
32870
32843
32871
32850
32849
32927
32833
32998
33061
33080
33089
33116
33047
33068
33057
33056
32941
32967
33121
33148
33157
33228
33247
33167
33159
33096
33062
33071
33050
33225
33254
33253
33314
33370
33343
33366
33367
33397
33342
33266
33244
33254
33223
33391
33407
33415
33399
33430
33471
33363
33265
33217
33303
33349
33339
33351
33309
33295
33269
33332
33255
33157
33135
33192
33292
33310
33309
33260
33231
33121
33128
33231
33255
33274
33227
33225
33081
33074
33214
33209
33252
33195
33196
33085
33126
33243
33282
33338
33287
33211
33191
33200
33182
33223
33161
33269
33274
33301
33319
33343
33375
33269
33227
33105
33088
33082
33172
33235
33194
33221
33218
33239
33239
33134
33061
33073
33047
33069
33031
33029
33159
33153
33164
33187
33142
33154
33143
33085
33081
33055
33093
33047
33125
33160
33156
33159
33175
33183
33196
33217
33225
33223
33206
33192
33076
33084
33033
33044
33022
33116
33182
33198
33191
33209
33295
33250
33246
33218
33133
33123
33143
33132
33191
33254
33279
33285
33281
33278
33340
33342
33390
33441
33468
33444
33508
33540
33543
33529
33519
33523
33500
33487
33557
33436
33615
33557
33495
33583
33438
33621
33559
33415
33581
33567
33445
33567
33526
33414
33580
33554
33444
33658
33639
33484
33658
33668
33521
33692
33541
33620
33786
33596
33799
33574
33743
33685
33711
33716
33658
33704
33591
33677
33568
33712
33592
33780
33702
33716
33738
33564
33714
33637
33511
33653
33505
33684
33518
33670
33652
33615
33656
33508
33683
33596
33573
33695
33596
33404
33526
33519
33364
33539
33336
33411
33478
33332
33543
33490
33423
33560
33476
33615
33602
33514
33646
33495
33653
33563
33541
33671
33481
33664
33621
33599
33621
33519
33639
33541
33694
33564
33762
33773
33774
33799
33824
33827
33695
33871
33738
33958
33919
33854
33890
33734
33864
33656
33830
33719
33743
33694
33567
33684
33574
33734
33512
33685
33503
33643
33476
33650
33474
33668
33479
33516
33474
33455
33466
33318
33477
33356
33530
33468
33315
33459
33356
33516
33301
33459
33269
33415
33165
33348
33151
33278
33220
33166
33162
33086
33142
32998
33119
33072
32950
33058
32876
32999
33052
32896
33089
33012
32964
32948
32919
32893
32746
32900
32739
32948
32753
32967
32895
32794
32867
32700
32830
32878
32837
32859
32879
32761
32966
32788
32964
32915
32756
32828
32637
32738
32569
32383
32407
32172
32327
32067
32080
32016
31844
31911
31724
31778
31721
31565
31780
31892
31932
32343
32644
32905
33482
33820
34447
35123
35690
36270
37086
37772
38336
38951
39377
39654
39953
40290
40396
40505
40555
40536
40575
40631
40604
40479
40244
39836
39364
38874
38343
37750
37114
36559
35919
35282
34684
34221
33799
33510
33343
33060
32844
32701
32547
32399
32263
32110
31956
31917
31838
31784
31713
31698
31680
31581
31522
31471
31488
31425
31301
31269
31266
31247
31248
31204
31209
31189
31316
31342
31357
31353
31368
31315
31287
31282
31248
31228
31143
31104
31063
31084
31087
31079
31077
31114
31140
31193
31186
31186
31164
31204
31314
31338
31407
31298
31199
31247
31200
31350
31372
31228
31367
31297
31179
31312
31337
31384
31414
31423
31400
31417
31425
31436
31429
31424
31450
31485
31516
31523
31495
31485
31459
31461
31439
31441
31432
31415
31388
31403
31388
31439
31477
31505
31486
31491
31495
31559
31543
31591
31580
31615
31610
31626
31622
31635
31684
31600
31569
31444
31418
31393
31527
31543
31582
31590
31574
31564
31588
31526
31569
31382
31383
31398
31390
31398
31388
31405
31566
31586
31612
31644
31673
31692
31717
31736
31802
31837
31847
31852
31828
31847
31908
31926
31948
31928
31999
31985
32012
31976
32007
31999
32007
32007
31894
32084
32026
31929
32145
32100
31967
32164
32147
32154
32275
32135
32284
32359
32263
32379
32237
32408
32412
32314
32530
32367
32565
32679
32556
32724
32786
32810
32695
32871
32932
32954
32990
33004
33076
33033
32980
32948
32995
32970
33116
33120
33137
33158
33139
33195
33167
33183
33155
33086
32996
33030
33019
33101
33018
33023
32964
32978
33116
33127
33132
33076
32917
33098
33049
32899
33025
33003
32805
32892
32980
32829
32929
32889
32684
32812
32745
32585
32682
32443
32535
32470
32295
32399
32375
32189
32290
32229
32012
32156
31972
32060
32052
31906
32069
31988
31822
31932
31888
31685
31841
31796
31645
31850
31783
31648
31788
31742
31662
31767
31598
31716
31724
31567
31751
31765
31592
31769
31700
31558
31740
31710
31592
31733
31681
31548
31740
31740
31580
31702
31751
31695
31645
31791
31761
31676
31884
31847
31734
31887
31889
31751
31903
31954
31933
31803
32016
31982
31857
31916
32032
31962
31834
31975
31868
31827
31786
31775
31763
31764
31793
31791
31783
31913
31929
31831
31751
31794
31924
31958
31964
31970
31998
31996
32007
31901
31937
31966
31952
31911
31925
31843
31857
31858
31879
31879
31928
31909
31935
31946
31961
31970
32006
31991
32007
32038
32109
32159
32165
32182
32207
32082
32080
32090
32207
32221
32253
32294
32367
32380
32316
32325
32295
32316
32239
32304
32231
32234
32237
32237
32164
32139
32111
32163
32307
32305
32330
32358
32401
32287
32220
32181
32180
32183
32309
32359
32391
32423
32437
32452
32421
32415
32372
32336
32295
32316
32322
32381
32455
32484
32509
32540
32592
32550
32602
32519
32495
32463
32478
32458
32551
32583
32554
32525
32551
32548
32586
32612
32591
32607
32567
32609
32580
32646
32589
32580
32568
32598
32599
32646
32730
32727
32671
32661
32685
32663
32682
32642
32618
32550
32562
32703
32718
32724
32722
32740
32764
32776
32743
32762
32719
32711
32665
32629
32633
32633
32623
32786
32827
32839
32833
32838
32844
32839
32820
32817
32830
32828
32826
32772
32785
32780
32814
32723
32717
32705
32893
32862
32839
32751
32735
32749
32678
32707
32714
32708
32716
32714
32724
32717
32872
32873
32919
32930
32969
32876
32803
32791
32783
32769
32798
32919
32951
32996
32921
32903
32795
32811
32814
32962
33005
33017
33031
33023
32987
33006
33023
33020
33100
33068
33094
33102
33105
33111
33117
33002
32990
32966
32990
32961
33007
33031
33071
33042
33066
33068
33153
33167
33223
33214
33281
33287
33332
33347
33374
33364
33358
33507
33519
33528
33541
33564
33573
33573
33581
33535
33386
33553
33460
33311
33496
33487
33338
33536
33473
33374
33495
33479
33355
33543
33489
33511
33543
33592
33535
33587
33527
33534
33516
33503
33486
33508
33470
33453
33455
33326
33365
33205
33347
33386
33323
33337
33391
33227
33367
33380
33212
33311
33383
33287
33197
33340
33304
33218
33382
33310
33165
33295
33322
33196
33407
33364
33232
33256
33404
33439
33346
33395
33383
33386
33412
33413
33435
33492
33428
33420
33251
33224
33182
33129
33000
32898
32925
32826
32615
32565
32433
32338
32298
32254
32263
32232
32173
32170
32225
32330
32431
32628
32855
33130
33471
33906
34356
34918
35503
36053
36685
37302
37942
38420
38860
39136
39400
39614
39780
39855
39967
39970
40041
40003
39991
39815
39604
39252
38919
38383
37895
37412
36997
36443
36024
35440
34927
34532
34210
33985
33791
33620
33486
33368
33199
33155
33000
32919
32694
32543
32463
32375
32485
32436
32393
32322
32312
32262
32207
32167
32220
32186
32191
32111
32090
32087
32193
32230
32230
32240
32288
32268
32256
32258
32181
32129
32149
32164
32327
32355
32391
32330
32247
32218
32342
32386
32405
32404
32401
32423
32348
32356
32334
32239
32217
32272
32231
32424
32452
32468
32485
32451
32390
32358
32390
32565
32608
32639
32647
32693
32643
32624
32486
32450
32413
32592
32646
32570
32561
32455
32397
32366
32452
32563
32584
32604
32625
32630
32560
32583
32455
32479
32608
32607
32519
32654
32650
32550
32709
32788
32855
32854
32883
32887
32871
32815
32757
32721
32727
32891
32932
32992
32926
32871
32793
32855
32964
32952
32990
32919
32828
32799
32961
32974
33015
33042
32999
32952
32964
32912
32894
32938
32959
33003
33152
32983
33156
33182
33023
33178
33079
32927
33077
33026
32943
33095
33065
32940
33086
33127
33061
33089
33159
33080
33058
33159
33052
33021
33103
32908
33044
33058
32917
33055
33071
32934
33078
33100
32949
33044
33193
33143
33013
33100
33215
33120
33166
33287
33260
33215
33383
33375
33366
33322
33250
33283
33252
33271
33414
33445
33469
33500
33503
33543
33594
33533
33569
33502
33604
33540
33516
33535
33535
33514
33556
33556
33649
33676
33690
33715
33717
33722
33710
33685
33668
33639
33641
33572
33566
33543
33543
33543
33455
33479
33408
33415
33364
33324
33284
33075
33184
33120
32960
33040
32961
32751
32807
32837
32701
32669
32698
32516
32573
32556
32355
32502
32375
32215
32294
32230
32066
32148
31943
32073
32070
31905
32073
31891
32070
32010
31865
32031
31808
31984
31950
31791
31991
31878
31726
31887
31744
31751
31729
31580
31727
31761
31647
31784
31590
31733
31772
31639
31788
31590
31708
31782
31623
31806
31749
31661
31751
31594
31796
31791
31736
31852
31726
31864
31702
31878
31729
31856
31839
31686
31852
31698
31881
31850
31677
31819
31847
31698
31894
31807
31660
31732
31783
31716
31601
31817
31729
31622
31783
31740
31626
31772
31616
31746
31786
31747
31600
31791
31750
31620
31847
31796
31668
31841
31770
31609
31782
31623
31751
31721
31527
31680
31687
31556
31716
31660
31650
31716
31560
31738
31694
31520
31661
31699
31566
31691
31687
31535
31708
31700
31591
31725
31548
31708
31570
31552
31524
31497
31550
31567
31505
31478
31635
31632
31672
31572
31536
31688
31719
31799
31745
31611
31644
31655
31681
31704
31788
31772
31741
31767
31822
31801
31884
31899
32003
31909
31956
31838
31966
31884
31846
31949
31829
31968
31981
31825
32034
31890
32031
32020
31908
32079
32073
32025
32092
31967
32140
32113
32010
32236
32152
32116
32174
32064
32220
32065
32199
32256
32210
32118
32295
32245
32128
32281
32177
32273
32332
32172
32368
32389
32279
32476
32381
32436
32465
32319
32484
32421
32316
32406
32260
32479
32263
32389
32420
32290
32424
32353
32398
32409
32263
32388
32343
32158
32316
32302
32156
32356
32317
32143
32167
32234
32340
32324
32333
32335
32353
32350
32319
32369
32380
32391
32359
32372
32382
32372
32375
32357
32356
32199
32327
32357
32356
32220
32430
32317
32335
32431
32423
32348
32463
32348
32475
32455
32328
32485
32326
32468
32488
32332
32541
32474
32440
32476
32347
32478
32511
32344
32509
32511
32358
32497
32490
32353
32505
32487
32349
32535
32463
32470
32457
32316
32490
32551
32432
32596
32476
32655
32532
32639
32669
32485
32631
32670
32519
32727
32700
32560
32738
32684
32608
32701
32655
32561
32711
32589
32716
32708
32587
32746
32667
32642
32805
32761
32647
32846
32805
32791
32863
32810
32770
32909
32780
32926
32922
32775
32997
32922
32931
32939
32763
32832
32951
32769
32840
32939
32903
32774
32988
32957
32817
32986
32957
32880
32889
32745
32932
32871
32839
32821
32839
32822
32869
32834
32834
32788
32746
32726
32757
32723
32727
32800
32814
32791
32840
32815
32824
32833
32799
32789
32734
32770
32727
32748
32676
32560
32527
32546
32549
32600
32593
32644
32606
32618
32564
32555
32656
32667
32691
32634
32509
32613
32645
32679
32570
32494
32492
32614
32670
32642
32655
32615
32657
32621
32612
32574
32647
32620
32646
32628
32698
32655
32654
32647
32699
32609
32641
32558
32487
32417
32379
32292
32208
32078
31957
31815
31751
31655
31648
31532
31462
31442
31441
31375
31428
31554
31620
31999
32278
32665
33198
33764
34362
34959
35591
36260
36956
37704
38476
39223
39876
40428
40900
41326
41581
41836
41991
42119
42222
42282
42396
42420
42444
42310
42119
41596
41078
40523
39964
39376
38778
38047
37351
36660
35825
35127
34434
33991
33524
33207
32847
32539
32228
32007
31742
31530
31359
31271
31153
31076
30970
30947
30932
30885
30850
30829
30805
30807
30792
30797
30775
30788
30810
30765
30767
30763
30787
30719
30724
30611
30582
30572
30595
30586
30599
30596
30637
30629
30750
30785
30745
30735
30887
30926
30990
31001
30983
31005
31015
31064
31080
31062
31037
31035
31021
31018
31023
31021
31032
31058
31087
31105
31122
31052
31034
31094
31097
31137
31147
31208
31195
31268
31287
31296
31221
31223
31239
31271
31271
31375
31333
31326
31325
31367
31376
31394
31368
31411
31369
31365
31348
31382
31388
31519
31556
31575
31566
31623
31694
31678
31689
31607
31612
31604
31607
31619
31667
31682
31688
31684
31689
31701
31734
31766
31790
31767
31780
31789
31844
31875
31900
31892
31910
31892
31924
31908
31926
31892
31916
31897
31949
31924
31877
31864
31879
31944
31882
31959
31847
31863
31882
31847
31828
31857
31919
31890
31911
31964
32052
32039
31902
32051
31883
32021
31994
31875
32022
31860
32012
32036
31952
32060
31935
32143
32077
32039
31926
31957
31943
32052
31997
32023
31983
32100
32143
32172
32180
32247
32315
32279
32300
32216
32247
32245
32269
32302
32348
32459
32488
32487
32542
32543
32484
32438
32407
32412
32578
32597
32596
32602
32613
32704
32750
32695
32707
32679
32745
32670
32722
32815
32903
32991
32783
32775
32956
32943
32921
32927
32914
32919
32919
32764
32765
32836
32807
32824
32781
32775
32724
32729
32672
32626
32753
32769
32758
32735
32633
32543
32620
32642
32655
32668
32684
32711
32673
32628
32589
32549
32515
32550
32490
32512
32484
32508
32448
32476
32591
32629
32644
32636
32623
32632
32604
32650
32641
32623
32620
32551
32476
32406
32537
32527
32557
32456
32396
32565
32644
32558
32494
32628
32676
32695
32668
32655
32631
32660
32641
32647
32612
32691
32708
32765
32743
32700
32678
32735
32707
32803
32788
32768
32767
32775
32782
32775
32775
32751
32797
32675
32718
32715
32559
32694
32736
32615
32804
32775
32657
32855
32855
32741
32953
32939
32940
32927
32917
32914
32880
32901
32909
32903
32942
32886
32895
32908
32907
32926
32898
32948
32895
32943
32903
32954
32913
32928
32944
32932
32937
32943
32911
32893
32889
32863
32827
32791
32797
32775
32812
32798
32791
32799
32797
32764
32695
32575
32566
32556
32528
32582
32615
32673
32668
32662
32670
32665
32669
32655
32653
32681
32735
32699
32710
32657
32647
32588
32572
32550
32572
32554
32554
32519
32691
32704
32703
32678
32711
32748
32743
32775
32708
32728
32660
32732
32764
32775
32729
32764
32693
32769
32731
32743
32716
32743
32726
32799
32764
32814
32823
32817
32852
32853
32839
32892
32865
32867
32783
32835
32869
32901
32891
32909
32880
32897
32849
32918
32948
32971
32971
32954
32917
32799
32887
32964
33092
33068
33102
33065
33126
33087
33108
33094
33126
33069
32961
33093
33119
33138
33003
32962
33070
33119
33009
32927
33108
33172
33023
33016
32968
32999
32940
33055
33133
33150
33162
33185
33177
33146
33148
33095
33030
33023
32983
32943
32929
32892
32891
32894
32983
32956
32967
32931
32900
32942
32954
32899
32879
32925
32958
32908
32916
32852
32890
32782
32785
32796
32797
32805
32836
32745
32697
32711
32724
32676
32693
32665
32702
32663
32639
32599
32599
32575
32612
32594
32622
32588
32585
32569
32596
32630
32747
32748
32791
32799
32775
32826
32847
32873
32902
32929
32900
32876
32836
32835
32839
32855
32876
32858
32748
32766
32801
32828
32855
32826
32868
32847
32842
32859
32805
32657
32801
32668
32854
32807
32771
32820
32626
32743
32580
32718
32725
32668
32735
32558
32728
32592
32753
32579
32746
32572
32751
32718
32720
32722
32640
32744
32735
32743
32796
32684
32833
32717
32877
32885
32796
32927
32892
32769
32904
32871
32892
32928
32775
32935
32924
32794
32970
32725
32877
32740
32938
32926
32774
32886
32935
32787
32884
32910
32751
32868
32974
32903
32981
33031
32901
33015
33108
32993
33173
33084
32983
33090
32972
33059
33075
32951
33103
32957
33066
33071
32924
33102
33103
33020
33087
32875
32911
33044
33028
32913
33104
33060
32991
33137
32966
33068
33172
33127
33002
33143
33108
32998
33146
33125
32966
33092
33129
32959
33114
33125
33102
32997
32977
33012
32980
32964
32937
32921
32943
32954
33030
32956
32969
33092
33173
32979
33178
33118
32986
33157
33089
32957
33108
33103
33001
33148
33105
32995
33166
33021
33197
33159
33072
33173
33141
33043
33248
33189
33039
33245
33255
33146
33356
33258
33276
33348
33228
33316
33287
33130
33202
33138
32879
32909
32708
32423
32464
32326
32071
32170
31996
31940
31947
31804
32052
31900
32204
32529
32756
33388
33952
34454
35268
35923
36503
37311
37951
38724
39464
40247
40853
41431
42022
42391
42826
43073
43306
43417
43502
43551
43527
43423
43401
43306
42972
42519
41956
41338
40791
40108
39476
38752
37990
37188
36342
35575
34927
34404
34011
33601
33263
32969
32731
32399
32250
32020
31895
31693
31567
31479
31386
31271
31235
31151
31126
31087
31101
31029
31005
30970
30942
30922
30756
30751
30768
30852
30846
30849
30738
30910
30758
30886
30894
30702
30892
30750
30877
30896
30726
30940
30836
30935
30978
30847
31038
30869
31005
31046
30983
31093
30940
31172
31110
31159
31236
31085
31325
31137
31285
31306
31252
31329
31187
31391
31246
31315
31381
31230
31385
31407
31255
31442
31393
31327
31405
31258
31437
31460
31298
31546
31471
31437
31564
31430
31596
31656
31560
31790
31700
31773
31839
31739
31900
31841
31807
31921
31821
32055
31892
31956
31981
31872
31969
31838
31987
32018
31921
32012
31899
32035
32055
31915
32070
32007
32050
32143
31986
32168
32071
32113
32212
32164
32298
32158
32348
32244
32335
32354
32245
32408
32452
32348
32497
32513
32373
32598
32560
32514
32515
32685
32610
32763
32791
32696
32862
32741
32858
32844
32666
32891
32838
32942
32997
32860
33103
33012
33059
33031
32877
33018
33005
33038
33066
32916
33105
32943
33099
33113
32977
33063
33175
33039
33149
33228
33215
33133
33316
33328
33254
33498
33418
33272
33470
33480
33380
33349
33359
33364
33383
33490
33520
33556
33598
33605
33639
33695
33721
33737
33742
33751
33727
33785
33681
33848
33774
33687
33829
33609
33787
33767
33647
33791
33668
33845
33768
33639
33775
33636
33812
33759
33613
33759
33652
33791
33750
33639
33754
33611
33681
33682
33521
33671
33617
33527
33650
33593
33563
33383
33420
33529
33529
33374
33519
33458
33268
33402
33178
33297
33236
33031
33153
33152
32973
33162
33058
32996
32981
32796
32884
32737
32906
32846
32868
32850
32870
32858
32900
32887
32949
32895
32943
32938
32905
32879
32852
32854
32836
32853
32837
32805
32805
32746
32671
32658
32650
32662
32673
32692
32715
32802
32789
32847
32801
32852
32767
32775
32838
32744
32833
32810
32669
32764
32821
32639
32746
32775
32612
32787
32652
32811
32775
32609
32789
32775
32620
32775
32741
32575
32740
32718
32589
32782
32721
32554
32723
32682
32519
32701
32586
32527
32577
32414
32571
32519
32339
32492
32478
32351
32548
32533
32390
32555
32558
32409
32604
32525
32349
32468
32452
32286
32259
32381
32286
32273
32353
32223
32223
32348
32271
32207
32316
32167
32303
32303
32271
32190
32263
32132
32308
32199
32158
32188
32060
32199
32189
32068
32078
32127
32130
32167
32117
31975
32116
32117
31967
32056
32170
32030
32014
32031
31976
32021
32020
32037
32012
32028
32004
32028
32004
32145
32177
32206
32207
32270
32228
32233
32208
32257
32288
32303
32312
32274
32260
32263
32308
32292
32282
32132
32171
32239
32272
32287
32263
32267
32284
32294
32349
32309
32340
32352
32343
32377
32380
32379
32380
32368
32304
32325
32263
32247
32222
32241
32263
32295
32374
32390
32393
32356
32343
32223
32207
32232
32209
32220
32217
32244
32230
32285
32303
32375
32439
32484
32484
32468
32506
32566
32541
32540
32573
32517
32508
32503
32515
32455
32452
32447
32463
32442
32494
32485
32503
32519
32567
32653
32665
32667
32665
32639
32690
32739
32716
32732
32714
32707
32635
32629
32614
32607
32556
32570
32567
32481
32476
32471
32473
32476
32459
32489
32470
32468
32462
32445
32447
32486
32463
32470
32439
32452
32459
32467
32448
32487
32519
32578
32546
32595
32577
32580
32532
32591
32598
32623
32637
32631
32637
32647
32648
32649
32646
32622
32615
32609
32615
32607
32433
32426
32555
32578
32566
32514
32513
32519
32506
32502
32452
32447
32449
32440
32412
32423
32436
32460
32457
32459
32438
32436
32452
32434
32444
32421
32463
32454
32475
32472
32463
32501
32431
32486
32424
32466
32385
32383
32319
32286
32300
32314
32286
32343
32439
32519
32528
32564
32590
32543
32453
32382
32420
32455
32544
32569
32620
32613
32576
32575
32527
32478
32517
32509
32503
32508
32538
32501
32524
32486
32492
32457
32461
32472
32473
32481
32486
32510
32519
32501
32545
32500
32516
32513
32500
32455
32548
32627
32649
32620
32670
32734
32692
32615
32541
32514
32533
32628
32679
32667
32699
32645
32669
32570
32548
32503
32503
32484
32532
32533
32533
32687
32718
32743
32749
32766
32796
32804
32845
32855
32758
32783
32748
32655
32594
32567
32548
32581
32612
32604
32667
32585
32548
32428
32454
32509
32588
32574
32534
32579
32451
32572
32599
32586
32588
32602
32628
32636
32649
32681
32674
32659
32654
32700
32743
32789
32830
32851
32924
32948
32951
32938
32936
32952
32939
32907
32949
32939
32948
32943
32961
32949
32989
32953
32930
32940
32925
32883
32790
32746
32674
32584
32472
32308
32172
32038
31911
31652
31623
31558
31523
31447
31428
31429
31518
31612
31935
32229
32721
33262
33921
34520
35232
35900
36697
37459
38340
39125
39934
40615
41217
41767
42211
42662
42929
43239
43374
43444
43495
43580
43555
43508
43319
42948
42441
41872
41286
40647
39999
39334
38639
37908
37135
36359
35621
35012
34471
34055
33703
33350
33063
32743
32495
32255
32072
31887
31751
31603
31495
31452
31282
31231
31123
31152
31021
30988
30945
30953
30916
30932
31061
31052
31073
31068
30913
30928
30928
30959
30917
30997
30989
30951
30884
30909
30909
30935
30940
31015
31046
31053
31079
31092
31071
31142
31173
31224
31228
31209
31229
31263
31307
31300
31356
31356
31420
31446
31364
31514
31351
31566
31342
31479
31494
31356
31534
31383
31607
31564
31459
31580
31448
31570
31603
31455
31630
31591
31565
31583
31437
31556
31559
31452
31615
31502
31722
31621
31599
31685
31559
31725
31572
31796
31706
31667
31781
31655
31860
31739
31646
31828
31788
31666
31805
31629
31787
31826
31718
31918
31842
31714
31930
31802
32024
31975
31885
32037
31894
32046
32077
31943
32114
32113
32143
32147
31994
32151
32004
32153
31988
32164
31978
32036
32097
31987
31990
31959
31970
32028
32007
32067
32039
32210
32240
32090
32103
32083
32111
32247
32263
32284
32281
32271
32310
32302
32349
32334
32378
32389
32437
32436
32466
32486
32504
32471
32508
32496
32510
32524
32556
32598
32633
32654
32676
32662
32702
32775
32742
32758
32692
32695
32695
32708
32660
32711
32700
32775
32921
32943
32980
32928
32966
32927
32961
32870
32901
32853
32887
32881
32916
32897
32921
32916
32965
32925
32945
32958
32935
32925
32943
32967
33095
33067
33124
33124
33191
33169
33201
33127
33132
33099
33109
33071
33095
33062
33068
33001
33007
33023
33082
33031
33028
33000
32979
32949
32804
32751
32746
32693
32716
32664
32659
32612
32711
32711
32695
32674
32647
32633
32623
32596
32602
32599
32606
32620
32641
32620
32519
32423
32420
32449
32422
32414
32398
32537
32580
32613
32604
32647
32612
32516
32498
32486
32527
32551
32588
32583
32615
32569
32597
32687
32612
32700
32710
32767
32802
32804
32804
32808
32812
32852
32862
32877
32870
32878
32861
32837
32852
32832
32869
32887
32895
32878
32892
32934
32884
32893
32845
32905
32869
32958
32944
32999
32982
32986
32939
32972
32966
33023
33092
33155
33190
33246
33218
33190
33079
33111
33186
33157
33103
33058
33054
33064
33070
33063
33045
33067
33030
33054
33097
33124
33117
33135
33119
33044
33095
33022
33001
32970
32968
33134
33151
33167
33197
33247
33180
33171
33015
33054
33039
33019
33149
33148
33175
33179
33247
33182
33189
33056
33014
32991
33000
32980
32996
33136
33172
33195
33176
33250
33224
33231
33226
33246
33249
33271
33164
33096
33046
33018
33005
33054
33028
33031
33025
33054
33030
33064
33067
33150
33190
33228
33254
33189
33210
33166
33241
33236
33231
33225
33223
33188
33231
33214
33249
33225
33243
33180
33236
33153
33167
33159
33163
33151
33117
33062
33089
33061
33127
33111
33135
33133
33149
33109
33133
33103
33131
33148
33187
33124
33155
33130
33188
33114
33178
33161
33192
33159
33118
33127
33114
33155
33148
33187
33149
33184
33188
33164
33154
33130
33143
33099
33060
32967
32972
32959
32982
32991
33063
33118
33127
33119
33185
33191
33207
33169
33127
33159
33170
33150
33222
33176
33145
33127
33095
33063
33067
33001
33068
33084
33135
33126
33154
33173
33180
33126
33159
33057
33023
33019
33047
33036
33067
33077
33077
33060
33094
33123
33152
33158
33287
33240
33355
33388
33439
33448
33452
33428
33410
33391
33300
33258
33287
33361
33381
33380
33397
33365
33374
33351
33285
33354
33221
33375
33189
33367
33206
33380
33372
33323
33353
33201
33349
33263
33108
33240
33237
33114
33268
33243
33112
33227
33095
33276
33177
33217
33206
33117
33183
33014
33170
33045
33063
33149
33028
33202
33148
33201
33215
33060
33236
33127
33327
33228
33271
33269
33279
33284
33148
33310
33108
33263
33219
33051
33245
33159
33205
33220
33098
33255
33271
33206
33332
33203
33374
33336
33247
33353
33243
33084
33170
32919
32908
32908
32698
32810
32630
32692
32527
32677
32532
32663
32581
32519
32581
32413
32567
32476
32500
32501
32381
32516
32420
32260
32421
32464
32354
32572
32482
32396
32566
32348
32545
32565
32414
32613
32513
32547
32526
32339
32447
32280
32481
32354
32383
32414
32327
32459
32285
32470
32485
32338
32540
32317
32482
32518
32404
32557
32569
32556
32415
32588
32522
32404
32593
32550
32396
32580
32567
32445
32661
32581
32503
32645
32527
32685
32668
32551
32725
32679
32632
32668
32495
32678
32526
32662
32529
32700
32687
32663
32743
32584
32741
32783
32678
32910
32799
32815
32836
32764
32840
32691
32789
32775
32803
32815
32634
32811
32671
32801
32753
32538
32646
32428
32475
32156
32143
31997
31703
31739
31468
31189
31140
30968
30663
30778
30684
30572
30927
31052
31506
31924
32586
33252
33983
34628
35413
36199
36997
37791
38580
39354
40017
40623
41060
41444
41813
42084
42372
42465
42610
42711
42822
42892
42975
42701
42233
41631
40985
40359
39676
38968
38231
37524
36751
35990
35206
34554
34055
33518
33159
32883
32551
32295
31999
31800
31623
31477
31462
31352
31061
31200
31055
30906
30998
30865
30886
30869
30672
30828
30868
30717
30852
30852
30849
30854
30830
30819
30773
30745
30789
30812
30769
30825
30812
30780
30839
30867
30902
30913
30918
30916
30916
30908
30944
30940
30966
30967
31012
31002
31003
31014
31079
31100
31143
31097
31114
31076
31151
31214
31247
31246
31258
31301
31276
31288
31278
31303
31269
31267
31281
31295
31343
31269
31292
31204
31189
31222
31310
31309
31279
31331
31338
31348
31253
31263
31403
31393
31406
31413
31403
31270
31406
31247
31447
31223
31417
31228
31422
31385
31260
31418
31311
31439
31484
31386
31479
31469
31426
31515
31364
31522
31371
31503
31492
31334
31540
31300
31516
31466
31343
31489
31356
31582
31353
31528
31463
31541
31534
31372
31564
31516
31495
31500
31338
31522
31358
31525
31542
31367
31580
31495
31627
31717
31710
31550
31731
31567
31780
31671
31710
31692
31542
31648
31532
31652
31465
31612
31428
31580
31580
31457
31612
31449
31679
31700
31735
31708
31606
31572
31599
31602
31628
31633
31748
31791
31740
31760
31802
31811
31894
32007
32101
32124
32173
32148
32164
32215
32290
32324
32314
32303
32326
32322
32325
32231
32249
32292
32341
32517
32543
32651
32663
32691
32730
32750
32615
32647
32689
32717
32847
32731
32903
32753
32897
32757
32964
32815
33044
32892
33046
33061
33104
33102
33040
33180
33058
33240
33054
33252
33163
33223
33212
33079
33171
33005
33116
32965
33142
33007
33181
33143
33194
33209
33162
33156
33158
33166
33279
33312
33309
33231
33170
33217
33300
33429
33441
33420
33439
33287
33457
33255
33418
33472
33351
33511
33335
33462
33445
33333
33426
33250
33397
33404
33312
33385
33276
33399
33287
33340
33208
33381
33312
33332
33320
33124
33305
33260
33204
33255
33078
33232
33075
33214
33193
33095
33212
33079
33217
33095
33261
33246
33194
33242
33087
33287
33191
33240
33236
33236
33255
33167
33218
33088
33239
33210
33177
33236
33121
33257
33271
33213
33369
33199
33353
33380
33282
33487
33415
33287
33426
33273
33406
33396
33350
33416
33300
33422
33391
33276
33342
33182
33337
33103
33238
33251
33107
33200
33223
33047
33217
33156
33063
33204
33023
33170
33176
33052
33216
33141
33110
33169
33047
33177
33060
33189
33205
33066
33274
33046
33212
33137
33191
33156
33052
33175
33021
33202
33111
33095
33103
33129
33100
32957
33181
32991
33172
33056
33090
33089
32980
33078
32999
33022
32985
33005
32867
33081
33036
32955
33127
33045
32891
33036
33062
32926
33063
32895
33044
32870
33004
32941
32903
32967
32832
33050
32935
32980
33015
33036
33092
32985
33149
33022
33229
33177
33106
33208
33071
33210
33168
33066
33177
33015
33166
33094
32948
33110
32984
33185
33120
33063
33173
33092
33255
33227
33150
33237
33063
33220
33013
33124
33106
32925
33087
32936
33125
32942
33154
33094
33079
33173
33052
33200
33020
33180
33174
33038
33158
33011
33183
33167
33087
33271
33175
33038
33197
33167
33214
33189
33190
33175
33095
33046
33087
33025
33056
33061
33144
33132
33166
33111
33146
33102
33070
33117
33113
33083
33104
33133
33021
33092
33080
33090
33088
33122
33124
33167
33127
33109
33134
33085
33029
33044
33004
33022
33005
33054
33076
33122
33112
33159
33182
33257
33223
33215
33209
33236
33229
33225
33221
33178
33191
33247
33196
33171
33143
33143
33096
33124
33206
33222
33220
33157
33145
33174
33124
33137
33127
33150
33100
33233
33249
33278
33295
33317
33315
33316
33356
33319
33339
33351
33343
33370
33338
33372
33361
33404
33356
33398
33383
33383
33377
33396
33375
33343
33327
33318
33284
33310
33304
33356
33358
33259
33252
33326
33284
33285
33413
33415
33327
33316
33359
33389
33331
33372
33356
33402
33433
33460
33479
33527
33513
33552
33492
33522
33493
33495
33489
33607
33606
33620
33657
33607
33591
33580
33560
33563
33564
33530
33585
33607
33598
33600
33569
33457
33556
33447
33574
33570
33567
33420
33394
33513
33471
33341
33432
33287
33431
33250
33375
33390
33223
33407
33262
33216
33294
33196
33263
33232
33051
33196
33173
33055
33159
33015
33204
33038
33219
32987
33161
33174
33031
33208
33097
33108
33166
32967
33067
33036
32874
33031
32863
33011
32993
32870
33021
32874
33084
32997
32924
33020
32853
33041
32797
32942
32946
32804
32927
32710
32839
32796
32775
32701
32545
32636
32564
32412
32366
32212
32084
32015
31761
31814
31516
31660
31501
31390
31420
31164
31304
31226
31409
31655
31928
32335
32822
33393
34055
34708
35367
35964
36796
37604
38537
39256
39990
40462
41054
41412
41694
41982
42188
42457
42356
42445
42703
42579
42733
42286
41815
41340
40721
40117
39354
38833
38078
37289
36715
35868
35062
34489
33813
33519
33173
32698
32628
32323
31897
31869
31596
31339
31316
31166
30958
31005
30780
30879
30599
30748
30635
30474
30577
30369
30372
30516
30500
30432
30362
30343
30397
30388
30437
30466
30530
30534
30495
30462
30457
30452
30493
30520
30545
30519
30599
30575
30526
30529
30545
30545
30561
30581
30576
30514
30535
30673
30689
30570
30727
30542
30719
30666
30648
30641
30604
30663
30664
30698
30513
30692
30591
30652
30716
30719
30804
30828
30820
30813
30774
30772
30742
30775
30786
30812
30807
30832
30786
30884
30740
30924
30814
30946
30807
31027
30935
30937
31047
30843
30977
30999
30830
30989
30950
30798
30968
30812
30967
30983
30814
30958
30996
30862
31085
31039
31006
31117
30947
31124
30928
31113
31086
31012
31084
30941
31127
31054
31019
31105
30950
31042
31171
31018
31202
31217
31080
31307
31231
31323
31327
31178
31356
31352
31228
31469
31417
31310
31487
31451
31367
31554
31504
31396
31594
31495
31602
31631
31468
31669
31662
31543
31713
31678
31524
31799
31740
31686
31698
31709
31711
31751
31772
31815
31786
31750
31785
31783
31828
31822
31871
31956
32039
32030
32078
32052
32110
32104
32148
32135
32109
32112
32076
32055
31953
32015
32007
32197
32127
32252
32114
32356
32321
32250
32380
32382
32288
32410
32464
32335
32453
32487
32338
32364
32363
32466
32501
32542
32546
32615
32620
32622
32652
32633
32671
32654
32653
32636
32625
32500
32646
32452
32612
32647
32489
32699
32609
32519
32643
32481
32677
32614
32497
32629
32519
32637
32510
32709
32663
32548
32687
32620
32623
32669
32492
32628
32629
32508
32662
32519
32649
32629
32500
32613
32492
32625
32607
32593
32437
32569
32532
32420
32533
32396
32567
32513
32590
32588
32477
32652
32635
32596
32618
32456
32615
32599
32452
32655
32605
32460
32613
32594
32576
32620
32567
32598
32647
32681
32678
32695
32607
32589
32575
32733
32704
32575
32570
32572
32578
32605
32620
32628
32621
32728
32719
32756
32739
32775
32791
32823
32858
32868
32808
32851
32861
32805
32680
32730
32770
32871
32840
32924
32861
32893
32878
32893
32800
32817
32806
32836
32814
32831
32816
32859
32827
32861
32924
33071
33058
33075
33030
33103
33130
33090
33075
32953
33111
32996
33140
33108
32965
33145
33100
33031
33193
33030
33152
33212
33221
33262
33300
33321
33317
33307
33300
33287
33282
33270
33260
33235
33182
33162
33197
33182
33199
33178
33164
33191
33087
33050
33094
33051
33129
33153
33172
33151
33162
33114
33095
33055
33076
33095
33120
33094
33031
32970
32959
33022
32956
33129
33126
33059
32951
33079
33140
33126
32972
32964
33117
33135
33164
33108
33117
33071
33122
33084
33151
33127
33141
33111
33006
33011
33044
33060
33120
33093
33162
33151
33229
33207
33236
33182
33212
33143
33172
33099
33046
33021
33059
33066
33007
32991
33078
33052
33082
33064
33086
33048
33085
32967
32973
32948
32924
32876
32864
32844
32990
33023
33013
33023
33007
33031
33028
33012
32999
33008
33018
33012
33023
33022
32970
32925
32855
32900
32894
32910
32896
33029
33095
33117
33106
33120
33093
33087
33058
33034
32997
32999
32959
32893
32859
32879
32858
32844
32823
32837
32802
32790
32748
32756
32722
32737
32829
32838
32836
32820
32818
32807
32784
32775
32785
32811
32857
32879
32866
32871
32917
32883
32924
32845
32893
32836
32836
32803
32769
32742
32724
32757
32764
32783
32867
32844
32879
32895
32852
32894
32871
32863
32834
32863
32839
32869
32843
32839
32804
32845
32887
32879
32920
32897
32861
32783
32806
32775
32769
32718
32728
32736
32758
32725
32691
32661
32628
32772
32746
32726
32737
32729
32775
32791
32765
32759
32768
32802
32811
32789
32785
32811
32801
32716
32870
32900
32858
32884
32870
32868
32773
32775
32808
32831
32967
33004
33005
33042
33047
33036
33031
32964
32940
32976
32948
33007
32988
33101
33103
33065
33060
33037
33027
33012
32876
33039
33047
33007
33031
32919
33107
33072
32981
33080
33022
32967
33091
32969
33058
32997
32934
32847
32830
32781
32789
32714
32724
32713
32721
32622
32635
32601
32572
32556
32564
32543
32548
32519
32514
32492
32489
32487
32529
32495
32535
32504
32519
32566
32719
32679
32690
32676
32672
32661
32649
32693
32697
32692
32678
32607
32588
32633
32628
32671
32698
32793
32757
32724
32738
32609
32692
32574
32697
32551
32653
32622
32463
32596
32527
32421
32375
32116
32212
32036
31780
31761
31718
31423
31462
31433
31223
31351
31102
31202
31223
31139
31463
31494
31870
32356
32762
33507
34143
34679
35487
36061
37020
37806
38518
39360
40001
40618
41080
41513
41861
42135
42516
42564
42613
42882
42741
42749
42857
42300
41807
41319
40711
40028
39559
38844
38077
37492
36724
35903
35324
34700
34156
33662
33505
33031
32911
32632
32221
32183
31959
31775
31684
31524
31396
31327
31230
31188
31119
31108
31044
30996
30943
30908
30862
30839
30804
30821
30821
30802
30800
30734
30824
30836
30854
30852
30845
30862
30920
30932
30948
30874
30880
30808
30845
30820
30846
30866
30904
30892
30904
30921
30927
30950
30973
30973
30924
30970
30966
30973
30977
30999
30983
30973
30970
30814
30844
30855
30894
30915
30934
30989
31040
31052
31089
31107
31118
31106
31045
31043
31077
31116
31083
31127
31141
31083
31079
31114
31150
31239
31215
31244
31277
31323
31353
31407
31399
31471
31462
31508
31508
31522
31696
31714
31732
31724
31739
31751
31739
31751
31751
31800
31848
31845
31847
31847
31870
31903
31874
31903
31887
31872
31900
31918
31924
31946
31940
31972
32006
32038
32020
32058
32100
32173
32197
32203
32207
32199
32072
32110
32128
32162
32165
32167
32156
32190
32175
32194
32180
32239
32240
32289
32271
32295
32316
32300
32309
32335
32327
32359
32326
32364
32362
32385
32381
32423
32441
32460
32498
32535
32520
32575
32532
32598
32610
32698
32719
32791
32782
32766
32770
32770
32678
32799
32665
32863
32687
32847
32893
32751
32902
32757
32932
32964
32834
33020
32847
33001
33031
32895
33089
33031
32964
33040
32903
33057
33070
32967
33124
33077
33023
33141
33015
33155
33166
33072
33249
33225
33167
33284
33234
33075
33280
33228
33095
33215
33090
33233
33182
33175
33229
33071
33255
33127
33156
33215
33092
33223
33188
33050
33205
33132
33054
33141
32959
32932
32894
32893
32839
32876
32869
32894
32887
32868
32836
32826
32806
32775
32736
32764
32807
32815
32759
32763
32769
32820
32762
32809
32757
32755
32750
32740
32772
32773
32775
32746
32732
32689
32724
32736
32639
32639
32687
32671
32712
32775
32842
32819
32852
32860
32887
32919
32934
32959
32959
32844
32836
32839
32847
32876
32864
32865
32832
32826
32938
32949
32948
32940
32951
32935
32924
32927
32941
32932
32928
32909
32892
32907
32764
32783
32743
32748
32719
32763
32770
32818
32813
32857
32879
32923
32967
33047
33045
33095
33093
33047
33050
33014
33045
33025
32997
32854
32862
32828
32868
32962
33025
33002
32989
33001
33005
33035
33055
33017
33061
32982
33002
33022
32962
33015
32891
33075
32966
33104
33137
32991
33135
32988
33156
32959
33132
33156
33081
33172
33039
33208
33076
33236
33164
33153
33189
33018
33207
32970
33095
33135
32968
33122
33116
32994
33169
33222
33092
33281
33296
33210
33382
33375
33377
33380
33243
33404
33406
33252
33420
33367
33303
33469
33379
33439
33452
33459
33314
33346
33503
33470
33506
33396
33539
33405
33548
33393
33519
33516
33455
33572
33396
33553
33396
33571
33543
33460
33610
33594
33484
33492
33613
33655
33648
33551
33692
33705
33687
33716
33538
33682
33695
33566
33527
33663
33517
33700
33711
33566
33723
33564
33703
33656
33537
33614
33487
33672
33591
33441
33543
33344
33503
33537
33397
33574
33444
33609
33564
33471
33596
33540
33511
33676
33626
33634
33605
33582
33576
33435
33399
33396
33338
33345
33349
33516
33531
33594
33575
33599
33639
33481
33671
33514
33668
33607
33621
33639
33602
33677
33590
33680
33658
33612
33720
33608
33751
33773
33815
33749
33698
33732
33767
33757
33796
33747
33752
33748
33785
33772
33718
33687
33634
33600
33580
33553
33457
33567
33594
33582
33571
33449
33465
33446
33431
33416
33404
33398
33389
33403
33367
33359
33314
33327
33313
33425
33415
33437
33415
33452
33459
33517
33530
33516
33470
33527
33488
33466
33460
33431
33334
33347
33370
33336
33359
33363
33397
33451
33540
33580
33638
33632
33692
33736
33764
33772
33772
33759
33726
33643
33632
33749
33738
33840
33693
33701
33691
33689
33667
33654
33639
33678
33721
33740
33719
33732
33706
33738
33716
33700
33677
33647
33638
33665
33629
33630
33631
33527
33516
33519
33461
33468
33471
33527
33498
33461
33511
33343
33507
33420
33417
33413
33237
33392
33311
33357
33356
33164
33348
33292
33252
33380
33259
33459
33261
33415
33438
33323
33471
33312
33476
33421
33350
33428
33276
33444
33414
33430
33428
33347
33254
33253
33268
33268
33240
33281
33365
33364
33449
33409
33403
33391
33420
33245
33446
33300
33466
33367
33324
33295
33087
33130
32867
32903
32663
32668
32394
32455
32198
32322
32097
32210
31930
31990
32053
32038
32263
32454
32683
33108
33487
34255
34701
35540
36077
36999
37775
38610
39461
40247
40907
41590
41895
42383
42684
43005
43062
43367
43143
43500
43241
43447
42887
42673
41924
41380
40751
40111
39523
38808
38169
37402
36684
35876
35439
34927
34564
34281
34035
33770
33509
33319
33031
32884
32593
32542
32234
32284
31998
32102
31848
31995
31874
31810
31797
31677
31697
31484
31657
31436
31581
31533
31449
31479
31348
31453
31280
31421
31336
31396
31260
31383
31190
31329
31118
31297
31119
31270
31239
31139
31269
31157
31191
31301
31151
31355
31334
31255
31365
31204
31366
31341
31188
31381
31236
31463
31379
31433
31494
31396
31319
31431
31270
31422
31416
31412
31475
31351
31565
31434
31433
31477
31308
31453
31308
31479
31504
31415
31503
31351
31550
31414
31596
31523
31480
31491
31410
31472
31299
31460
31315
31494
31419
31356
31476
31290
31492
31401
31399
31457
31418
31486
31308
31505
31463
31343
31508
31318
31395
31413
31262
31364
31399
31253
31395
31452
31297
31484
31304
31453
31452
31508
31487
31395
31521
31348
31551
31372
31565
31345
31553
31294
31484
31396
31462
31390
31426
31487
31327
31506
31470
31487
31429
31532
31359
31553
31545
31572
31527
31585
31564
31616
31567
31583
31539
31609
31463
31616
31489
31663
31487
31678
31485
31648
31448
31653
31516
31615
31652
31604
31463
31612
31630
31566
31681
31570
31761
31606
31762
31614
31780
31654
31839
31666
31804
31830
31762
31849
31703
31870
31697
31908
31729
31855
31890
31767
31906
31788
31965
31841
32015
32044
31950
32112
31949
32126
31961
32127
32100
32033
32118
31980
32135
32183
32116
32204
32075
32230
32194
32137
32244
32111
32252
32085
32198
32005
32119
32143
32007
32118
31935
32044
32093
32067
31900
32075
32007
31871
32065
31913
31931
31966
31903
31801
31965
31961
31953
31934
31944
31926
31871
31832
31751
31776
31766
31772
31777
31782
31751
31782
31652
31665
31655
31592
31582
31639
31644
31646
31623
31647
31654
31670
31649
31706
31683
31681
31663
31714
31729
31736
31758
31794
31770
31765
31783
31788
31783
31794
31775
31775
31790
31774
31805
31823
31799
31783
31780
31647
31663
31644
31640
31632
31636
31663
31676
31684
31701
31687
31710
31718
31764
31748
31807
31815
31799
31815
31764
31638
31629
31659
31690
31719
31703
31719
31724
31751
31743
31751
31726
31735
31759
31761
31751
31778
31801
31893
31887
31973
31897
31911
31902
31929
31892
31905
31893
31879
31764
31775
31909
31949
31997
31999
31989
31882
32070
31941
32080
31911
32061
31916
32038
32037
32031
32102
32004
32117
31988
32143
32154
32119
32110
32135
32000
32155
31970
32133
31967
32125
31978
32191
32013
32143
32191
32153
32203
32124
32217
32074
32236
32071
32244
32102
32277
32132
32306
32119
32299
32120
32297
32135
32263
32133
32294
32158
32284
32324
32227
32304
32187
32272
32103
32248
32169
32231
32276
32144
32285
32143
32359
32204
32364
32391
32397
32416
32433
32484
32316
32457
32309
32421
32410
32471
32516
32497
32537
32439
32536
32501
32603
32487
32644
32511
32603
32617
32422
32569
32377
32550
32361
32522
32365
32475
32501
32454
32484
32449
32528
32454
32582
32438
32594
32462
32681
32471
32603
32643
32562
32642
32528
32680
32564
32708
32565
32740
32599
32765
32740
32763
32772
32820
32878
32772
32868
32704
32831
32639
32794
32642
32801
32657
32799
32636
32787
32647
32807
32647
32828
32868
32726
32844
32876
32740
32918
32849
32810
32945
32805
32942
32964
32788
32939
32937
32918
32871
32767
32755
32794
32817
32792
32796
32800
32822
32884
32939
33011
32990
32986
32934
32981
32994
32985
33009
33077
33095
33098
33100
33124
33104
33151
33130
33124
33118
32983
33097
33011
33028
32887
32959
32852
32998
32919
32975
32929
33021
33060
33133
33095
33209
33119
33232
33129
33308
33189
33370
33415
33406
33484
33383
33468
33439
33464
33351
33454
33278
33364
33360
33361
33388
33227
33375
33212
33330
33354
33283
33407
33290
33492
33359
33491
33335
33458
33309
33436
33301
33456
33450
33321
33415
33274
33375
33229
33415
33297
33469
33316
33484
33340
33479
33296
33455
33301
33439
33335
33428
33462
33287
33476
33381
33441
33287
33435
33349
33408
33312
33511
33324
33491
33321
33459
33279
33369
33245
33388
33412
33318
33391
33255
33421
33285
33451
33437
33373
33431
33364
33455
33340
33419
33251
33375
33224
33356
33300
33256
33188
33169
33058
32828
32850
32574
32669
32388
32420
32148
32201
32006
32103
31891
31965
31772
32005
31951
32277
32495
32667
33165
33676
34114
34809
35316
36101
36871
37670
38492
39288
39855
40474
40914
41148
41598
41837
41983
42282
42183
42503
42327
42564
42074
41909
41223
40818
40109
39600
38919
38367
37722
37073
36340
35826
35292
34986
34670
34273
34135
33778
33693
33562
33265
33214
32943
32969
32700
32732
32649
32481
32538
32369
32463
32401
32290
32309
32263
32274
32142
32236
32087
32222
32112
32254
32330
32199
32343
32223
32356
32211
32357
32166
32263
32291
32254
32340
32210
32347
32206
32330
32346
32398
32480
32428
32518
32412
32572
32486
32582
32622
32566
32638
32487
32647
32493
32636
32663
32661
32751
32612
32722
32678
32689
32716
32740
32758
32760
32770
32796
32842
32878
32880
32892
32927
32923
32933
32892
32939
32934
32953
32952
32929
32903
32817
32796
32820
32835
32834
32879
32902
32919
32946
32935
32796
32886
32900
32832
32804
32663
32708
32623
32669
32487
32627
32468
32568
32551
32390
32516
32351
32458
32471
32351
32367
32166
32230
32077
32102
32134
31992
32175
32119
32148
32194
32065
32156
32005
32129
32191
32156
32263
32117
32226
32280
32108
32225
32050
32143
32157
32142
32165
32098
32198
32056
32207
32087
32239
32136
32258
32183
32220
32239
32143
32234
32165
32194
32286
32287
32334
32212
32324
32253
32369
32404
32338
32471
32351
32523
32527
32473
32543
32420
32543
32435
32553
32636
32634
32684
32684
32629
32783
32692
32785
32767
32855
32932
32876
32960
32873
33031
33056
33026
33124
33031
33199
33093
33221
33111
33260
33332
33233
33371
33287
33306
33367
33345
33390
33422
33441
33450
33549
33543
33525
33511
33489
33516
33390
33406
33540
33415
33558
33431
33596
33539
33511
33452
33541
33500
33463
33482
33351
33388
33399
33306
33311
33138
33283
33159
33277
33143
33234
33086
33184
33047
33178
33220
33153
33220
33082
33219
33164
33186
33133
33193
33199
33141
33178
33014
33149
33030
33098
32948
33053
33063
33023
33075
33106
33045
33073
32999
33119
32981
33074
32980
33071
32991
33088
32974
33098
33083
33005
33052
32987
32950
32946
32955
32999
33000
32980
33022
32999
32997
32983
32960
32821
32845
32839
32837
32840
32892
32937
32922
33043
33068
33070
32994
33017
33022
33079
33087
33121
33142
33174
33022
33038
33079
33070
33005
33037
33022
32853
32887
32948
33043
33039
33039
33053
33084
32932
33053
32941
33104
32987
33096
32978
33057
33085
33052
33093
33029
33081
32975
33059
32943
33045
32955
33060
32911
33054
32922
33024
32950
32999
32891
32957
32820
32939
32873
32943
32834
32916
32788
32903
32786
32911
32959
32871
32958
32823
32964
32868
32980
32980
33044
33069
32969
33063
32972
33100
32996
33099
32985
33109
33036
33128
33186
33162
33193
33081
33105
33119
33094
33117
33094
33092
33060
33164
33159
33172
33169
33028
33049
33069
33104
33225
33223
33181
33092
33127
33139
33170
33210
33219
33173
33124
33179
33168
33111
33230
33212
33283
33228
33342
33237
33396
33294
33420
33326
33474
33357
33475
33348
33481
33338
33414
33287
33348
33305
33351
33364
33445
33316
33396
33434
33493
33577
33525
33607
33541
33575
33469
33532
33402
33510
33406
33479
33431
33463
33372
33341
33428
33308
33455
33319
33468
33317
33399
33436
33446
33500
33405
33473
33557
33431
33575
33503
33511
33588
33565
33617
33582
33668
33583
33680
33605
33675
33620
33632
33521
33573
33446
33527
33415
33524
33413
33543
33406
33429
33415
33474
33442
33415
33491
33460
33500
33452
33513
33470
33519
33461
33534
33493
33508
33409
33460
33439
33329
33348
33380
33267
33363
33220
33298
33182
33333
33205
33260
33241
33297
33319
33204
33250
33102
33243
33064
33110
33029
33082
33088
33067
33098
33118
33077
33111
33045
33150
33158
33207
33159
33222
33122
33277
33178
33241
33296
33254
33307
33248
33308
33279
33321
33260
33325
33255
33280
33192
33231
33159
33220
33088
33177
33031
33119
32991
33031
32980
33015
32981
33037
32995
33082
32978
33093
32980
33070
33095
33049
33119
32981
33133
32998
33108
32940
33008
32847
32884
32935
32868
32895
32799
32876
32722
32793
32743
32770
32710
32824
32832
32740
32840
32716
32823
32680
32740
32775
32659
32699
32575
32661
32634
32703
32631
32700
32641
32693
32586
32645
32575
32615
32515
32567
32427
32546
32415
32442
32388
32468
32517
32471
32519
32404
32503
32398
32484
32355
32431
32244
32205
32210
32013
31958
31701
31611
31308
31313
31063
31142
30910
30969
30773
30812
30865
30926
31166
31377
31831
32127
32745
33435
33999
34709
35273
36084
36939
37638
38577
39182
39974
40388
40967
41277
41735
41961
42261
42350
42469
42564
42646
42724
42615
42287
41898
41267
40820
40104
39655
38829
38221
37612
36815
36076
35371
34813
34250
33900
33533
33231
32912
32659
32331
32006
31894
31692
31526
31471
31239
31216
31031
30966
30979
30890
30962
30831
30902
30868
30784
30843
30679
30765
30783
30676
30719
30593
30687
30699
30615
30739
30603
30684
30727
30638
30634
30652
30724
30644
30682
30618
30708
30593
30720
30742
30682
30753
30685
30780
30719
30761
30700
30756
30719
30791
30740
30767
30745
30677
30847
30679
30758
30661
30839
30709
30846
30726
30834
30694
30834
30756
30824
30773
30862
30814
30889
30812
30817
30885
30829
30876
30954
30855
30995
30868
31038
30930
31079
30962
31099
31028
31130
31041
31151
31095
31229
31213
31303
31252
31311
31266
31341
31301
31382
31343
31446
31367
31476
31413
31479
31436
31486
31391
31426
31389
31445
31381
31519
31438
31569
31451
31498
31492
31535
31454
31495
31461
31604
31503
31535
31490
31592
31544
31587
31492
31668
31584
31634
31561
31688
31570
31716
31591
31720
31586
31653
31659
31655
31698
31581
31655
31533
31620
31697
31620
31727
31655
31745
31718
31788
31751
31841
31799
31916
31876
31943
31852
31924
31767
31831
31727
31809
31714
31833
31735
31815
31807
31869
31821
31852
31926
31868
31908
31859
31904
31831
31947
31839
31961
31855
31960
31916
31914
31972
31945
32055
31999
32100
32046
32087
32182
32095
32218
32116
32159
32201
32187
32255
32166
32219
32106
32208
32230
32172
32246
32140
32227
32297
32301
32299
32185
32255
32216
32210
32255
32182
32253
32192
32177
32051
32105
31948
32046
32020
32012
32076
32036
32028
31910
31937
31855
31895
31842
31797
31842
31742
31821
31721
31709
31767
31661
31659
31735
31705
31795
31663
31727
31806
31740
31783
31700
31797
31718
31841
31751
31715
31673
31719
31804
31708
31783
31641
31728
31663
31751
31751
31766
31815
31771
31777
31780
31781
31793
31769
31790
31780
31751
31694
31689
31692
31758
31808
31856
31880
31780
31900
31799
31863
31931
31830
31888
31927
31966
31972
31892
31977
32007
32007
32047
31964
32036
31965
32077
32118
32102
32167
32129
32230
32295
32232
32303
32200
32263
32297
32256
32278
32279
32287
32239
32276
32253
32217
32159
32209
32169
32209
32108
32207
32236
32263
32306
32245
32319
32203
32285
32317
32241
32318
32263
32289
32203
32263
32342
32339
32311
32220
32319
32413
32318
32383
32430
32330
32380
32472
32391
32397
32436
32345
32349
32428
32407
32350
32308
32305
32362
32351
32401
32387
32437
32420
32467
32435
32483
32494
32557
32503
32525
32490
32508
32504
32492
32483
32478
32502
32509
32497
32539
32547
32443
32486
32427
32405
32449
32443
32431
32433
32428
32439
32433
32441
32410
32372
32316
32348
32337
32420
32393
32448
32439
32389
32427
32334
32367
32406
32344
32416
32365
32422
32409
32412
32347
32422
32356
32388
32476
32421
32519
32503
32541
32581
32487
32573
32492
32502
32553
32519
32546
32535
32531
32487
32531
32526
32511
32423
32500
32452
32484
32404
32479
32465
32480
32447
32537
32504
32529
32469
32548
32559
32541
32484
32531
32583
32566
32549
32574
32660
32679
32681
32688
32759
32730
32711
32759
32742
32767
32740
32715
32695
32745
32766
32749
32665
32628
32661
32731
32774
32783
32788
32870
32903
32900
32954
32934
32938
32918
32863
32871
32930
32911
32865
32836
32887
32845
32840
32865
32869
32881
32989
33050
33116
33096
33082
33105
33147
33111
33163
33183
33175
33191
33130
33111
33130
33158
33209
33143
33100
33100
33127
33124
33052
33117
33092
33070
33071
33037
33063
33055
33108
33130
33094
33110
33148
33199
33185
33223
33236
33263
33317
33264
33263
33245
33273
33225
33199
33217
33204
33153
33199
33184
33201
33206
33137
33097
33126
33159
33217
33158
33162
33142
33178
33196
33146
33147
33159
33194
33210
33093
33095
33082
33102
33135
33075
33091
33077
33134
33143
33184
33156
33156
33178
33167
33208
33218
33167
33196
33116
33142
33154
33174
33220
33158
33176
33127
33149
33116
33143
33087
33063
33027
32922
32737
32551
32462
32315
32175
32017
31873
31844
31797
31711
31586
31462
31551
31719
31855
32119
32510
33025
33574
34271
34789
35617
36442
37112
37941
38835
39614
40284
40859
41399
41727
42057
42316
42518
42652
42719
42773
42823
42844
42750
42452
42020
41518
40976
40398
39773
39135
38431
37734
36972
36301
35578
35191
34583
34287
33968
33661
33420
33199
32993
32743
32615
32346
32225
32135
32022
31906
31854
31758
31708
31647
31623
31529
31532
31462
31471
31399
31441
31413
31425
31404
31411
31363
31367
31348
31337
31335
31327
31362
31291
31319
31271
31335
31302
31362
31334
31391
31378
31466
31486
31538
31552
31547
31529
31505
31480
31452
31458
31440
31492
31460
31486
31400
31439
31370
31460
31407
31489
31525
31631
31646
31676
31663
31655
31686
31672
31700
31727
31682
31631
31719
31662
31743
31680
31789
31740
31780
31743
31843
31775
31770
31777
31792
31793
31788
31791
31783
31773
31780
31804
31790
31809
31799
31804
31789
31798
31807
31834
31789
31829
31842
31847
31871
31871
31870
31855
31822
31797
31780
31824
31843
31861
31879
31911
31952
31956
31966
31996
31989
32068
32060
32116
32084
32071
32126
32147
32156
32135
32161
32115
32133
32141
32210
32202
32242
32250
32271
32274
32270
32308
32328
32351
32359
32390
32428
32359
32367
32332
32367
32379
32359
32354
32368
32423
32368
32413
32436
32531
32511
32524
32551
32584
32631
32602
32652
32629
32703
32698
32771
32715
32762
32743
32791
32732
32792
32795
32898
32882
32987
32982
32956
33012
32958
33061
33008
33077
33040
33022
33062
33026
33158
33117
33151
33100
33076
33103
33047
33108
33103
33243
33204
33268
33268
33272
33276
33242
33252
33191
33253
33159
33215
33169
33215
33106
33187
33131
33209
33095
33161
33090
33155
33066
33137
33087
33143
33039
33026
32940
32993
32858
32872
32822
32887
32796
32833
32885
32807
32895
32836
32812
32775
32768
32767
32743
32700
32693
32667
32670
32638
32647
32647
32635
32586
32559
32556
32557
32581
32577
32572
32591
32568
32565
32538
32571
32546
32535
32487
32494
32487
32535
32524
32519
32487
32506
32508
32558
32567
32575
32556
32535
32558
32599
32551
32487
32566
32541
32572
32463
32491
32455
32465
32381
32421
32399
32447
32444
32440
32476
32431
32444
32375
32390
32407
32407
32469
32364
32369
32352
32391
32355
32244
32254
32241
32247
32293
32257
32280
32270
32294
32241
32294
32289
32332
32295
32311
32281
32319
32274
32343
32363
32424
32385
32445
32457
32526
32495
32578
32605
32609
32646
32556
32600
32545
32588
32519
32590
32540
32581
32504
32545
32512
32574
32526
32607
32602
32601
32647
32578
32647
32677
32716
32695
32700
32706
32642
32674
32578
32604
32554
32581
32595
32588
32592
32550
32575
32575
32572
32604
32578
32661
32631
32670
32631
32663
32615
32622
32611
32559
32612
32503
32518
32481
32512
32464
32530
32532
32543
32540
32486
32511
32495
32547
32562
32581
32616
32592
32631
32583
32550
32507
32519
32454
32437
32413
32471
32404
32467
32487
32465
32488
32495
32481
32487
32429
32447
32350
32430
32399
32337
32343
32347
32391
32423
32422
32409
32364
32311
32326
32263
32292
32336
32263
32255
32220
32200
32180
32154
32132
32077
32085
32071
32070
32079
32100
32102
32063
32098
32084
32183
32198
32149
32149
32036
32048
32006
32010
32003
32020
31991
31988
31970
32004
32005
31947
31982
31940
31935
31956
31948
31974
31959
31964
31989
31895
31868
31879
31899
31844
31824
31870
31865
31830
31805
31847
31880
31939
31955
32007
32077
32111
32042
32055
32071
32111
32101
32119
32142
32165
32186
32128
32149
32124
32172
32152
32188
32208
32260
32310
32252
32299
32261
32238
32145
32145
32108
32138
32100
32123
32116
32119
32076
32085
32061
32114
32077
32116
32100
32127
32066
32081
32033
32030
31978
31980
31934
31895
31860
31821
31800
31772
31743
31661
31644
31645
31655
31600
31670
31682
31693
31707
31668
31657
31685
31717
31693
31735
31776
31767
31783
31765
31720
31751
31751
31737
31773
31791
31827
31843
31853
31876
31863
31911
31900
31922
31943
31988
31968
31972
31940
31921
31913
32003
31998
31980
31982
31938
31929
31926
31836
31764
31629
31489
31351
31188
31042
30941
30804
30684
30617
30508
30492
30497
30499
30612
30727
30973
31262
31709
32282
32910
33679
34230
35085
35692
36642
37359
38244
38965
39633
40221
40608
41094
41367
41751
41988
42160
42207
42287
42412
42388
42336
42089
41624
41135
40543
40021
39392
38781
38079
37472
36631
35996
35148
34612
34134
33564
33284
32971
32645
32374
32079
31846
31622
31462
31315
31127
30940
30916
30755
30755
30632
30655
30593
30591
30573
30557
30574
30613
30607
30465
30522
30564
30456
30509
30474
30462
30490
30479
30519
30470
30506
30484
30509
30481
30544
30548
30540
30533
30568
30581
30502
30638
30599
30653
30564
30644
30657
30716
30727
30632
30770
30719
30741
30672
30782
30726
30781
30703
30820
30778
30849
30769
30903
30807
30922
30847
30986
30911
30959
30935
30972
31042
31074
31089
31051
31092
31085
31093
31056
31181
31135
31174
31119
31156
31239
31253
31287
31188
31234
31229
31229
31214
31308
31303
31351
31321
31407
31431
31428
31363
31446
31391
31401
31428
31451
31524
31554
31538
31479
31545
31484
31488
31565
31579
31591
31575
31554
31499
31607
31620
31603
31615
31629
31606
31604
31589
31607
31605
31592
31589
31640
31652
31630
31612
31647
31710
31732
31749
31751
31815
31815
31796
31844
31900
31911
31876
31872
31930
31855
31760
31832
31863
31855
31836
31932
31965
31972
31967
32012
32084
32101
32031
32031
32033
32052
32061
32066
32067
32082
32135
32152
32135
32157
32174
32209
32280
32302
32299
32287
32365
32355
32289
32303
32288
32319
32356
32406
32430
32449
32468
32573
32619
32684
32643
32682
32766
32812
32863
32899
32983
32933
32934
32971
32987
33014
32980
32997
33039
33098
33090
33138
33138
33172
33175
33206
33225
33192
33221
33270
33279
33280
33265
33190
33175
33140
33137
33087
33023
33044
33011
32995
32993
32996
32991
32972
32966
32935
32966
32978
33007
32924
32919
32891
32917
32935
32884
32862
32868
32953
32932
32894
32861
32908
32935
32948
32913
32899
32927
32911
32900
32930
32994
32987
32960
32949
32978
32871
32864
32870
32847
32838
32824
32867
32821
32820
32836
32833
32850
32855
32927
32942
32999
32988
33039
33061
33071
33087
33090
33048
32978
32983
33005
33010
33026
33054
33041
33069
33063
33093
33038
33047
32990
33031
33020
33047
33049
33071
33029
33094
33068
33099
33083
33103
33076
33151
33148
33177
33151
33211
33130
33078
33119
33084
33095
33083
33031
33087
33140
33097
33085
33056
33090
33084
33097
33085
33136
33122
33146
33127
33167
33132
33159
33135
33118
33140
33127
33152
33197
33131
33108
33096
33103
33052
33077
33089
33153
33135
33101
33105
33132
33094
33093
33068
33021
33047
32988
32963
32942
32957
32903
32833
32844
32820
32791
32703
32770
32756
32742
32676
32722
32708
32668
32580
32594
32596
32574
32595
32634
32644
32636
32647
32634
32658
32641
32591
32663
32660
32669
32655
32708
32724
32696
32668
32671
32596
32561
32560
32586
32556
32603
32537
32573
32557
32589
32562
32567
32546
32559
32549
32567
32533
32511
32529
32527
32511
32477
32487
32485
32457
32420
32466
32478
32453
32423
32446
32418
32455
32396
32489
32428
32437
32423
32457
32413
32367
32458
32459
32453
32367
32413
32423
32420
32460
32459
32506
32511
32503
32423
32543
32534
32535
32498
32524
32549
32537
32519
32471
32486
32484
32486
32452
32503
32490
32531
32561
32653
32634
32652
32575
32616
32574
32551
32416
32461
32474
32439
32424
32369
32426
32452
32471
32487
32451
32519
32478
32470
32529
32536
32568
32566
32573
32604
32510
32583
32711
32769
32786
32775
32854
32831
32836
32791
32906
32924
32943
32945
32964
33022
33042
33039
32948
33013
33063
33038
32948
32991
32978
32962
32892
32944
32973
32999
32983
33053
33061
33106
33075
33193
33207
33199
33211
33178
33211
33206
33186
33127
33155
33167
33143
33124
33131
33111
33131
33099
33107
33091
33084
33063
33120
33093
33093
33095
33129
33102
33060
33150
33210
33230
33181
33212
33176
33145
33087
33113
33082
33077
33067
33130
33127
33113
33031
33070
32999
33031
32940
33007
33091
33039
33031
32923
33011
32941
32946
32941
32919
32993
33037
33031
33031
33068
33014
32958
32922
32783
32761
32699
32610
32459
32304
32135
31988
31800
31727
31623
31603
31487
31474
31461
31436
31439
31541
31732
31889
32202
32655
33333
33910
34513
35267
35999
36856
37663
38407
39258
40052
40706
41252
41714
42052
42367
42620
42833
42932
42988
43065
43118
43119
42962
42644
42175
41632
41070
40465
39868
39279
38628
37944
37175
36327
35524
34965
34507
34010
33670
33285
33028
32633
32415
32180
31869
31724
31593
31399
31370
31327
31244
31252
31114
31149
30981
31034
30885
30967
30845
30937
30813
30896
30786
30884
30809
30845
30788
30764
30826
30790
30845
30943
30900
30855
30966
31053
31065
31113
31140
31156
31033
31142
31188
31255
31210
31153
31260
31274
31348
31367
31301
31300
31315
31442
31362
31494
31484
31511
31495
31450
31551
31490
31639
31527
31588
31654
31630
31706
31604
31727
31639
31780
31658
31743
31687
31756
31844
31830
31903
31847
31914
31892
31972
31937
32020
32018
32068
32030
32116
32126
32175
32081
32167
32068
32143
32209
32170
32215
32130
32184
32124
32194
32157
32116
32159
32112
32177
32117
32206
32206
32241
32199
32322
32218
32321
32255
32384
32304
32380
32302
32400
32343
32422
32407
32289
32369
32257
32375
32284
32393
32255
32336
32263
32376
32271
32391
32295
32379
32273
32324
32235
32353
32231
32327
32231
32325
32320
32327
32314
32344
32391
32423
32485
32449
32516
32386
32454
32383
32467
32334
32447
32404
32527
32401
32478
32388
32460
32417
32509
32487
32561
32487
32620
32598
32704
32726
32743
32695
32770
32806
32820
32773
32842
32798
32834
32730
32850
32775
32869
32938
32872
32957
32855
32957
32911
32994
33013
33052
33060
33133
33130
33108
33092
33166
33173
33228
33179
33261
33183
33250
33263
33285
33287
33279
33191
33310
33223
33265
33267
33311
33296
33284
33226
33247
33150
33189
33127
33185
33190
33198
33166
33232
33223
33222
33165
33233
33149
33223
33125
33202
33137
33146
33031
33079
32951
33006
32903
32972
32881
32934
32867
32898
32862
32895
32836
32955
32863
32935
32829
32882
32762
32855
32801
32863
32766
32804
32669
32734
32751
32748
32687
32791
32707
32801
32746
32820
32822
32839
32914
32892
32943
32887
32911
32828
32879
32871
32864
32804
32852
32847
32862
32859
32908
32853
32847
32732
32817
32748
32790
32758
32805
32746
32788
32828
32765
32834
32724
32820
32806
32860
32903
32949
32967
32954
32999
32933
33014
32922
32981
32865
32943
32831
32927
32809
32887
32783
32858
32730
32802
32724
32825
32748
32837
32751
32841
32821
32807
32727
32775
32647
32689
32676
32693
32751
32704
32799
32741
32836
32710
32799
32843
32793
32792
32767
32790
32789
32884
32885
32927
32805
32823
32746
32763
32647
32704
32632
32679
32766
32698
32744
32671
32697
32586
32671
32700
32625
32615
32516
32538
32586
32428
32453
32512
32420
32518
32432
32513
32471
32557
32610
32486
32596
32623
32497
32594
32635
32607
32555
32543
32494
32380
32364
32381
32460
32478
32480
32488
32494
32519
32510
32492
32479
32514
32573
32620
32615
32591
32554
32615
32557
32604
32572
32623
32614
32604
32600
32593
32435
32484
32590
32628
32747
32732
32747
32764
32727
32661
32719
32729
32769
32804
32775
32796
32775
32666
32661
32738
32807
32804
32792
32817
32911
32934
32933
32935
32833
32815
32868
32800
32911
32842
32903
32843
32863
32804
32889
32807
32895
32820
32837
32895
32871
32932
32869
32897
32940
32896
32942
32831
32920
32852
32921
32927
32948
32866
32958
32879
32911
32812
32924
32927
32888
32911
32879
32815
32898
32868
32956
32871
32951
32849
32916
32871
32904
32855
32902
32857
32892
32828
32774
32850
32794
32931
32845
32980
32965
33117
33021
33107
33085
33198
33159
33287
33308
33327
33414
33388
33467
33442
33577
33491
33564
33497
33594
33492
33591
33543
33613
33583
33615
33595
33663
33606
33628
33543
33592
33641
33657
33695
33655
33689
33581
33682
33565
33605
33700
33607
33605
33604
33539
33580
33506
33559
33460
33566
33468
33528
33458
33532
33453
33519
33561
33494
33505
33407
33461
33484
33412
33500
33446
33493
33527
33428
33476
33442
33450
33490
33389
33406
33415
33423
33487
33399
33416
33314
33374
33391
33284
33340
33244
33314
33231
33272
33287
33263
33178
33255
33237
33244
33303
33287
33316
33255
33252
33137
33159
33035
32956
32734
32657
32460
32341
32072
32039
31829
31844
31636
31719
31540
31620
31613
31863
31919
32365
32676
33220
33820
34418
35055
35782
36424
37358
38116
39172
39866
40709
41247
41847
42288
42662
42944
43142
43291
43343
43428
43464
43574
43516
43313
42865
42345
41836
41166
40663
39894
39404
38519
37914
36966
36277
35565
35069
34577
34192
33819
33550
33138
32926
32554
32425
32103
31951
31840
31596
31559
31351
31397
31199
31311
31180
31177
31205
31043
31120
30911
30995
30868
30989
30863
30945
30774
30876
30707
30775
30743
30821
30836
30764
30708
30841
30694
30798
30769
30808
30860
30789
30872
30854
30925
30860
30911
30868
30927
30850
30925
30837
30927
30855
30976
30879
30990
30880
30950
30844
30947
30923
30991
30950
31005
30941
30992
30970
30921
30928
30948
30828
30868
30954
30997
31046
31036
31144
31176
31205
31109
31230
31100
31237
31077
31189
31067
31156
31058
31188
31063
31196
31092
31173
31231
31194
31300
31159
31271
31332
31299
31353
31256
31366
31216
31312
31222
31307
31343
31273
31367
31239
31357
31271
31426
31311
31448
31323
31419
31399
31468
31519
31479
31420
31559
31440
31548
31413
31516
31548
31522
31615
31572
31630
31605
31685
31636
31706
31631
31714
31651
31706
31637
31647
31757
31650
31751
31650
31793
31692
31813
31741
31839
31910
31847
31935
31880
31962
31900
31968
31902
31976
31927
31988
31966
32031
31903
32014
31890
32004
32071
31961
32039
31956
32036
32039
32156
32170
32156
32162
32191
32209
32231
32228
32219
32090
32135
32175
32204
32213
32190
32226
32196
32263
32108
32164
32253
32202
32295
32205
32252
32314
32326
32359
32229
32303
32324
32363
32415
32414
32414
32359
32287
32333
32393
32385
32421
32461
32455
32461
32510
32528
32577
32485
32555
32428
32543
32423
32486
32383
32451
32343
32396
32276
32372
32388
32330
32372
32239
32312
32156
32151
32058
32124
32135
32021
31989
32049
31921
31988
31838
31862
31919
31831
31935
31791
31846
31918
31852
31911
31751
31823
31926
31869
31895
31748
31828
31730
31843
31837
31846
31807
31900
31854
31903
31839
31991
31870
31985
31908
32085
31963
32067
32067
32201
32067
32153
32063
32142
32031
32133
32000
32132
32071
32194
32103
32263
32167
32271
32223
32326
32294
32252
32311
32250
32202
32231
32158
32294
32132
32199
32107
32241
32102
32196
32103
32194
32111
32039
32114
31960
32071
32023
32068
32004
32077
32032
32042
31992
31940
32097
31909
31968
31879
32007
32101
32060
32142
32129
32165
32077
32143
32271
32247
32261
32126
32244
32231
32217
32119
32032
32062
32109
32111
32127
32172
32184
32174
32150
32026
32054
32094
32104
32108
32143
32152
32135
32140
32055
32015
32078
32001
32071
32060
32048
32050
31935
31991
32134
31991
32111
32015
32139
32007
32113
32002
32108
32004
32120
31978
32069
32114
32083
32188
32156
32250
32165
32247
32228
32287
32356
32333
32380
32296
32403
32294
32380
32258
32349
32259
32310
32343
32215
32327
32244
32300
32255
32390
32356
32343
32403
32349
32386
32310
32357
32247
32381
32337
32369
32458
32359
32461
32347
32414
32476
32468
32525
32408
32537
32476
32581
32559
32591
32582
32628
32651
32583
32647
32585
32655
32564
32676
32585
32708
32593
32741
32803
32712
32832
32729
32825
32708
32820
32724
32837
32801
32839
32806
32855
32927
32855
32807
32957
32922
32902
32951
32964
32957
32941
32871
32995
32841
32938
32833
32933
32853
32855
32754
32885
32892
32835
32895
32857
32935
32846
32793
32957
32933
32841
32831
32879
32900
32875
32916
32933
32861
32924
32980
32938
32989
32931
33023
32957
33092
33012
33181
33119
33233
33199
33275
33263
33359
33324
33285
33473
33383
33511
33431
33526
33397
33460
33433
33543
33475
33565
33526
33556
33471
33516
33393
33503
33495
33509
33570
33511
33573
33492
33588
33451
33582
33543
33511
33588
33513
33537
33463
33519
33398
33447
33340
33415
33287
33316
33218
33329
33173
33287
33188
33285
33188
33295
33198
33263
33110
33260
33199
33303
33197
33255
33215
33236
33223
33281
33218
33283
33147
33252
33142
33269
33191
33285
33202
33316
33211
33324
33233
33335
33199
33255
33191
33253
33280
33247
33294
33193
33287
33159
33257
33165
33261
33223
33255
33287
33135
33197
33012
33013
32849
32775
32689
32422
32408
32156
32127
32073
31927
31941
31732
31814
31676
31866
31902
32249
32623
33031
33700
34261
34981
35711
36434
37183
38112
38874
39784
40551
41221
41781
42270
42695
43005
43241
43426
43494
43524
43559
43616
43614
43463
43108
42604
42052
41479
40879
40247
39590
38951
38234
37479
36615
35972
35321
34869
34491
34014
33799
33413
33084
32991
32647
32557
32283
32237
31995
31952
31813
31903
31703
31791
31599
31705
31558
31658
31572
31616
31540
31477
31559
31551
31533
31491
31571
31599
31540
31607
31557
31595
31511
31538
31522
31558
31485
31396
31552
31436
31493
31522
31513
31550
31475
31600
31516
31643
31668
31604
31655
31609
31558
31688
31565
31713
31650
31770
31735
31665
31793
31684
31835
31732
31852
31737
31911
31813
31908
31841
31932
31875
31922
31917
31775
31955
31812
31964
31911
31995
31980
32058
32002
32075
32070
32110
32062
32129
32031
32103
31972
32103
31963
32081
31942
32030
32034
32108
32148
32091
32156
32116
32187
32177
32206
32066
32181
32069
32193
32153
32217
32164
32148
32229
32103
32259
32135
32263
32223
32343
32239
32378
32270
32404
32365
32415
32353
32382
32374
32405
32359
32412
32391
32407
32361
32405
32333
32403
32290
32396
32297
32449
32351
32484
32358
32511
32413
32510
32581
32463
32572
32557
32550
32587
32531
32565
32558
32581
32479
32621
32503
32679
32560
32703
32615
32706
32728
32662
32719
32742
32751
32726
32724
32662
32834
32681
32753
32833
32855
32938
32884
32959
32874
32975
32839
32964
32819
32983
32849
32938
32815
32965
32825
32954
32854
32973
32859
32910
33006
32911
33078
33004
33092
32980
33159
33031
33190
33084
33178
33076
33154
33063
33130
33005
33100
32996
33175
33028
33189
33091
33263
33157
33212
33191
33221
33231
33146
33156
33159
33114
33063
33028
33047
33074
33052
33048
33022
33062
33021
33066
32991
33047
32913
32975
32885
32934
32953
32894
32908
32837
32838
32727
32788
32675
32756
32622
32700
32556
32652
32519
32607
32511
32631
32543
32612
32586
32676
32527
32672
32511
32623
32490
32593
32502
32580
32459
32572
32412
32543
32398
32460
32503
32497
32535
32476
32538
32395
32527
32371
32473
32355
32550
32399
32470
32495
32444
32529
32423
32536
32449
32596
32514
32662
32565
32719
32628
32652
32692
32583
32693
32559
32657
32615
32602
32647
32570
32595
32565
32599
32564
32618
32479
32620
32518
32617
32565
32665
32720
32705
32711
32710
32724
32719
32685
32612
32637
32585
32596
32653
32700
32731
32740
32791
32821
32830
32749
32679
32702
32715
32759
32705
32795
32750
32807
32736
32815
32797
32801
32802
32825
32775
32726
32784
32833
32855
32988
33073
33133
33106
33106
33088
33103
33112
33119
33133
33121
33096
33071
33074
33089
33115
33124
33135
33145
33155
33227
33235
33243
33351
33349
33377
33383
33404
33390
33324
33321
33337
33332
33372
33461
33460
33559
33551
33551
33461
33445
33594
33446
33612
33503
33543
33577
33448
33562
33491
33510
33532
33463
33556
33446
33583
33473
33610
33485
33622
33495
33666
33543
33602
33489
33601
33465
33566
33422
33558
33455
33485
33502
33570
33632
33594
33604
33489
33639
33519
33633
33510
33644
33520
33559
33484
33532
33543
33487
33519
33455
33551
33497
33594
33503
33586
33496
33636
33501
33602
33624
33530
33607
33468
33557
33584
33466
33540
33561
33447
33518
33351
33433
33324
33442
33447
33420
33481
33477
33494
33424
33447
33298
33374
33214
33303
33159
33266
33287
33185
33281
33148
33301
33167
33319
33204
33372
33232
33355
33254
33375
33381
33287
33388
33388
33429
33446
33318
33437
33339
33487
33384
33541
33425
33585
33492
33635
33500
33660
33568
33565
33588
33445
33598
33446
33415
33415
33212
33319
33140
33239
33300
33201
33310
33171
33262
33242
33395
33453
33384
33487
33359
33533
33391
33484
33511
33444
33423
33327
33370
33292
33236
33270
33151
33162
33191
33236
33103
33082
33100
33089
33101
33165
33230
33199
33279
33246
33247
33208
33099
33087
33103
33101
33142
33159
33194
33188
33236
33243
33258
33271
33245
33307
33299
33300
33287
33283
33263
33166
33087
33079
33087
33120
33223
33215
33273
33308
33331
33329
33348
33335
33313
33318
33332
33311
33279
33205
33110
32934
32847
32718
32612
32533
32448
32337
32194
32172
32100
32012
31942
31855
31781
31660
31776
31943
32225
32604
33141
33713
34405
35073
35803
36522
37284
38244
39295
40059
40967
41479
42055
42624
42828
43313
43389
43596
43552
43678
43542
43633
43259
43095
42380
42055
41244
40839
40068
39495
38804
38120
37394
36705
36091
35580
35068
34804
34381
34277
33876
33719
33356
33338
33063
32929
32838
32615
32614
32436
32516
32329
32375
32390
32215
32333
32298
32244
32204
32182
32175
32052
32057
32026
32062
32199
32204
32284
32308
32319
32335
32340
32252
32223
32261
32324
32439
32435
32405
32223
32219
32319
32298
32317
32304
32308
32232
32414
32241
32351
32281
32289
32407
32431
32327
32454
32309
32466
32330
32513
32381
32554
32494
32455
32544
32428
32622
32519
32677
32718
32749
32807
32764
32822
32772
32807
32783
32820
32810
32868
32805
32869
32762
32890
32797
32932
32794
32989
32819
32935
32902
32951
32966
32879
32814
32934
32917
32866
32908
32820
32858
32708
32809
32696
32838
32734
32863
32727
32863
32828
32909
32910
32922
32935
32886
32889
32861
32846
32849
32713
32725
32714
32749
32807
32807
32737
32872
32895
32833
32939
32778
32911
32769
32880
32759
32933
32837
32861
32924
32841
32849
32748
32775
32805
32834
32927
32884
32862
32744
32807
32905
32877
32957
32981
32973
32832
32968
32807
32903
32764
32918
32800
32932
32806
32953
32810
32942
32831
32972
32955
32943
32999
32892
32991
32892
32981
32835
32999
32878
33005
32850
32973
32793
32911
32758
32904
32878
32820
32902
32756
32887
32767
32891
32759
32897
32751
32901
32775
32887
32750
32908
32781
32940
32817
32955
32942
33007
33045
33028
33068
32998
33087
32967
33060
33112
33014
33080
32951
33076
33066
33055
33088
32973
33061
32950
33076
32954
33068
32900
33052
32863
32972
32836
32885
32789
32799
32660
32761
32587
32671
32599
32623
32602
32505
32488
32470
32462
32400
32296
32421
32471
32388
32433
32318
32425
32285
32406
32255
32362
32229
32300
32128
32247
32084
32223
32045
32222
32036
32182
32058
32171
32207
32166
32199
32119
32205
32128
32220
32095
32175
32075
32173
32047
32188
32059
32206
32056
32241
32102
32253
32100
32241
32092
32209
32055
32182
32022
32087
32103
32045
32063
31933
32037
31907
32031
31972
32007
32059
31962
32050
31892
31991
31883
31875
31865
31870
31836
31892
31892
31897
31916
31907
31897
31759
31751
31780
31818
31887
31879
31941
31906
31888
31860
31748
31741
31771
31864
31828
31879
31925
31933
31943
31818
31798
31863
31927
31926
32049
32053
32052
32045
32087
31942
31975
31970
31969
32002
32087
32151
32039
32175
32020
32183
31988
32068
32127
32015
32186
32068
32108
32154
32108
32170
32045
32139
32121
32117
31985
31959
31990
31970
31954
31916
31926
31912
31916
31902
31869
31940
31924
32001
31977
31992
32005
32018
32015
31998
31860
31863
31855
31881
31868
31894
31930
31947
31950
31847
31937
32007
31981
32045
31942
32031
31923
32044
31917
31973
32033
31991
32079
31951
32134
32150
32162
32181
32039
32044
32078
32133
32157
32126
32184
32189
32181
32159
32137
32008
32002
31991
31995
32020
32068
32119
32157
32175
32058
32044
32045
32103
32182
32195
32236
32298
32390
32422
32413
32263
32277
32301
32385
32367
32326
32423
32383
32375
32287
32231
32239
32284
32291
32287
32254
32239
32232
32210
32196
32187
32170
32159
32144
32181
32148
32147
32132
32155
32191
32263
32289
32316
32370
32360
32383
32347
32423
32436
32446
32442
32340
32359
32391
32420
32476
32487
32607
32613
32636
32557
32596
32646
32687
32763
32757
32844
32884
32903
32886
32871
32863
32871
32730
32743
32775
32718
32719
32571
32580
32598
32647
32700
32711
32806
32843
32903
32901
32894
32772
32743
32772
32753
32774
32759
32748
32748
32798
32714
32803
32775
32804
32645
32688
32759
32789
32846
32891
32924
32903
32863
32766
32794
32877
32843
32927
32964
32953
32973
32964
32901
32951
33009
32988
33045
33070
33119
33114
33100
33081
32985
32999
33090
33028
33039
32936
32996
32915
32996
32903
32954
32873
32948
32879
32903
32831
32895
32815
32871
32770
32830
32698
32740
32554
32582
32316
32312
32113
31986
31926
31790
31725
31454
31527
31462
31255
31224
31159
31116
31199
31315
31530
31799
32278
32807
33407
33995
34716
35509
36359
37111
37972
38876
39773
40549
41184
41645
42000
42333
42583
42788
42895
42985
43030
43039
43008
42788
42368
41858
41343
40804
40131
39399
38727
38079
37415
36695
35871
35220
34725
34252
33815
33463
33215
32871
32631
32308
32152
31834
31751
31483
31479
31277
31349
31153
31237
31044
31057
30942
31040
30935
30906
30932
30826
30850
30725
30798
30670
30762
30595
30743
30602
30735
30743
30628
30717
30585
30719
30540
30596
30668
30614
30661
30502
30645
30454
30565
30508
30447
30434
30471
30527
30588
30599
30676
30708
30758
30658
30701
30741
30785
30822
30855
30894
30807
30758
30809
30838
30933
30959
30964
30895
30964
31022
31060
31096
31132
31143
31122
31031
31055
31151
31166
31204
31214
31217
31149
31092
31125
31204
31163
31183
31135
31204
31164
31175
31163
30992
31061
31022
31110
31111
31129
31140
31108
31095
31074
30992
30951
30966
30974
30998
31023
31080
31170
31213
31206
31305
31309
31329
31324
31348
31351
31367
31356
31338
31214
31236
31311
31367
31385
31375
31470
31498
31441
31415
31463
31526
31504
31599
31589
31523
31527
31532
31503
31468
31627
31623
31492
31495
31579
31637
31639
31717
31727
31790
31823
31874
31878
31768
31807
31818
31821
31810
31849
31911
31876
31902
31944
31973
31997
32023
32107
32134
32166
32186
32189
32135
32191
32119
32135
32212
32221
32250
32277
32263
32252
32239
32204
32239
32307
32316
32336
32391
32458
32498
32535
32532
32552
32486
32432
32503
32562
32527
32564
32526
32551
32594
32602
32623
32528
32577
32557
32603
32665
32674
32702
32655
32687
32596
32630
32660
32670
32667
32687
32677
32727
32765
32623
32715
32735
32727
32791
32748
32679
32719
32620
32708
32597
32679
32566
32617
32583
32597
32599
32567
32447
32475
32543
32551
32558
32494
32571
32423
32503
32583
32473
32526
32505
32526
32511
32379
32431
32375
32413
32423
32397
32399
32402
32313
32308
32347
32450
32410
32456
32469
32439
32415
32330
32263
32288
32308
32219
32274
32302
32342
32346
32300
32363
32274
32330
32391
32319
32390
32391
32411
32433
32390
32396
32367
32393
32428
32422
32459
32426
32347
32327
32357
32412
32463
32426
32487
32556
32571
32588
32606
32622
32626
32583
32461
32545
32519
32525
32519
32569
32599
32575
32599
32609
32599
32519
32519
32430
32500
32518
32584
32511
32500
32451
32477
32470
32478
32524
32517
32503
32452
32517
32465
32487
32487
32566
32556
32617
32708
32724
32739
32712
32683
32636
32695
32650
32647
32710
32692
32683
32543
32655
32596
32645
32634
32552
32639
32581
32590
32644
32622
32553
32606
32541
32564
32529
32513
32582
32516
32494
32372
32418
32383
32397
32409
32410
32487
32495
32512
32415
32490
32524
32514
32466
32526
32545
32549
32540
32506
32518
32496
32442
32416
32439
32460
32505
32449
32509
32507
32479
32415
32530
32537
32532
32446
32495
32454
32479
32480
32490
32548
32489
32481
32516
32512
32535
32511
32565
32559
32608
32620
32614
32642
32658
32695
32708
32700
32636
32715
32725
32743
32698
32753
32733
32741
32784
32775
32855
32900
32909
32849
32887
32860
32833
32773
32828
32840
32835
32847
32737
32830
32839
32828
32838
32740
32829
32843
32799
32817
32833
32837
32892
32844
32823
32848
32862
32844
32911
32931
32903
32892
32855
32791
32841
32860
32837
32838
32804
32841
32887
32871
32857
32912
32920
32942
32908
32926
32954
33040
33078
33127
33158
33199
33244
33168
33220
33259
33246
33261
33183
33194
33148
33176
33159
33231
33200
33180
33178
33147
33183
33180
33239
33255
33215
33231
33260
33287
33250
33255
33329
33340
33357
33318
33348
33349
33380
33370
33327
33316
33246
33259
33276
33223
33174
33149
33087
33050
33092
33092
32987
32974
32967
32980
32912
32935
32906
32854
32836
32793
32775
32754
32758
32732
32819
32799
32788
32768
32749
32756
32786
32790
32696
32699
32689
32719
32694
32729
32741
32789
32759
32757
32764
32765
32731
32754
32753
32742
32716
32793
32830
32809
32837
32813
32855
32845
32759
32763
32713
32731
32678
32607
32496
32403
32321
32167
32031
31933
31815
31671
31500
31484
31359
31349
31239
31350
31378
31596
31791
32260
32820
33405
34087
34785
35510
36327
37043
37999
38791
39653
40430
41141
41668
42167
42615
42865
43222
43383
43365
43415
43413
43467
43468
43322
42964
42494
41981
41426
40796
40135
39461
38788
38100
37278
36463
35719
35141
34668
34244
33844
33449
33141
32799
32471
32191
31960
31783
31633
31532
31462
31410
31270
31203
31140
31164
31107
31092
31006
30989
30934
30913
30953
30919
30987
30996
31060
31069
31093
31107
31135
31135
31092
31014
31101
31107
31132
31084
31108
31152
31159
31105
31073
31146
31093
31096
31070
31072
31133
31116
31078
31129
31092
31150
31154
31141
31213
31157
31266
31263
31269
31268
31291
31305
31322
31335
31417
31433
31487
31482
31532
31564
31591
31579
31638
31661
31639
31604
31628
31631
31620
31642
31657
31672
31650
31615
31648
31645
31640
31660
31686
31703
31703
31676
31734
31751
31767
31775
31787
31823
31811
31838
31820
31868
31823
31798
31807
31823
31812
31829
31857
31917
31948
31899
31879
31905
31918
31943
31878
31870
31932
31980
31971
32038
32074
32087
32117
32100
32154
32156
32199
32246
32232
32290
32332
32342
32382
32412
32448
32399
32391
32455
32478
32484
32476
32511
32565
32540
32587
32660
32691
32737
32733
32729
32773
32842
32818
32754
32829
32818
32887
32788
32850
32872
32866
32871
32893
32852
32943
32945
33021
32999
32966
33058
32978
33044
32987
33104
33044
33045
33132
33094
33111
33156
33095
33199
33127
33086
33196
33213
33186
33246
33223
33275
33300
33308
33346
33273
33436
33436
33367
33492
33413
33328
33402
33359
33503
33404
33494
33477
33485
33495
33427
33532
33425
33503
33394
33487
33391
33397
33476
33413
33505
33452
33455
33429
33404
33447
33365
33428
33346
33458
33374
33463
33425
33330
33404
33306
33391
33316
33287
33263
33119
33164
33058
33098
33140
33194
33047
33094
33089
33092
33156
33045
33099
33055
33094
33135
32997
33064
32943
33029
32911
32972
32899
32953
32838
32903
32853
32938
32842
32921
32839
32880
32839
32825
32796
32877
32749
32823
32756
32830
32756
32742
32741
32756
32728
32673
32743
32641
32751
32715
32791
32712
32700
32687
32604
32623
32548
32571
32525
32565
32510
32559
32494
32532
32481
32444
32467
32431
32451
32415
32480
32480
32506
32476
32471
32400
32463
32423
32450
32439
32439
32378
32407
32362
32404
32366
32385
32364
32452
32399
32489
32495
32444
32473
32420
32485
32434
32543
32468
32546
32465
32483
32419
32379
32404
32420
32436
32452
32468
32500
32519
32460
32494
32446
32445
32379
32420
32399
32479
32418
32499
32447
32500
32436
32479
32430
32527
32449
32515
32472
32588
32486
32543
32447
32548
32423
32492
32431
32519
32425
32534
32460
32506
32425
32519
32476
32548
32484
32551
32474
32591
32499
32594
32516
32619
32511
32607
32543
32652
32565
32622
32559
32655
32612
32710
32607
32711
32568
32642
32564
32650
32580
32621
32548
32607
32563
32564
32574
32517
32579
32501
32559
32581
32563
32611
32559
32597
32540
32607
32599
32628
32623
32584
32511
32471
32495
32505
32492
32477
32508
32404
32308
32298
32328
32302
32375
32276
32333
32289
32364
32281
32359
32319
32348
32288
32341
32318
32365
32343
32303
32310
32257
32253
32204
32304
32208
32311
32276
32358
32311
32383
32320
32423
32391
32468
32386
32427
32347
32393
32306
32353
32306
32358
32358
32346
32327
32309
32361
32222
32255
32198
32284
32215
32284
32257
32224
32209
32227
32177
32228
32181
32250
32186
32250
32244
32309
32287
32380
32428
32421
32498
32455
32528
32463
32489
32473
32499
32437
32447
32487
32386
32458
32391
32500
32468
32540
32559
32547
32473
32502
32455
32447
32431
32442
32433
32414
32487
32404
32404
32486
32408
32511
32495
32500
32532
32506
32612
32503
32602
32516
32574
32561
32500
32500
32422
32471
32484
32495
32463
32452
32453
32398
32463
32327
32380
32320
32399
32346
32394
32387
32439
32388
32473
32479
32482
32429
32452
32413
32442
32372
32458
32436
32551
32502
32559
32487
32535
32455
32511
32455
32550
32468
32587
32470
32527
32408
32471
32410
32458
32373
32398
32303
32388
32298
32364
32383
32322
32359
32140
32135
32052
31859
31749
31548
31419
31258
31151
31008
30902
30784
30716
30620
30592
30606
30766
30930
31274
31652
32311
32840
33693
34319
35160
35898
36756
37608
38438
39303
39965
40652
41133
41671
42055
42256
42665
42671
42919
42764
42949
42822
42956
42570
42187
41698
40942
40455
39836
39109
38469
37725
36956
36171
35460
34789
34215
33733
33284
32902
32559
32218
31908
31635
31433
31174
31020
30859
30695
30613
30516
30437
30455
30404
30379
30372
30342
30284
30289
30301
30357
30355
30303
30263
30222
30265
30252
30294
30241
30234
30195
30276
30228
30271
30294
30299
30283
30244
30346
30316
30335
30372
30372
30407
30406
30471
30482
30545
30580
30591
30607
30597
30629
30647
30642
30654
30593
30660
30703
30740
30773
30811
30815
30851
30852
30884
30911
30833
30853
30855
30837
30810
30799
30846
30837
30828
30847
30954
30953
31015
31021
31028
31057
31065
31125
31143
31109
31087
31108
31140
31156
31087
31079
31130
31175
31196
31207
31218
31212
31239
31289
31296
31262
31285
31338
31335
31334
31321
31369
31405
31470
31444
31447
31431
31426
31532
31532
31639
31591
31624
31731
31727
31695
31735
31748
31780
31823
31816
31876
31809
31903
31863
31927
31894
31937
31961
31957
31996
31941
32039
31990
32089
32029
32007
32024
31987
31983
31967
31990
31939
31975
31900
31951
31879
31903
31860
31938
31966
31940
31997
32048
32097
32133
32107
32116
32047
32079
32061
32078
32063
32148
32102
32099
32055
32066
32103
32149
32228
32250
32309
32391
32364
32350
32357
32379
32396
32431
32429
32459
32485
32417
32368
32357
32381
32458
32455
32456
32532
32492
32469
32527
32612
32666
32718
32751
32695
32651
32672
32687
32733
32775
32760
32775
32841
32887
32896
32838
32813
32887
32941
33029
33049
32981
32946
33041
33087
33128
33074
33014
33066
33097
33089
33089
33095
33151
33130
33076
33047
33022
33022
33076
33127
33127
33138
33132
33172
33119
33009
32993
33071
33091
33100
33106
33097
33064
33020
33055
33094
33126
33207
33219
33101
33271
33137
33235
33131
33268
33116
33236
33116
33239
33079
33181
33053
33167
33058
33158
33074
33220
33119
33227
33159
33332
33204
33317
33167
33286
33145
33257
33192
33303
33173
33302
33189
33340
33271
33358
33311
33357
33343
33372
33371
33303
33391
33391
33300
33423
33264
33395
33241
33342
33260
33351
33260
33407
33271
33431
33305
33451
33366
33403
33416
33422
33493
33569
33492
33578
33461
33567
33481
33567
33514
33592
33615
33607
33671
33606
33703
33596
33681
33634
33635
33568
33568
33494
33561
33542
33555
33452
33576
33453
33604
33435
33583
33447
33571
33496
33509
33512
33535
33517
33636
33540
33559
33588
33687
33526
33642
33517
33593
33601
33589
33600
33581
33595
33572
33655
33697
33731
33812
33813
33733
33702
33675
33729
33708
33815
33692
33834
33725
33799
33708
33757
33774
33633
33725
33658
33748
33783
33701
33799
33694
33852
33701
33820
33703
33789
33818
33759
33860
33733
33783
33829
33733
33785
33719
33716
33707
33671
33798
33704
33838
33736
33852
33708
33833
33706
33727
33729
33638
33636
33543
33613
33491
33641
33511
33604
33523
33654
33583
33663
33583
33671
33684
33611
33715
33565
33722
33588
33671
33662
33604
33724
33542
33637
33617
33651
33745
33674
33749
33649
33764
33650
33715
33631
33713
33614
33697
33583
33670
33564
33650
33526
33633
33543
33655
33531
33659
33500
33523
33513
33530
33543
33572
33594
33615
33629
33579
33467
33377
33377
33391
33392
33395
33434
33415
33381
33352
33310
33349
33387
33434
33447
33413
33271
33275
33308
33316
33389
33351
33287
33216
33233
33263
33295
33340
33389
33503
33495
33440
33435
33423
33468
33514
33521
33517
33527
33527
33512
33471
33431
33415
33461
33479
33487
33495
33486
33489
33471
33473
33455
33450
33406
33340
33351
33391
33388
33412
33455
33440
33399
33367
33316
33285
33295
33327
33323
33318
33300
33327
33269
33151
33086
33079
33112
33103
33121
33089
32971
32964
33014
33004
32996
32879
33031
32887
32974
32879
32953
32944
32962
32991
32941
33041
32900
33004
32893
33002
32864
32957
32934
32953
33015
32915
32996
32914
32959
33030
32864
32952
32870
32951
33019
32863
32967
32967
32911
32886
32887
32878
32868
32827
32853
32869
32858
32845
32805
32724
32642
32519
32414
32284
32191
32026
31957
31855
31729
31595
31446
31378
31340
31375
31429
31625
31899
32235
32622
33205
33924
34703
35455
36204
37031
37909
38787
39628
40327
40958
41583
42071
42539
42887
43059
43148
43252
43270
43343
43460
43500
43271
42862
42337
41774
41191
40466
39839
39189
38540
37831
37052
36311
35644
34963
34469
34055
33716
33375
32934
32657
32418
32213
31964
31782
31580
31381
31339
31200
31177
31095
31061
30949
30941
30871
30852
30827
30838
30801
30842
30834
30824
30831
30806
30796
30747
30743
30700
30711
30687
30708
30683
30724
30692
30708
30708
30727
30746
30823
30837
30886
30921
30847
30863
30839
30918
30875
30886
30895
30871
30887
30863
30879
30854
30908
30903
30951
30881
30910
30887
30914
30891
30938
30946
30983
30940
30940
30923
30982
30926
30936
30932
31012
31022
30997
31015
31039
31092
31095
31140
31143
31255
31202
31226
31239
31245
31204
31191
31225
31239
31226
31207
31204
31170
31182
31180
31133
31127
31174
31191
31207
31209
31173
31239
31239
31176
31256
31215
31254
31276
31277
31228
31229
31295
31295
31317
31334
31356
31457
31367
31438
31446
31557
31519
31607
31573
31607
31607
31575
31615
31580
31641
31671
31657
31683
31660
31732
31684
31740
31732
31808
31776
31861
31876
31842
31887
31873
31948
31924
32004
31993
32006
32013
32013
32020
31969
32044
31991
32054
31974
32039
31977
32063
32010
32079
32075
31996
32056
31998
32119
32039
32085
32045
31983
32020
31958
32087
32038
32028
32059
32030
32143
32135
32086
32205
32177
32271
32173
32263
32207
32167
32173
32128
32177
32129
32214
32212
32352
32295
32388
32394
32507
32422
32508
32508
32511
32559
32456
32519
32470
32479
32477
32518
32524
32583
32610
32570
32500
32564
32614
32628
32686
32620
32671
32527
32617
32502
32546
32463
32414
32414
32321
32354
32263
32372
32321
32389
32325
32343
32315
32244
32263
32230
32244
32272
32164
32239
32102
32134
32043
32094
31982
32057
31983
32054
31946
31970
31933
31901
31951
31930
31975
31896
31951
31890
31919
31887
31949
31894
31974
31903
31943
31892
31932
31843
31883
31879
31955
31943
31981
32062
32046
32092
32082
32062
32130
32135
32103
32134
32062
32175
32110
32135
32113
32133
32135
32132
32148
32096
32130
32107
32260
32225
32174
32213
32167
32239
32207
32251
32220
32248
32263
32282
32295
32273
32182
32237
32151
32229
32164
32283
32175
32261
32188
32287
32171
32276
32215
32223
32188
32144
32183
32119
32148
32227
32180
32114
32122
32109
32167
32209
32210
32213
32263
32173
32132
32196
32221
32143
32198
32159
32242
32208
32231
32263
32170
32254
32246
32277
32320
32208
32276
32228
32301
32194
32241
32196
32277
32274
32300
32332
32252
32316
32228
32298
32293
32302
32409
32290
32375
32300
32263
32263
32330
32349
32403
32404
32391
32373
32383
32369
32359
32329
32374
32326
32284
32254
32225
32211
32197
32223
32245
32263
32252
32263
32277
32324
32314
32304
32335
32338
32280
32277
32276
32307
32284
32343
32391
32397
32419
32443
32335
32281
32303
32346
32345
32342
32414
32396
32326
32390
32446
32319
32402
32371
32404
32366
32377
32285
32357
32319
32381
32374
32358
32403
32390
32412
32359
32336
32335
32257
32230
32241
32300
32362
32356
32359
32422
32375
32316
32352
32441
32460
32487
32567
32562
32494
32473
32482
32543
32595
32612
32617
32663
32669
32548
32535
32582
32606
32631
32691
32659
32615
32571
32546
32620
32596
32623
32575
32516
32564
32439
32533
32455
32541
32405
32485
32426
32576
32485
32588
32641
32668
32775
32751
32834
32731
32855
32717
32815
32742
32805
32878
32735
32829
32849
32860
32967
32823
32904
32939
32941
33012
32948
32871
32812
32818
32836
32867
32884
32886
32975
32982
32921
32918
32957
33076
33089
33084
33187
33045
33132
33030
33061
33013
33024
32997
32989
32950
32926
32919
32903
32878
32884
32866
32859
32788
32807
32772
32751
32837
32772
32911
32804
32887
32831
32903
32957
32933
32972
32958
32932
32879
32961
32810
32955
32831
32943
32796
32927
32796
32927
32806
32903
32820
32932
32775
32871
32794
32937
32821
32869
32867
32839
32937
32775
32863
32767
32870
32775
32862
32817
32819
32781
32656
32639
32444
32404
32161
32100
31982
31895
31844
31631
31564
31503
31449
31407
31329
31343
31444
31613
31815
32077
32463
32948
33545
34159
34863
35632
36388
37207
38049
38866
39692
40374
40871
41283
41583
41889
42101
42263
42423
42550
42604
42527
42271
41988
41569
41046
40476
39876
39252
38636
38013
37340
36649
36004
35431
34993
34683
34388
34089
33783
33508
33253
33067
32883
32761
32588
32445
32318
32252
32124
32015
31922
31983
31912
31907
31879
31914
31900
31880
31879
31822
31844
31850
31797
31783
31650
31674
31615
31644
31655
31593
31630
31589
31615
31607
31617
31632
31574
31616
31596
31645
31655
31637
31700
31599
31636
31618
31661
31619
31667
31634
31665
31636
31678
31623
31703
31653
31765
31784
31837
31837
31857
31835
31819
31889
31946
31903
31831
31813
31800
31852
31871
31878
31906
31989
32033
32015
32028
32063
32055
32032
32063
32069
32137
32109
32135
32164
32172
32164
32127
32127
32103
32140
32194
32290
32346
32404
32423
32455
32468
32500
32499
32506
32444
32414
32420
32419
32465
32483
32471
32468
32557
32508
32473
32451
32497
32539
32574
32623
32586
32585
32599
32718
32619
32739
32703
32716
32689
32741
32622
32715
32599
32676
32609
32737
32615
32686
32631
32709
32713
32724
32725
32748
32775
32724
32807
32693
32832
32714
32809
32740
32791
32725
32735
32723
32780
32843
32849
32826
32852
32849
32837
32785
32708
32693
32714
32764
32815
32839
32820
32847
32831
32869
32872
32821
32775
32863
32935
32959
32985
33004
33109
32999
32972
33139
33082
33193
33065
33181
33162
33227
33193
33262
33327
33299
33356
33267
33371
33311
33396
33343
33429
33340
33463
33327
33460
33354
33477
33429
33461
33493
33437
33521
33389
33500
33375
33498
33383
33445
33391
33391
33374
33300
33335
33213
33287
33170
33269
33157
33259
33134
33231
33108
33175
33077
33120
33038
33066
33012
32990
32934
32932
32919
32871
32875
32903
32807
32791
32772
32734
32706
32743
32647
32692
32610
32657
32557
32628
32621
32662
32695
32634
32631
32593
32637
32606
32619
32551
32603
32507
32565
32500
32598
32487
32587
32566
32697
32629
32711
32679
32639
32696
32670
32727
32671
32767
32772
32823
32796
32836
32766
32862
32787
32922
32832
32938
32847
32950
32900
32883
32906
32843
32927
32843
32893
32820
32973
32852
32937
32892
32844
32859
32791
32846
32781
32884
32799
32871
32786
32895
32832
32900
32775
32815
32775
32829
32749
32813
32799
32837
32819
32828
32845
32764
32875
32775
32879
32807
32909
32836
32830
32807
32883
32764
32838
32763
32846
32736
32785
32692
32750
32703
32715
32647
32727
32735
32722
32711
32693
32673
32631
32646
32668
32626
32666
32610
32519
32564
32564
32547
32519
32542
32540
32588
32615
32681
32622
32599
32606
32622
32661
32626
32621
32622
32647
32679
32678
32636
32647
32610
32607
32569
32596
32570
32571
32526
32519
32543
32551
32551
32597
32609
32583
32574
32475
32441
32447
32444
32487
32500
32454
32439
32519
32422
32348
32410
32416
32391
32391
32463
32433
32411
32429
32459
32466
32514
32433
32426
32481
32462
32486
32519
32463
32461
32541
32519
32594
32495
32551
32518
32588
32562
32555
32524
32543
32466
32468
32406
32447
32431
32399
32400
32414
32375
32392
32385
32299
32315
32313
32333
32341
32373
32332
32391
32377
32391
32319
32337
32294
32316
32242
32283
32219
32287
32298
32239
32263
32209
32249
32193
32221
32306
32303
32276
32214
32204
32239
32222
32252
32282
32316
32327
32326
32316
32332
32356
32437
32455
32501
32463
32459
32535
32579
32602
32655
32588
32582
32567
32565
32586
32644
32640
32660
32678
32707
32697
32712
32709
32766
32783
32823
32834
32861
32775
32689
32701
32685
32691
32700
32766
32751
32788
32774
32814
32716
32668
32652
32660
32694
32684
32709
32703
32756
32667
32601
32646
32553
32600
32534
32568
32458
32524
32444
32513
32439
32486
32415
32471
32387
32444
32382
32442
32359
32428
32386
32431
32407
32415
32391
32438
32404
32501
32565
32498
32615
32577
32540
32547
32626
32679
32692
32742
32774
32747
32695
32684
32742
32747
32722
32759
32790
32775
32726
32673
32667
32668
32695
32740
32708
32676
32615
32572
32427
32292
32115
31952
31762
31644
31557
31406
31324
31257
31135
31100
31132
31253
31406
31720
32134
32577
33176
33868
34684
35333
36106
36861
37644
38487
39301
40039
40786
41236
41863
42244
42567
42983
43117
43383
43381
43524
43490
43598
43415
43178
42540
42095
41449
40943
40220
39671
38930
38244
37476
36620
35927
35150
34645
34129
33740
33398
32996
32695
32348
32152
31869
31704
31530
31394
31259
31173
31127
31111
31068
31022
30951
30900
30863
30829
30851
30829
30802
30723
30711
30686
30655
30599
30594
30565
30526
30499
30552
30557
30541
30482
30534
30559
30580
30593
30675
30690
30691
30638
30703
30693
30696
30665
30727
30727
30703
30703
30753
30784
30814
30886
30884
30924
30938
30892
30930
30932
30983
30958
30932
30912
30949
30974
30993
30983
30960
30959
31014
30999
31022
31055
31073
31068
31112
31100
31125
31107
31141
31076
31092
31091
31124
31141
31108
31065
31079
31078
31124
31145
31105
31059
31095
31140
31119
31095
31104
31183
31172
31143
31134
31157
31156
31204
31169
31197
31191
31227
31196
31236
31255
31327
31335
31335
31354
31415
31388
31443
31451
31460
31455
31485
31468
31431
31401
31353
31382
31348
31345
31345
31418
31425
31377
31404
31377
31386
31395
31409
31414
31339
31358
31353
31343
31337
31308
31349
31405
31356
31286
31291
31290
31330
31316
31322
31307
31339
31325
31357
31349
31396
31423
31469
31449
31463
31460
31476
31500
31525
31453
31491
31484
31541
31567
31679
31629
31690
31623
31628
31668
31727
31767
31751
31796
31839
31800
31772
31770
31802
31822
31823
31834
31844
31874
31983
32020
32078
32043
32070
32051
32069
32110
32095
32108
32133
32209
32220
32255
32263
32356
32372
32311
32297
32284
32305
32372
32438
32458
32543
32500
32408
32405
32433
32466
32460
32481
32466
32458
32490
32461
32414
32348
32327
32313
32380
32404
32397
32389
32394
32402
32351
32305
32252
32263
32241
32292
32339
32341
32349
32409
32420
32391
32311
32311
32393
32393
32502
32455
32379
32436
32348
32430
32349
32423
32340
32454
32342
32423
32343
32404
32388
32447
32416
32453
32401
32471
32442
32504
32503
32501
32541
32469
32485
32428
32487
32428
32479
32409
32537
32548
32563
32516
32471
32529
32613
32665
32702
32799
32684
32689
32772
32791
32879
32878
32887
32909
32903
32857
32828
32771
32801
32876
32903
32980
32956
32886
32919
32916
32967
33004
33011
33014
33049
33066
33041
32948
32959
33031
33069
33122
33059
32943
33012
33058
33102
33084
32980
33015
33060
33055
33041
32975
32978
32990
33031
33053
33067
33087
33085
32987
32988
33031
33087
32988
33084
33082
33129
33209
33196
33263
33207
33287
33214
33295
33170
33287
33172
33265
33162
33277
33191
33268
33206
33224
33348
33287
33279
33287
33180
33287
33167
33287
33157
33314
33209
33295
33116
33220
33076
33209
33084
33189
33086
33202
33102
33177
33113
33156
33217
33055
33143
33063
33140
33044
33159
33021
33175
33073
33140
33066
33167
33141
33173
33251
33219
33287
33196
33348
33209
33311
33228
33303
33207
33278
33220
33278
33231
33186
33236
33276
33210
33287
33246
33167
33231
33150
33220
33127
33280
33180
33303
33228
33223
33228
33204
33213
33140
33230
33109
33191
33111
33199
33086
33218
33095
33221
33204
33159
33254
33144
33247
33082
33229
33058
33180
33053
33125
33065
32977
33159
33041
33130
32999
33090
32958
33105
32999
33170
33052
33144
33095
33142
33126
33083
33167
33081
33242
33164
33321
33208
33354
33248
33383
