ECG
33013
33255
33407
33287
33469
33476
33312
33324
33004
32866
32764
32462
32405
32196
32101
32254
32167
32263
32577
32623
32857
33159
33251
33159
33298
33394
33148
33092
33068
32794
32524
32455
32146
31983
32076
31990
32006
32274
32295
32518
32876
32932
33041
33284
33204
33161
33212
32933
32858
32756
32397
32250
32215
32002
31844
31975
31991
32014
32311
32383
32586
32873
32902
32943
33017
33130
32979
32826
32820
32631
32279
32156
32103
31896
31786
31897
31847
31915
32237
32324
32468
32756
32937
32941
33121
33092
32915
32876
32860
32676
32327
32171
32094
31800
31751
31884
31815
31905
32172
32407
32469
32703
33013
33013
33055
33254
33092
32990
32993
32774
32487
32450
32142
31950
31986
31786
31925
32089
32174
32544
32659
32820
33148
33164
33174
33335
33169
33063
33058
32748
32538
32462
32125
32028
32017
31885
32036
32174
32258
32592
32615
32851
33135
33120
33136
33252
33311
33002
32966
32796
32433
32295
32208
32007
31847
31916
31948
31962
32249
32416
32578
32884
32895
33099
33340
33284
33141
33097
33102
32852
32485
32334
32186
32116
31895
31825
31996
32133
32294
32464
32775
33094
33158
33244
33421
33548
33450
33255
33213
33147
32826
32534
32383
32312
32191
32044
32151
32297
32319
32548
32923
33018
33135
33423
33433
33407
33531
33326
33167
33135
32794
32513
32431
32166
31970
32047
31925
32134
32283
32339
32611
32730
32861
33118
33052
33143
33241
33077
32911
32871
32493
32321
32259
31950
31980
31812
31943
32060
32164
32495
32484
32823
33026
33041
33247
33349
33149
33306
33090
32834
32740
32534
32120
32044
31955
31791
31895
31932
31990
32261
32556
32730
32871
33159
33197
33236
33370
33166
33045
32910
32519
32388
32219
31919
31814
31825
31710
31810
32106
32132
32381
32727
32814
32943
33143
32977
32835
32727
32407
31884
31439
31084
30508
30172
30062
29840
29811
29963
29922
30089
30428
30901
31399
31780
32102
32511
33143
33591
33945
34535
35092
35646
36295
37066
37740
38564
39889
40857
41833
42608
42797
43322
43567
43143
42772
42370
41555
40455
39198
37369
35109
33206
31556
30684
30531
30801
31103
31767
32142
32519
33012
33111
33497
33795
33875
34221
34365
34229
34268
34247
33862
33534
33252
32869
32384
32175
32132
31900
31937
32087
32028
32185
32380
32308
32375
32492
32295
32114
32068
31818
31519
31348
31249
30981
30790
30851
30799
30780
30856
31161
31343
31417
31689
31820
31908
32110
32122
32017
32087
31895
31709
31662
31357
31249
31157
30983
31018
31119
31119
31361
31487
31647
31942
31949
32100
32335
32260
32216
32321
32145
31854
31751
31656
31335
31209
31239
31130
31127
31380
31375
31636
31869
31967
32279
32330
32369
32518
32319
32290
32326
32055
32021
31895
31556
31524
31511
31321
31367
31564
31593
31871
32006
32084
32318
32533
32463
32559
32655
32463
32430
32379
32084
31924
31830
31732
31572
31441
31415
31482
31591
31773
31937
32083
32271
32428
32581
32453
32484
32559
32295
32219
32178
31908
31740
31718
31512
31435
31572
31450
31605
31884
31901
32111
32390
32417
32481
32595
32559
32359
32308
32295
32074
31741
31582
31543
31418
31260
31310
31470
31437
31613
31843
32046
32076
32193
32422
32256
32287
32350
32135
31991
31938
31621
31566
31446
31284
31360
31233
31301
31508
31572
31855
31855
32117
32257
32263
32445
32445
32285
32302
32252
31937
31831
31799
31586
31444
31445
31511
31447
31593
31884
31897
32148
32419
32378
32620
32652
32601
32708
32503
32321
32208
32167
31847
31767
31772
31594
31654
31846
31821
32038
32373
32451
32548
32852
32932
33023
32879
32936
32996
32805
32665
32591
32354
32057
31978
32070
31911
32038
32237
32255
32557
32676
32767
33001
32889
33020
33149
32936
32937
32908
32828
32679
32466
32287
32305
32181
32084
32226
32372
32428
32552
32826
32822
32903
33074
33158
33074
33051
33133
32967
32698
32732
32564
32333
32302
32246
32095
32231
32374
32359
32647
32751
32836
33073
33031
33071
33106
33065
33001
32903
32788
32685
32566
32293
32296
32295
32154
32241
32458
32473
32565
32823
32801
32868
33109
32949
32992
33063
32981
32817
32631
32567
32548
32399
32148
32172
32212
32251
32187
32364
32602
32532
32713
32927
32903
32876
33031
32980
32737
32751
32773
32639
32383
32351
32391
32292
32146
32244
32415
32396
32481
32729
32799
32714
32850
32999
32813
32835
32927
32765
32582
32567
32494
32242
32243
32332
32175
32286
32463
32461
32563
32824
32768
32845
33031
32951
32956
33058
32820
32806
32829
32604
32505
32527
32327
32263
32380
32268
32399
32613
32568
32810
32932
32943
33188
33116
33108
33189
32955
33038
32973
32798
32807
32615
32531
32577
32370
32602
32615
32656
32834
32757
33001
33159
33172
33287
33076
33214
33174
32959
33053
32958
32775
32815
32639
32586
32737
32634
32682
32886
32862
33121
33012
33263
33346
33213
33322
33365
33147
33300
33133
33075
32999
32817
32851
32725
32687
32811
32731
32840
33031
32986
33117
33205
33165
33375
33167
33241
33299
33066
33212
33020
32870
32924
32829
32607
32716
32717
32602
32797
32900
32806
32976
33157
33035
33190
33239
33086
33204
33206
32963
32985
32969
32937
32878
32797
32543
32687
32734
32641
32831
32973
33024
33038
33195
33173
33159
33284
33121
33174
33117
32919
33006
32933
32670
32783
32748
32571
32731
32862
32802
32879
33044
32962
33075
33218
33031
33135
33175
32995
33181
33038
32928
32975
32692
32768
32655
32587
32690
32557
32775
32808
32829
33068
32988
33047
33159
32969
33122
33121
32935
33079
32921
32797
32820
32613
32571
32638
32527
32565
32710
32692
32791
32986
32975
33031
33176
32999
33132
33138
32910
33073
32873
32775
32794
32535
32623
32452
32464
32615
32494
32671
32847
32726
33012
33021
32988
33205
33099
33095
33140
32884
32861
32901
32715
32535
32621
32507
32385
32615
32559
32644
32868
32780
33050
33127
33044
33223
33173
33143
33167
32965
33073
32742
32772
32671
32540
32583
32472
32498
32681
32607
32732
32958
32935
33003
33118
32972
33159
33148
32959
33079
32961
32721
32808
32642
32398
32453
32566
32564
32570
32765
32827
32772
33025
33060
33012
33239
33072
33124
33191
32947
32991
32932
32642
32676
32572
32447
32558
32381
32575
32671
32667
32901
32946
32838
33062
32977
33013
33100
32908
33056
32983
32810
32818
32712
32463
32513
32590
32430
32615
32708
32664
32891
32966
32870
33076
33131
33009
33132
33226
33077
33005
33013
32807
32743
32749
32527
32628
32750
32728
32775
32932
32999
32939
33111
33194
33047
33161
33301
33172
33111
33189
33001
32903
32941
32847
32614
32713
32766
32628
32740
32775
32853
32997
33094
33107
33110
33028
33163
33211
33079
32996
33043
32748
32680
32721
32468
32579
32548
32558
32709
32586
32748
32938
32895
32963
33125
33116
33022
33172
33012
32943
32984
32764
32691
32699
32462
32591
32591
32579
32742
32686
32692
32895
32839
32929
33087
32916
33124
32919
33084
32957
32876
32927
32676
32558
32639
32468
32467
32551
32443
32628
32630
32680
32844
32703
32919
32966
32858
33030
32955
32822
32821
32559
32220
32124
31773
31473
31300
30900
30716
30713
30530
30527
30703
30575
30559
30611
30641
30928
31043
31264
31572
31838
32167
32493
33084
33709
34375
35327
36422
37316
38148
39579
40751
41943
43055
43900
44314
44830
44919
44772
44431
43591
42631
41924
40656
38919
36683
34689
32982
31786
31436
31734
32097
32375
32923
33205
33246
33564
33647
33518
33781
33828
33721
33703
33719
33475
33364
33334
33069
32921
32871
32620
32486
32487
32395
32206
32255
32319
32159
32047
32007
31686
31546
31375
31055
30931
31015
30917
30820
30937
30953
31002
31226
31130
31312
31427
31452
31591
31620
31508
31615
31429
31324
31293
31177
30983
30979
31053
31005
31026
31239
31211
31262
31481
31476
31543
31751
31761
31745
31866
31637
31605
31591
31332
31257
31303
31179
31117
31284
31212
31239
31428
31507
31510
31735
31746
31817
32039
31916
31975
32059
31794
31740
31725
31515
31387
31372
31473
31468
31400
31489
31668
31650
31821
31938
31911
32135
32198
32101
32167
32192
32004
31872
31868
31582
31519
31583
31533
31386
31442
31597
31524
31677
31904
31895
31972
32156
32193
32105
32181
32163
31937
31843
31852
31693
31469
31508
31592
31503
31498
31663
31663
31626
31733
31927
31879
31975
32184
32105
32031
32131
31948
31751
31732
31604
31358
31359
31312
31383
31452
31478
31516
31535
31515
31596
31823
31836
31751
31847
31934
31900
31734
31614
31639
31337
31284
31364
31231
31188
31320
31297
31349
31545
31634
31607
31877
31824
31855
32007
31860
31909
31905
31719
31749
31572
31425
31457
31470
31415
31436
31525
31684
31615
31740
31980
32000
32021
32184
32295
32318
32261
32122
31972
32031
31854
31743
31854
31772
31757
31930
31876
31921
32167
32191
32207
32425
32567
32500
32659
32720
32606
32554
32575
32449
32273
32347
32310
32185
32314
32424
32324
32447
32649
32612
32665
32871
32881
32871
33076
32985
32812
32835
32847
32694
32516
32615
32456
32430
32558
32508
32540
32710
32686
32730
32933
32978
32999
33162
33170
33108
33187
33095
32914
32911
32825
32519
32506
32607
32571
32425
32546
32719
32739
32647
32800
33028
33004
33095
33271
33223
33029
33116
33051
32749
32670
32669
32509
32336
32356
32469
32465
32458
32564
32695
32876
32990
33095
33043
33197
33339
33287
33020
32931
32883
32543
32313
32321
32252
32112
32055
32102
32242
32391
32423
32460
32711
33011
33132
33096
33220
33317
33074
32887
32823
32463
32212
32207
31973
31868
32020
31985
32051
32306
32430
32586
32945
33058
33254
33541
33511
33361
33342
33271
32954
32624
32514
32375
32172
32138
32276
32271
32247
32532
32719
32790
33173
33422
33503
33817
33825
33743
33740
33477
33159
33094
32742
32547
32615
32418
32463
32693
32691
32839
33136
33264
33402
33799
33991
33948
34119
34206
33950
33822
33717
33364
33154
33132
32887
32855
33004
32974
32996
33271
33401
33487
33815
33767
34093
34215
34147
34252
34141
33843
33839
33511
33287
33287
33085
32996
33178
33191
33102
33367
33514
33543
33923
33972
34102
34326
34208
34183
34189
33866
33661
33540
33114
33005
33015
32807
32886
33012
32927
33158
33313
33412
33418
33695
34000
33970
34006
34107
33879
33711
33616
33319
32943
32839
32844
32591
32633
32826
32708
32916
33159
33140
33521
33674
33671
33903
34015
33830
33799
33785
33446
33055
32887
32845
32740
32609
32487
32591
32743
32956
33026
33167
33529
33678
33660
33882
34027
33826
33812
33749
33463
33161
33058
32852
32585
32596
32695
32581
32774
33020
33024
33237
33597
33623
33852
34055
33931
34071
33959
33600
33477
33376
33107
32807
32793
32879
32775
32802
32988
33015
33135
33420
33562
33560
33831
34010
33942
33879
33922
33631
33359
33280
32998
32757
32796
32749
32561
32678
32858
32880
32953
33199
33277
33413
33663
33743
33637
33845
33628
33382
33297
33113
32740
32647
32666
32562
32470
32590
32693
32671
32956
33040
33164
33479
33480
33571
33731
33675
33502
33426
33197
32801
32671
32609
32338
32331
32423
32399
32332
32477
32749
32767
32903
33204
33306
33343
33541
33450
33345
33342
33031
32742
32683
32438
32287
32351
32351
32238
32353
32579
32725
32788
33092
33327
33327
33556
33694
33575
33477
33439
33207
32818
32633
32557
32509
32376
32269
32358
32490
32716
32807
32911
33082
33396
33740
33836
33838
33742
33743
33663
33318
32935
32743
32639
32431
32300
32316
32514
32583
32669
32828
33111
33397
33535
33671
33948
34178
34037
33925
33748
33561
33287
33031
32798
32576
32441
32448
32559
32672
32678
32903
33251
33270
33684
33852
33987
34235
34023
34103
33807
33495
33332
32905
32692
32526
32296
32380
32276
32514
32557
32895
33174
33389
33871
34057
34488
34373
34634
34389
34140
33882
33378
33070
32626
32578
32253
32322
32231
32327
32586
32703
33114
33378
33596
34000
34373
34500
34325
34290
34113
33619
33204
32823
32571
32388
32167
31967
32042
32162
32224
32596
32869
33041
33484
33833
33909
34149
34273
34039
33751
33572
33103
32647
32417
32207
31962
31951
32007
31985
32223
32469
32623
32972
33447
33671
33919
34219
34126
33888
33726
33567
33138
32704
32543
32170
32020
32094
31955
32198
32302
32436
32848
33061
33287
33703
34019
34145
34039
34069
33863
33389
33031
32798
32465
32135
32013
32092
32004
32031
32325
32481
32646
32948
33412
33597
33682
33909
33895
33604
33231
32895
32374
31655
31080
30700
30460
30156
30058
30071
30343
30402
30491
30773
31329
31757
32206
32617
33076
33308
33468
33863
34231
34436
34710
35412
36174
36742
37693
38991
40220
41238
42540
43287
43672
44159
44550
44244
43602
43097
42138
40674
38798
36838
34639
32526
31180
30751
30701
31044
31838
32403
32941
33600
33995
34311
34452
34709
34900
34940
34700
34375
34127
33852
33444
32933
32657
32574
32337
32121
32135
32396
32457
32618
33021
33151
33245
33361
33391
33023
32719
32340
31655
31149
30921
30605
30388
30312
30411
30563
30803
31095
31337
31623
32175
32399
32613
32965
32882
32668
32515
32091
31577
31311
30900
30612
30535
30508
30458
30589
30917
31034
31327
31839
32079
32444
32830
33002
32927
32759
32579
32223
31623
31191
30993
30718
30508
30496
30610
30589
30814
31191
31387
31804
32308
32515
32814
33117
32950
32900
32688
32196
31815
31380
30950
30831
30702
30540
30668
30806
30943
31284
31588
31839
32271
32742
32938
33063
33117
33111
32736
32287
31822
31520
31164
30855
30710
30657
30823
30887
31039
31276
31657
32102
32429
32723
33011
33318
33310
33049
32791
32402
32015
31658
31271
30919
30766
30779
30857
30868
31036
31430
31658
31943
32362
32862
32996
33164
33348
33030
32696
32483
31932
31415
31207
30906
30677
30662
30759
30751
30918
31342
31506
31859
32391
32679
32908
33215
33099
32830
32540
32294
31740
31218
30971
30727
30530
30487
30653
30679
30816
31239
31509
31773
32167
32722
32997
33047
33102
33133
32772
32245
31791
31458
31033
30741
30607
30727
30671
30744
31056
31303
31560
31924
32470
32788
32998
33223
33381
33147
32794
32495
32092
31543
31206
31143
30964
30827
30920
31100
31213
31596
31893
32173
32695
33101
33344
33477
33660
33510
33069
32814
32367
31820
31505
31358
31301
31131
31132
31351
31627
31745
32095
32596
32865
33212
33666
33799
33676
33630
33489
32934
32480
32194
31761
31475
31404
31408
31334
31477
31727
32076
32257
32611
33230
33519
33782
34106
34053
33839
33708
33269
32702
32282
32084
31751
31514
31465
31662
31743
31844
32201
32552
32775
33143
33684
33955
33961
33983
33954
33695
33185
32737
32410
31988
31692
31692
31487
31495
31767
31885
32080
32535
32838
33090
33481
33863
33887
34077
33829
33455
33076
32800
32326
31879
31772
31605
31469
31594
31713
31815
32082
32452
32687
33234
33559
33711
34034
34012
33825
33689
33188
32677
32411
31876
31742
31609
31457
31600
31693
31823
32227
32427
32702
33266
33425
33767
34015
33875
33884
33590
33139
32775
32386
31935
31887
31574
31527
31671
31651
31940
32167
32388
32884
33244
33484
33812
34113
34078
33799
33631
33333
32727
32351
32153
31770
31610
31618
31695
31700
31923
32301
32516
32733
33159
33644
33850
33954
34106
34023
33670
33255
32896
32554
32191
31878
31732
31795
31850
31876
31977
32218
32650
32934
33165
33550
33976
34097
33998
33930
33777
33252
32862
32499
32062
31901
31773
31678
31809
31862
32103
32407
32572
32919
33457
33780
33977
34207
34349
34135
33778
33541
33082
32527
32196
32135
31874
31740
31802
32007
32044
32263
32721
32999
33314
33716
34100
34174
34127
34094
33932
33553
32949
32577
32367
31988
31820
31883
31940
32004
32127
32452
32796
32940
33370
33829
33992
34183
34389
34190
33831
33521
33179
32595
32288
32186
31892
31847
32018
31977
32206
32511
32696
33134
33519
33733
34119
34303
34223
34268
33892
33478
33205
32591
32295
32228
31970
31898
32039
31995
32311
32543
32717
33221
33423
33841
34207
34169
34192
34254
33855
33428
33149
32563
32263
32172
31893
31826
32001
31958
32236
32434
32631
33143
33423
33692
34134
34194
34165
34239
33889
33452
33174
32649
32230
32188
31921
31850
32013
31940
32135
32487
32717
32994
33380
33911
34085
34169
34327
34251
33893
33485
33105
32794
32449
32079
31910
31983
31922
31932
32111
32459
32775
33028
33311
33689
34099
34235
34100
34017
33887
33471
32962
32663
32375
32013
31864
31946
31950
31941
32111
32476
32681
32908
33446
33611
33903
34240
34106
34026
33908
33567
33031
32688
32421
32071
32060
31980
31873
32004
32314
32366
32625
33117
33406
33653
34030
34273
34113
34021
33869
33470
32940
32588
32343
31970
31855
31899
31823
32053
32231
32347
32610
33092
33433
33603
33942
34199
34039
33969
33839
33359
32958
32719
32305
32024
32085
31900
31862
32092
32131
32365
32773
32949
33407
33791
33924
34263
34217
34039
33886
33498
32974
32725
32262
32091
32102
31958
31893
32135
32166
32455
32775
32939
33372
33783
33889
34094
34279
33977
33736
33575
32967
32550
32343
32157
31913
31967
31974
31994
32247
32494
32639
33084
33343
33642
34089
34175
34155
34245
33819
33548
33285
32718
32407
32285
32036
31981
31940
32159
32183
32414
32820
33019
33325
33828
33942
34239
34245
34084
33963
33447
33093
32689
32274
32201
31910
31839
32021
31970
32117
32475
32537
32830
33328
33516
33828
34109
33950
33884
33765
33340
32877
32629
32168
31995
31925
31751
31895
31956
32047
32340
32678
32841
33197
33687
33786
33959
34132
33924
33600
33360
32975
32431
32127
32079
31852
31716
31884
31975
32022
32324
32638
32797
33128
33612
33724
33916
34068
33815
33607
33373
32851
32607
32159
31847
31840
31632
31786
31751
31911
32250
32359
32647
33015
33135
33375
33458
33185
32999
32519
31852
31380
30884
30447
30233
30183
30015
30007
30310
30641
31065
31724
32237
32794
33580
34432
35050
35817
36136
36426
36901
36957
37406
37887
38613
39565
40014
40785
40834
41073
41342
41041
40758
40430
39642
39214
37711
36335
34773
32968
31526
30655
30118
30121
30535
30855
31320
31929
32135
32420
32862
33062
33335
33876
34129
34484
34926
34972
34880
34782
34293
33716
33236
32847
32481
32167
31927
31759
31747
31824
31955
32187
32509
32815
32933
33103
33268
33303
33007
32692
32487
31895
31488
31270
30948
30879
30826
30777
30909
31099
31239
31559
31975
32255
32503
32943
32989
33031
33111
32717
32388
32144
31679
31301
31204
31053
30896
31055
31115
31201
31517
31776
31984
32394
32766
32910
33177
33273
33036
32876
32653
32135
31815
31521
31194
31188
31071
31013
31260
31361
31484
31870
32119
32420
32846
33229
33260
33448
33345
33007
32809
32429
31903
31639
31505
31262
31203
31340
31294
31540
31740
31919
32342
32742
32939
33319
33478
33431
33463
33190
32775
32564
32122
31744
31664
31493
31332
31482
31484
31565
31943
32057
32338
32820
33005
33431
33516
33495
33599
33186
32942
32610
32094
31854
31614
31373
31455
31327
31388
31679
31741
31985
32452
32684
32956
33425
33543
33487
33536
33284
32823
32478
32095
31681
31611
31457
31292
31300
31471
31487
31788
31967
32191
32711
32879
33196
33463
33363
33431
33151
32743
32481
31924
31666
31503
31262
31305
31234
31239
31528
31629
31919
32327
32503
32881
33284
33279
33326
33404
32992
32663
32397
31964
31540
31452
31231
31122
31225
31196
31351
31687
31899
32130
32593
32855
33068
33423
33323
33237
33157
32679
32263
32014
31663
31359
31234
31274
31156
31265
31558
31622
31931
32373
32581
32926
33359
33382
33564
33444
33126
32943
32545
32071
31895
31663
31399
31452
31447
31423
31603
31936
32052
32319
32815
32996
33282
33560
33489
33463
33324
32955
32524
32319
31918
31623
31620
31462
31420
31690
31723
31898
32312
32564
32837
33318
33575
33656
33725
33700
33607
33284
32753
32518
32157
31879
31910
31762
31675
31903
31885
32087
32463
32596
32949
33373
33439
33725
33729
33575
33508
33034
32716
32447
31980
31916
31664
31540
31719
31663
31819
32106
32214
32607
32884
33159
33551
33748
33726
33575
33329
33010
32730
32349
32055
31796
31599
31681
31633
31612
31939
32013
32274
32595
32827
33317
33466
33730
33838
33627
33495
33277
32791
32551
32263
31925
31781
31867
31722
31866
32129
32215
32489
32865
33069
33471
33783
33844
34095
33911
33731
33579
33044
32774
32479
32145
32076
32071
31957
32063
32345
32419
32683
33100
33245
33578
34028
34126
34129
34143
33975
33527
33287
32908
32434
32197
32148
32089
31994
32034
32257
32535
32661
32973
33449
33676
33880
34127
34271
34055
33927
33699
33177
32804
32638
32359
32116
32098
32148
32085
32231
32594
32775
32965
33322
33788
33927
34116
34291
34239
33958
33623
33375
32975
32568
32294
32244
32229
32072
32106
32351
32566
32703
32970
33476
33781
33919
34097
34311
34277
33991
33532
33147
32810
32554
32244
32028
32050
32078
32063
32130
32369
32732
32871
33255
33663
33762
33987
34151
33886
33684
33559
33109
32661
32490
32103
31895
32028
31874
31924
32239
32343
32532
32972
33135
33489
33951
34004
33994
34095
33799
33421
33148
32775
32308
32131
32067
31846
31836
32045
32087
32215
32628
32836
33113
33602
33842
33880
34015
34042
33652
33460
33135
32623
32306
32227
32010
31826
31996
31973
32108
32447
32660
32849
33348
33503
33859
34107
34020
34100
33863
33455
33211
32644
32317
32261
31989
31880
32025
31933
32103
32484
32627
32815
33337
33575
33791
34140
34107
33983
33857
33607
33066
32676
32519
32163
31990
32096
32064
32004
32163
32533
32698
32887
33245
33716
33919
33991
34064
34016
33877
33653
33182
32691
32355
32291
32111
31957
31890
31956
32228
32401
32580
32811
33159
33612
33938
33971
34062
34188
33855
33506
33223
32812
32337
32085
32111
31967
31877
31996
32239
32294
32557
32986
33135
33477
33861
33844
33987
34063
33736
33360
33093
32581
32263
32160
31919
31741
31741
31914
31933
32126
32540
32716
32995
33501
33717
33847
34082
33895
33636
33499
33100
32551
32205
32074
31907
31748
31759
31927
31959
32167
32556
32745
32999
33535
33746
33854
33986
34036
33730
33357
33078
32678
32156
31990
31882
31673
31655
31866
31860
32071
32470
32612
32926
33447
33567
33727
33991
33858
33543
33365
33012
32484
32193
32069
31762
31722
31867
31798
31973
32366
32487
32775
33295
33543
33789
34151
34128
33991
33951
33628
33139
32911
32422
32167
32125
31878
31916
32040
32096
32459
32538
32852
33276
33448
33734
33928
34037
34073
33902
33591
33151
32626
32288
32027
31989
31751
31751
31962
31974
32228
32571
32684
33079
33543
33701
34091
34042
33946
33848
33378
33068
32749
32309
32199
31934
31791
31943
31885
32118
32331
32495
32936
33185
33470
33887
33924
34089
34034
33765
33589
33148
32631
32423
32020
31845
31902
31751
31797
32129
32319
32471
32870
33215
33470
33846
34088
34007
34023
33901
33447
33092
32815
32282
31991
31893
31584
31517
31587
31435
31494
31492
31454
31719
31907
32093
32444
32337
32286
32098
31774
31751
31447
31420
31548
31543
31924
32362
32887
33752
34439
35041
36071
37087
37792
38884
40124
41148
41730
42361
42469
41971
41628
41027
40090
39284
38345
37202
36152
34836
33269
32117
31305
30863
31145
31831
32414
33212
33671
33838
33953
33771
33340
33168
32869
32700
32823
32795
32897
33310
33471
33697
33986
34062
34439
34615
34468
34528
34451
33970
33599
33255
32575
32124
31950
31674
31445
31380
31511
31520
31574
31892
32055
32301
32770
32945
33086
33348
33134
32952
32709
32252
31991
31568
31254
31249
31082
30999
31213
31207
31430
31839
32012
32361
32803
33073
33200
33348
33352
33022
32783
32487
31938
31590
31463
31260
31118
31233
31258
31321
31647
31813
32039
32559
32830
33054
33407
33439
33351
33319
32912
32464
32116
31780
31418
31266
31300
31180
31260
31599
31740
31919
32257
32679
32861
33182
33527
33469
33444
33439
33069
32540
32104
31858
31550
31270
31196
31339
31309
31415
31639
32006
32217
32527
33030
33240
33368
33473
33567
33222
32879
32637
32173
31725
31559
31422
31222
31199
31413
31511
31611
31879
32271
32447
32814
33260
33355
33345
33319
33271
32911
32409
31977
31788
31431
31187
31101
31201
31156
31271
31653
31807
31975
32308
32821
32959
33177
33378
33156
33031
32746
32224
31892
31553
31203
31031
31045
30893
30913
31219
31335
31526
31879
32275
32519
32983
33135
33143
33254
32895
32694
32316
31751
31479
31204
30933
30983
30914
30919
31196
31280
31675
31879
32119
32668
32801
33111
33201
33071
33043
32572
32263
31860
31397
31303
30990
31020
30919
31021
31226
31332
31671
31998
32216
32711
32943
33116
33357
33159
33131
32771
32374
32135
31653
31514
31388
31220
31367
31311
31463
31809
31940
32271
32731
32934
33310
33570
33525
33633
33263
33154
32575
32197
31927
31583
31587
31375
31401
31490
31551
31941
32036
32319
32837
33087
33327
33631
33735
33567
33447
33300
32819
32334
31972
31853
31673
31441
31454
31653
31751
31887
32149
32487
32943
33207
33419
33636
33900
33772
33452
33187
32900
32493
31983
31721
31548
31590
31519
31485
31642
31871
32255
32516
32738
33085
33465
33743
33751
33619
33471
33287
32884
32343
31996
31768
31767
31603
31480
31586
31835
31954
32133
32380
32820
33228
33455
33566
33668
33689
33582
33282
32767
32350
32063
31939
31740
31554
31545
31606
31860
32058
32196
32487
32964
33361
33588
33732
33820
33956
33588
33369
33087
32534
32177
32036
31751
31684
31758
31666
31814
32182
32305
32572
33090
33365
33652
34012
34067
33886
33740
33607
33206
32716
32279
32068
32022
31796
31814
32030
32028
32260
32590
32768
33191
33591
33757
34085
34141
34028
34005
33598
33172
32879
32463
32125
31991
32050
31955
31979
32244
32391
32551
32954
33232
33548
33989
34156
34135
34138
34043
33560
33285
32933
32396
32258
32059
31900
31988
31973
32070
32431
32567
32810
33276
33505
33740
34105
34108
34001
33943
33564
33123
32756
32420
32087
31972
31937
31799
31864
32089
32148
32455
32775
32971
33457
33684
33857
34071
33948
33700
33534
33031
32548
32348
31970
31865
31825
31687
31887
31869
32047
32407
32555
32988
33397
33575
33927
33943
33837
33790
33287
32975
32636
32191
32077
31885
31678
31756
31795
31876
32231
32276
32660
33068
33276
33676
33872
33845
33965
33733
33284
33030
32549
32142
32030
31723
31751
31719
31671
31932
32109
32263
32684
32879
33382
33682
33764
34019
33869
33677
33485
32949
32647
32206
31895
31895
31663
31671
31844
31853
32153
32364
32589
33078
33260
33659
33949
33872
33926
33870
33415
33223
32653
32231
32109
31798
31825
31791
31751
32033
32143
32343
32772
33015
33337
33831
33946
34018
34126
33873
33455
33239
32724
32318
32103
31857
31933
31772
31974
31988
32229
32571
32712
33226
33474
33745
34084
34055
34195
33910
33580
33321
32734
32399
32261
31948
31983
31891
31855
32160
32286
32473
32919
33093
33538
33814
33985
34214
33996
33904
33703
33157
32805
32463
32071
32047
31835
31929
31812
31911
32239
32354
32797
33094
33374
33847
33900
34183
34087
33826
33651
33056
32711
32391
32030
31945
31811
31716
31916
31863
32039
32404
32568
33050
33348
33616
33998
33993
33913
33866
33454
33023
32724
32159
31954
31904
31631
31649
31737
31812
32154
32210
32533
32980
33222
33701
33843
33935
34047
33684
33458
33207
32676
32444
32007
31935
31736
31751
31944
31955
32215
32538
32709
33062
33541
33764
33927
34162
33927
33839
33646
33113
32863
32287
32006
31941
31726
31836
31811
31876
32228
32348
32765
33020
33367
33749
33820
34071
33962
33693
33411
33204
32589
32258
32097
31768
31696
31767
31716
31967
32079
32271
32708
32927
33336
33759
33847
34127
33983
33796
33604
33095
32836
32294
32044
31985
31751
31863
31817
31985
32149
32346
32740
32980
33502
33733
33891
34146
33943
33958
33543
33128
32847
32273
32078
31875
31684
31821
31740
31847
32206
32295
32741
32942
33390
33799
33847
34052
34099
33759
33522
33207
32610
32326
31911
31516
31451
31140
31056
30849
30773
30917
30824
31124
31430
31658
32045
31894
31911
31734
31511
31516
31180
31227
31092
31343
31863
32316
32928
33766
34609
35620
36774
37596
39191
40412
41846
43032
43548
43972
43937
43431
43140
42222
41079
40402
39333
37925
36798
35002
33296
32084
31306
31442
32090
32733
33436
34035
34439
34351
34131
33919
33606
33175
32907
32974
32908
32823
32967
33188
33167
33306
33559
33649
33728
33990
34133
33980
33927
33733
33151
32673
32312
31757
31318
31168
30806
30694
30673
30644
30934
31013
31325
31751
32007
32500
32613
32711
32775
32526
32358
31820
31510
31046
30781
30623
30471
30575
30528
30669
30990
31092
31401
31833
32086
32556
32775
32793
32871
32714
32327
32071
31548
31095
30937
30613
30580
30553
30559
30801
30958
31156
31633
31826
32175
32644
32724
32916
32960
32687
32541
31997
31642
31287
30919
30881
30627
30606
30687
30735
31091
31212
31588
31933
32325
32682
32867
33139
33039
32801
32584
32176
31664
31349
31087
30821
30863
30686
30791
30914
31041
31484
31630
32119
32420
32666
33086
33047
33129
32961
32623
32359
31764
31517
31132
30868
30895
30726
30868
30885
31130
31420
31623
32098
32345
32853
32915
33231
33007
32934
32598
32167
31810
31312
31167
30877
30727
30762
30664
30900
31045
31199
31610
31830
32332
32485
32871
32799
32887
32713
32286
32096
31516
31055
30890
30557
30499
30486
30423
30682
30761
31136
31288
31765
32005
32383
32710
32727
32863
32538
32391
31938
31453
31212
30805
30625
30623
30488
30680
30719
30865
31239
31412
31920
32167
32690
32877
32978
33072
32829
32665
32159
31879
31417
31100
31010
30806
30865
30911
30983
31335
31559
31756
32261
32506
33031
33252
33347
33534
33218
32947
32746
32184
31966
31575
31389
31429
31295
31404
31626
31782
32231
32410
32924
33136
33593
33879
33928
34104
33840
33589
33170
32660
32380
31974
31935
31655
31735
31764
31799
32156
32255
32643
33117
33306
33702
34107
34076
34268
34022
33669
33399
32972
32446
32165
32092
31816
31813
31948
31996
32333
32440
32884
33050
33620
33762
34179
34201
34215
34089
33677
33445
32855
32615
32146
32071
31884
31813
31953
31926
32198
32519
32718
33191
33368
33879
34003
34175
34118
33934
33724
33255
32929
32471
32047
31996
31716
31702
31805
31862
32215
32290
32591
33063
33267
33660
34056
34031
34038
34045
33663
33231
32919
32420
32093
31993
31742
31831
31787
31866
32191
32324
32766
33015
33349
33836
33969
34107
34214
33895
33716
33347
32831
32564
32196
31910
31863
31879
31812
31942
32286
32454
32682
33097
33551
33735
34075
34335
34180
34191
33954
33383
32954
32699
32279
31998
31969
31972
31879
32048
32380
32476
32841
33277
33511
33990
34244
34229
34371
34271
33815
33468
33178
32600
32341
32231
31976
32070
32031
32080
32450
32533
32991
33242
33550
34068
34140
34442
34439
34212
34049
33471
33059
32773
32341
32276
32095
31952
32076
32196
32335
32727
32839
33233
33717
33909
34337
34389
34337
34342
33954
33523
33222
32616
32342
32263
32051
31956
32093
32219
32278
32551
32955
33167
33727
33951
34146
34390
34394
34127
33979
33437
33031
32728
32284
32069
32083
31919
32111
32132
32241
32647
32852
33143
33645
33902
34102
34379
34172
34144
33907
33404
33040
32747
32325
32050
32093
31912
31999
32176
32283
32709
32887
33176
33727
33933
34164
34453
34293
34256
34060
33567
33059
32831
32437
32161
32180
32053
32012
32178
32504
32565
32884
33368
33655
33941
34366
34300
34382
34345
33918
33719
33159
32671
32383
32302
32135
32006
32014
32288
32338
32685
32979
33229
33727
34055
34205
34500
34498
34221
34055
33704
33128
32799
32455
32175
32196
32070
32033
32253
32486
32648
32893
33357
33735
33919
34212
34501
34309
34276
34094
33655
33159
32881
32475
32196
32173
32094
31984
32094
32332
32737
32940
33157
33559
34044
34266
34311
34458
34322
33918
33719
33159
32657
32505
32175
31967
32067
32086
32087
32324
32643
32748
33099
33580
33745
34164
34264
34225
34252
33849
33439
33143
32599
32439
32155
31925
31912
32090
32045
32302
32625
32793
33233
33530
33799
34220
34140
34298
34166
33783
33586
32935
32497
32332
31973
31877
31826
31783
32045
32123
32508
32683
32959
33431
33764
33909
34222
34189
33956
33807
33247
32885
32454
32079
32014
31745
31799
31831
31890
32295
32459
32663
33182
33535
33764
34231
34284
34240
34263
33812
33559
33173
32604
32431
32087
31918
32006
31911
32171
32308
32418
32786
33156
33396
33924
34015
34183
34374
34068
33844
33583
32946
32596
32321
31930
31811
31863
31742
31871
32188
32261
32571
32970
33239
33720
33848
34001
34067
33781
33679
33255
32733
32351
32082
31747
31666
31673
31594
31833
31985
32140
32445
32894
33087
33507
33870
33845
33979
33886
33535
33319
32693
32305
32063
31747
31764
31652
31604
31863
31886
32123
32575
32743
33158
33639
33845
33878
33999
33883
33467
33207
32861
32347
31942
31744
31749
31650
31604
31740
32033
32102
32388
32833
33094
33251
33422
33525
33399
33026
32438
31734
31159
30499
29996
29879
29639
29501
29563
29489
29748
30164
30610
31309
31851
32683
33362
34036
34796
35133
35522
36142
36407
36846
37460
38135
39331
40330
41277
42209
42821
43015
43740
43863
43684
43558
42790
42360
40952
39098
37122
34992
32975
31668
31183
31158
31286
31789
32028
32268
32748
32951
33222
33733
33985
34531
34962
35058
35300
34910
34699
34177
33467
33006
32328
31920
31703
31375
31308
31382
31335
31481
31799
31876
32224
32589
32621
32759
32684
32412
32180
31820
31227
30818
30620
30341
30158
30078
30239
30276
30417
30716
31039
31298
31767
32180
32319
32519
32638
32433
32237
31913
31361
30999
30751
30441
30367
30437
30400
30423
30727
30934
31159
31665
31946
32246
32700
32706
32869
32685
32329
32128
31542
31276
30838
30597
30637
30447
30572
30625
30804
31159
31330
31776
32151
32438
32861
33010
32938
32917
32591
32141
31803
31276
30893
30683
30655
30486
30493
30725
30820
31028
31496
31770
32111
32577
32876
32942
33053
32967
32563
32295
31834
31299
31035
30847
30613
30545
30654
30782
30864
31092
31527
31746
32051
32586
32799
32918
33100
32870
32519
32293
31707
31259
31092
30722
30598
30644
30563
30772
30819
31011
31439
31701
32011
32559
32734
32844
33031
32759
32612
32173
31645
31370
30921
30668
30625
30554
30461
30565
30831
31007
31208
31647
32052
32252
32551
32799
32695
32736
32301
32042
31610
31061
30719
30630
30430
30324
30418
30591
30725
30895
31330
31533
31910
32380
32541
32891
32825
32653
32515
32035
31689
31257
30844
30764
30516
30455
30636
30612
30822
31223
31405
31711
32242
32471
32940
32967
33020
33047
32634
32372
31996
31463
31215
31057
30855
30807
31031
31047
31235
31660
31847
32238
32790
33015
33394
33698
33580
33659
33367
32970
32719
32148
31974
31751
31525
31529
31655
31629
31983
32071
32428
32812
33103
33607
33741
34136
34077
34009
33799
33312
32973
32527
32151
32036
31830
31964
31855
32053
32252
32418
32881
33031
33503
33924
34093
34439
34359
34206
34076
33566
33230
32802
32386
32251
31946
32050
32007
32022
32385
32476
32759
33231
33424
33956
34053
34332
34393
34183
34055
33518
33199
32737
32312
32215
31927
31996
31889
31948
32263
32343
32670
33108
33362
33879
34109
34173
34350
34218
33835
33643
33029
32590
32387
32183
31923
31944
32011
32006
32263
32508
32679
33105
33351
33774
34047
34133
34290
34054
33934
33414
33125
32687
32263
32181
31907
31972
31823
32034
32147
32325
32719
32930
33444
33606
34119
34088
34307
33988
33863
33524
33007
32693
32307
31999
32019
31823
31970
31992
32108
32506
32646
33029
33446
33644
34043
34262
34175
34055
33940
33543
33007
32724
32334
32023
32023
31860
31812
32045
32121
32492
32668
32935
33442
33687
34129
34241
34172
34138
34062
33661
33085
32682
32444
32098
32125
31895
32071
32024
32256
32615
32770
33265
33518
33827
34223
34285
34479
34243
34006
33718
33177
32915
32492
32198
32215
31998
32116
32141
32262
32572
32741
33190
33415
33911
34029
34396
34220
34237
34010
33569
33300
32702
32403
32284
31978
32061
31941
32060
32263
32410
32822
32976
33554
33698
34094
34316
34261
34281
33844
33709
33098
32796
32415
32116
32127
31927
32031
32162
32227
32497
32797
32999
33519
33743
34208
34203
34383
34359
33974
33839
33214
32810
32644
32229
32091
32181
32042
32149
32375
32471
32887
33121
33407
33885
33990
34183
34224
34292
33897
33717
33122
32836
32463
32219
32161
31953
32101
32047
32384
32549
32771
33156
33404
33903
34011
34292
34388
34159
34077
33583
33287
32885
32574
32367
32020
31918
32081
32077
32201
32508
32825
32989
33356
33860
34063
34191
34256
34290
34046
33695
33234
32738
32370
32094
31924
31854
31873
31972
32152
32460
32786
33098
33451
33735
33927
34100
34143
34099
33812
33578
33212
32828
32492
32165
31962
31906
31908
32074
32247
32487
32861
32999
33503
33715
34076
34133
34346
34055
33950
33461
33206
32608
32421
32063
32047
31893
31943
32141
32217
32583
32703
33191
33359
33789
34064
34164
34340
34127
34006
33515
33199
32645
32388
32064
32021
31842
32025
31966
32303
32380
32761
33004
33388
33614
34092
34201
34164
34044
33769
33436
33092
32746
32385
32094
31884
31801
31874
31980
32191
32417
32742
33076
33345
33631
33935
34080
34311
34178
33836
33604
33226
32860
32607
32410
32162
32084
32247
32325
32332
32719
32829
33316
33486
33985
34120
34359
34422
34335
34079
33828
33309
32983
32679
32425
32316
32151
32303
32231
32486
32652
32983
33148
33615
33927
34084
34431
34270
34278
33893
33645
33159
32806
32433
32245
32074
31982
32052
32071
32363
32488
32877
32999
33519
33693
34033
34219
34328
34175
33939
33508
33263
32735
32435
32262
32029
32139
32023
32263
32310
32519
32847
33062
33454
33700
34077
34150
34310
34090
33892
33677
33116
32879
32436
32282
32118
32024
32119
32077
32364
32415
32849
32928
33375
33681
33924
34157
34143
34053
33660
33323
32762
32263
31796
31284
30900
30695
30376
30391
30494
30607
30990
31098
31527
31764
32166
32660
32875
33206
33074
33220
33323
33455
33921
34148
34815
35331
36006
36839
37526
38958
40172
41468
42708
43233
43778
44148
44007
43828
42655
41926
40484
38904
37177
35040
33399
31758
30692
30535
30806
31334
32297
33063
33646
34311
34520
34863
34970
34775
34752
34477
34141
33998
33572
33407
33343
33002
32990
32842
32818
32940
32924
33246
33313
33607
33764
33747
33815
33567
33415
32929
32421
32062
31559
31388
31060
30933
31063
31004
31291
31404
31591
32029
32231
32709
32917
33007
33244
32996
32843
32564
32066
31845
31398
31204
31131
30957
31023
31130
31207
31581
31692
32119
32285
32690
32964
33025
33199
33031
32977
32510
32106
31799
31487
31170
31164
30983
31068
31183
31238
31522
31719
31924
32375
32668
32903
33199
33196
33086
33025
32694
32188
31887
31559
31263
31265
31046
31211
31209
31303
31681
31794
32048
32553
32706
33015
33319
33269
33351
33047
32677
32460
31972
31587
31485
31305
31145
31260
31263
31343
31700
31841
32039
32563
32775
32989
33335
33287
33167
33105
32639
32236
31984
31678
31393
31255
31303
31222
31218
31495
31659
31791
32197
32469
32725
33159
33251
33240
33300
32967
32775
32359
31874
31701
31367
31202
31214
31111
31271
31437
31477
31697
32087
32278
32689
32898
32979
33159
33076
32735
32392
32175
31692
31285
31236
30962
30933
31044
30975
31100
31444
31580
31813
32280
32431
32708
33018
32926
32942
32799
32391
32060
31791
31359
31148
31116
30948
31033
31071
31145
31505
31587
31911
32326
32578
32881
33173
33044
33130
32871
32511
32263
31748
31567
31236
31132
31177
31055
31233
31286
31475
31895
32083
32356
32847
32971
33159
33385
33206
33190
32839
32433
32165
31782
31751
31564
31442
31594
31528
31806
31942
32094
32531
32815
33044
33474
33470
33630
33596
33287
33190
32656
32391
32127
31815
31855
31652
31655
31865
31891
32239
32340
32643
32988
33237
33663
33700
33905
33764
33527
33391
32867
32510
32295
31953
31971
31764
31791
31938
31955
32231
32457
32596
33087
33241
33556
33852
33708
33735
33622
33209
32900
32574
32158
31903
31923
31781
31671
31827
31940
32036
32371
32620
32821
33295
33431
33764
33829
33694
33655
33284
32841
32617
32232
31947
31959
31792
31742
31983
31956
32230
32453
32626
33079
33257
33709
33882
33909
33719
33647
33324
32916
32704
32303
32037
32036
31919
31836
32038
32097
32210
32614
32691
33087
33381
33598
33940
33799
33836
33691
33301
33086
32581
32413
32167
31908
31970
31855
32113
32100
32403
32634
32801
33251
33479
33702
33994
33883
33943
33828
33485
33073
32636
32367
32191
32161
32084
31945
32079
32311
32353
32712
32958
33129
33534
33844
33857
33950
34045
33783
33407
33174
32789
32364
32156
32162
32015
31908
31987
32229
32379
32514
32760
33220
33485
33607
33799
34031
33911
33580
33287
33124
32661
32275
32149
32063
31850
31823
32026
32086
32197
32424
32846
33012
33343
33772
33893
33846
33838
33782
33423
32989
32786
32451
32091
32053
32018
31911
32111
32181
32285
32540
32875
33025
33330
33705
33716
33779
33863
33635
33249
33049
32634
32246
32142
32064
31893
31879
32111
32175
32277
32636
32799
33036
33479
33666
33782
33970
33807
33543
33412
32967
32498
32284
32111
31908
31769
31919
31935
31983
32294
32487
32670
32908
33212
33499
33679
33759
33775
33642
33379
32967
32490
32255
32111
31879
31799
31945
31860
31968
32335
32381
32612
33105
33261
33557
33919
33880
33759
33742
33371
32941
32734
32263
32126
31967
31807
31966
31959
32007
32351
32422
32804
33135
33350
33783
33796
33983
33807
33798
33362
32979
32714
32240
32030
32036
31823
31952
31913
31975
32308
32416
32721
33165
33296
33583
33915
33874
33756
33735
33272
32922
32681
32341
32011
31952
31921
31812
32007
32105
32199
32476
32807
32997
33469
33639
33767
33963
33740
33666
33407
32951
32716
32403
32047
31932
31975
31868
31846
32128
32253
32423
32819
33013
33253
33671
33807
33767
33895
33503
33272
33020
32477
32291
32041
31822
31829
31892
31876
32111
32314
32405
32814
33015
33253
33703
33777
33783
33903
33524
33319
33036
32541
32351
32055
31855
31933
31804
31949
32112
32199
32572
32772
32975
33471
33645
33759
33991
33791
33689
33474
33027
32720
32567
32189
32054
32131
32014
32116
32327
32372
32625
32951
33112
33514
33877
33886
33999
34063
33796
33670
33122
32742
32522
32108
32001
31953
31847
32047
32130
32209
32476
32815
33072
33287
33543
33766
33894
33911
33671
33268
33015
32673
32230
32041
32051
31878
31814
31975
32046
32146
32555
32662
33062
33441
33605
33948
33941
33818
33771
33329
33029
32769
32297
32210
31983
31845
32040
31972
32119
32412
32481
32751
33234
33468
33663
33965
34043
33853
33697
33588
33149
32671
32351
32292
32061
31889
32047
32035
32103
32444
32511
32762
33245
33362
33640
33919
33678
33703
33295
32767
32364
31579
31039
30825
30482
30357
30509
30447
30562
30830
31043
31508
32212
32732
33434
33867
34194
34744
35089
35269
35540
35663
35839
36446
36768
37187
38236
39055
39914
40709
40991
41272
41647
41364
41042
40490
39516
38343
36772
34791
33013
31388
30009
29386
29263
29463
30127
30678
31298
32119
32591
32967
33521
33702
34046
34365
34335
34518
34484
34237
34034
33726
33223
33051
32800
32474
32343
32381
32231
32284
32579
32667
32810
33177
33271
33347
33527
33311
33007
32803
32236
31931
31495
31207
31187
30974
30912
31116
31111
31334
31553
31725
32097
32497
32644
32885
33052
32956
32727
32519
32247
31751
31550
31326
31141
31210
31051
31165
31335
31395
31783
31909
32204
32676
32860
32967
33215
33078
32807
32682
32182
31847
31667
31335
31220
31245
31127
31223
31461
31526
31874
32037
32340
32783
32964
33348
33319
33223
33199
32767
32536
32094
31723
31660
31387
31349
31460
31401
31692
31735
32049
32233
32516
32991
33106
33399
33543
33387
33329
33062
32587
32371
31965
31683
31694
31495
31599
31652
31668
31980
32042
32350
32736
32934
33361
33469
33473
33595
33223
32948
32697
32184
32004
31720
31495
31563
31436
31572
31743
31834
32212
32289
32641
33092
33199
33401
33639
33549
33287
33191
32676
32254
32141
31830
31610
31655
31551
31521
31814
31847
32085
32454
32612
33026
33287
33342
33495
33543
33215
33023
32742
32256
32061
31801
31581
31649
31511
31555
31788
31823
32110
32404
32601
33111
33303
33397
33628
33407
33269
33102
32619
32277
32136
31791
31684
31722
31572
31595
31862
31961
32094
32517
32626
33064
33287
33406
33652
33437
33340
33114
32636
32295
32098
31735
31751
31547
31567
31711
31685
32005
32082
32435
32706
32916
33339
33364
33589
33549
33279
33167
32759
32303
32124
31751
31599
31677
31550
31708
31780
31871
32253
32348
32673
33060
33174
33462
33565
33405
33354
32911
32581
32351
31918
31751
31663
31479
31468
31639
31647
31964
32096
32319
32656
32905
33346
33380
33639
33519
33359
33096
32725
32404
32018
31943
31636
31692
31624
31631
31860
31908
32247
32447
32676
33144
33285
33652
33633
33604
33467
33108
32935
32391
32231
31867
31876
31727
31603
31791
31782
32055
32180
32422
32866
33052
33487
33521
33762
33631
33455
33262
32815
32579
32103
32018
31724
31796
31682
31746
31879
31939
32293
32399
32871
33118
33351
33726
33644
33756
33509
33235
33051
32599
32254
32142
31863
31964
31832
31927
32134
32195
32529
32596
32947
33369
33514
33829
33936
33836
33813
33406
33159
32641
32496
32249
32020
32040
31910
32099
32095
32430
32495
32885
33068
33559
33661
33962
34005
33843
33706
33522
33204
32710
32541
32173
32130
32030
31940
32140
32129
32426
32582
32741
33204
33318
33764
33843
33924
33959
33663
33500
33211
32716
32440
32311
31995
31970
32020
31959
32185
32375
32463
32786
33095
33325
33703
33901
33855
33940
33789
33413
33204
32838
32391
32326
32030
31999
32020
31977
32263
32372
32523
32903
33027
33532
33586
33921
33955
33898
33871
33503
33334
32753
32444
32305
32060
32082
32074
32002
32294
32343
32567
32812
33055
33542
33612
33957
33989
33886
33876
33434
33108
32884
32397
32194
32140
31911
31996
31982
32088
32359
32462
32858
33007
33492
33674
33791
33990
33783
33789
33423
33075
32687
32306
32143
31850
31906
31892
31859
32122
32135
32435
32673
32899
33327
33534
33651
33903
33893
33635
33519
33087
32653
32404
32257
31983
31996
31983
31915
32028
32294
32375
32711
32987
33241
33673
33781
33820
33974
33748
33372
33199
32645
32337
32260
32013
31837
31899
31876
31916
32283
32352
32640
33007
33208
33652
33658
33882
33885
33628
33520
33052
32684
32414
32057
32058
31846
31978
31886
31964
32311
32367
32671
32962
33252
33615
33695
33947
33730
33708
33430
32999
32814
32330
32196
32039
31855
31974
31858
32122
32188
32364
32692
32866
33303
33588
33627
33764
33921
33572
33436
33146
32676
32483
32109
32071
31895
31774
31969
31919
32137
32422
32549
33005
33151
33516
33807
33759
33916
33644
33321
33139
32607
32372
32114
31868
31932
31779
31852
32101
32164
32448
32705
32919
33388
33627
33799
34055
33940
33766
33623
33260
32799
32503
32300
32026
31964
31963
31932
32136
32281
32403
32799
33018
33280
33733
33838
33863
33922
33748
33332
33069
32738
32206
32079
31901
31691
31831
31727
31925
32127
32256
32665
32828
33351
33466
33778
33924
33789
33799
33382
33225
32671
32414
32191
31938
31989
31839
31962
32090
32164
32508
32665
32915
33378
33487
33847
33932
33821
33765
33372
33187
32638
32367
32180
31922
31993
31788
31858
32070
32119
32418
32623
32861
33356
33503
33796
33975
33834
33839
33420
33009
32775
32284
32047
31979
31751
31884
31784
31919
32173
32215
32565
32618
33002
33067
33095
33063
32694
32447
31845
31535
30972
30779
30406
30311
30096
30202
30410
30715
31327
31702
32359
32849
33815
34532
35419
35945
36468
36985
37370
37758
37728
38500
39069
39800
40220
40402
40574
40476
40551
39990
39590
38950
38108
37148
35762
34351
33110
31837
31143
30612
30507
30695
30947
31370
31697
32086
32230
32583
32634
33063
33182
33660
34055
34435
34868
34944
35169
34766
34578
34036
33439
33087
32551
32378
32098
31911
31995
31873
32103
32161
32295
32685
32832
33016
33332
33214
33231
33052
32604
32322
31978
31543
31450
31143
31033
31143
31069
31307
31428
31567
31943
32221
32445
32827
33043
33106
33199
32976
32853
32356
32004
31725
31413
31407
31182
31236
31299
31333
31666
31759
32180
32333
32741
33049
33206
33479
33303
33199
33096
32605
32195
32005
31606
31567
31396
31295
31476
31438
31716
31910
32071
32518
32719
33185
33238
33380
33511
33228
33094
32722
32237
32007
31632
31654
31410
31431
31478
31511
31847
31940
32367
32516
32871
33349
33410
33542
33683
33377
33254
32839
32375
32167
31741
31646
31621
31485
31644
31631
31846
32064
32239
32693
32940
33211
33498
33521
33671
33341
33167
32839
32310
32086
31700
31658
31386
31386
31494
31479
31777
31927
32117
32519
32708
33148
33272
33335
33478
33169
32934
32663
32127
31900
31545
31311
31343
31156
31172
31374
31452
31758
31925
32243
32578
32884
33125
33151
33247
33015
32867
32380
32111
31599
31356
31301
31078
31118
31174
31197
31367
31743
32018
32246
32510
32948
33030
33270
33333
33047
32762
32586
32064
31671
31503
31207
31199
31093
31092
31315
31369
31719
31927
32199
32699
32847
33239
33284
33282
33223
32862
32661
32175
31744
31648
31307
31330
31193
31263
31416
31516
31895
32026
32406
32789
33067
33479
33468
33393
33421
32974
32763
32287
31860
31727
31406
31340
31342
31271
31475
31664
31812
32233
32365
32775
33183
33271
33407
33562
33287
33180
32835
32321
32103
31777
31543
31571
31368
31399
31620
31679
32079
32172
32556
32975
33175
33562
33578
33596
33537
33145
32935
32444
32031
31927
31589
31502
31614
31506
31679
31919
32013
32341
32669
32943
33398
33450
33700
33756
33517
33415
32869
32587
32089
31831
31695
31501
31629
31529
31732
31943
32100
32452
32627
33018
33493
33533
33756
33872
33575
33482
33061
32580
32239
32032
31942
31813
31751
31658
31747
32085
32190
32590
32882
33121
33550
33783
33839
33963
33734
33457
33249
32727
32327
32153
31878
31915
31799
31791
32073
32079
32410
32687
32921
33415
33623
33861
34079
33927
34021
33633
33238
32959
32453
32299
31959
31944
31945
31871
32087
32236
32346
32792
32922
33397
33684
33887
34158
33946
33984
33748
33223
32951
32566
32202
32170
31918
31941
31985
32031
32368
32431
32839
33023
33351
33791
33905
34172
33990
34060
33685
33287
33015
32503
32359
32103
31935
32039
31908
32020
32330
32415
32703
33156
33323
33743
34060
34023
34206
34031
33703
33495
33015
32532
32346
32157
31932
32002
31975
31993
32303
32391
32775
33012
33340
33766
33808
34054
34130
33863
33772
33352
32871
32611
32278
32006
31945
31947
31860
32103
32220
32359
32755
32932
33225
33751
33881
33908
33931
33767
33559
33334
32751
32485
32197
31919
31959
31806
31774
32059
32122
32263
32671
32951
33127
33500
33821
33949
33789
33700
33588
33151
32679
32429
32095
31800
31687
31762
31731
31813
32107
32353
32461
32775
33236
33585
33660
33876
33996
33679
33524
33263
32678
32305
32157
31866
31733
31718
31819
31765
31974
32359
32527
32796
33301
33560
33627
33825
33942
33679
33409
33204
32726
32231
32007
31875
31641
31751
31693
31749
32076
32182
32391
32853
33127
33431
33814
33893
33835
33820
33447
33000
32634
32397
31936
31771
31830
31623
31651
31891
32063
32130
32407
32853
33045
33444
33799
33737
33826
33799
33327
33044
32763
32260
31956
31825
31791
31659
31623
31876
31999
32167
32574
32782
33109
33594
33799
33831
34013
33794
33400
33091
32787
32407
32052
31796
31680
31758
31628
31724
32047
32307
32449
32799
33267
33575
33635
33839
33988
33861
33508
33068
32756
32447
32060
31801
31732
31717
31628
31759
32047
32135
32407
32892
33153
33458
33857
33924
33758
33719
33519
33212
32743
32279
32053
31984
31782
31718
31894
31937
32099
32495
32698
32979
33518
33735
33953
34237
34240
33991
33700
33459
33018
32490
32286
32125
31869
31980
31900
31982
32337
32412
32701
33182
33424
33711
34069
34149
34047
33813
33564
33370
32860
32383
32190
32062
31847
31772
31717
31839
32059
32276
32533
32875
33287
33687
33913
34028
33884
33907
33631
33194
32885
32462
32070
31942
31918
31734
31778
32031
32127
32286
32679
32908
33196
33647
33873
33871
34002
33839
33460
33271
32748
32323
32164
31961
31746
31868
31799
31871
32207
32289
32695
32907
33248
33663
33748
34076
34023
33863
33658
33203
32847
32519
32092
31995
31823
31702
31844
31708
31775
31975
31915
32125
32273
32293
32420
32255
32071
32006
31591
31353
30828
30310
30220
30056
30244
30473
30676
31181
31604
32474
33292
34213
35242
36167
37229
38276
38885
39768
40670
41351
42084
42535
42246
42689
42612
42308
42048
41254
40773
40033
38807
37862
36359
34754
33683
32927
32613
32794
32843
32930
33103
32873
32849
32750
32581
32734
32604
32919
33167
33455
33865
34072
34491
34788
35018
34903
34631
34308
33949
33279
32833
32390
31893
31700
31414
31183
31276
31140
31237
31444
31535
31953
32073
32416
32654
32658
32816
32472
32197
32022
31472
31132
30935
30675
30698
30530
30600
30700
30811
31124
31300
31748
31994
32477
32588
32804
32839
32653
32549
32069
31671
31383
30999
30917
30777
30660
30805
30886
30969
31199
31596
31775
32175
32634
32721
32955
32999
32739
32531
32260
31690
31333
31207
30913
30727
30756
30799
30844
31132
31367
31527
31942
32308
32552
32841
33132
33058
32846
32725
32258
31793
31567
31111
30905
30946
30776
30849
31014
31111
31437
31692
31935
32367
32715
32832
33010
33156
32846
32623
32393
31887
31452
31311
31018
30844
30917
30908
30934
31210
31503
31684
31967
32457
32685
32840
33123
33127
32924
32805
32352
31871
31636
31192
31074
30975
30839
30943
31015
31082
31443
31621
31870
32348
32483
32843
32941
32851
32871
32407
32143
31767
31212
31065
30839
30667
30622
30555
30810
30855
31065
31454
31663
31975
32357
32685
32836
32719
32572
32346
31886
31612
31118
30821
30782
30541
30548
30599
30674
30958
31075
31332
31834
32092
32369
32749
32889
32811
32796
32604
32167
31683
31324
31150
30837
30716
30813
30788
30820
31133
31301
31515
32007
32319
32607
32980
33132
33042
33079
32766
32350
32115
31588
31322
31287
31103
31040
31239
31266
31483
31890
32034
32471
32829
33115
33534
33631
33603
33609
33225
32978
32612
32147
31823
31686
31620
31484
31684
31718
31855
32241
32378
32839
33132
33415
33814
33775
33946
33811
33468
33260
32693
32454
32102
31887
31933
31787
31751
32041
32150
32325
32707
33049
33349
33527
33860
34047
33863
33841
33645
33173
32927
32495
32175
32125
31871
31818
31910
32097
32119
32391
32793
32963
33308
33767
33867
34134
34138
33911
33813
33446
32919
32574
32405
32052
31955
32068
31990
32019
32214
32423
32676
33047
33511
33817
33870
34140
34167
33889
33679
33467
32899
32550
32419
32062
31964
32067
31959
32055
32404
32491
32749
33212
33431
33724
34141
34196
34043
34055
33855
33359
33047
32727
32340
32281
32084
31989
32180
32181
32280
32671
32821
33094
33607
33820
34037
34314
34215
34052
33953
33506
33019
32803
32435
32167
32186
32038
32015
32325
32327
32519
32894
33114
33420
33902
34031
34122
34284
34018
33740
33559
33052
32639
32502
32204
32034
32104
32105
32119
32326
32686
32831
33081
33523
33858
33970
34204
34255
33975
33759
33538
32980
32617
32479
32190
32015
32015
32135
32178
32302
32554
32949
33137
33407
33797
34194
34219
34122
34119
33893
33399
33031
32801
32364
32189
32220
32052
32024
32280
32282
32503
32925
33062
33457
33903
33957
34207
34300
34084
33719
33525
33107
32612
32393
32243
32004
31952
32096
32045
32259
32629
32823
33019
33409
33775
34108
34188
34112
33951
33740
33506
33046
32605
32250
32095
32030
32077
32018
32073
32284
32575
32732
33005
33374
33799
34033
34016
34132
34119
33735
33342
32998
32706
32336
32068
31964
32036
32091
32105
32214
32447
32856
33146
33360
33700
34006
34215
34126
33991
33868
33332
32962
32586
32449
32158
31975
31981
32115
32222
32309
32477
32765
33156
33405
33660
33943
34226
33999
33919
33807
33351
32823
32495
32303
32148
31887
31874
32067
32029
32255
32575
32705
32981
33485
33667
33890
34175
33992
33919
33799
33365
32909
32574
32372
32028
31970
32006
31892
32151
32284
32452
32854
33040
33341
33843
33991
34050
34212
34004
33653
33493
33006
32542
32391
32194
31939
31935
32095
32035
32263
32580
32748
33017
33511
33616
33926
34175
33981
34004
33791
33258
32943
32684
32245
32097
32092
31871
31903
32204
32263
32438
32805
33075
33271
33624
33991
34150
33963
33890
33782
33316
32839
32589
32260
31975
32012
31868
31834
32086
32170
32335
32725
32915
33198
33658
33837
33852
33878
33829
33621
33158
32897
32582
32167
31991
32045
31879
31927
32209
32300
32481
32889
33005
33398
33769
33932
34236
34167
33938
33793
33583
33008
32649
32524
32258
32053
32046
32174
32081
32271
32620
32738
33187
33332
33847
33979
34090
34236
33916
33699
33494
32916
32538
32380
32070
31892
31974
31973
31974
32109
32444
32687
32833
33269
33655
33719
33945
34004
33759
33635
33343
32773
32404
32303
31952
31794
31916
31829
31850
32102
32353
32472
32823
33287
33517
33676
33883
33953
33662
33445
33262
32717
32365
32255
31960
31794
31884
31876
31868
32070
32351
32444
32772
33287
33508
33703
33959
33827
33685
33557
33202
32695
32383
32225
31910
31759
31836
31861
31860
32173
32316
32487
32863
33252
33380
33493
33611
33468
33092
32561
32071
31490
30807
30295
30004
29947
29766
29759
29909
29879
30151
30633
31060
31650
32363
32807
33353
34110
34471
34758
35271
35484
36140
36683
37300
38381
39332
40617
41876
42587
43338
43958
44196
44709
44607
43940
43655
42656
41228
39640
37310
34960
33103
31847
31239
31441
31667
31999
32522
32932
33141
33573
33885
34100
34595
34959
35038
35330
35090
34812
34555
33836
33351
32996
32452
32111
32062
31879
31741
31801
31975
31958
32177
32527
32596
32751
32917
32722
32471
32310
31841
31418
31180
30806
30700
30655
30508
30612
30641
30780
31153
31266
31575
32055
32278
32436
32732
32553
32559
32320
31940
31626
31324
30975
30855
30805
30676
30876
30906
30984
31359
31546
31788
32163
32564
32662
32820
33020
32803
32500
32303
31916
31449
31156
31082
30991
30855
30991
31116
31207
31420
31815
32024
32298
32765
32871
32967
33128
32868
32710
32415
31951
31702
31442
31183
31077
31121
31046
31275
31382
31513
31911
32044
32373
32853
32903
33092
33159
32900
32711
32518
32058
31652
31391
31380
31212
31099
31140
31316
31358
31545
31916
32046
32375
32791
32861
32996
33116
32828
32599
32455
32029
31615
31506
31250
31065
31151
31109
31116
31415
31468
31703
32117
32327
32562
32888
32837
32859
32863
32467
32277
31852
31446
31337
30999
30909
30959
30844
30963
31172
31237
31599
31716
32020
32399
32474
32732
32685
32491
32381
31967
31546
31383
31093
30889
30893
30814
30769
30975
31135
31204
31559
31810
32007
32359
32638
32590
32653
32657
32287
32077
31850
31417
31172
31151
30967
30857
31002
31047
31159
31470
31582
31767
32161
32506
32579
32713
32869
32719
32431
32201
31974
31694
31359
31219
31295
31159
31256
31455
31519
31702
32084
32299
32510
32841
33172
33379
33319
33173
33079
32902
32437
32168
32143
31964
31805
31855
31991
31944
32089
32454
32581
32727
33108
33412
33460
33685
33790
33528
33388
33287
32838
32580
32494
32205
32237
32295
32163
32318
32487
32519
32813
33116
33271
33596
33894
33815
33915
33878
33556
33382
33166
32767
32466
32433
32327
32156
32244
32391
32416
32614
32898
32964
33201
33436
33751
33827
33703
33655
33607
33285
32916
32785
32399
32247
32310
32096
32154
32263
32273
32561
32679
32836
33228
33376
33500
33739
33660
33550
33540
33227
32911
32746
32591
32297
32193
32351
32215
32263
32509
32479
32742
32951
33068
33396
33381
33609
33663
33469
33383
33287
32893
32704
32623
32413
32227
32215
32295
32244
32431
32573
32583
32759
33143
33183
33344
33621
33564
33391
33335
33239
32877
32735
32671
32365
32338
32388
32239
32327
32476
32446
32682
32828
32924
33189
33369
33337
33420
33542
33276
33164
33115
32775
32711
32556
32391
32492
32375
32339
32572
32519
32623
32925
32999
33127
33391
33463
33403
33438
33445
33147
32974
32935
32614
32492
32562
32357
32359
32538
32508
32543
32687
32847
33197
33287
33362
33608
33551
33463
33521
33271
33024
32966
32646
32519
32596
32458
32356
32428
32596
32550
32686
32974
32989
33268
33463
33445
33579
33606
33373
33327
33182
32820
32636
32670
32484
32375
32375
32409
32454
32554
32821
32775
33015
33319
33319
33446
33630
33463
33365
33351
33123
32817
32703
32645
32411
32343
32436
32468
32390
32479
32719
32910
33014
33166
33415
33619
33478
33477
33553
33359
32988
32791
32736
32540
32356
32362
32401
32311
32415
32636
32721
32772
32999
33287
33331
33511
33695
33561
33390
33353
33071
32792
32775
32546
32383
32468
32404
32365
32603
32561
32700
33009
33031
33303
33564
33510
33639
33721
33462
33322
33266
32895
32684
32614
32572
32390
32373
32555
32462
32571
32868
33022
33075
33319
33588
33525
33636
33710
33439
33298
33157
32987
32637
32505
32562
32407
32286
32335
32533
32534
32615
32879
33103
33162
33348
33655
33613
33554
33606
33335
32999
32911
32685
32451
32406
32455
32287
32308
32551
32583
32676
32963
33204
33276
33484
33775
33747
33610
33574
33495
33144
32885
32871
32567
32460
32535
32455
32377
32598
32645
32687
32943
33220
33316
33644
33740
33671
33671
33727
33477
33204
33131
32843
32602
32548
32489
32371
32423
32608
32644
32722
33031
33223
33329
33538
33887
33831
33748
33775
33427
33268
33055
32738
32730
32442
32438
32457
32357
32575
32637
32685
33016
33152
33300
33669
33679
33679
33799
33519
33347
33220
32835
32707
32569
32329
32417
32295
32261
32511
32495
32589
32879
32975
33374
33459
33543
33788
33629
33447
33402
33055
32957
32727
32500
32559
32383
32497
32458
32468
32725
32831
32947
33287
33593
33580
33788
33957
33725
33695
33495
33127
32971
32751
32516
32574
32336
32293
32495
32441
32578
32868
32878
33178
33391
33429
33671
33596
33493
33486
33199
32911
32804
32516
32285
32342
32128
32085
32272
32215
32301
32621
32642
32836
33214
33319
33349
33455
33480
33189
33003
32937
32599
32291
32231
32174
31972
31967
32156
32202
32236
32542
32715
32805
33076
33405
33492
33413
33429
33331
32946
32733
32589
32368
32113
32029
32095
32052
32012
32291
32355
32407
32727
32801
33092
33351
33300
33351
33463
33183
32966
32771
32596
32247
32061
32101
32062
31940
31963
32134
32007
32007
32189
32213
32108
32023
32041
31871
31580
31334
31246
31014
30630
30357
30269
30421
30504
30703
31044
31495
31863
32545
33415
34065
34917
35858
36568
37255
38065
38599
39297
40405
41204
41572
42094
42119
42171
42292
41802
41252
40721
39830
38833
37698
36079
34391
33069
32220
31655
31599
31913
32143
32373
32702
32775
32695
32738
32903
32879
32927
33287
33375
33671
34130
34330
34289
34356
34407
34129
33751
33527
33013
32525
32381
32061
31780
31744
31626
31513
31588
31678
31652
31812
32034
32078
32185
32439
32311
32263
32271
32050
31679
31465
31389
31118
31124
31068
30983
31162
31111
31372
31506
31655
31960
32230
32320
32487
32612
32417
32375
32127
31831
31750
31447
31295
31379
31197
31297
31312
31348
31541
31778
31863
32227
32301
32475
32704
32710
32572
32623
32271
31999
31886
31554
31420
31428
31239
31350
31367
31391
31695
31815
31903
32127
32424
32687
32694
32815
32874
32663
32357
32122
31956
31652
31564
31575
31417
31404
31589
31695
31695
31940
32137
32255
32551
32783
32764
32821
32903
32676
32397
32150
32020
31933
31782
31591
31487
31495
31684
31767
31771
31919
32232
32301
32509
32839
32836
32804
32941
32667
32442
32327
31980
31703
31697
31621
31431
31399
31589
31601
31665
31943
32087
32207
32601
32620
32705
32879
32660
32548
32428
32011
31761
31710
31516
31329
31263
31271
31421
31419
31495
31722
31954
32059
32231
32574
32653
32532
32485
32494
32142
31868
31751
31431
31270
31349
31203
31207
31391
31355
31554
31703
31913
32166
32362
32624
32606
32783
32575
32597
32262
32151
31751
31698
31434
31428
31322
31341
31399
31429
31678
31732
31929
32263
32382
32710
32683
32900
32719
32628
32484
32111
32007
31694
31710
31476
31545
31574
31550
31772
31796
32003
32285
32474
32721
32888
33082
33029
33129
32835
32801
32420
32335
31999
31972
31881
31828
31822
31844
31932
32188
32245
32566
32661
33072
33108
33327
33391
33279
33319
32970
32927
32578
32381
32316
32120
32199
32073
32293
32250
32500
32486
32836
32886
33255
33260
33507
33398
33424
33377
33063
33007
32608
32545
32431
32220
32311
32168
32349
32359
32441
32656
32718
33097
33127
33274
33504
33419
33543
33284
33271
32867
32800
32455
32404
32295
32183
32202
32159
32398
32370
32674
32686
32949
33143
33272
33522
33446
33601
33319
33361
32967
32812
32606
32386
32487
32292
32358
32319
32468
32579
32719
32852
33068
33319
33402
33652
33578
33710
33475
33442
33131
33053
32730
32756
32526
32591
32422
32542
32533
32773
32751
33015
33085
33475
33473
33783
33679
33772
33646
33522
33263
33135
32837
32740
32650
32591
32542
32542
32556
32669
32799
32951
33065
33287
33452
33524
33701
33597
33689
33356
33306
32967
32914
32703
32705
32539
32542
32558
32516
32766
32703
33005
33031
33390
33380
33661
33541
33725
33491
33495
33172
33128
32871
32764
32580
32596
32450
32591
32490
32646
32687
32871
33143
33196
33513
33477
33655
33657
33479
33477
33140
33114
32773
32732
32511
32519
32484
32446
32551
32548
32765
32889
32951
33275
33255
33415
33505
33452
33519
33262
33251
32910
32891
32551
32572
32386
32444
32347
32439
32550
32589
32871
32895
33220
33308
33318
33493
33351
33348
33275
32973
32880
32694
32541
32494
32333
32455
32318
32498
32503
32550
32820
32884
33223
33215
33508
33389
33559
33303
33246
33108
32831
32807
32522
32575
32372
32487
32401
32356
32607
32518
32767
32876
33015
33356
33307
33378
33534
33397
33245
33234
32891
32829
32691
32483
32588
32388
32470
32543
32487
32727
32702
33002
33030
33315
33323
33442
33517
33329
33367
33059
33043
32729
32661
32576
32412
32539
32396
32557
32635
32607
32887
32873
33206
33287
33351
33553
33423
33495
33370
33123
33071
32728
32636
32533
32436
32444
32380
32518
32490
32669
32801
32912
33121
33199
33376
33443
33423
33457
33225
33227
32915
32881
32599
32669
32431
32554
32389
32592
32485
32604
32818
32876
32999
33154
33207
33287
33405
33233
33252
33173
32962
32975
32764
32645
32703
32556
32663
32536
32695
32590
32783
32692
32917
32861
33151
33031
33121
33175
33100
33110
32923
32990
32737
32749
32627
32501
32613
32453
32542
32500
32556
32735
32647
32820
32933
32902
33127
32995
32992
33105
32900
32870
32928
32762
32717
32677
32805
32747
32639
32679
32822
32707
32741
32895
32846
32775
32814
32914
32799
32695
32775
32808
32679
32695
32855
32889
32722
32671
32740
32847
32704
32736
32846
32966
32957
32919
32979
33159
33072
32950
33009
33010
32831
32837
32870
32679
32700
32766
32657
32689
32879
32867
32893
33135
33134
33109
33287
33217
33062
33059
33053
32833
32836
32796
32613
32629
32745
32586
32586
32735
32646
32719
32994
33023
33031
33134
33333
33194
33093
33155
32931
32660
32554
32559
32348
32302
32457
32335
32388
32654
32719
32775
33002
33271
33286
33295
33477
33309
33124
33105
32882
32567
32490
32415
32263
32322
32398
32292
32391
32570
32565
32751
33076
33074
33255
33401
33258
33251
33191
32866
32754
32629
32365
32263
32292
32132
32133
32335
32303
32380
32628
32596
32713
32787
32759
32684
32413
32281
31839
31520
31340
31046
31117
30884
30843
30805
30873
31171
31503
31967
32339
32852
33340
34052
34641
35428
35711
36394
36641
37315
37646
38079
38853
39649
40359
40661
40926
40762
40887
40228
39911
39087
38381
37223
35904
34365
32818
31644
30588
30211
30006
30325
30705
31217
31725
32132
32536
32720
32882
32905
33210
33239
33477
33866
33988
34342
34245
34423
34110
33961
33695
33317
33189
32809
32797
32471
32479
32380
32295
32355
32288
32553
32499
32742
32661
32767
32742
32567
32429
32191
32129
31960
31703
31654
31618
31476
31610
31505
31684
31629
31897
31891
32231
32247
32461
32553
32610
32564
32430
32431
32140
31988
31983
31856
31666
31620
31764
31736
31714
31847
31962
31972
32135
32445
32479
32503
32667
32654
32468
32443
32317
32086
32070
31958
31802
31922
31775
31812
31994
31908
32009
32303
32344
32489
32670
32806
32715
32716
32775
32486
32439
32278
32068
32050
32085
31898
31894
32064
32021
32079
32343
32420
32476
32661
32919
32892
32858
33004
32861
32646
32553
32486
32248
32186
32217
32040
32095
32166
32075
32258
32345
32349
32679
32751
32807
33039
32903
32904
32906
32660
32631
32437
32255
32161
32221
32038
32014
32114
32207
32215
32231
32426
32663
32655
32775
32848
32871
32845
32745
32699
32575
32287
32175
32223
32063
31919
32020
32103
32079
32087
32299
32464
32492
32680
32910
32833
32831
32959
32789
32609
32539
32410
32149
32071
32095
31988
31863
31970
32061
32006
32174
32348
32381
32612
32789
32773
32868
32879
32639
32505
32462
32181
32089
32122
31924
31845
31983
31956
31927
32104
32215
32292
32585
32582
32705
32879
32731
32718
32732
32527
32277
32292
32055
31879
31835
31847
31727
31834
31971
31943
32055
32330
32558
32543
32692
32860
32736
32773
32736
32462
32263
32237
32132
31926
31859
31954
31826
31853
32075
31999
32204
32404
32432
32557
32876
32860
32803
32879
32720
32468
32476
32254
32068
31969
32047
31906
31871
32063
31972
32034
32311
32341
32628
32727
32772
33001
32903
32791
32842
32631
32351
32294
32215
31973
31900
31967
31966
31889
31925
32189
32141
32324
32646
32628
32807
32948
32846
32868
32813
32551
32485
32279
32042
32015
32002
31871
31815
31971
32071
32039
32145
32311
32625
32646
32772
32871
33022
32884
32710
32551
32511
32347
32076
31977
32052
32037
32025
32071
32100
32168
32260
32431
32549
32723
33022
33055
32943
33020
32859
32596
32446
32383
32122
32007
32095
32048
31942
31978
32181
32338
32346
32510
32858
32943
33023
33084
33279
33156
32942
32815
32700
32380
32228
32322
32212
32103
32139
32284
32188
32375
32574
32617
32871
33030
33103
33335
33257
33124
33127
32947
32659
32615
32407
32217
32309
32162
32122
32349
32316
32335
32455
32775
32929
32950
33060
33308
33333
33212
33046
32925
32857
32599
32378
32310
32388
32260
32175
32372
32443
32399
32527
32828
33015
33037
33169
33306
33396
33255
33063
32934
32863
32661
32375
32322
32300
32119
32106
32293
32374
32380
32494
32798
32927
32995
33252
33255
33142
33107
33108
32785
32591
32583
32302
32206
32351
32159
32143
32350
32262
32362
32662
32764
32868
33198
33287
33257
33391
33287
33060
32933
32817
32543
32355
32402
32276
32159
32199
32370
32361
32405
32585
32923
33005
33098
33391
33274
33287
33405
33231
32940
32796
32734
32479
32379
32480
32354
32295
32420
32551
32517
32657
32903
33194
33297
33331
33436
33599
33468
33190
33006
32935
32831
32663
32541
32380
32340
32338
32436
32619
32756
32814
32880
33092
33430
33500
33420
33439
33512
33335
33013
32826
32679
32676
32595
32457
32392
32404
32627
32724
32767
32815
32986
33339
33503
33574
33552
33572
33575
33476
33123
32900
32870
32724
32535
32404
32495
32531
32461
32543
32746
32973
33063
33150
33372
33583
33657
33579
33446
33374
33229
32965
32724
32618
32570
32356
32356
32473
32431
32459
32722
32831
32951
33185
33441
33436
33527
33665
33492
33279
33214
32943
32682
32678
32459
32437
32513
32375
32393
32624
32642
32743
33049
33191
33281
33494
33600
33458
33369
33396
33101
32772
32750
32595
32342
32279
32391
32349
32303
32388
32644
32716
32836
33223
33311
33375
33605
33525
33308
33241
33076
32710
32495
32511
32317
32191
32299
32263
32220
32340
32564
32526
32726
33084
33207
33263
33385
33518
33371
33155
32970
32876
32652
32453
32494
32381
32239
32292
32495
32454
32579
32892
33029
33153
33319
33613
33565
33487
33471
33441
33087
32868
32851
32639
32455
32391
32378
32492
32404
32564
32724
32705
32868
33135
33276
33223
33281
33452
33314
33122
33031
32871
32613
32586
32545
32338
32369
32439
32346
32471
32623
32568
32742
33031
33013
33133
33388
33287
33182
33164
33071
32748
32589
32671
32514
32407
32489
32441
32391
32492
32612
32492
32564
32775
32668
32725
32895
32858
32758
32871
32757
32602
32598
32715
32546
32546
32734
32695
32617
32676
32768
32652
32732
32904
32772
32791
32964
32857
32775
32861
32795
32660
32628
32679
32719
32545
32367
32380
32202
31959
31817
31751
31492
31273
31216
31252
31124
31090
31167
31093
30941
31034
31391
31611
31793
32047
32506
32911
33383
34014
34782
35298
35741
36606
37383
37766
38803
39955
40861
41271
41847
42097
42055
41639
41433
40582
39575
38835
37725
36167
34530
33063
31825
30924
30679
31022
31321
31781
32479
32801
33087
33405
33263
33287
33489
33484
33468
33487
33680
33938
33926
33915
34065
33895
33686
33607
33543
33234
33217
33052
32793
32775
32572
32394
32447
32263
32132
32260
32103
31956
31927
31943
31787
31788
31964
31866
31783
31947
31832
31743
31895
31740
31702
31852
31764
31684
31828
31743
31729
31915
31860
31828
32034
31993
31954
32142
32095
32018
32156
32083
31946
31943
32062
31909
31885
31931
32038
31962
31946
31962
32134
32127
32054
32119
32308
32298
32198
32201
32327
32316
32192
32097
32145
32167
32087
32005
32000
32127
32207
32143
32107
32197
32312
32263
32239
32289
32423
32352
32263
32309
32375
32295
32198
32298
32215
32135
32306
32253
32199
32366
32319
32259
32367
32485
32396
32430
32621
32511
32414
32513
32500
32375
32279
32284
32391
32307
32271
32438
32355
32300
32326
32479
32460
32407
32476
32589
32456
32412
32549
32348
32273
32375
32252
32177
32314
32276
32183
32140
32282
32202
32121
32309
32175
32170
32359
32262
32196
32181
32149
32260
32263
32205
32097
31932
31985
31987
31873
31935
31966
31863
31938
32003
31927
32022
32145
32030
32034
32185
32000
31955
32079
31950
31847
31886
31944
31796
31799
31965
31797
31812
31977
31946
31909
32013
32149
32076
32146
32314
32196
32068
32094
32042
31879
31903
31848
31691
31835
31901
31778
31801
32020
32076
32052
32142
32343
32300
32309
32447
32444
32249
32212
32241
32118
31988
31970
32100
32053
32007
32231
32148
32359
32402
32439
32709
32775
32740
32795
32930
32731
32665
32735
32486
32398
32422
32392
32231
32302
32444
32356
32327
32537
32665
32675
32668
32775
32945
33039
32891
32893
32900
32661
32603
32596
32447
32348
32362
32508
32452
32407
32481
32663
32653
32694
32852
33028
32935
32997
33109
32878
32790
32767
32495
32510
32410
32305
32438
32295
32226
32415
32323
32407
32636
32595
32818
32868
32846
33023
32909
32812
32871
32660
32457
32513
32439
32261
32253
32364
32323
32263
32304
32519
32540
32565
32676
32927
32967
32927
32867
32926
32852
32638
32462
32519
32406
32263
32300
32399
32274
32287
32503
32576
32542
32702
32930
32852
32934
33115
33066
32849
32791
32743
32730
32551
32423
32575
32417
32422
32574
32460
32534
32678
32588
32801
32775
32783
32905
32925
32814
32871
32988
32845
32742
32742
32842
32775
32671
32679
32826
32855
32750
32775
32980
32989
32935
33126
33040
32967
33108
32914
32949
33005
32846
32873
32927
32764
32775
32938
32847
32794
32985
32919
32879
33028
33076
33047
33037
33220
33126
33031
33039
33123
32972
32889
32932
33047
32980
32886
32947
33076
32983
32921
33087
32983
33173
33228
33167
33103
33095
33142
33180
32986
32959
33084
32993
32869
32878
33045
32950
32895
33047
32910
32940
33167
33012
33206
33202
33125
33255
33193
33068
33100
33093
32916
33020
32932
32855
32999
32930
32884
33050
33020
32944
33055
33146
33063
33166
33215
33071
33031
33172
33005
32907
33042
32853
32810
32991
32869
32809
32976
32907
32830
33026
32989
32967
33159
33084
32971
33035
33118
32988
32872
32982
32796
32791
32926
32829
32751
32764
32935
32909
32812
32847
33039
33007
32924
32980
33118
33083
32931
33005
32994
32812
32757
32865
32831
32705
32756
32855
32782
32687
32730
32876
32840
32847
32990
33021
32894
32882
33005
32914
32790
32705
32821
32814
32635
32661
32773
32633
32642
32849
32711
32793
32937
32855
32895
33085
32980
32901
32865
33007
32903
32716
32678
32811
32679
32607
32795
32742
32639
32661
32829
32836
32750
32775
33007
32935
32839
32996
32817
32783
32867
32689
32632
32742
32719
32567
32617
32713
32605
32690
32815
32756
32690
32755
32949
32981
32842
32831
32960
32831
32692
32820
32709
32595
32618
32720
32615
32557
32617
32799
32773
32679
32734
32806
32863
32932
33038
33106
33028
32974
32801
32902
32675
32646
32785
32615
32607
32760
32749
32663
32793
32837
32745
32802
32964
33028
32881
32882
33020
32933
32756
32741
32813
32610
32590
32716
32671
32587
32743
32665
32623
32823
32732
32825
33039
32903
32978
33063
32913
32886
32999
32900
32767
32830
32863
32734
32775
32952
32903
32857
32969
33104
33007
33020
33215
33206
33095
33240
33159
33003
32943
33050
32827
32797
32926
32894
32792
32918
32999
32930
32892
32965
33133
33018
33026
33159
33156
33001
33001
33127
32986
32846
32871
32921
32801
32724
32877
32839
32713
32871
32879
32796
32938
33159
33103
33349
33429
33316
33389
33380
33092
33005
32918
32623
32492
32566
32463
32383
32558
32538
32591
32884
32943
33027
33228
33423
33399
33571
33422
33245
33199
32997
32731
32592
32671
32455
32401
32514
32423
32478
32757
32835
32942
33212
33449
33444
33591
33650
33447
33389
33318
33026
32724
32559
32573
32282
32145
32132
31871
31831
31799
31575
31495
31617
31550
31471
31488
31505
31463
31105
30854
30783
30860
30858
31007
31215
31534
32028
32746
33519
34050
34955
36136
37068
37794
39119
40196
41055
42345
43332
43498
43580
43731
43847
43299
42430
41903
41280
40250
38721
37292
35675
33958
32679
32259
32431
32671
33029
33466
33678
33502
33395
33423
33295
33095
33125
33287
33468
33510
33615
33685
33708
33647
33668
33639
33567
33483
33293
33050
32787
32647
32377
31999
31730
31556
31524
31322
31135
31087
31176
31222
31198
31279
31551
31618
31595
31690
31784
31679
31524
31426
31388
31191
31079
31103
31124
31050
31060
31236
31183
31303
31495
31495
31655
31897
31846
31863
32039
31887
31733
31612
31649
31434
31342
31442
31383
31291
31293
31420
31573
31547
31635
31820
32015
31982
32078
32255
32254
32124
31980
31885
31895
31734
31615
31575
31693
31614
31540
31559
31636
31831
31884
31944
31974
32068
32220
32349
32303
32186
32068
31965
31935
31878
31751
31655
31561
31558
31710
31749
31687
31739
31892
32103
32135
32178
32369
32410
32296
32231
32315
32068
31987
32007
31819
31751
31879
31703
31694
31843
31826
31793
31942
32127
32087
32183
32455
32380
32303
32293
32344
32201
31980
31941
31870
31710
31708
31726
31606
31748
31727
31695
31841
32002
31963
32007
32251
32168
32086
32203
32079
31870
31780
31806
31616
31444
31486
31437
31320
31386
31532
31469
31510
31777
31806
31879
32068
32143
31998
31923
31969
31873
31622
31495
31574
31454
31324
31267
31427
31381
31394
31495
31735
31720
31844
32102
32172
32122
32102
32045
32052
32005
31814
31636
31551
31650
31549
31450
31479
31655
31647
31665
31838
32063
32089
32180
32457
32468
32420
32421
32434
32319
32153
31997
31942
32020
32055
31934
31970
32124
32322
32343
32401
32544
32699
32816
32911
32966
32984
32939
32856
32750
32679
32726
32604
32452
32417
32590
32575
32492
32542
32755
32911
32911
33026
33321
33303
33282
33373
33399
33191
32999
33055
32927
32775
32657
32655
32767
32644
32678
32917
32930
32951
33140
33374
33394
33389
33559
33556
33345
33237
33242
33070
32843
32806
32803
32619
32606
32671
32834
32796
32796
33084
33099
33149
33430
33417
33351
33316
33383
33283
33031
32861
32879
32815
32597
32535
32687
32639
32575
32623
32828
32967
32965
33071
33287
33359
33215
33217
33272
33173
32923
32742
32791
32613
32478
32457
32581
32519
32476
32551
32748
32894
32954
33028
33155
33351
33307
33196
33141
33143
33049
32916
32759
32541
32428
32503
32583
32551
32537
32657
32788
32839
32892
33015
33269
33295
33222
33190
33258
33222
33015
32775
32657
32703
32586
32429
32412
32623
32563
32562
32845
32815
32921
33204
33268
33231
33287
33391
33229
33031
32918
32917
32716
32567
32556
32622
32519
32471
32627
32687
32653
32815
33037
33052
33135
33359
33396
33249
33159
33145
33020
32775
32724
32695
32487
32431
32617
32588
32543
32697
32809
32824
32998
33236
33220
33247
33278
33405
33254
33068
33020
32873
32621
32528
32631
32449
32405
32458
32607
32707
32644
32750
32911
33152
33253
33201
33219
33379
33245
33023
32949
32881
32631
32594
32652
32519
32439
32625
32615
32559
32633
32820
32991
32975
32941
33055
33167
33145
33111
33031
32943
32891
32859
32771
32716
32695
32693
32773
32895
32863
32825
33028
33063
32991
33031
33234
33077
33028
33166
32975
32901
32925
32956
32784
32743
32868
32833
32772
32806
32997
32977
32913
32923
33108
33143
33030
33030
33028
33110
32996
32867
32863
32951
32828
32742
32774
32893
32828
32758
32829
32988
32967
32900
32921
33073
33188
33152
32991
32915
32971
32989
32844
32734
32764
32861
32710
32715
32879
32759
32772
32956
32959
32901
32916
33063
33053
33074
33115
33061
32887
32815
32931
32835
32711
32734
32874
32773
32723
32866
32919
32897
32865
33010
33134
33042
33077
33232
33126
32985
32967
33055
32912
32784
32769
32832
32942
32884
32773
32786
32887
32991
32952
32924
32990
33187
33123
33043
33027
33167
33094
32904
32831
32934
32876
32751
32715
32871
32884
32803
32814
32981
33054
32967
33012
33031
33182
33109
32972
32939
33090
32960
32823
32903
32919
32771
32721
32816
32899
32799
32804
33014
32955
32911
32999
33176
33124
33037
32997
33123
32967
32844
32905
32903
32788
32689
32727
32825
32706
32695
32775
32921
32921
32854
32860
32996
33086
32999
32895
32876
33007
32893
32727
32806
32775
32634
32616
32727
32709
32679
32855
32912
32861
32949
33132
33108
33043
33158
33204
33057
33046
33140
32964
32909
33021
33004
32902
32806
32799
32969
32935
32871
32946
33103
33020
33060
33247
33092
33055
33204
33005
32935
33039
32924
32775
32858
32856
32740
32928
32863
32800
32980
32996
32966
33103
33147
33063
33143
33210
33114
32952
33038
32943
32824
32919
32755
32703
32877
32839
32767
32938
32932
32905
32943
33141
33125
33004
33043
33188
33004
32998
33058
32887
32886
32937
32791
32816
32951
32879
32823
32927
33002
32924
33110
33103
33045
33148
33215
33050
33065
33108
32935
32851
32991
32903
32743
32842
32754
32684
32771
32902
32854
32924
33155
33184
33205
33402
33317
33094
33004
32804
32391
32032
31838
31396
30999
30844
30695
30554
30593
30719
30678
30695
30927
31079
31318
31642
32087
32235
32506
33097
33492
33853
34439
35207
35762
36524
37379
38362
39380
40632
41991
42756
43260
43956
44312
44375
44054
43679
42818
41703
40641
39015
36980
34898
33212
32075
31535
31559
32038
32622
33050
33370
33714
34031
34159
34089
34159
34336
34358
34164
34071
34106
33959
33637
33381
33151
33101
32890
32676
32585
32668
32510
32465
32647
32580
32421
32322
32263
32167
31838
31559
31393
31317
31177
31023
30941
31041
31122
31110
31171
31365
31532
31547
31623
31876
31879
31828
31923
31852
31623
31500
31507
31278
31174
31263
31149
31151
31318
31276
31311
31513
31636
31668
31815
32033
31994
31983
32117
31962
31761
31787
31601
31415
31403
31463
31374
31330
31457
31506
31501
31617
31853
31905
32007
32263
32217
32220
32343
32192
32012
32052
31852
31614
31674
31575
31466
31623
31590
31571
31775
31854
31924
32058
32271
32263
32306
32483
32403
32226
32278
32068
31850
31800
31813
31663
31589
31745
31782
31718
31789
31981
31991
32158
32363
32356
32463
32559
32389
32302
32306
32037
31875
31765
31815
31647
31591
31735
31669
31666
31919
31933
31957
32164
32348
32329
32335
32459
32494
32352
32174
32114
31999
31783
31715
31760
31584
31532
31694
31660
31675
31899
31951
31974
32111
32261
32225
32215
32221
32197
31945
31875
31769
31546
31518
31492
31380
31356
31530
31476
31535
31727
31823
31852
32062
32171
32154
32180
32256
32062
31902
31931
31661
31521
31575
31455
31367
31513
31529
31508
31652
31751
31772
31941
32165
32148
32358
32270
32263
32280
32044
32029
31856
31655
31698
31599
31495
31647
31567
31743
31751
31863
32039
32124
32417
32378
32621
32558
32644
32548
32373
32446
32212
32235
32106
32079
32215
32156
32113
32351
32309
32383
32661
32676
32775
33055
32990
33030
33140
32943
32879
32847
32599
32555
32532
32423
32541
32409
32453
32591
32540
32743
32871
32885
33082
33260
33210
33298
33306
33116
33151
32967
32726
32828
32702
32575
32663
32630
32527
32743
32685
32771
32969
32986
33229
33286
33263
33436
33333
33167
33219
32943
32975
32826
32647
32726
32515
32657
32538
32727
32771
32767
33055
33063
33143
33381
33287
33300
33415
33209
33061
33074
32915
32695
32710
32716
32593
32548
32731
32647
32743
32857
32845
33137
33107
33216
33377
33295
33327
33361
33181
32958
32967
32873
32662
32664
32767
32628
32671
32810
32747
32873
33087
33077
33246
33451
33364
33508
33459
33305
33363
33188
32945
33023
32870
32736
32860
32726
32811
32981
32890
32926
33196
33243
33264
33530
33436
33461
33599
33354
33341
33269
33020
33074
32842
32932
32875
32732
32885
32882
32869
33105
33091
33172
33456
33470
33460
33674
33580
33407
33507
33298
33079
33100
33056
32907
32855
32987
32879
32959
33090
33039
33127
33422
33460
33481
33679
33540
33589
33585
33390
33383
33231
33027
32975
33039
32870
32847
33028
32924
32959
33176
33205
33258
33543
33599
33560
33540
33700
33559
33334
33350
33137
32938
33023
32925
32775
32940
32903
32867
33047
33092
33094
33382
33465
33414
33588
33542
33420
33535
33287
33207
33183
32951
32953
32991
32899
32807
32915
32948
32895
33038
33177
33182
33364
33508
33441
33447
33515
33308
33318
33141
32929
32983
32814
32696
32803
32740
32672
32857
32871
32855
33150
33165
33150
33414
33399
33332
33492
33372
33146
33182
32902
32811
32871
32706
32582
32751
32715
32655
32879
32903
32911
33159
33135
33208
33388
33268
33268
33310
33076
33007
32988
32743
32680
32772
32641
32673
32795
32710
32820
32988
32950
33204
33343
33391
33348
33356
33448
33321
33231
33327
33222
33076
33123
33207
33059
33095
33215
33094
33159
33212
33127
33133
33318
33308
33196
33324
33282
33167
33227
33220
33087
32964
33066
33085
32943
32957
33120
33060
32956
32992
33117
33063
33017
33164
33212
33133
33097
33199
33216
33063
32973
33092
33014
32917
33020
33014
32925
32959
33081
32942
32927
33110
33007
33004
33119
33116
32972
32989
33076
32933
32838
32942
32903
32775
32914
32920
32811
32863
32977
32885
32802
32938
32911
32836
32998
32981
32855
32967
32959
32842
32955
32948
32830
32860
32981
32849
32807
32967
32949
32846
32810
32846
33023
33009
32893
32864
32980
32821
32736
32901
32903
32775
32797
32870
32741
32674
32852
32829
32738
32846
32910
32801
32820
33007
32977
32893
33070
32975
32871
33031
33012
32917
33040
33025
32929
33110
33039
32972
33122
33031
33009
33108
32983
32949
33087
33157
33016
32942
33087
33060
32939
33020
32971
32852
32954
32879
32765
32918
32863
32775
32953
32930
32836
32907
32967
32853
32860
32975
32887
32786
32775
32911
32886
32768
32724
32795
32879
32815
32719
32707
32819
32924
32908
32814
32771
32831
32901
32769
32740
32867
32831
32683
32805
32740
32631
32770
32747
32654
32684
32819
32703
32695
32815
32831
32750
32874
32824
32726
32775
32842
32745
32710
32765
32853
32740
32671
32764
32815
32708
32718
32836
32713
32690
32834
32894
32789
32751
32878
32734
32511
32415
32382
32134
31895
31805
31551
31287
31261
31149
31087
31237
31127
31068
31230
31332
31510
31942
32143
32359
32831
33163
33575
34339
34863
35294
36036
36566
37141
37900
38484
39626
40650
41052
41686
41844
41684
41806
41302
40532
39988
38900
37614
36254
34423
32839
31508
30687
30375
30538
30845
31534
32088
32538
33047
33247
33215
33436
33319
33305
33510
33495
33516
33768
33695
33703
33788
33596
33438
33462
33191
33044
33006
32757
32788
32637
32464
32537
32313
32341
32178
32031
32072
31860
31871
31766
31634
31715
31596
31549
31676
31575
31548
31694
31658
31591
31620
31743
31678
31633
31683
31735
31633
31668
31751
31662
31691
31783
31697
31686
31791
31660
31661
31815
31751
31792
31899
31775
31911
31798
31830
31924
31819
31916
31874
31825
31927
31834
31996
31900
31916
32007
31895
32021
32035
31945
32076
31959
32007
31997
31897
32051
31995
31943
32095
31983
31927
32094
31988
32015
32033
31961
32120
32038
32039
32162
32047
32090
32096
31995
32127
32023
32125
32116
32017
32071
32127
32007
32116
32103
32045
32185
32125
32045
32167
32154
32068
32222
32177
32101
32245
32155
32103
32220
32084
32239
32190
32119
32263
32119
32145
32244
32125
32249
32242
32150
32298
32172
32148
32287
32159
32175
32263
32116
32135
32166
32055
32125
32153
32043
32148
32052
32017
32128
32023
32069
32068
32014
32137
32027
31979
32135
32107
32006
32046
32113
31990
31964
32108
32020
31982
32135
32071
31997
32129
32089
32020
32173
32069
32105
32157
32087
32133
32218
32103
32084
32214
32095
32197
32197
32111
32134
32255
32140
32111
32246
32115
32196
32177
32076
32235
32188
32134
32292
32163
32239
32234
32177
32263
32156
32302
32279
32188
32277
32333
32228
32254
32404
32327
32254
32438
32342
32343
32452
32333
32413
32466
32362
32433
32460
32333
32457
32445
32363
32519
32448
32354
32527
32487
32394
32536
32407
32500
32510
32423
32569
32439
32447
32575
32452
32462
32561
32445
32610
32605
32558
32732
32631
32583
32743
32591
32654
32638
32532
32661
32537
32692
32573
32583
32668
32542
32701
32643
32555
32759
32701
32614
32775
32609
32687
32716
32613
32748
32629
32673
32667
32554
32701
32609
32583
32719
32641
32567
32723
32598
32618
32735
32618
32583
32759
32639
32685
32758
32661
32810
32751
32655
32822
32679
32725
32753
32647
32788
32789
32663
32853
32715
32682
32826
32711
32702
32841
32703
32658
32807
32677
32653
32794
32666
32676
32815
32700
32725
32834
32701
32702
32841
32772
32660
32834
32680
32773
32846
32791
32731
32817
32927
32924
32814
32772
32910
32844
32743
32900
32771
32839
32931
32821
32814
32906
32966
32828
32861
32981
32839
32845
32893
33049
32967
32881
32968
32957
32860
32917
32946
32840
33044
32900
32877
33042
32964
32874
33006
32879
32847
33020
32871
32875
32928
32805
32943
32902
32863
33023
32891
32929
33000
32892
33028
33013
32937
32971
33091
32934
33085
33017
32919
33068
33050
32922
32967
33097
32958
33021
33092
32964
32977
33135
33045
32921
33091
33039
32898
32998
33076
32927
32927
32980
32841
32941
32991
32845
32837
32942
32810
32900
32975
32849
32812
32950
32942
32847
32951
32927
32824
32855
32975
32850
32804
32903
32927
32804
32726
32893
32775
32801
32935
32812
32813
32929
32812
32831
32968
32887
32815
32816
32983
32824
32823
32939
32815
32775
32950
32903
32812
32868
32955
32823
32839
33008
32958
32890
33047
32960
32844
33021
32868
32894
32972
32831
32853
32965
32927
32860
33001
33032
32900
32900
33026
32898
33031
33039
32923
33092
32947
33014
33061
32941
33057
32990
32859
32999
32869
32871
32986
32859
32863
32988
32885
33008
32965
32870
33076
32984
32897
33005
32858
32806
32975
32917
32800
32919
32924
32815
32912
32990
32861
32834
32986
32997
32906
32812
32810
32967
32918
32821
32950
32929
32807
32775
32911
32804
32772
32958
32921
32817
32971
32911
32817
32985
32840
32979
32893
32910
32990
32850
32934
32953
32852
32913
32908
32727
32885
32836
32758
32831
32917
32815
32807
32819
32954
32927
32812
32839
32996
32897
32891
33045
32878
32812
32947
32853
32735
32871
32832
32733
32894
32761
32759
32887
32745
32911
32799
32805
32986
32834
32969
32863
32909
32948
32836
33004
32872
32933
33039
32884
32879
32981
32879
33051
32941
33148
33023
33119
33088
33036
33133
33007
33156
33101
33014
32903
33032
32972
32875
33054
33022
32962
33095
33121
33029
33029
33126
32999
32981
33098
32940
32917
33051
32870
32873
32967
32829
32923
32890
32775
32955
32879
32790
32971
32846
32807
32999
32856
32860
32994
32863
32890
32944
32820
33006
32900
32967
32958
32929
33049
32932
33070
33015
32918
33128
33006
32991
33093
32965
33140
32994
33007
33082
32909
33031
32943
32833
32988
32825
32804
32971
32960
32847
32839
33015
32984
32874
32863
32996
32834
32980
32820
32847
32861
32783
32847
32730
32903
32775
32837
32820
32647
32709
32490
32350
32332
31991
31799
31638
31340
31293
31267
31180
31236
31247
31135
31319
31452
31637
32100
32292
32628
33068
33391
34055
34558
35006
35632
36044
36612
37367
37663
38612
39339
40103
40740
40869
40967
41107
40636
40071
39420
38418
37220
35999
34447
32800
31532
30518
29900
29926
30130
30727
31322
31795
32423
32829
32954
33303
33205
33303
33421
33349
33508
33659
33679
33930
33831
33903
33862
33638
33641
33429
33197
33224
32980
32927
32884
32735
32829
32591
32652
32602
32434
32533
32420
32283
32340
32119
32190
32042
31977
32124
31971
32006
32067
31969
32103
32070
31996
32106
32119
32012
32183
32151
32068
32244
32135
32095
32252
32120
32214
32218
32088
32223
32154
32083
32230
32210
32127
32231
32227
32143
32253
32135
32359
32250
32217
32316
32180
32332
32185
32351
32236
32209
32333
32225
32331
32332
32252
32446
32316
32295
32422
32295
32450
32397
32351
32507
32369
32396
32454
32377
32548
32399
32484
32456
32431
32522
32413
32554
32420
32589
32527
32458
32580
32479
32551
32562
32421
32541
32511
32380
32488
32377
32372
32498
32373
32413
32527
32408
32550
32433
32394
32543
32569
32436
32567
32470
32471
32551
32400
32553
32426
32357
32455
32303
32295
32433
32296
32361
32406
32309
32401
32474
32379
32519
32452
32391
32472
32375
32559
32412
32512
32335
32374
32315
32191
32327
32186
32317
32271
32192
32320
32209
32391
32261
32269
32419
32262
32354
32309
32221
32378
32237
32180
32315
32164
32279
32291
32200
32364
32255
32295
32391
32295
32439
32367
32367
32415
32317
32456
32303
32375
32327
32207
32376
32215
32293
32252
32158
32317
32193
32187
32356
32326
32319
32258
32263
32358
32247
32411
32304
32284
32347
32241
32263
32383
32237
32362
32262
32250
32413
32300
32331
32491
32385
32367
32511
32383
32456
32463
32327
32458
32371
32277
32348
32209
32339
32199
32207
32301
32174
32364
32280
32311
32439
32341
32409
32422
32323
32461
32318
32405
32375
32263
32401
32263
32247
32315
32196
32365
32260
32357
32364
32318
32529
32476
32383
32557
32421
32370
32527
32445
32342
32484
32406
32303
32454
32327
32326
32458
32335
32324
32443
32539
32486
32403
32547
32549
32422
32557
32447
32380
32534
32436
32359
32535
32450
32373
32549
32445
32465
32581
32466
32579
32575
32478
32619
32501
32498
32647
32500
32568
32567
32456
32614
32524
32447
32567
32567
32469
32613
32596
32551
32670
32766
32692
32618
32694
32817
32751
32645
32609
32775
32671
32561
32596
32701
32631
32591
32741
32775
32670
32681
32867
32819
32743
32713
32841
32863
32764
32700
32794
32835
32805
32703
32724
32852
32734
32679
32816
32853
32734
32743
32918
32798
32799
32962
32830
32790
32949
32903
32813
32837
32895
32748
32845
32835
32701
32899
32827
32730
32926
32887
32802
32981
32879
32866
32943
32845
32859
32958
32822
32853
32903
32740
32798
32836
32691
32686
32807
32703
32748
32857
32719
32877
32871
32761
32911
32871
32767
32833
32839
32708
32836
32774
32660
32678
32791
32724
32649
32717
32767
32679
32711
32863
32738
32785
32878
32727
32806
32759
32655
32608
32655
32722
32734
32734
32727
32692
32628
32611
32652
32801
32809
32813
32739
32694
32855
32715
32710
32870
32679
32753
32743
32613
32737
32686
32604
32764
32702
32641
32827
32758
32711
32703
32738
32872
32892
32834
32744
32701
32815
32775
32686
32839
32695
32764
32741
32628
32801
32749
32668
32860
32803
32740
32847
32854
32737
32914
32836
32708
32887
32723
32727
32837
32671
32655
32814
32695
32710
32839
32714
32775
32919
32790
32929
32868
32775
32946
32785
32756
32898
32791
32652
32795
32741
32658
32823
32690
32660
32809
32687
32678
32836
32733
32708
32890
32742
32775
32894
32775
32900
32803
32693
32887
32767
32712
32885
32813
32726
32892
32796
32785
32934
32793
32908
32903
32814
32918
32933
32788
32904
32820
32711
32875
32827
32708
32806
32863
32740
32845
32831
32732
32887
32871
32775
32963
32828
32833
32967
32820
32757
32888
32836
32719
32841
32847
32743
32926
32868
32769
32928
32865
32783
32967
32899
32823
32886
32951
32810
32924
32863
32759
32915
32740
32772
32803
32694
32763
32879
32821
32747
32761
32911
32800
32783
32955
32815
32748
32932
32788
32774
32947
32899
32770
32798
32903
32805
32773
32974
32943
32885
32988
33060
32937
32973
33095
33019
32895
33023
32924
32820
32823
32943
32775
32770
32901
32800
32847
32917
32811
32919
32925
32839
32837
32967
32818
32752
32922
32835
32728
32863
32810
32708
32772
32834
32711
32691
32723
32837
32838
32714
32706
32885
32810
32727
32801
32836
32769
32685
32809
32835
32711
32711
32844
32772
32687
32868
32775
32719
32877
32762
32751
32919
32796
32778
32932
32851
32751
32902
32919
32792
32775
32925
32826
32741
32879
32877
32740
32792
32871
32800
32830
32949
32948
32901
32839
32825
32971
32980
32847
33005
32895
32817
32966
32828
32775
32806
32575
32604
32328
32243
32071
31685
31551
31338
31125
31154
31182
31186
31028
30967
31020
31030
31292
31685
31877
32045
32509
33005
33487
34152
34868
35391
36018
36838
37618
38244
39053
40420
41307
42015
42651
42700
42788
42869
42215
41446
40806
39823
38388
37057
35438
33628
32240
31471
31182
31290
31785
32293
32737
33287
33472
33535
33747
33623
33663
33863
33791
33972
34104
34079
34303
34119
34047
34022
33749
33637
33536
33234
33065
33093
32903
32721
32743
32487
32551
32426
32279
32343
32126
32073
32076
31908
31866
31967
31822
31962
31844
31855
32007
31884
31860
31986
31887
31806
31919
31903
31825
31832
31967
31865
31901
32024
31903
31967
31963
31900
32021
31887
32055
31914
31951
31990
31869
31975
32006
31863
32023
31898
31972
32041
31933
32052
31952
31924
32071
31956
32077
32007
31989
32106
31956
32110
31967
32028
32075
32005
32177
32113
32028
32182
32085
32031
32207
32079
32143
32231
32155
32081
32225
32089
32123
32151
32047
32227
32130
32096
32263
32095
32252
32103
32239
32236
32204
32286
32136
32300
32258
32159
32327
32186
32207
32314
32175
32300
32301
32187
32232
32319
32212
32218
32359
32285
32198
32247
32334
32195
32166
32327
32233
32146
32295
32213
32105
32124
32244
32126
32085
32239
32087
32190
32209
32119
32116
32239
32099
32070
32186
32116
31998
32151
32046
31904
31991
31990
31935
31917
32030
31966
31870
31908
31998
31871
31831
31956
31969
31890
31869
31878
31975
31947
31856
31960
31972
31877
31853
32021
31934
31903
31903
31895
31967
32076
32103
32029
31967
32095
32118
31992
32132
32039
31982
32111
31991
32002
32111
32005
32143
32132
32040
32047
32165
32071
32047
32206
32087
32229
32205
32106
32279
32228
32172
32367
32239
32229
32431
32317
32285
32462
32391
32361
32527
32519
32416
32446
32599
32554
32484
32663
32633
32534
32535
32710
32706
32660
32564
32645
32743
32615
32636
32805
32733
32643
32811
32677
32674
32845
32767
32663
32837
32709
32726
32837
32697
32795
32842
32756
32774
32929
32787
32810
32895
32764
32738
32926
32775
32829
32884
32727
32692
32831
32671
32700
32807
32692
32693
32836
32820
32712
32770
32882
32807
32701
32742
32848
32785
32707
32839
32704
32652
32806
32748
32646
32770
32719
32641
32817
32682
32639
32793
32742
32643
32694
32805
32703
32612
32708
32791
32647
32695
32775
32681
32691
32817
32700
32656
32841
32700
32815
32785
32678
32863
32716
32740
32873
32742
32740
32916
32775
32775
32919
32836
32755
32902
32879
32796
32975
32918
32832
32942
32913
32857
33029
32868
32841
32946
32839
32903
32990
33027
33030
32980
32870
32856
32846
33020
32884
32874
33028
32868
32919
32991
32862
32871
33018
32956
32871
33021
33038
32927
32966
33055
32940
32983
32998
32879
32917
33028
32914
32916
33045
32899
32981
33101
33006
32924
33042
33063
32916
32962
33071
32926
32967
33083
32948
32969
33108
32982
32943
33099
32954
32924
33092
33015
32953
33051
33046
32926
32975
33085
32939
32957
33065
32950
32948
33118
33120
32989
32998
33159
33026
33021
33151
33007
33079
33115
32998
33029
33127
32992
33079
33106
32957
33005
33127
33003
33012
33143
32999
32959
33127
33070
32974
33101
33177
33027
33055
33159
33102
32981
33044
33119
33076
32958
32961
33089
32969
32973
33127
32991
32967
33134
33040
32967
33191
33045
33036
33148
33051
32948
33109
33047
32952
33124
32951
32961
33115
32983
33013
33089
32946
33007
33146
32990
33007
33095
32969
32939
33119
33002
32875
33046
32950
32855
33031
32980
32884
33069
32996
32908
33029
32870
32871
32999
32854
32980
32863
32820
32984
32929
32843
32999
32942
32887
33022
32992
32894
33007
33007
32932
32861
32881
32858
32903
32931
33010
33020
32980
32876
33053
32991
32900
33061
32999
32911
32934
33095
32919
32967
33045
32879
33022
32892
32994
32975
32879
33015
32989
32908
33061
32903
32950
33054
32900
32916
33026
32908
32852
33019
32876
32859
33015
32895
32855
33041
32982
32889
33015
33002
32871
32908
32999
32945
32836
32860
32996
32905
32828
32898
32990
32916
32827
32964
32957
32815
32806
32966
32871
32799
32952
32806
32826
32834
32710
32818
32855
32743
32713
32871
32775
32743
32891
32766
32737
32863
32919
32816
32823
32975
32900
32797
32868
32972
32888
32828
32914
33062
32954
32910
33082
33028
32896
32949
33038
32908
32971
33031
32895
32987
33006
32874
32823
32968
32925
32835
32982
32865
32932
32998
32855
32861
32991
32842
32775
32895
32889
32757
32802
32895
32762
32712
32843
32732
32684
32839
32687
32680
32828
32775
32687
32775
32831
32711
32682
32820
32775
32660
32839
32762
32684
32747
32750
32635
32806
32730
32663
32821
32710
32684
32843
32712
32645
32801
32669
32700
32743
32631
32798
32721
32647
32799
32710
32732
32844
32699
32692
32797
32665
32822
32696
32695
32820
32679
32862
32759
32797
32855
32737
32903
32757
32863
32775
32676
32807
32707
32543
32615
32335
32214
32097
31822
31549
31379
31042
30999
30841
30787
30871
30705
30687
30689
30703
31005
31255
31444
31832
32127
32547
33303
33847
34303
35173
35792
36626
37566
38332
39274
40622
41844
42590
43175
43665
43837
44002
43735
42959
42474
41774
40440
39146
37493
35369
33615
32380
31658
31735
31970
32316
32901
33095
33256
33454
33374
33575
33564
33569
33820
33784
33991
33934
33821
33911
33602
33526
33331
33013
33008
32719
32565
32498
32260
32287
32138
31991
31935
31931
31750
31679
31670
31605
31430
31444
31415
31329
31471
31447
31375
31493
31407
31391
31515
31433
31412
31516
31436
31395
31536
31495
31440
31567
31535
31465
31550
31614
31516
31510
31615
31527
31561
31623
31535
31561
31657
31591
31623
31703
31611
31679
31727
31677
31605
31727
31767
31766
31708
31661
31722
31780
31717
31686
31833
31770
31709
31719
31847
31828
31751
31855
31879
31812
31759
31865
31866
31793
31761
31835
31880
31839
31766
31839
31887
31782
31729
31871
31839
31772
31871
31911
31838
31815
31950
31851
31838
31962
31869
31815
31946
31909
31843
31831
31927
31964
31951
31877
31847
31939
31931
31871
31839
31957
31986
31975
31892
31897
32031
32021
31919
31930
32050
31976
31871
31956
31931
31813
31796
31932
31935
31927
31844
31806
31826
31932
31833
31751
31804
31892
31840
31780
31783
31892
31831
31725
31725
31796
31706
31626
31684
31751
31654
31620
31682
31768
31708
31631
31612
31704
31644
31566
31595
31719
31609
31553
31561
31651
31676
31600
31587
31735
31693
31623
31607
31762
31766
31686
31663
31728
31839
31785
31699
31773
31835
31751
31704
31846
31841
31738
31873
31842
31744
31919
31837
31751
31938
31890
31831
31995
31926
31859
31967
32031
31957
31997
32130
32124
32095
32166
32287
32207
32280
32415
32293
32382
32436
32341
32351
32513
32422
32439
32555
32459
32607
32565
32457
32631
32636
32563
32676
32634
32553
32703
32757
32647
32687
32833
32727
32702
32871
32898
32804
32841
32893
32775
32852
32906
32784
32941
32908
32811
32981
32838
32832
32929
32801
32956
32851
32865
32995
32855
32903
32908
32788
32844
32913
32804
33023
32903
32869
32999
32924
32839
33021
32870
32950
32943
32847
32917
32991
32837
32903
32903
32775
32943
32895
32815
32847
32934
32814
32822
32902
32804
32880
32932
32807
32839
32925
32821
32975
32914
32812
32947
32889
32802
32970
32911
32830
32988
32823
32925
32889
32770
32833
32875
32768
32928
32843
32838
32966
32822
32949
32881
32756
32889
32903
32789
32908
32898
32839
32943
32806
32924
32975
32838
32859
32966
32903
32929
33060
33015
32922
33039
32903
32959
33065
32927
32903
32959
33049
32927
32996
33069
32919
32938
33047
32903
32948
33043
32914
32871
32990
33023
32901
32839
33007
32871
32847
33011
32981
32876
32997
33004
32887
32916
33069
33009
32906
32895
33047
32998
32903
32943
33031
32884
32843
32983
32950
32863
32951
32999
32885
32935
33036
32887
32892
32960
32844
32974
32985
32903
32972
33062
32946
32869
32949
32967
32861
32903
33002
32963
32859
32839
33005
32919
32808
32934
32966
32869
32887
32980
32817
32797
32937
32868
32747
32940
32900
32806
32871
32941
32877
32807
32822
32964
32849
32791
32867
32967
32839
32774
32933
32871
32759
32877
32812
32703
32731
32791
32671
32823
32790
32690
32709
32805
32756
32677
32844
32740
32707
32871
32860
32775
32775
32887
32743
32686
32800
32858
32774
32739
32903
32860
32751
32775
32910
32856
32773
32925
32871
32796
32847
32949
32879
32793
32919
32903
32775
32809
32927
32847
32745
32910
32865
32771
32964
32899
32827
32983
32839
32871
32959
32823
32826
32954
32842
32768
32879
32903
32814
32881
32911
32804
32904
32921
32813
32931
32915
32804
32941
32921
32821
32943
32970
32854
32886
32976
32865
32955
32971
32847
32991
32895
32820
32959
32828
32999
32959
32854
33026
32980
32867
33012
32975
32837
32950
32924
32819
32971
32839
32860
32980
32839
32972
32958
32838
32965
32839
32815
32967
32839
32861
32877
32759
32900
32885
32806
32967
32917
32794
32974
32923
32828
32995
32838
32780
32941
32837
32769
32935
32806
32741
32870
32727
32679
32822
32714
32749
32817
32693
32718
32798
32677
32821
32696
32724
32812
32704
32757
32827
32716
32860
32719
32807
32859
32740
32895
32799
32826
32934
32839
32981
32990
32877
33031
32959
32954
33065
32946
33071
33073
33018
33164
33031
33043
33154
33159
33129
33047
33070
33095
32978
33156
33013
33117
33148
33039
33156
33215
33091
33218
33201
33119
33141
33204
33102
32964
33113
33009
32919
33061
32943
32941
33060
32948
32997
33103
32990
32935
33002
33083
33012
32919
32955
33042
32882
32842
32966
32898
32807
32899
32945
32855
32842
32996
32983
32871
32993
32980
32875
32913
33003
32949
32820
32767
32805
32903
32916
32834
32799
32942
32973
32899
32825
32895
32977
32932
32871
32838
33011
33023
32911
32873
32934
32999
32955
32887
32927
33023
32948
32853
32972
32934
32794
32842
32947
32986
32946
32865
32775
32796
32598
32343
32158
32002
31652
31446
31301
31084
30998
31109
31014
30962
30972
31028
31078
31279
31623
31852
32053
32518
33031
33478
34039
34780
35265
35975
36894
37457
38149
39363
40245
41607
42444
42670
43158
43527
43420
43092
42674
41623
41037
39886
38260
36678
34770
32991
31855
31399
31332
31659
32284
32714
33222
33511
33533
33681
33799
33743
33702
33918
33846
33911
34084
33951
33948
33865
33575
33577
33325
33074
33054
32775
32820
32647
32478
32483
32342
32167
32198
32059
31911
31939
31732
31629
31646
31506
31515
31599
31527
31607
31605
31558
31711
31617
31695
31733
31684
31816
31716
31767
31794
31711
31847
31792
31733
31870
31777
31733
31857
31748
31762
31914
31847
31871
32013
31920
31871
31935
31991
31891
31887
31996
31977
31903
31846
31926
31974
31863
31992
31959
31926
32039
31942
32066
32055
32015
32143
32085
32056
32165
32135
32031
32157
32119
32046
32155
32054
32164
32119
32039
32202
32135
32150
32271
32180
32195
32276
32183
32288
32319
32206
32270
32239
32146
32263
32197
32113
32250
32190
32148
32279
32197
32238
32320
32244
32367
32326
32262
32399
32362
32250
32380
32230
32242
32306
32185
32220
32244
32164
32271
32289
32175
32303
32308
32251
32355
32365
32256
32359
32306
32204
32278
32263
32163
32182
32247
32156
32044
32157
32117
32060
32088
32172
32085
32198
32150
32084
32218
32170
32095
32100
32155
32031
32114
32068
32007
32108
31991
31990
32039
32110
32105
32088
32067
32039
32045
32036
31993
32127
32095
32007
32090
32084
31979
32135
32036
32084
32095
32007
32135
32087
32039
32177
32125
32095
32244
32191
32127
32135
32234
32100
32160
32105
32029
32146
32131
32034
32169
32151
32085
32198
32123
32299
32228
32293
32420
32327
32346
32514
32423
32406
32543
32428
32481
32545
32452
32428
32565
32512
32426
32581
32492
32588
32660
32572
32703
32605
32564
32711
32583
32607
32631
32508
32654
32559
32623
32551
32529
32651
32544
32669
32739
32630
32807
32708
32711
32798
32709
32848
32871
32759
32881
32729
32794
32775
32675
32795
32745
32662
32831
32743
32702
32894
32896
32805
32902
32971
32870
32969
32913
32811
32951
32793
32871
32837
32717
32882
32737
32786
32839
32732
32895
32875
32810
32972
32871
32951
32959
32833
32989
32871
32821
32952
32911
32794
32933
32828
32815
32900
32775
32940
32807
32935
32937
32853
33031
32916
33028
32931
32948
32930
32866
32961
32815
32949
32796
32927
32847
32815
32948
32853
32919
33031
32903
33076
32959
33119
33020
33028
33081
32966
33101
32953
33072
32926
32978
33012
32864
33013
32903
32898
32996
32887
33065
32998
33015
33066
32990
33125
32967
33079
32916
33071
32901
32930
32894
32769
32911
32802
32887
32877
32799
32974
32885
32932
33081
32994
32980
33103
32954
32955
33047
32896
32871
32924
32815
32796
32908
32753
32859
32847
32741
32927
32855
32871
32999
32854
33021
32866
32934
32949
32793
32936
32828
32775
32903
32762
32833
32818
32748
32930
32868
32839
32991
32861
33006
32854
33028
32883
32975
32906
32871
32870
32827
32900
32772
32920
32809
32839
32903
32775
32812
32919
32814
32980
32931
32838
33005
32876
32948
32964
32836
32991
32887
32904
32935
32797
32934
32843
32775
32960
32940
32866
33038
32951
32947
33106
33003
32978
33085
32951
33001
32987
32885
32988
32868
32830
32969
32919
32823
32991
32889
32860
33013
32925
32917
33087
32980
32945
33095
33007
32903
33031
32858
32839
32943
32803
32790
32926
32806
32849
32948
32838
33051
32919
32903
32967
32842
33009
32928
32890
33053
32931
32871
32983
32845
32858
32943
32831
32853
32924
32836
33031
32884
33047
32942
33031
32982
32975
33049
32910
33071
32939
32903
33031
32877
32838
32973
32933
32854
33045
33004
32941
33121
33023
33013
33159
33084
33021
33183
33050
33029
33131
33015
32902
33018
32981
32896
33037
32979
32915
33076
32958
33126
33072
32983
33144
33031
33013
33113
32975
33007
33084
32946
33013
33015
32869
32998
32884
32869
32998
32916
32975
33129
33027
33082
33189
33044
32985
33102
33031
32905
33022
32911
32823
32948
32809
32839
32935
32823
32983
33020
32927
33109
33131
33051
33132
33135
33026
33031
33143
32970
32985
33055
33007
32883
32922
32996
32844
32795
32930
33015
32918
32981
33151
33025
33047
33163
33044
33054
33183
33025
33017
33054
32905
32962
33031
32931
32997
33111
32999
32998
33142
33057
33044
33215
33079
33059
33183
33046
33145
33070
32964
32903
33006
32972
32887
33005
32877
32997
32938
32826
32867
33022
32914
32860
33007
32993
32857
32959
32861
32751
32879
32796
32666
32659
32823
32751
32683
32860
32744
32756
32796
32707
32883
32751
32796
32924
32799
32847
32791
32713
32844
32685
32646
32738
32607
32604
32711
32591
32738
32615
32755
32783
32740
32903
32759
32854
32850
32756
32838
32706
32836
32710
32663
32814
32716
32665
32823
32710
32687
32858
32812
32758
32959
32836
32798
32955
32807
32775
32887
32734
32817
32773
32655
32775
32584
32516
32494
32263
32149
32070
31751
31679
31454
31302
31393
31327
31249
31362
31239
31215
31461
31620
31879
32287
32462
32836
33379
33799
34388
35055
35462
36206
36775
37350
38116
38652
39703
40606
40902
41479
41478
41239
41234
40604
39687
39029
37877
36394
34889
33437
31862
30692
30070
29831
30128
30591
31159
31840
32220
32762
32852
32994
33098
33005
33220
33159
33223
33409
33439
33743
33666
33726
33765
33559
33580
33404
33151
33188
32903
32887
32700
32541
32603
32361
32399
32319
32166
32252
32102
32076
32047
31896
31870
31961
31837
31840
31985
31939
31860
31918
31927
31786
31904
31815
31796
31847
31719
31843
31801
31758
31949
31868
31956
31999
31975
32156
32029
32095
32107
31982
32096
32020
31932
31999
32046
31956
31926
32052
32090
32023
32053
32183
32128
32121
32228
32092
32196
32187
32103
32029
32156
32061
32015
32118
32025
32036
32135
32095
32071
32254
32180
32164
32327
32316
32217
32355
32299
32231
32391
32263
32207
32333
32215
32173
32294
32247
32180
32270
32311
32245
32427
32342
32486
32422
32357
32516
32423
32391
32500
32380
32449
32441
32306
32382
32383
32254
32365
32359
32292
32383
32469
32391
32543
32455
32615
32570
32484
32625
32486
32469
32601
32499
32391
32437
32491
32357
32394
32487
32418
32453
32628
32612
32548
32592
32674
32551
32543
32678
32629
32519
32629
32431
32378
32483
32324
32453
32423
32320
32483
32540
32421
32466
32631
32534
32512
32697
32570
32549
32631
32509
32486
32556
32421
32404
32476
32359
32364
32527
32451
32431
32551
32450
32590
32555
32475
32615
32573
32490
32615
32543
32422
32455
32476
32340
32448
32342
32340
32447
32391
32324
32477
32340
32455
32431
32365
32530
32416
32414
32505
32371
32373
32511
32372
32413
32391
32249
32354
32363
32258
32412
32431
32341
32445
32515
32383
32359
32415
32277
32300
32334
32167
32202
32239
32111
32159
32193
32076
32124
32207
32134
32230
32338
32252
32238
32404
32257
32245
32403
32327
32253
32329
32310
32156
32236
32209
32129
32150
32287
32202
32247
32349
32242
32329
32407
32300
32300
32468
32405
32317
32378
32413
32270
32324
32349
32205
32172
32255
32326
32227
32398
32415
32335
32526
32412
32492
32591
32464
32467
32541
32401
32491
32381
32301
32425
32292
32312
32412
32321
32518
32463
32434
32508
32445
32572
32486
32652
32548
32550
32613
32460
32613
32444
32446
32518
32390
32446
32468
32373
32533
32564
32471
32663
32601
32624
32723
32643
32775
32646
32707
32719
32583
32643
32636
32495
32632
32518
32506
32631
32511
32726
32716
32643
32808
32642
32773
32743
32697
32791
32679
32833
32660
32671
32727
32588
32781
32652
32695
32821
32725
32755
32909
32798
32829
32980
32850
32951
32927
32878
32956
32807
32917
32900
32791
32943
32789
32774
32762
32950
32834
32845
33002
32887
32903
32999
32857
33030
32895
33036
32966
32845
33009
32894
32820
32960
32806
32848
32951
32783
32812
32964
32843
32892
33031
32915
32908
33105
33048
32959
32991
33021
32849
32846
32946
32845
32755
32932
32879
32820
32999
32989
32895
33020
33045
32958
33002
33150
32996
32957
33127
32965
32977
33078
32924
32938
33007
32835
32848
32977
32904
32847
32959
33013
32935
33101
33028
32962
33143
33136
33039
32929
33076
33005
32849
32903
32895
32758
32949
32772
32809
32942
32855
32967
32988
32912
33060
33047
32951
33103
32933
32910
33023
32857
32877
32932
32746
32818
32871
32760
32726
32897
32775
32866
32949
32859
32912
33059
32947
32828
32948
32795
32820
32885
32735
32824
32838
32714
32853
32807
32706
32871
32843
32786
33002
32964
32911
33058
32999
32890
33066
32852
32922
32954
32817
32823
32897
32737
32849
32871
32797
32981
32900
32847
33023
32898
32999
33031
32927
33092
32879
32911
33015
32835
32908
32935
32817
32894
32889
32783
32964
32841
32881
33054
32928
32990
33071
32961
33073
33018
32932
33031
32847
32821
32934
32775
32788
32826
32695
32757
32837
32759
32741
32927
32881
32799
32983
32962
32866
32919
33031
32863
32823
32951
32884
32775
32807
32884
32785
32695
32798
32839
32754
32809
32955
32804
32926
32934
32859
33009
32944
32838
32948
32935
32775
32932
32851
32775
32934
32823
32821
32977
32839
32992
32943
32935
33026
32943
33156
32988
32991
33117
32924
32884
32995
32806
32799
32968
32910
32815
32996
32941
32903
33118
33101
33008
33162
32980
33000
33095
32923
32858
32977
32787
32784
32878
32728
32810
32876
32775
32913
32783
32871
32902
32825
32996
32956
32865
33023
32903
32809
32967
32801
32751
32927
32833
32739
32907
32822
32736
32908
32748
32848
32883
32824
32999
32852
32913
32973
32879
33023
32938
32894
33031
32865
32929
32932
32823
32911
32870
32775
32972
32836
33001
32926
32845
33007
32935
32853
33015
32945
32828
32919
32851
32719
32858
32823
32682
32719
32867
32740
32766
32882
32739
32773
32662
32397
32364
32090
31767
31716
31463
31277
31359
31220
31300
31207
31205
31457
31617
31863
32159
32562
32847
33166
33688
34466
34903
35347
36015
36490
37085
37810
38293
39230
40295
40922
41164
41635
41591
41422
41113
40222
39371
38588
37525
35962
34246
32702
31516
30446
30008
30159
30476
30977
31732
32194
32592
33089
33187
33199
33399
33471
33415
33479
33607
33887
33895
33876
34047
33941
33735
33661
33661
33399
33206
33133
33077
32916
32764
32689
32698
32703
32519
32487
32596
32399
32412
32431
32320
32135
32056
31983
31975
32036
32045
31993
31940
32113
32006
31991
32155
32052
32097
32183
32079
32263
32181
32097
32245
32118
32231
32093
32048
32090
31980
32181
32036
32044
32202
32133
32068
32252
32127
32122
32292
32162
32170
32351
32199
32221
32329
32175
32162
32279
32117
32111
32286
32127
32140
32296
32177
32236
32367
32261
32361
32388
32286
32442
32274
32236
32322
32197
32380
32215
32165
32372
32297
32207
32390
32333
32303
32362
32471
32419
32361
32461
32519
32412
32471
32511
32381
32495
32489
32345
32402
32508
32365
32396
32529
32423
32437
32602
32477
32587
32614
32511
32667
32543
32460
32631
32455
32463
32519
32376
32526
32359
32483
32424
32327
32434
32447
32358
32492
32462
32379
32553
32390
32351
32453
32318
32316
32457
32277
32289
32399
32247
32236
32372
32250
32346
32360
32284
32452
32338
32356
32513
32451
32355
32514
32429
32318
32447
32334
32263
32430
32375
32247
32345
32388
32306
32371
32424
32319
32383
32511
32377
32399
32534
32375
32431
32463
32335
32469
32299
32263
32367
32247
32394
32343
32276
32430
32358
32383
32327
32383
32481
32344
32445
32413
32351
32430
32324
32426
32316
32469
32302
32431
32378
32291
32460
32326
32476
32296
32375
32461
32352
32538
32360
32425
32398
32318
32397
32335
32207
32251
32335
32199
32286
32335
32191
32319
32246
32204
32319
32181
32234
32300
32190
32378
32293
32210
32357
32199
32204
32297
32199
32359
32205
32239
32378
32260
32261
32447
32300
32431
32399
32363
32502
32366
32341
32477
32318
32326
32479
32327
32308
32452
32458
32356
32404
32566
32487
32426
32451
32629
32553
32457
32625
32519
32453
32590
32506
32367
32353
32477
32473
32359
32375
32506
32463
32404
32487
32550
32421
32449
32646
32564
32500
32514
32642
32580
32442
32436
32549
32489
32374
32417
32602
32519
32480
32610
32612
32514
32607
32711
32562
32615
32759
32572
32598
32700
32567
32683
32555
32534
32673
32519
32595
32658
32592
32764
32637
32630
32769
32643
32671
32786
32653
32798
32783
32681
32812
32780
32647
32720
32746
32672
32812
32702
32786
32924
32787
32781
32958
32845
32793
32985
32879
32799
32934
32802
32949
32771
32795
32899
32819
32743
32892
32828
32785
32916
32899
32844
33004
32831
32927
33014
32860
32859
32978
32905
32797
32948
32895
32815
32932
32871
32808
32964
32863
32799
32975
32811
32844
32999
32833
32828
32983
32807
32883
32878
32775
32908
32887
32743
32797
32853
32724
32858
32772
32739
32908
32743
32759
32911
32764
32787
32935
32764
32914
32828
32820
32810
32738
32889
32798
32726
32871
32702
32719
32817
32803
32711
32843
32821
32723
32863
32831
32750
32901
32767
32662
32791
32636
32712
32746
32612
32676
32740
32605
32648
32773
32654
32661
32823
32743
32604
32631
32820
32642
32627
32759
32682
32610
32724
32711
32583
32575
32742
32665
32567
32701
32684
32604
32764
32717
32639
32647
32757
32606
32591
32737
32559
32654
32700
32575
32647
32724
32582
32620
32742
32622
32765
32758
32628
32647
32783
32696
32647
32708
32789
32621
32640
32711
32764
32637
32615
32755
32727
32652
32701
32765
32695
32833
32798
32721
32870
32830
32711
32769
32796
32715
32849
32744
32700
32869
32759
32741
32878
32728
32883
32860
32796
32969
32861
32790
32958
32767
32804
32845
32746
32887
32788
32694
32834
32650
32700
32815
32677
32703
32831
32700
32735
32855
32845
32711
32754
32895
32807
32695
32678
32670
32632
32628
32797
32714
32633
32775
32683
32596
32655
32746
32641
32722
32870
32713
32740
32854
32663
32743
32767
32591
32607
32690
32650
32527
32554
32661
32477
32516
32697
32706
32604
32636
32764
32823
32764
32729
32772
32918
32883
32728
32731
32760
32826
32698
32685
32871
32821
32783
32919
33007
32879
33031
32979
32909
32975
32990
32863
32933
33016
32972
32874
32781
32791
32959
32802
32873
32996
32863
32879
33031
32828
32892
33005
32879
33046
32965
32931
33060
32879
33060
32951
32861
32991
32887
32789
32955
32785
32853
32943
32821
32945
32951
32916
33055
32919
33015
33016
32898
32982
32985
32836
32983
32887
32836
33011
32891
32815
32846
32958
32830
32836
32997
32847
32947
32975
32891
33051
32871
32878
32970
32852
32924
32887
32820
32970
32836
32949
32977
32849
32967
32964
32927
33055
32935
32895
33071
32900
32924
33050
32832
32983
32889
32827
32932
32726
32807
32503
32440
32392
32087
31973
31700
31407
31380
31196
31215
31279
31122
31121
31174
31137
31475
31695
31879
32286
32462
32921
33662
34204
34700
35456
36003
36639
37463
38121
38805
40032
41156
41791
42058
42474
42464
42260
42012
41101
40325
39572
38356
36922
35426
33662
32063
31131
30688
30693
31181
31569
32255
32722
32973
33332
33326
33303
33523
33375
33511
33689
33668
33927
33927
33898
33975
33691
33660
33589
33352
33364
33047
32896
32939
32664
32628
32599
32356
32418
32187
32167
32142
31967
32020
31844
31955
31750
31811
31814
31744
31878
31781
31719
31846
31738
31673
31813
31674
31685
31787
31694
31852
31751
31695
31844
31738
31841
31919
31810
31935
31870
31807
31909
31872
31751
31775
31887
31775
31796
31981
31948
31859
31879
32055
31924
31975
32126
32005
32042
32126
32006
32082
32132
31997
32127
32039
32025
32199
32135
32103
32231
32106
32201
32282
32253
32197
32244
32353
32321
32204
32295
32311
32222
32313
32290
32196
32274
32276
32223
32381
32319
32213
32255
32409
32237
32231
32412
32335
32310
32453
32263
32391
32290
32215
32367
32270
32213
32380
32231
32263
32343
32195
32300
32327
32231
32375
32312
32239
32375
32343
32226
32210
32362
32174
32150
32290
32177
32097
32243
32077
32062
32239
32143
32107
32241
32123
32058
32183
32170
32111
32036
32165
32062
31964
31943
32044
31911
31946
32013
31909
31950
32093
31945
32007
32007
31936
31935
32091
31922
31908
32088
31997
31933
32079
31932
31953
32062
31937
31983
32075
31970
32046
32154
32054
32182
32156
32094
32223
32157
32083
32263
32104
32159
32226
32116
32260
32094
32182
32221
32159
32325
32169
32183
32383
32311
32263
32433
32263
32318
32356
32252
32428
32335
32253
32430
32396
32346
32466
32423
32363
32469
32391
32567
32417
32492
32621
32478
32558
32588
32495
32674
32511
32575
32667
32469
32511
32594
32470
32631
32553
32498
32588
32597
32460
32554
32666
32508
32536
32668
32527
32519
32694
32579
32495
32636
32550
32562
32615
32536
32693
32617
32550
32672
32586
32543
32698
32534
32640
32655
32583
32745
32647
32581
32663
32678
32599
32732
32695
32579
32609
32759
32695
32614
32716
32751
32641
32783
32719
32671
32806
32729
32663
32789
32679
32567
32690
32657
32551
32550
32671
32509
32601
32686
32613
32559
32743
32641
32554
32716
32621
32573
32767
32647
32527
32530
32656
32492
32612
32618
32514
32668
32615
32557
32726
32560
32566
32660
32551
32696
32613
32552
32691
32519
32604
32639
32533
32638
32655
32598
32748
32683
32603
32773
32688
32673
32732
32828
32744
32684
32764
32806
32639
32678
32859
32755
32687
32879
32775
32749
32908
32745
32766
32928
32791
32798
32976
32890
32863
33044
32924
32837
32878
33031
32932
32848
32910
33012
32872
32934
33122
33049
32958
33068
33103
32943
33066
33155
33011
33131
33199
33086
33063
33092
33167
33076
33036
33188
33022
33116
33204
33041
33163
33182
33093
33245
33058
33094
33242
33150
33079
33214
33023
33079
33170
33007
33063
33175
32986
33057
33108
32967
33044
33159
32974
33039
33094
32918
33027
33102
32934
32956
33086
32904
32969
33061
32922
33028
32997
32924
33059
32882
32948
33045
32958
32922
33063
32922
33052
32954
32900
33027
32836
32914
32899
32823
32987
32792
32835
32996
32916
32887
33047
32934
32903
33077
32954
32891
33005
32919
32870
33039
32870
32905
32988
32807
32859
32983
32884
33031
32881
32926
32999
32891
33085
32945
32902
33071
32884
33004
33001
32932
33039
32845
33009
32835
32878
32957
32847
32958
32825
32922
32935
32828
32955
32972
32828
32853
32967
32812
32873
32931
32785
32967
32774
32802
32955
32831
32949
32903
32877
33013
32951
32884
33031
32951
32962
32991
32903
33076
32887
32908
32998
32837
32883
32961
32775
32801
32915
32796
32953
32774
32833
32942
32828
32946
32914
32824
32972
32830
32793
32963
32853
32818
32967
32885
32810
32959
32847
32804
32982
32863
32813
32945
32926
32831
32913
32986
32844
33021
32902
32838
32981
32953
32836
32999
32935
32823
32857
32998
32892
32852
32942
32788
