ECG
33893
33477
32739
32262
32511
32698
32794
32671
32730
33140
33415
33609
33849
33869
34294
34670
34673
34653
34334
33981
33793
33593
33283
33199
33054
32742
32229
31641
31337
31202
31319
31781
32079
32183
32465
32631
32589
32740
32908
32867
32754
32519
32291
32134
32081
32034
32004
32038
31795
31703
31709
31827
32115
32489
32791
33137
33323
33095
32903
32801
32451
32058
31482
30855
30585
30659
30734
30779
30677
30551
30818
31343
31751
31860
31780
31674
31916
32303
32423
32555
32766
32679
32263
31995
31708
31487
31302
31111
31204
31385
31436
31463
31445
31412
31477
31908
32256
32537
32863
33002
32798
32359
31889
31559
31291
31166
31087
30980
30937
30865
30925
31175
31361
31661
32076
32362
32246
31969
31897
32037
31991
31811
31760
31785
31708
31513
31386
31372
31360
31414
31562
31884
32185
32330
32071
32232
32527
32669
32425
32143
32133
32167
32229
32272
32285
32078
31805
31705
31748
31890
32074
32509
32591
32582
32647
32548
32474
32255
32225
32476
32687
32581
32468
32207
31926
31695
31593
31709
31958
32237
32519
32805
32847
32727
32709
32684
32964
33423
33633
33467
33238
32941
33022
33004
32876
32689
32311
32124
32239
32336
32621
32860
33066
33247
33338
33505
33631
33797
33766
33436
33093
32711
32556
32359
32391
32365
32109
32154
32404
32620
32897
32841
32805
33006
33021
33125
33060
32805
32638
32348
32157
32547
32941
32967
32823
32679
32804
33193
33335
33391
33260
33051
33133
33255
33341
33131
33025
33020
32943
32927
32604
32325
32164
32079
32163
32317
32335
32263
32165
32223
32328
32583
32929
32891
32922
32961
32925
32825
32621
32583
32734
32935
33061
33113
33028
32743
32295
31852
31860
32067
32198
32295
32377
32549
32847
33214
33565
33790
33958
33908
33558
33199
32887
32569
31978
31762
32359
32997
33131
33121
33061
33159
33199
33347
33415
33636
33831
33823
33565
33274
33303
33295
33129
33023
33087
33142
33088
33040
33181
33342
33607
33861
34015
34099
34246
34919
35004
34764
34633
34343
34104
33485
32759
32415
32548
32775
32986
32847
32609
32465
32463
32815
33215
33765
33876
34015
33940
33851
34123
34393
34143
33799
33362
33072
32788
32538
32486
32479
32420
32590
32985
33314
33603
33782
33679
33439
33223
33171
33203
32789
32151
31723
31596
31591
31649
31588
31301
31143
31081
31288
31588
31756
31987
32177
32381
32700
33084
33351
33355
33259
32975
32460
32009
31754
31406
31311
31405
31246
31062
31093
31200
31377
31684
32292
32802
33012
33020
32895
32847
32695
32271
31729
31420
31095
31059
30951
30967
31070
31133
31143
31156
31415
31711
31911
32055
32295
32619
33067
33520
33719
33658
33526
33215
32700
32093
31639
31396
31207
30856
30927
31391
31914
32233
32492
32804
32965
33031
33099
33119
33142
33079
32816
32570
32464
32316
32149
31974
31812
31844
31844
32077
32295
32359
32460
32495
32469
32431
32513
32715
32519
32124
31876
31624
31484
31543
31473
31396
31409
31637
32171
33215
34708
36078
37189
37780
37979
38481
38686
38983
39482
39564
39584
39751
39671
40212
40335
40743
41203
41561
42219
43036
43301
43487
43804
43620
43135
42735
41964
41025
40719
40053
39286
38881
38131
37511
36578
35782
35077
33959
32989
32340
32230
32534
32718
32596
32391
32129
31796
31482
31288
31255
31235
31171
31095
30934
30812
30613
30381
30585
30991
31043
30941
31100
31320
31454
31598
31665
31668
31594
31391
31143
30845
30277
29785
29703
30003
30386
30351
30340
30431
30694
30719
30756
30912
31020
31106
31303
31337
31351
31289
31068
30719
30570
30847
31193
31098
30945
30503
30134
30128
30437
30936
31335
31759
31999
32044
32158
32248
32284
32100
31759
31463
31515
31612
31471
31175
30894
30863
31206
31490
31703
31780
31820
32060
32207
32157
32050
32108
32164
32046
31795
31621
31643
31535
31620
31910
32019
31915
31863
31798
31807
31851
31936
32213
32468
32519
32545
32715
32932
33069
33121
33129
33166
33167
33031
32758
32491
32052
31804
31634
31646
31826
32040
32332
32611
32753
32738
32764
33023
33065
32913
32606
32324
32263
32374
32535
32759
32882
32908
32874
32863
32853
32604
32588
33012
33269
33447
33543
33564
33370
33023
32705
32598
32660
32754
32799
32696
32788
33097
33319
33426
33206
33071
33031
33049
33087
33238
33348
33414
33543
33575
33486
33322
33284
33271
33033
33095
33426
33457
33303
33378
33560
33452
33414
33484
33845
34055
34077
34165
34149
33967
33948
33995
33839
33667
33644
33615
33505
33366
33431
33713
33973
34129
34244
34383
34447
34585
34669
34711
34941
35012
34900
34543
34095
33829
33586
33300
33268
33306
33127
33143
33534
33823
34119
34350
34637
34783
34807
34851
34654
34162
33612
33191
32948
32962
32875
32669
32615
32743
32783
33111
33404
33735
34198
34492
34631
34546
34421
34199
33951
33383
32869
32687
32636
32619
32396
32199
32263
32225
32036
32236
32815
33198
33173
33039
33057
33151
33224
33176
32940
32483
32191
32203
32222
32125
32063
31980
31812
31885
31847
31891
31679
31854
32140
32296
32849
33286
33467
33215
32623
32207
32007
31785
31639
31740
31534
31239
31367
31516
31446
31374
31300
31253
31719
32132
32095
32221
32454
32573
32423
32206
31837
31367
31079
30926
30719
30801
30864
30862
31327
31799
31993
32213
32483
32555
32651
32967
32964
32735
32567
32090
31317
31055
31247
31442
31501
31492
31419
31430
31588
31618
31631
31849
31942
31964
32327
32657
32693
32609
32508
32194
31717
31463
31332
31559
31495
31367
31588
31671
31746
32159
32212
32140
32151
32263
32334
32693
33046
33045
33023
32682
32396
32276
32099
32110
31859
31668
31743
31791
31855
31883
32023
32457
32857
32967
33116
33319
33274
33103
32782
32610
32567
32678
32535
32263
32324
32203
32179
32339
32353
32376
32412
32357
32583
32766
32948
33163
33341
33423
33097
32884
32991
32684
32607
32295
32291
32202
32372
32337
32668
32644
32789
33127
33273
33553
33503
33577
33320
33287
33020
32559
32059
31674
31820
32118
32367
32431
32446
32511
32367
32647
32945
32991
33215
33111
33239
33121
33204
33127
32960
32908
32572
32293
31807
31382
31134
31236
31540
31701
31833
31965
31891
32092
32455
32934
33660
33934
33943
33828
33321
32998
32663
32420
32113
31694
31740
32103
32241
32285
32325
32462
32742
32809
32850
33253
33268
33230
33452
33457
33309
33045
32773
32735
32631
32391
32194
31943
31961
32343
32500
32636
32956
33031
33021
33149
33255
33367
33407
33300
33023
32900
32527
32235
32260
32189
31998
32199
32383
32703
33220
33287
33421
33543
33599
33884
34036
34131
34527
34541
34350
34093
33686
33212
33071
32884
32653
32629
32699
32907
33039
33203
33469
33740
34135
34094
34180
34234
34511
34223
34023
33909
33600
33383
33114
33031
33052
32898
32683
32743
32713
32717
32807
32859
33099
33231
33397
33588
33717
33727
33353
33077
32903
32583
32284
32079
31783
31546
31488
31431
31703
31625
31423
31575
32031
32384
32710
32899
32855
32759
32799
32606
32299
31972
31966
31896
31815
31708
31864
32032
32187
32236
32271
32398
32257
32261
32356
32550
32630
32627
32502
32282
32101
31781
31729
31711
31638
31609
31797
31813
31652
31647
31647
31714
31996
32190
32494
32620
32527
32447
32237
32124
31952
31812
31987
31971
31855
31489
31252
31159
30932
31020
31584
31989
32482
32743
32860
33079
32980
32920
32791
32328
31942
31542
31229
31270
31263
31445
31643
31907
32029
32167
32402
32669
32989
32903
32653
32616
32519
32593
32423
32581
32722
32695
32456
32337
32148
31923
31852
31729
31765
32156
32098
32226
32256
32479
32599
32775
32873
32979
32983
32892
33031
33091
33524
34094
34646
35164
35639
36103
36754
37127
37479
38051
38432
39028
39618
39951
40724
41532
42188
42386
42456
42311
42335
42522
42644
42537
42111
41719
41143
40799
40324
39830
39799
39527
39578
39073
38724
38789
38383
37582
36185
34831
33855
32976
32487
32078
31783
31375
31174
31234
31142
31207
30968
30983
30977
31053
31415
31495
31332
30890
30442
30322
30231
30339
30209
30492
30593
30748
30860
31100
31300
31239
31340
31152
31297
31164
31319
31190
31250
30950
30902
30575
30525
30132
30111
30109
30409
30249
30194
29951
30233
30497
30723
31164
31255
31485
31468
31512
31653
31719
31746
31583
31236
31111
30935
30833
30951
30732
30874
30961
30823
30945
31109
31184
31199
31281
31709
31990
32231
32186
31910
31921
31684
31588
31239
31039
31246
31115
31518
31597
31361
31532
31707
32153
32772
32904
32754
32818
32595
32398
31905
31375
31217
30764
30700
30983
31175
31527
31655
32054
32361
32476
32849
33067
33122
32972
32765
32727
32607
32317
32343
32191
31956
31982
31745
31634
31680
31784
32148
32185
32274
32292
32495
32432
32292
32436
32263
32303
32199
31765
31644
31456
31556
31838
32021
32539
32494
32563
32534
32263
32047
32135
32613
32818
33177
33571
33423
33455
33221
33245
33131
33004
33015
32628
32479
32239
32191
32747
32698
32703
32694
32880
33142
33442
33766
33927
33951
33540
33551
33630
33878
33604
33422
32998
33058
32807
32887
32702
32754
32515
32862
33251
33773
33780
34151
34271
34591
34516
34490
34198
33863
33247
33163
33111
33221
33037
32831
32540
32228
32416
32595
33260
33703
34122
34525
34917
34662
34612
34357
34031
33956
33709
33799
33558
33660
33415
33444
33118
33247
33054
33165
33303
33738
34036
34032
34182
34193
34302
34183
33863
33740
33195
33063
32561
32518
32545
32797
32838
33082
33119
33409
33529
33551
33835
33589
33415
32918
32683
32599
32436
32568
32439
31940
31782
31476
31527
31210
31335
31561
31847
32102
31999
32171
32122
32042
32202
31827
31914
31759
32058
32001
32211
32142
32045
32027
31727
31476
31348
31351
31743
31654
31901
31933
32085
32305
32610
32879
33077
33031
32429
32244
31703
31580
31199
31058
30934
31141
31567
31540
31526
31540
31504
31623
31569
31958
32249
32555
32495
32424
32027
31725
31621
31375
31446
31108
31046
30929
31012
31187
31407
31972
32287
32365
32725
32718
32831
32535
32303
32308
31987
31898
31810
31644
31525
31211
31008
31063
30892
30839
31302
31653
32037
32864
33350
33420
33412
32951
32718
32588
32426
32268
31796
31742
31481
31040
31063
30982
31014
31268
31600
32413
32725
33278
33414
33068
33068
32901
33223
33300
33159
33063
32612
32089
32031
31844
31676
31951
32151
32503
32260
32487
32748
33047
32804
32452
32060
32134
32355
32335
32478
32251
32308
32075
32083
32159
32357
32455
32341
32562
32432
32559
32535
32508
32783
32678
32921
33031
32935
32917
32663
32678
32359
32208
31943
32220
32472
32329
32564
32348
32348
32218
32665
32695
32943
32844
33102
33121
33249
33314
32868
32901
33058
33252
32877
32353
31927
31513
31639
31340
31548
31692
31758
32141
32253
32527
32848
33254
33589
33491
33412
33026
32644
32495
32179
32164
31986
31900
31653
31998
31880
32116
32370
33014
33157
33460
33303
33135
33148
33131
33004
32510
32494
32687
32551
32586
32235
32255
32273
32423
32439
32223
32519
32634
33023
33054
33381
33436
33351
33494
33543
33497
32913
32772
32559
32732
32541
32663
32458
32545
32292
32437
32177
32170
31869
32263
32480
32662
32834
32868
33129
33049
33240
33082
33148
32742
32577
32541
32772
32988
32769
33019
32842
32959
33031
33647
33828
33967
33605
33308
33074
32551
32561
32241
32272
32166
32415
32390
32727
32824
33160
33647
33690
33927
33985
34258
33927
34038
34111
34279
34410
34205
34037
33652
33455
33234
32983
33166
33176
33311
33167
33233
33207
33002
33285
33327
33653
33525
33303
33637
33558
33463
33129
32775
32829
32857
33132
33111
33107
33071
32892
33253
33376
33592
33712
33927
34018
33667
33685
33333
33287
33227
33028
32495
32386
32070
31860
31703
31807
32111
31900
31852
31444
31884
32564
32967
33442
33282
33082
32531
32223
31589
31459
31197
31127
31036
30707
30919
31017
30962
31507
31989
32660
32919
33001
33223
32861
32700
32624
32232
32012
31734
32094
32207
31915
31977
31944
31875
32052
32071
31943
32082
31988
32234
32429
32169
32207
32019
32111
32191
32044
31988
31737
32158
32495
32263
32367
32189
32260
32274
32287
32439
32279
32530
32343
32324
32271
32458
32537
32527
32444
32406
32333
32466
32767
32559
32462
32493
32125
32146
32058
32513
32789
33118
33487
33718
33477
33470
33178
33086
32972
32587
32338
32023
31354
31101
30831
30869
31327
31684
32187
32579
32828
33436
33647
34214
34762
35086
35527
35687
36159
36760
37191
38177
38918
39167
39094
39046
39257
39527
40108
40745
41337
42020
43044
43540
44039
44462
44164
44039
43092
42428
41855
41380
40901
40455
39853
39311
39039
38548
38097
37660
37175
36596
35668
34879
34153
33590
33121
32276
31897
31460
31033
30798
30623
30853
30604
30554
30590
30632
31061
31199
31226
31189
31007
30744
30791
30658
30693
30536
30606
30437
30660
30831
30788
30842
30853
30742
30918
31009
30855
31020
30959
31228
31399
31335
31545
31375
31292
31062
30714
30608
30327
30046
30573
30629
30776
30702
30687
30815
30599
30637
30628
31071
31097
31197
31356
31202
31249
30972
31047
31007
31282
31476
31263
31173
30902
30788
30533
30460
30599
30490
30787
31076
31527
31535
31423
31319
31239
31950
32378
32598
32084
31885
31730
31636
31404
31044
31060
30859
31087
31013
30984
31367
31911
32550
32572
32702
32326
32106
31846
31841
32033
32001
31836
31211
30969
30808
31167
31177
31642
32076
32263
32807
33039
33532
33557
33455
33255
32780
32625
32399
31952
31620
31188
31102
30964
31080
31511
31559
31833
32061
32053
32263
32191
32354
32179
31944
31970
32182
32460
32228
32148
31867
31533
31647
31367
31542
31581
31927
31977
32091
32050
32135
32742
33031
33447
33374
33459
33092
33049
32619
32458
32059
31842
31900
31617
31919
31904
32279
32436
32965
33461
33655
33873
33671
33752
33414
33319
33350
33500
33455
33126
33218
32948
32685
32286
32216
32386
32630
33001
32721
32670
32731
33134
33431
33328
33629
33616
33861
33255
32961
32892
33167
33030
33105
32798
32613
32637
32737
33000
32844
33014
33113
33202
33653
33822
33990
33857
33557
33619
33439
33621
33325
33220
33055
32931
33190
33223
33501
33285
33262
33029
33063
33076
33463
33745
33893
34110
33857
33785
33631
33097
32959
32775
32911
32839
32636
32845
32607
32787
32758
32768
33125
33191
33423
33308
33454
33276
32839
32423
32087
32118
31892
31687
31919
31578
31595
31446
31626
31799
31958
32389
32412
32592
32446
31918
32477
33023
33272
32999
32903
32581
32498
32188
31832
31805
31361
31435
31348
31562
31633
31527
31796
31948
32417
32731
33046
33069
33104
33094
32938
33079
32975
33107
32886
32887
32565
32241
31783
31437
31590
31772
31993
31988
32470
32663
32789
32452
32481
32451
32251
32465
32640
32660
32642
32171
32129
31991
31855
32170
32122
32231
31998
32257
32341
32669
32638
32800
32495
32206
32007
31803
31710
31701
31626
31726
31869
31895
32020
32200
32567
32557
32869
32702
33017
33088
33282
33193
33406
33471
33116
32933
32615
32142
31918
31348
31440
31668
31710
32117
32503
33193
33479
33221
32967
32924
32775
32848
32709
32874
32799
32482
32764
32790
32901
32538
32367
32508
32255
32457
32516
32796
32893
32827
32983
32758
32824
32959
33311
33431
33415
33519
33453
33183
32799
32785
32666
32711
32642
32317
32574
32647
33121
33303
33585
33652
33422
33614
33172
32970
32671
32209
32037
31766
31972
32151
32692
32990
32921
33061
32794
32959
33197
33275
33685
33653
33604
33284
33119
33215
32815
32660
32255
32156
32070
32381
32354
32241
32247
32407
32555
32670
32760
32604
32911
33062
33268
33103
32796
33003
32930
32943
32689
32709
32820
32617
32702
32559
32276
32542
32828
33067
33093
32876
32879
32844
33296
33417
33159
33231
32869
32788
32655
32429
32588
32599
32594
32703
32462
32432
32156
32424
32735
33537
33930
33885
34176
33998
33719
33240
32637
32607
32388
32322
32260
32170
32186
32207
32628
32732
33340
33511
33636
33468
33170
33236
33305
33287
33135
32985
33333
33039
32796
32615
32508
32707
32620
32470
32588
32372
32695
32905
33079
33073
32829
33125
33463
33519
33500
33190
33166
32962
32722
32856
32591
32579
32559
32495
32543
32638
32947
33343
33341
33567
33368
33327
33281
33252
33382
33191
33211
33120
33028
32831
32315
32215
32314
32390
32871
33124
33685
34146
34302
34695
34637
34741
34692
34755
34622
34406
34114
33578
33503
33287
33045
33116
32914
32966
33140
33013
33305
33420
33484
34071
34279
34741
34761
34887
34676
34255
33796
33201
33022
32675
32828
32583
32560
32163
32159
32221
32444
32788
32911
33278
33445
33893
33807
33862
33727
33633
33319
33092
32583
32503
32125
32022
31993
31718
31741
31765
31925
31978
31908
32501
32657
32813
32775
32562
32609
32290
32182
31832
31586
31269
31060
31173
31076
31438
31558
31851
32071
32271
32396
32354
32575
32592
32913
32729
32879
32813
32849
32300
31940
31887
31558
31506
31164
31154
31524
31884
32354
32391
32474
32927
33235
33452
33377
33031
32775
32439
32486
32421
32263
32175
31760
31959
31677
31856
31724
32060
32177
31970
32294
32715
32796
32840
32772
32993
32959
32942
32759
32314
32239
32062
32220
32156
31675
31665
31696
31636
31967
32290
32436
32753
32668
33089
33095
33340
33143
33094
32879
32305
31885
31283
31500
31957
32198
32575
32789
32991
33303
33638
34065
34927
35511
36053
36431
36634
36983
37285
37381
37919
38309
38614
38991
39402
39988
40422
40778
41456
42334
43028
43511
43932
44293
44504
44151
44013
42927
41980
41205
40465
39838
39215
38775
38316
37957
37503
37039
36467
35463
34508
33530
33158
32884
32671
32678
32570
32345
31903
31169
31303
31354
30991
31023
30788
30471
30236
29827
30039
30178
30471
30717
30775
31208
31415
31359
31481
31233
30803
30527
30122
29751
29601
29521
29738
30099
30211
30476
30266
30575
30471
30319
30598
30851
31279
31390
31321
31399
31199
31294
31342
31043
30911
30537
30572
30391
30335
30115
30196
30444
30623
30875
30820
31212
31338
31717
31594
31367
30953
30919
31026
31140
31561
31492
31671
31455
31596
31519
31740
31863
31978
32199
32149
32292
32028
32123
31735
31703
31228
31263
31012
30812
30480
30680
30541
30487
30308
30612
30798
30810
31068
31199
31821
31989
32302
32373
32597
32409
32071
32006
31711
31615
31589
31273
31412
31465
31445
31421
31180
31428
31403
31631
31991
32573
32973
33089
33107
32839
32533
32295
32034
31808
31578
31751
31726
31702
31930
32092
32215
32579
32551
32871
32916
33200
33230
33350
33249
33120
33121
32708
32377
31909
31316
31235
31008
31253
31508
31831
32223
32385
32526
32223
32445
32537
32988
33263
33375
33223
32773
32527
31948
31844
31728
31962
31764
31922
31732
32111
32502
32743
32643
32668
32855
33085
33335
33400
33575
33342
33433
33196
33156
32756
32742
32612
32848
32729
32706
32516
32511
32743
32888
33295
33403
33958
34036
34279
34020
34013
33811
33834
33556
33303
32840
32674
32263
32423
32380
32652
32635
33133
33449
33799
33991
34173
34274
34215
34006
33590
33428
32885
32897
32650
32741
32345
32417
32430
32723
32751
32953
32847
32986
33463
33584
33711
33762
34048
33988
34031
33692
33669
33467
33125
33037
32913
32809
32657
32361
32390
32667
32919
33231
33283
33351
33274
33477
33271
33223
32978
32862
32506
32494
32252
32395
32083
31839
31749
31794
31818
32102
32460
32527
32974
32965
33140
33061
33195
33114
33124
33156
32920
32676
32229
31896
31437
31237
31552
31411
31236
31359
31256
31628
31788
31607
32065
32775
32560
32059
32067
32373
32137
32156
32034
32010
32028
31847
31693
31745
31773
31879
31805
32007
32329
32291
32614
32751
32896
32816
32213
31974
31726
31995
32224
32504
32383
32346
32377
32085
32043
31786
32028
32039
31928
32310
32518
32463
32636
32263
32225
31989
32028
31698
31737
31388
31335
31305
31714
31794
32072
32063
31936
32199
32620
32767
33135
33044
33170
32887
32492
32341
31917
31748
31706
31942
32058
32372
32087
32143
32052
32224
31950
32249
32220
32401
32426
32623
32596
32782
32559
32801
32933
32741
32501
32262
32308
32335
32205
32282
32175
31838
31971
32063
32551
32711
33018
33476
33447
33509
33187
32754
32934
32626
32423
32143
31883
31977
32012
32196
32254
31776
31956
32135
32277
32697
32743
32797
32701
32682
32894
33087
33455
33425
33135
33092
32847
32620
32447
32276
32149
32463
32325
32367
32263
32204
32935
33208
33276
33428
33534
33788
33424
32998
33031
33061
32734
32737
32575
32562
32574
32602
32805
32826
32990
32865
33151
33215
33047
32968
32526
32410
32367
32017
32086
32055
32263
32346
32412
32518
32343
32469
32271
32497
32830
33228
33574
33581
33797
33577
33198
32724
32737
32454
32422
32300
31942
32017
31872
32177
32339
32416
32400
32340
32673
32991
33287
33302
33663
33445
33500
33102
32901
32391
32193
31767
31745
31734
31791
31844
32047
32132
32380
32615
32801
33054
33044
33684
34031
34239
33941
33661
33193
33139
33003
32727
32585
32473
32519
32141
32166
32062
32335
32250
32765
32915
33021
33036
33115
33211
33287
32804
32695
32354
32624
32591
32652
32562
32631
32801
33127
33552
33242
33015
32955
33340
33199
33425
33637
33660
33451
32915
32703
32383
32630
32455
32436
32316
32251
32702
32772
33045
33085
33183
33221
33287
33745
33845
33751
33965
33903
33659
33796
33553
33287
32917
32962
33068
32981
33247
33462
34062
34165
34196
34134
34163
34286
34401
34557
34741
34471
34268
33986
33484
33287
33054
32808
32723
32553
32780
32940
33093
33188
32982
33263
33348
33893
33847
34087
33991
34221
34193
34152
33995
33757
33972
33892
33901
33558
33463
33188
33199
33256
33367
33525
33542
33588
33428
33444
33374
33360
33351
33034
32860
32774
32150
32055
31971
32042
31946
31964
32189
32167
32377
32486
32815
32804
32930
32927
33073
33064
32810
32774
32383
32284
31916
31801
31701
31668
31772
31545
31912
32190
32388
32465
32489
32864
32682
32868
32733
32684
32203
31809
31735
31298
31239
31141
31527
31815
31646
31707
31541
31848
32023
32132
32809
33311
33118
33110
32945
33028
32788
32390
32231
31719
31773
31827
31676
32044
32101
32355
32446
32279
32311
32365
32837
32942
33405
33772
33570
33464
33325
32856
32868
32647
32260
32239
32238
32159
32195
32180
32126
32204
32107
32246
32564
32724
33319
33602
33382
33085
32935
32620
32429
32629
32446
32578
32889
33198
33799
34486
34936
35305
35860
36341
37156
37858
38104
38855
39287
39642
39967
40244
40148
39871
40012
40395
40662
40877
41273
41567
41925
42343
42755
42871
42597
42231
41697
41105
40732
40341
40042
39592
38592
37764
37157
36071
35063
34123
33062
32474
32178
31876
31875
31937
31858
32197
32465
32328
32455
32382
31811
31525
31165
31161
31086
30660
30468
30385
30231
30055
30062
30127
30298
30884
31019
31353
31399
31418
31525
31181
31289
31186
30892
30967
30843
30604
30545
30345
29988
29959
30200
30590
30757
30905
31075
31395
31578
31143
31314
31406
31071
30926
30620
30422
30591
30745
30777
30724
30660
30460
30249
30388
30615
30770
31079
31252
31145
31431
31717
31905
31983
31736
31484
31125
30772
30865
30726
30932
31035
30861
31224
31265
31348
31557
31645
31555
31694
31950
32145
32231
31935
31871
31790
31394
31411
31223
31124
31424
31436
31305
31810
31991
31662
31748
31932
31972
32095
32347
32433
32290
32408
32396
32246
32026
31776
31965
32070
32053
32209
31855
31873
31994
31828
31942
31804
32069
32301
32199
32309
32329
32033
32133
32143
32094
32228
32199
32341
32500
32369
32309
32230
32333
32378
32231
32400
32407
31907
31829
31983
32031
32167
32041
31855
32308
32218
31967
32041
32317
32125
31845
32142
32205
31965
32095
32140
32492
33041
33157
33383
33395
33486
33254
32680
32644
32748
32635
32644
32559
32792
32935
32975
33120
33359
33513
33439
33341
33620
33604
33766
33792
33782
33671
33189
32726
32825
32830
32513
32799
32821
33063
33125
32975
33097
33108
33452
33975
34180
34390
34406
34251
34068
33693
33668
33610
33407
33346
33191
32878
32868
32676
32937
32896
32794
33189
33453
34173
34581
34658
34600
34384
34492
34311
33789
33543
33260
33098
33183
33142
33183
33282
33127
33379
33494
33510
33751
33692
33876
34025
34055
34069
33757
33380
33106
32617
32416
32369
32177
32130
32148
32318
32763
32827
32967
33142
33287
33804
33812
33438
33448
33443
32936
32759
32702
32365
32263
31820
31380
31837
31942
31807
32068
31941
32111
32143
32247
32599
32738
33183
33303
33007
32885
32576
32483
31911
31773
31658
31705
31693
31607
31865
31825
32113
32103
32297
32399
32457
32863
32775
32348
32625
32807
32708
32506
32122
31840
31684
31335
31614
31639
31751
31884
31956
32101
32437
32443
32681
32789
32699
32797
32820
32670
32588
32203
31799
31646
31519
31434
31598
31556
31816
32225
32239
32654
33124
33403
33731
33902
33853
33809
33260
33180
33336
32948
32659
32316
32087
32152
32151
32383
32466
32317
32492
32340
32684
32843
33220
33472
33412
33236
32856
32948
32827
32795
32454
32334
32148
32076
31888
32063
32183
32388
32578
32417
32683
32615
32756
32524
32766
33262
33511
33575
33444
33237
32991
32775
32351
32359
31975
32077
31975
32223
32241
32535
32526
32810
32825
33187
33351
33494
33242
33427
33156
33085
32671
32492
32173
32276
32084
32166
31959
32015
31772
31955
32599
33055
33726
33929
34120
33846
33892
33469
33060
32557
32369
32198
32113
32134
32205
32463
32263
32367
32253
32585
32587
32903
33119
33468
33524
33828
33668
33287
32967
32628
32685
32545
32391
32157
31725
32018
32102
32285
32167
32143
32598
32507
32874
32948
32974
33077
33245
33671
33609
33594
33287
33320
32869
31974
31466
31103
31369
31693
31583
31959
32334
32828
32775
33138
33533
33668
33868
33447
33137
32911
32375
32151
32166
32188
32282
32367
32220
32278
32174
32023
32239
32367
33155
33333
33621
33269
33228
32932
32877
32520
32133
32276
31975
32035
31816
31918
31870
31772
32055
32556
32690
32543
32820
32967
33553
33607
33687
33229
33231
32903
32504
32404
32462
32461
32425
32400
32327
32373
32493
32650
32834
32841
32617
33099
33452
33493
33534
33265
33282
32911
32615
32306
32188
32259
32172
32334
32226
32357
32354
32279
32663
32891
33489
34096
34350
34604
34426
34135
33711
33367
32915
32870
32871
32535
32551
32710
32705
33047
33204
33541
33799
33711
33940
34121
34275
34431
34220
33830
33892
33730
33513
33336
32839
32702
32728
33093
33228
33279
33743
33921
34415
34711
35105
35237
35133
35202
35134
35020
34709
34165
33876
33525
33095
33131
33125
32853
32820
32861
32862
33177
33342
33380
33940
34091
34303
34426
34270
34236
34047
33621
33428
33018
32787
32744
32492
32684
32708
32456
32645
32797
32953
33087
33268
33750
33905
33927
33980
33700
33159
32567
32201
32284
32423
32184
32196
32021
31554
31710
31992
32044
32159
32151
32302
32343
32437
32519
32634
32648
32676
32756
32472
32058
31927
31716
31553
31494
31431
31695
31947
32082
32495
32852
32913
33287
33492
33521
33625
33420
33069
32901
32545
32118
31936
31673
31517
31585
31513
31441
31616
31898
32124
32431
32700
32869
33292
33582
33584
33437
33005
32573
32532
32411
32075
31993
31783
31727
31690
31356
31300
31684
31829
31946
32317
32408
32707
32796
32743
32737
32604
32437
32212
31911
31623
31458
31527
31655
31580
31711
31577
31671
31839
31836
32369
32751
33131
33432
33362
33591
34034
34119
34311
34380
34685
35181
35610
35932
36415
36789
37447
38111
38631
39375
39924
40319
40708
41100
41477
41933
42040
42232
42564
42467
42557
42285
42359
42132
41540
40852
40124
39423
39163
39295
39502
39293
38799
38199
37719
36868
35585
34447
33279
32255
31671
30939
30995
30972
30700
30783
30698
30531
30853
31007
31418
31471
31692
31854
31853
31929
31910
31719
31523
31031
30839
30577
30284
30295
30371
30452
30631
30722
31036
31100
31172
31489
31556
31459
31599
31698
31592
31524
31202
31083
30919
30615
30450
30414
30083
30292
30535
30567
30945
31031
31107
31522
31545
31274
31367
31583
31623
31822
31631
31261
30999
30486
30483
30492
30774
31078
31020
31340
31319
31345
31795
31825
31604
31747
31650
31335
31359
31285
31228
31239
31142
31191
31231
31304
31553
31443
31510
31757
32063
32174
32285
32239
32412
32373
32197
32205
31805
31591
31069
31002
31049
31087
31326
31327
31289
31524
31509
31895
32119
32043
32434
32710
32638
32655
32421
32180
32286
32125
31676
31676
31560
31489
31658
31543
31536
31549
31343
31611
31943
32245
32589
32543
32718
32646
32445
32569
32636
32552
32581
32308
32413
32028
32018
31863
31591
31825
32068
32036
32127
32052
32102
32663
32798
33060
32963
32738
32572
32558
32658
32510
32236
32188
32135
32145
32193
32091
32424
32559
32839
32982
33443
33564
33743
33730
33598
33594
33308
32856
32793
32663
32735
32806
32703
32503
32609
32543
32697
32775
32953
33349
33583
34047
34319
34177
34069
33788
33579
33733
33739
33320
33093
33160
33159
33039
33068
33155
33374
33493
33503
33799
33822
33901
34115
34129
34027
34055
33834
33449
33194
32970
33241
33365
33446
33177
33192
33583
33753
34052
34116
34088
34235
34341
34181
34011
34028
33719
33375
33244
32841
32471
32551
32395
32217
32473
32500
32539
32992
33303
33352
33591
33598
33233
33219
33350
33553
33387
33370
33207
32973
32903
32473
31916
31807
31669
31659
31841
31735
32086
32345
32311
32422
32412
32297
32538
32384
32447
32296
32070
32132
31923
31959
31922
31629
31667
31533
31391
31424
31460
31886
32169
32230
32406
32260
31986
32055
31764
31670
31463
31222
31390
31454
31213
31239
31124
30740
30999
31168
31105
31391
31575
31938
32156
32152
32271
32204
32052
31955
31428
31459
31508
31407
31613
31468
31199
31201
31223
31055
31392
31791
31879
32261
32406
32422
32718
32731
32917
32832
32442
32292
32230
32257
31890
31588
31946
31982
32167
32047
32345
32536
32782
33108
32966
32953
32973
32716
32582
32365
32199
32162
32123
32303
32319
32263
32559
32553
32356
32384
32294
32532
32525
32782
32903
33124
33172
33060
33142
32971
33025
32585
32563
32501
32676
32590
32604
32457
32468
32601
32673
32629
32749
32837
32796
33004
32903
33091
32756
32580
32405
32519
32492
32415
32474
32583
32639
32806
32775
32828
32692
32500
32400
32603
32806
32675
32852
32735
32833
32791
32839
32846
32837
32462
32206
32263
32154
32332
32330
32681
32572
32232
32418
32861
33095
33429
33389
33639
33403
33244
33115
33113
32893
32591
32678
32468
32461
32332
32431
32533
32326
32309
32468
32676
33063
33223
33172
33255
33061
33020
32692
32347
32354
32191
32281
32294
32200
32093
32191
32166
32557
32919
33101
33350
33309
33263
33471
33420
33248
33246
32733
32519
32295
32039
32210
32245
32065
32380
32613
32652
32550
32335
32546
32728
32818
33044
32939
32935
32956
32698
32454
32075
31807
32071
32424
32294
32212
32094
32031
32332
32515
32413
32613
32668
32596
32846
32903
32788
32836
32638
32361
31895
31547
31749
31863
31789
32047
32151
32237
32600
32894
33051
33396
33605
33653
33754
33735
33518
33319
32902
32480
32467
32309
32295
31788
31879
32037
32249
32773
32942
33192
33172
33524
33711
33912
33808
33688
33746
33591
33543
33414
33180
33126
32860
32447
32541
32399
32215
32381
32257
32031
32303
32792
33902
34333
34575
34623
34663
34442
34159
34052
33569
33180
32730
32527
32715
32538
32741
32836
32925
33095
33255
33987
34400
34695
34769
34567
34430
34148
33860
33694
33229
32807
32559
32401
32462
32407
32624
32920
32852
32983
33076
33225
33643
33820
33751
33703
33335
33006
33054
32901
33068
32842
32681
32396
32278
32394
32328
32427
32476
32278
32316
32379
32259
32424
32447
32470
32727
32679
32305
31993
31703
31319
31231
31103
31045
31142
31059
31445
31809
31955
32165
32293
32618
32687
32591
32620
32611
32628
32452
32173
32084
31815
31659
31535
31513
31719
31531
31559
31516
31703
31859
32239
32639
32754
32934
32799
32633
32682
32455
32439
32231
32151
31848
31444
31375
31039
31204
31213
31623
31790
31749
32106
32401
32775
32786
33003
32885
32631
32628
32391
32263
32020
31847
31916
31764
31732
31887
31861
31978
31977
32170
32282
32434
32428
32369
32643
32691
32798
32900
32892
32687
32478
32518
32314
32335
32231
32316
32390
32556
32851
32835
33361
33918
34588
35270
35942
36296
36627
36855
36966
37150
37359
37537
37673
38007
38261
38649
39430
39779
40308
40852
41679
42607
43013
43156
42965
42808
42465
42079
41279
40092
39228
38061
37209
36783
36579
36412
36134
35566
34917
34265
33505
32971
32866
32766
32813
32551
32298
31913
31188
30901
30661
30590
30790
30453
30391
30119
29926
30076
30313
30542
31060
31260
31367
31607
31598
31634
31391
30865
30721
30492
30690
30755
30676
30703
30449
30639
30855
30783
30832
30932
31250
31213
31359
31720
31661
31458
31535
31423
31105
31172
31153
31062
30919
30765
30762
30546
30463
30784
31028
31295
31685
31789
31743
31879
31854
31844
31627
31271
31172
30845
31010
31100
31027
31124
30980
31142
31252
31287
31623
31761
32028
32123
32291
32375
32237
32319
32143
31919
31791
31471
31510
31399
31236
31156
30977
31022
31359
31410
31548
31484
31702
32070
32410
32765
32731
32828
32775
32422
32335
32103
32070
31858
31860
31796
31835
31715
31786
31721
31878
32089
31961
31943
32173
32479
32719
32804
33125
33132
33094
32820
32742
32634
32493
32391
32344
32015
32071
32121
32249
32346
32433
32551
32573
32897
33127
33126
33236
33088
33054
32758
32469
32323
32332
32542
32428
32532
32442
32408
32354
32535
32613
32845
32951
33205
33396
33580
33526
33455
33207
33123
33134
32980
32946
32639
32757
32639
32477
32247
32343
32830
32898
33338
33820
34170
34149
34209
34367
34225
33893
33543
33396
33203
33231
33219
33297
33295
33349
33506
33694
33894
33958
34090
34020
33796
33564
33526
33687
34095
34216
34190
34149
33893
33626
33471
33567
33633
33607
33799
33941
33953
34127
34388
34538
34695
34742
34602
34271
33924
33671
33487
33233
33115
33052
32983
33183
33199
33228
33070
33063
33240
33415
33738
33863
33809
33734
33647
33415
33007
32991
33017
32839
32574
32175
32047
32159
32069
31959
31970
32149
32663
32903
33172
33367
33420
33348
33113
32927
32565
32297
31879
31719
31575
31470
31335
31375
31663
31823
32070
32051
31890
31903
31949
32231
32311
32116
32135
32166
32162
31789
31394
31367
31343
31426
31173
31100
30909
30842
30759
30888
31250
31367
31700
31835
31950
32195
32231
32221
31900
31535
31436
31174
31034
30764
30692
30508
30449
30855
31022
31418
31682
32178
32475
32557
32463
32428
32511
32386
32332
32083
31647
31596
31419
31367
31303
31364
31306
31312
31584
31713
31832
31751
32031
32198
32285
32263
32327
32319
32288
32464
32360
32290
32080
31967
31836
31847
32063
31943
31887
31767
31899
32012
32115
32362
32759
33099
33068
32867
32582
32247
32309
32242
32156
31923
31928
32186
32089
32196
32295
32487
32774
32917
32943
32953
32949
32916
33105
33268
33238
32988
32559
32014
31688
31532
31655
31774
32014
32084
32151
32375
32461
32510
32700
33083
33217
33127
33140
33071
32724
32237
31913
31751
31596
31854
31923
31975
32101
32199
32171
32363
32612
33012
33353
33592
33627
33646
33863
33671
33327
32868
32544
32340
32149
32066
32023
32048
31895
31751
31993
32175
32318
32650
33068
33351
33415
33503
33478
33257
33100
32967
32852
32645
32472
32193
31919
31536
31254
31238
31446
31634
31767
32133
32414
32587
32868
33023
33146
33209
33132
32996
32821
32672
32628
32691
32719
32743
32774
32847
32903
32998
32977
32945
32884
32831
32735
32735
32686
32538
32295
32319
32177
32023
31935
31948
32046
32077
32204
32359
32470
32553
32893
33195
33347
33305
33516
33413
33297
33056
32954
32770
32687
32549
32303
32202
32175
32159
32054
32111
32067
31996
32494
33009
33079
33047
33233
33511
33632
33799
33317
33116
33103
33124
32927
32684
32498
32341
32452
32558
32591
32739
33089
32988
33301
33444
33799
33815
34143
34011
34111
33965
33868
33777
33543
33390
33207
33077
33097
32710
32431
32690
33050
33334
33231
33255
33583
33924
34321
34335
34204
33830
33799
33935
33724
33390
33378
33287
32974
33041
33103
33252
33478
33561
33676
33617
33538
33543
33318
33243
33159
32740
32612
32447
32183
32137
32263
32396
32180
31967
31841
31708
31524
31640
31835
32022
32238
32445
32916
33043
32802
32624
32324
32013
31748
31285
30815
30983
31580
31987
32427
32514
32519
32837
33000
33327
33188
33213
32997
32729
32573
32519
32463
32071
31742
31465
31250
31265
31514
31926
31941
31879
32128
32365
32519
32423
32740
33057
33059
33287
33111
32782
32383
32135
31829
31643
31365
31325
31302
31239
31292
31415
31695
32013
32290
32693
33018
33388
33553
33199
32966
32487
32077
32157
32229
32214
32132
32096
32179
32425
32543
32676
32751
32751
32727
32540
32382
32519
32586
32857
32892
32893
32879
32546
32335
32371
32453
32580
32367
32175
32246
32383
32799
33084
33639
33874
34368
34599
34845
35183
35335
35596
35861
36189
36325
36582
36959
36988
36995
37156
37476
37789
38436
38919
39751
40309
40850
41428
41775
42155
42144
41991
42046
41416
41087
40546
39909
39224
38503
38182
37804
37679
37596
37319
37230
36998
36473
35763
35022
34205
33591
33075
32553
31639
30932
30903
31146
31215
31171
31223
30746
30581
30861
31124
31349
31593
31871
31679
31660
31727
31342
31181
30911
30671
30539
30572
30612
30515
30467
30398
30435
30455
30809
31038
31239
31278
31569
31652
31833
31619
31333
31233
30835
30702
30553
30239
30165
30378
30697
30723
31044
31271
31536
31743
32039
31853
31636
31501
31345
31224
30991
30873
30687
30829
30703
30629
30642
30705
30660
30975
31222
31164
31123
31181
31451
31426
31479
31492
31679
31551
31612
31668
31445
31354
30935
30670
30778
31239
31551
31635
31695
31588
31591
31599
31919
31847
32023
32247
32255
32167
31964
32036
31623
31332
31180
31239
31639
31831
31963
31743
31778
31965
32030
32218
32397
32735
32668
32613
32639
32427
32358
32127
31812
31660
31409
31367
31124
31231
31441
31503
31779
31988
32156
32501
32455
32416
32548
32487
32541
32534
32532
32324
32005
31900
31772
31794
31631
31591
31596
31653
31884
31903
32036
32361
32425
32713
32773
32737
32990
33004
33001
32879
32759
32367
32229
32063
31879
31664
31255
31407
31643
31653
31955
32231
32444
32445
32585
32935
32980
33117
33145
33113
33087
32991
32673
32327
32153
32344
32539
32717
32775
32949
33287
33495
33767
33927
33837
33572
33383
33479
33381
33313
33162
32963
32946
32897
32853
32815
32676
32647
32742
32694
32614
32696
33030
33383
33564
33455
33374
33476
33618
33807
33849
33743
33543
33458
33476
33399
33231
33222
33155
33027
33089
33202
33439
33671
33831
33759
33726
33584
33356
33238
33114
32903
32711
32668
32567
32404
32343
32303
32428
32494
32633
32709
32848
33007
33251
33516
33539
33412
33093
32673
32333
31976
31817
32021
32163
32252
32063
31922
31933
32130
32186
32413
32615
32713
32706
32843
33086
33183
33156
32981
32701
32300
31970
31751
31588
31531
31383
31328
31305
31411
31476
31817
32407
32665
32775
32793
32885
32861
32844
32707
32540
32405
32209
32201
32191
32182
31950
31858
31906
32023
32016
32103
32260
32415
32531
32754
32889
32813
32623
32452
32196
31991
31799
31541
31570
31660
31921
31999
31877
31849
31886
32087
32287
32247
32109
32162
32287
32205
32197
32263
32263
32274
32392
32468
32472
32522
32515
32415
32308
32295
32449
32676
32913
33094
33093
32959
32663
32244
31907
31868
31938
31935
31899
31927
32101
32253
32258
32205
32215
32367
32465
32579
32837
33117
33325
33287
33438
33575
33310
33159
32879
32582
32263
31927
31962
32124
32319
32435
32455
32509
32606
32901
33051
33285
33403
33507
33356
33012
32837
32794
32604
32157
31857
31861
31953
32093
32204
32279
32412
32477
32773
32941
33034
33004
33077
33126
33017
32925
32711
32499
32388
32341
32403
32350
32349
32205
32193
32450
32588
32762
32993
33416
33591
33621
33508
33204
33225
33135
32965
32684
32417
32164
32082
32123
32150
32319
32388
32535
32802
32759
32746
32811
32915
33348
33582
33500
33318
33158
33255
33199
32986
32855
32531
32263
32247
32100
32015
32060
32023
32017
32194
32423
32797
33007
32982
33067
33023
32994
32766
32583
32602
32607
32833
32775
32483
32316
32172
32375
32709
32879
32998
33029
33044
33090
33141
33386
33516
33460
33340
32973
32559
32304
32015
31607
31532
31711
31949
32182
32491
32826
33136
33260
33531
33717
33474
33547
33581
33574
33511
33095
32765
32385
32087
31751
31446
31495
31708
32279
33039
33391
33573
33564
33677
33632
33663
33860
33783
33632
33631
33508
33429
33155
33133
33418
33236
33194
32876
32940
33055
33259
33647
33746
33767
33983
34118
34360
34629
35031
34791
34703
34383
34161
33943
33463
33271
33235
33148
33129
33061
33420
33619
33818
34123
34212
34486
34494
34302
34210
34001
33726
33656
33634
33348
33207
33031
32732
32703
32586
32703
32898
33321
33479
33886
33911
33867
33783
33909
34040
33701
33479
32987
32652
32623
32519
32527
32197
32063
31879
31743
31773
31786
31989
32143
32163
32373
32279
32314
32189
32018
31844
31507
31341
31309
31445
31506
31855
32135
32058
32005
31899
32116
32586
32955
33362
33487
33780
33831
33159
32847
32281
31647
31445
31917
32461
32505
32608
32375
32335
32207
32071
32248
32206
32326
32475
32615
32583
32541
32358
31949
32037
32419
32847
33083
32892
32955
32671
32509
32190
32060
32255
32373
32525
32583
32526
32770
33029
32959
32833
32394
32257
32123
31947
31717
31599
31582
31709
31956
31898
32065
32548
32703
32646
32655
32768
32894
33001
32938
32711
32572
32519
32285
31751
31331
31307
31612
31962
32510
32947
33678
34422
35107
36119
36676
37431
37611
37967
37775
38113
38149
38575
38612
39040
39144
38940
39287
39550
40174
40597
41735
42108
42987
43144
43447
43350
43190
42655
42020
41263
40383
39651
39331
38872
38494
37863
37716
37160
36647
36085
35079
34183
33142
32399
32242
32051
32055
31783
31801
31542
31403
31231
31122
30935
30532
30663
30519
30480
30319
30510
30845
30964
31261
31284
31533
31350
31450
31676
31786
31855
31551
31292
30954
30776
30671
30502
30540
30414
30351
30367
30520
30687
30895
31215
31091
30948
31091
31281
31301
31072
30939
30813
30812
30697
30572
30687
30935
31159
31321
31605
31668
31674
31733
31729
31980
32091
32381
32364
32485
32719
32663
32355
31838
31686
31482
31298
31132
31341
31415
31591
31703
31855
31747
32094
32001
31994
32012
32341
32558
32548
32498
32375
32167
32303
32506
32511
32255
32235
32188
32433
32294
32335
32423
32502
32647
32988
33143
33351
33073
32887
32614
32823
32519
32519
32277
32173
31782
31715
31380
31486
31484
31759
31698
31863
31937
32385
32591
32943
33083
33053
33298
33167
33093
32551
32447
32063
32091
31951
32037
31652
31609
31275
31205
31250
31837
32372
32214
32251
32110
32279
31973
31726
31476
31650
31630
31964
31905
32036
31725
31852
32007
32345
32403
32388
32229
32389
32500
32918
33017
33495
33215
33169
32885
32850
32407
32551
32391
32551
32535
32615
32517
32957
33140
33527
33471
33516
33478
33229
33396
33383
33405
32884
32884
32671
32379
31975
31699
31804
31802
31961
32260
32441
33084
33478
33671
33737
33954
34395
34189
34261
33968
33815
33414
33380
33025
32795
32495
32466
32513
32383
32711
32732
33145
33268
33615
33950
34383
34949
34647
34580
33966
33639
33088
32799
32850
32801
33149
32988
33015
32735
32737
32543
32599
32795
32901
32899
33341
33575
33974
34067
34086
34010
33462
33414
33167
32910
32740
32467
32519
32103
32124
32478
33045
33582
33604
33781
33527
33636
33525
33543
33287
33170
32590
32367
32062
31783
31566
31390
31508
31719
31965
31781
31857
31815
32063
32035
31969
32125
32149
32435
32299
32391
32078
31867
31484
31775
31893
31863
32036
31934
31943
31674
31791
31871
32135
32103
32327
32263
32239
32059
32211
32150
32291
32016
31820
31689
32015
32118
32049
32196
32245
32167
32241
32007
32486
33091
33253
33492
33431
33313
32609
32543
32304
32358
32039
31999
31746
31729
31491
31781
31854
32259
32253
32565
32474
32566
32353
32551
32763
32839
32809
32993
32436
32028
31540
31629
31634
31551
31593
31707
32069
31993
32253
32319
32852
33151
33287
33266
33244
33345
33120
32890
32823
32503
32508
32092
32031
31980
31958
32158
32114
32183
31936
32289
32635
33341
33479
33511
33594
33423
33492
33063
32643
32439
32218
32363
32296
32007
31873
31671
31842
31805
32269
32425
32765
33063
33137
33351
33287
33345
33159
33031
32487
32407
32055
32079
31917
32016
32023
32228
32355
32485
32703
32685
32979
33020
33281
33159
33151
33005
32895
32683
32790
32540
32334
31842
31698
31659
31655
31797
31800
31975
31921
32291
32359
32799
32895
33019
32947
32923
33044
32685
32596
32241
31975
31639
31539
31377
31463
31679
31871
32263
32219
32582
32804
33244
33652
33527
33428
33188
33052
32495
32372
32290
32271
31839
31604
31311
31437
31471
31552
31937
32204
32639
32800
32891
32748
32885
32827
32994
32557
32277
32140
32043
32140
31908
32050
31910
31751
31639
31526
31831
32089
32749
32991
33236
33270
33492
33164
33100
32482
32331
32022
32295
32431
32711
32426
32299
32177
32598
32775
33095
32994
32911
33111
33243
33695
33727
33871
33532
33421
32927
32664
32258
32308
32348
32580
32335
32442
32135
32147
31961
32313
32495
32935
32991
33471
33391
33637
33447
33273
33170
33141
33159
33123
32895
32927
32829
33170
33015
33252
33129
33551
33512
33957
33874
34053
34076
34223
33868
33628
33326
33463
33207
33266
32963
33125
32828
32807
32577
32735
32596
32598
32604
32604
32495
32809
33559
33799
33837
34167
34130
34087
33820
33732
33239
33135
32595
32591
32306
32423
32284
32529
32541
33016
33039
33354
33217
33156
32663
32194
31978
31593
31525
31356
31459
31151
31116
31115
31767
32116
32239
31972
31910
32051
32069
32364
32318
32588
32756
32852
32495
32006
32214
31918
31413
31189
31579
31661
31768
31446
31492
31372
31691
31838
32407
32498
32879
32996
33311
32831
32757
32557
32382
32078
31777
31921
31813
31996
32037
32115
32061
32103
32268
32039
32047
32276
32148
32493
32590
32876
32908
32808
32388
32357
32351
32466
32375
32340
32159
32263
32250
32539
32584
32636
32657
33001
33167
33363
33247
33108
32579
32223
31956
31865
31788
31751
31478
31389
31462
31591
31573
31708
31953
32399
32710
33213
33332
33799
34215
34457
34836
34919
35460
35620
35957
36118
36549
37153
37676
38151
38740
39311
39743
40228
40141
40832
41012
41830
42148
42973
43121
43505
43339
43468
42852
42741
41985
41356
40885
39881
39531
39063
38867
38860
38487
38343
37832
37285
36411
35274
34311
33329
32813
31875
31239
30657
30447
30225
30400
30540
30828
30745
30974
30927
30909
30622
30599
30776
30717
30625
30167
29983
29652
29835
30085
30415
30579
30398
30431
30356
30620
30908
30888
31147
31117
31364
31135
31271
30999
30831
30540
30523
30334
30354
30330
30381
30634
30588
30647
30571
30759
31040
31133
31623
31975
32247
32308
32079
31783
31751
31524
31082
30748
30412
30571
30510
30471
30555
30647
31033
31239
31257
31309
31270
31586
31638
31862
32021
32247
32393
32142
32144
31587
31619
31335
31233
30948
30737
30791
30764
31095
31028
31335
31688
32080
32318
32175
32438
32263
32245
32046
32027
31884
31843
31743
31434
31330
31030
31165
31055
31290
31409
31817
32220
32135
32457
32375
32557
32304
32406
32207
32061
31871
31567
31695
31469
31436
31253
31300
31516
31724
32108
32212
32343
32495
32673
33351
33148
33063
32679
32466
32063
31917
31850
31468
31644
31733
31748
31726
31807
32343
32299
32634
32857
33287
33277
33287
33007
32871
32567
32445
32232
31809
31865
31679
31657
31311
31153
31364
31468
32057
32306
32577
32622
32725
33274
33532
33815
33528
33415
33080
32550
32475
32341
32186
32044
32133
31954
31914
31846
32287
32559
33111
33208
33628
33482
33919
34027
34091
33748
33590
33432
33220
33186
32902
33116
33188
33287
33303
33114
33295
33342
33715
33457
33758
33796
34236
34438
34431
34532
34133
34167
33735
33645
33455
33276
33095
32821
33158
33098
33141
33281
33074
33327
33615
33627
33975
34109
34050
34087
33868
33847
33596
33423
33222
32991
32633
32620
32484
32437
32327
32446
32617
32986
32927
33494
33597
33780
33711
33711
33412
33028
32535
32284
32127
32042
32150
32191
32303
32007
31855
31987
32277
32838
33141
33338
33415
33447
33457
32887
32826
32513
32214
31909
31786
31727
31565
31615
31460
31687
31677
31885
32351
32421
32947
32950
33185
33159
33287
33157
32927
32556
32280
31773
31787
31516
31804
31815
32049
32180
32543
32703
32487
32625
32775
33143
33047
33196
32737
32553
32363
32154
31725
31423
31271
31564
31878
31879
32159
32313
32463
33030
33227
33191
33366
33507
33703
33743
33412
33261
32897
32859
32559
32519
32469
32086
32055
31831
31723
31663
31334
31700
32019
32478
32695
32730
33063
32996
33252
33075
33236
33119
33095
32764
32606
32538
32703
32511
32496
32463
32475
32551
32721
32947
33015
33308
33443
33588
33620
33453
33523
33175
32800
32657
32439
32559
32447
32272
32326
32195
32442
32639
33082
32957
33038
32988
32897
32983
32847
32852
32855
32756
32742
32342
32237
32110
32119
32018
31967
31847
32087
32660
32954
33307
33278
33769
33879
33869
33909
33822
33711
33397
33039
32807
32599
32318
32150
32207
32207
32292
32223
32565
33062
33367
33755
33719
33897
33628
33525
33100
32953
32647
32342
32151
32203
32163
32358
32138
32390
32210
32421
32428
32487
32428
32583
32817
32927
33122
33334
33529
33639
33388
32884
32795
32478
32295
32223
31980
32066
32169
32007
32225
32165
32743
32733
32974
33239
33324
33295
33050
32548
32151
32101
31855
32119
32102
32173
32255
32519
32428
32314
32383
32675
32861
32976
32991
33183
33283
33559
33604
33422
33240
33179
32962
32685
32710
32788
33012
33111
33227
33233
32841
32591
32685
33052
33415
33788
33791
33598
33695
33707
33675
33356
33094
32803
32725
32622
32764
33051
33237
33227
33439
33558
33759
33815
33787
33535
33431
33484
33431
33722
33681
33324
32965
32821
32676
32623
32742
32897
32903
32830
33001
33007
33287
33862
34372
34551
34526
34428
34223
33768
33381
32973
32854
32549
32572
32163
32103
32063
32087
31980
32030
32188
32420
32654
32945
33021
32748
32319
32205
32214
31985
31817
31671
31774
31843
31915
31991
31783
31274
30613
30399
30913
31374
31724
31751
31621
31686
31659
31831
31828
31886
32121
31804
31703
31681
31687
31548
31412
31330
31337
31349
31374
31433
31944
32535
32707
32876
32799
32690
32587
31957
31413
31337
31198
31082
30870
30964
31179
31429
31574
32165
32420
32356
32431
32612
32850
32807
32742
32455
32220
31935
31607
31239
31015
30942
31087
31211
31207
31416
31796
32015
32135
32270
32398
32532
32645
32791
33011
32959
32641
32549
32458
32294
32161
32093
32090
31820
31554
31459
31346
31547
31572
31820
32199
32473
32973
33299
33507
33677
33910
33807
33559
33484
33590
33767
34127
34344
34727
35340
36006
36714
37164
37554
38135
38700
39253
39544
40067
40396
40655
40774
41371
41884
42519
42835
42588
42428
42295
42075
42151
42023
41875
41542
40871
40121
39943
39566
39060
38791
38255
37458
36316
35079
33863
32885
32174
31548
31330
31458
31524
31149
30960
31406
31744
32071
32127
32101
31801
31495
31037
30711
30253
30109
29883
29843
29849
30042
29999
29621
29261
29444
29933
30148
30279
30531
30918
30927
30953
30918
30781
30727
30594
30350
30135
30015
30154
30452
30503
30478
30468
30558
30758
31346
31646
31705
31640
31646
31714
31620
31327
30871
30410
30083
29900
30055
30318
30356
30297
30479
30475
30598
30606
30634
31018
31293
31572
31905
32125
31968
31623
31326
30968
30660
30422
30422
30537
30154
30055
30151
30348
30543
30881
31351
31776
32316
32501
32502
32233
32015
31928
31658
31439
31334
31524
31593
31364
31401
31610
31559
31287
31397
31567
31454
31513
31741
31977
32039
32071
31911
31835
31492
31159
31027
30940
31125
31365
31221
31104
31377
31628
31476
31684
31888
32341
32965
33333
33356
33185
33055
32663
32231
31741
31684
31493
31350
31141
30669
30676
31101
31204
31541
32038
32519
32794
33063
33407
33630
33369
33157
32784
32834
32529
32527
32179
32199
32098
32223
32197
32159
32211
32647
32821
33287
33333
33489
33412
33583
33131
33018
32639
32372
32506
32667
32623
32263
32399
32625
32740
32784
32775
33220
33287
33556
33387
33532
33433
33697
33880
33607
33404
33110
33059
33097
33335
33511
33351
33391
33311
33708
33830
33986
34263
34007
34014
34008
34039
34113
34093
34132
33716
33527
33249
32929
32668
32429
32664
32616
32908
33099
33102
33280
33287
33799
33839
34309
34519
34654
34468
34220
34143
33658
33300
32718
32550
32550
32488
32490
32346
32406
32143
32212
32318
32543
32922
33295
33799
33839
33631
33538
33191
32827
32489
32148
31967
31514
31356
31151
31078
31071
30956
31424
32135
32944
33316
33748
33575
33510
33217
32956
32533
32565
31973
31611
31431
31301
31278
31259
31361
31340
31639
31820
32102
32247
32203
32388
32117
32017
31860
31697
31433
30978
30923
30889
31024
31113
30989
31059
31039
31182
31164
31519
31684
31863
32030
32018
32028
31765
31605
31383
31028
30820
30647
30815
30709
30584
30698
30738
31057
31359
31652
31668
31712
31823
31855
31692
31892
31883
31805
31782
31751
31679
31578
31087
30916
30659
30750
31129
31543
31900
31911
31875
31718
31628
31751
32294
32703
32924
33049
32544
32532
32180
32180
31851
32043
31929
31999
31900
32002
31846
32086
31946
32097
32396
32733
32866
33063
33207
33327
32900
32757
32179
32295
32095
31958
31739
31559
31435
31349
31280
31278
31472
31787
32061
32178
32183
32415
32390
32485
32410
32245
32001
32187
32303
32615
32572
32547
32078
32036
32423
32903
32751
32564
31877
31959
31940
32401
32903
33313
33388
33167
32813
32762
32423
32196
32032
32057
31888
31943
31917
32015
32027
32346
32835
32838
33087
33156
33159
32875
32842
32720
32676
32467
32372
32135
32895
33072
32993
32573
32609
32314
32359
32077
32258
32414
32462
32516
32233
32157
32135
32088
31870
31712
31620
31826
31996
32355
32250
32326
32500
32484
32530
32492
32479
32590
32820
33178
33117
33171
32661
32562
32371
32548
32404
32620
32519
32329
32228
32642
32551
32772
32659
32958
33236
33362
33547
33601
34024
33932
33823
33317
33002
33112
33075
33008
32487
32303
32392
32511
32787
32913
33031
32847
33103
33217
33353
33341
33276
33513
33971
33983
33635
33561
33412
33169
33126
33116
33065
33077
33012
32828
32806
32687
32913
32839
33367
33752
34539
34805
34919
34823
34823
34384
34067
33684
33645
33391
33375
32852
32653
32308
32407
32707
33015
33118
32813
33163
33599
33815
33276
33154
32751
32687
32628
32708
32460
32639
32612
32761
32420
32100
31844
32125
32175
32291
32510
32770
32743
32914
32885
33156
32941
32454
31751
31275
31392
31370
31770
31740
31961
31798
31895
31833
32230
32447
32773
32869
33268
33308
33399
33063
32748
32204
31985
32022
31846
31631
31367
31180
31205
31328
31663
32010
32180
32385
32431
32471
32285
32251
32068
31983
31638
31583
31561
31560
31604
31239
31153
31295
31047
31310
31774
31901
32543
33046
33279
33620
33591
33708
33278
32937
32598
32260
32263
32085
32036
32186
32206
32374
32353
32340
31977
31988
32232
32523
32988
33255
33522
33495
33375
32954
32263
32070
31903
32066
31695
31463
31340
31263
31191
31010
31116
31510
32287
33140
34055
34134
34436
34618
34477
34621
34422
34597
35101
35540
35837
36045
36262
36855
37429
38105
38534
39302
39855
40652
40911
41599
42184
42727
42999
42863
42816
42221
42282
42119
41759
41631
41112
40756
40071
39666
39431
39172
39188
38823
38732
38089
37309
36382
35199
34292
33135
32583
32335
32244
31956
31500
31367
31052
31175
31268
31262
31365
31068
30836
30609
30411
30593
30439
30705
30843
30888
30983
30813
30438
30450
30501
30365
30468
30550
30543
30605
30682
30996
31162
31263
31335
31371
31462
31181
30993
30313
30047
29747
29567
29621
29655
29783
29799
30029
29972
30177
30471
31132
31672
32052
32133
31779
31874
31708
31591
31292
30991
30899
31013
31311
31211
31125
30681
30554
30547
30525
30828
30988
31271
31541
31751
32055
32155
32260
32164
31852
31783
31726
31974
31818
31580
31468
31329
31183
31104
31103
31153
31117
31527
31919
31822
31988
31842
31789
31807
31860
32036
31988
31884
31632
31354
31261
31039
31053
31205
31367
31682
32096
32379
32876
32835
32812
32696
32382
32535
32332
32284
32404
32212
32164
32279
32341
32557
32841
32615
32566
32401
32143
31988
32124
32006
32010
31790
31824
32031
32055
31949
31863
31957
32479
32553
32479
32447
32231
32243
31929
31947
32077
32012
32098
32316
32442
32771
32964
33053
32931
32805
32855
32663
32517
32532
32470
32588
32711
32780
32884
32635
32850
32887
32765
32724
32540
32596
32679
32759
32943
32666
32396
32426
32412
32636
32600
32887
32621
32708
32947
33028
33366
33247
33343
33692
33620
33822
33970
33869
33895
33687
33706
33526
33701
33727
33463
33253
33320
33319
33349
32943
32789
32695
32697
33061
33228
33308
33103
33327
33635
33622
33672
33479
33578
33653
33502
33717
33847
33822
33687
33337
33046
32726
32209
32126
32173
32187
32219
32604
32615
32581
32303
32204
32839
33596
33822
33520
33435
33562
33218
33024
32863
32937
32654
32432
32554
32621
32643
32547
31999
31682
32073
32119
32263
32416
32258
32319
32331
31794
31740
31744
31300
31004
30886
30908
31131
31359
31522
31667
31742
32038
31975
32052
32052
32399
32367
32086
31787
31692
31591
31654
31349
31167
31258
31273
31268
31039
30658
31015
31433
31718
31871
31902
32002
32046
32189
32315
32079
31847
31869
31741
31508
31607
31601
31639
31581
31489
31699
31694
31971
31943
32074
31818
31775
31564
31564
31524
31463
31532
31614
31582
31342
30819
30607
30626
30558
30804
30983
31360
31751
31896
31994
31978
31950
32102
32446
32575
32629
32391
32551
32422
32102
31839
31571
31685
31335
31004
31177
31506
31850
31790
31909
32252
32447
32500
32620
32519
32887
33386
33249
33063
33046
32675
32458
32318
32001
31811
31694
31607
31802
31824
32119
32423
32475
32623
32679
32666
32605
32631
32353
32451
32479
32532
32468
32215
32174
32093
32502
32612
32513
32359
32429
32949
33250
33530
33268
33347
33452
33223
33031
32639
32467
32094
32220
32052
32027
32033
31986
32002
31800
31858
32004
32023
32252
32280
32455
32631
32687
32814
32844
32988
32799
32838
32447
32234
32111
32095
32075
32181
32231
32297
32444
32685
32518
32460
32571
32977
32662
32639
33015
33021
32966
32795
32452
32315
32282
32517
32299
32247
32293
32503
32615
32799
33375
33494
33788
33764
33313
32989
32612
32696
32668
32388
32197
31855
32056
32084
32137
32294
32146
32163
32129
32344
32721
32642
32889
32775
33003
33015
32695
32681
32487
32687
32857
33327
33812
33988
34039
33491
33167
32972
32921
32974
32703
32891
33301
33275
33422
33572
33456
33646
33774
33696
33637
33370
33212
33133
33031
33151
32967
33311
33664
33719
33874
33991
34334
34709
35167
35055
34898
34484
34237
33521
33046
32927
32992
33278
33215
33401
33493
33263
33373
33559
33839
33735
33617
33647
33396
33276
32950
32953
32807
32653
32559
32399
32379
32554
32611
32659
32519
32455
32598
32464
32532
32314
32159
32135
32018
31936
31567
31685
31732
31636
31695
31477
31612
31847
32070
32562
32559
32660
32518
32226
32149
32333
32455
32602
32325
32308
32353
32101
32135
31802
31806
31815
31828
31927
31669
31671
31904
32076
32165
32250
32326
32085
31949
31823
32023
31910
31719
31504
31367
31513
31605
31882
31871
32209
32271
32537
32869
32598
32277
31934
31623
31615
31431
31398
31398
31876
31958
32123
32296
32395
32514
32281
32164
32154
32311
32209
32143
32132
31846
31780
31483
31668
31982
32303
32687
32639
32718
32751
32723
32717
32455
32309
32235
31938
31791
31599
31999
32287
32565
32221
32091
31904
31857
31902
31806
31898
32031
32511
32605
32721
32894
33196
33775
34337
35350
35802
36533
36996
37287
37671
38060
38700
38774
39260
39494
40079
40227
40943
41166
41676
41857
42485
42260
42660
42288
42516
42329
42617
42095
41831
41076
40398
39914
39791
39300
39084
38450
37623
37090
36356
35495
34402
33384
32319
31685
31143
30927
30719
30757
30966
31375
31583
31714
31709
31657
31487
31318
31044
30707
30671
30631
30874
30555
30339
30156
29812
29918
30152
30132
30351
30486
30573
30581
30535
30593
30410
30431
30687
30671
30661
30380
30279
30017
29951
30013
30273
30557
30430
30343
30844
31314
31122
31013
30959
31068
31006
31087
31007
31104
30895
31008
30927
30923
30931
30884
30876
30477
30652
31334
31598
31748
31468
31299
31324
31062
30956
30873
30889
30802
30509
30551
30590
30755
30700
30874
31018
30899
31030
31314
31885
32222
32393
32547
32188
32095
32055
31938
31879
31567
31367
31407
31367
31346
31124
31343
31639
32071
32415
32276
32071
32124
32325
32228
32060
31879
31959
32001
32095
32015
31658
31547
31527
31751
31782
32199
32286
32410
32252
32494
32691
32524
32473
32159
32350
32040
31855
31751
31589
31588
31381
31388
31182
31155
31103
30999
31046
31089
31461
31591
31721
32164
32583
32948
32825
32740
32126
32175
31938
31925
31975
32040
32256
32238
32174
32110
32503
32870
33236
33679
33676
33849
33540
33380
33317
33191
33237
33054
32919
32924
32877
32942
32825
32836
33003
32957
33260
33687
34270
34281
34255
34295
34100
33947
33407
33269
33012
33215
33421
33329
33367
33114
32991
33031
32905
33026
32932
33132
33138
32821
32894
33095
33588
33608
33821
33595
33357
33398
33624
33910
33920
33626
32936
32853
32950
32977
32632
32894
33204
33593
33959
34193
34421
34795
35054
35041
34822
34236
33700
33564
33448
33305
33274
33064
33143
33214
33421
33449
33638
33885
33676
33707
33359
33167
33031
32905
32939
32676
32500
32308
32119
32134
32031
32031
31964
32071
31809
31709
31463
31701
31940
32282
32481
32690
32993
32981
33245
33130
33158
32991
32665
32615
32492
32647
32512
32545
32443
32693
32772
32645
32709
32519
32261
31973
31495
31159
31288
31367
31284
31267
31231
31463
31570
31724
31490
31287
31239
31411
31726
31738
31774
31551
31770
31479
31198
31139
30854
30794
30899
30956
31321
31421
31719
31673
31702
31947
32053
32088
31791
31799
31555
31540
31679
31699
31746
31727
31685
31828
31984
32422
32585
32931
32836
32813
32425
32510
32263
32299
32119
32283
32013
31903
31663
31693
31584
31717
31846
32212
32292
32556
32567
32820
32766
32647
32628
32599
32699
32225
32021
31815
31904
31807
31692
31780
31712
31835
31853
31860
31975
31797
31740
31853
32276
32277
32213
32230
32463
32246
32085
31855
31871
31681
31556
31246
31105
30743
30727
30853
31589
32116
32839
33106
33548
33468
33507
33484
33524
33385
33045
32821
32445
32251
31629
31480
31463
31798
31981
32030
32169
32294
32352
32493
32660
32724
32823
32945
32856
32637
32287
32087
32135
32361
32516
32691
32463
32217
32041
32101
32492
32687
32933
33175
33404
33183
33063
32770
32592
32335
32443
32116
31887
31719
31804
31802
31876
31788
31831
32109
32254
32704
32949
33338
33382
33588
33463
33303
32955
32787
32309
31972
31636
31851
32164
32481
32460
31974
31916
31814
31905
31836
32095
32583
33208
33538
33621
33270
33326
33140
33029
32818
32664
32518
32063
31823
31692
31900
31768
31925
31870
32211
32383
32518
32647
32674
32915
32813
33244
33639
33822
33626
33125
32767
32460
32378
32247
32087
32102
31718
31866
32079
32509
32748
33062
33148
33684
33860
34186
33981
33807
33343
33284
32902
32785
32508
32652
32712
32647
32682
32640
32770
33156
33215
33370
33480
33220
32885
32764
32980
33167
33526
33447
33597
33261
33165
32997
32908
33204
33607
34164
34371
34500
34611
34804
34829
34864
34329
33904
33399
33141
32826
32799
32727
32928
33271
33215
33189
32941
32957
32933
33189
33413
33799
34063
33899
33807
33607
33757
33386
33461
33012
32772
32484
32300
32477
32475
32812
32801
32596
32759
32900
33228
33097
33228
33095
32799
32665
32382
32365
32169
32364
32607
32383
32053
31806
31767
31631
31271
31166
31239
31556
31772
31987
32250
32188
32361
32339
32327
32180
31810
31457
31412
31344
31586
31735
32061
31938
31935
32102
32351
32587
32519
32568
32660
32746
32670
32607
32161
32196
32041
32037
32142
32088
32152
32071
31943
31865
32167
32055
32326
32424
32598
32796
32674
32829
32529
32406
32151
32313
32055
31919
31421
31526
31568
31268
31276
31213
31288
31398
31900
32378
32892
32991
33448
33393
33491
33558
33302
32871
32192
31880
31601
31202
31236
31269
31619
31663
31601
31657
31683
32004
32068
32180
32162
32289
32719
32660
32809
32714
32932
33237
33410
33814
34311
35257
35809
36425
36797
37244
37537
37943
38844
39413
40222
40486
40835
40863
41315
41271
41506
41236
41254
41541
41875
42188
42102
42471
42084
41789
40985
40866
40319
40253
40038
39503
39127
38383
37932
36982
36317
35397
34460
33791
32982
32329
32030
31554
31478
31271
31141
31328
31494
31613
31516
31616
31373
31303
30978
30615
29937
29700
29551
29359
29268
29371
29766
30223
30743
31041
31066
30989
30765
30907
30940
31271
31007
30764
30541
30300
30156
30231
30318
30099
29898
29599
29721
29630
29826
29982
30350
30793
31653
31942
32167
32063
31988
31790
31402
31239
30690
30240
29947
29855
30104
30247
30492
30656
30811
30997
30999
31161
31095
31273
31556
31788
31964
31906
31844
31843
31740
31583
31348
31467
31257
31175
31005
31010
31095
31023
30935
30663
30687
30490
30638
31039
31657
32227
32688
32922
32582
32367
31951
31970
31764
31681
31414
31110
31277
31389
31371
31433
31524
31556
31738
31743
31363
31356
31314
31774
31975
32316
32279
32469
32555
32492
32586
32287
32222
32283
32272
32192
31840
31750
31740
31935
31890
31479
31412
31329
31254
31382
31386
31383
31333
31462
31316
31588
31834
31999
32092
31901
31914
31716
31665
31519
31540
31490
31383
31612
32173
32729
33030
33143
33375
33159
33150
32982
32741
32692
32655
32762
32332
32074
32087
32148
32543
32718
33151
33045
32967
32972
33004
32892
32665
32759
32807
32973
32797
32745
32799
32933
33308
33390
33631
33662
33535
33413
33252
33146
32855
32572
32569
32295
32395
32588
32842
33023
32857
33223
33738
34115
34582
35039
34980
34988
34951
34564
34270
34173
34053
33991
33862
33809
33466
33180
33259
33468
33813
34524
34972
34943
35018
35101
34689
34646
34732
34708
34334
34083
34015
34127
33983
33467
33358
33639
33751
33816
33604
33401
33708
33897
33799
34251
34663
34346
34053
34040
33596
33420
33247
33204
33495
33932
34090
33859
33700
33705
33560
33415
33478
33364
33549
33788
33755
34028
33741
33744
33382
33012
32768
32617
32679
32404
32287
32086
31926
31954
31956
32196
32086
32634
33223
33854
34253
34165
34135
33564
33030
32711
32439
32263
32141
32002
32114
32100
32070
32391
32588
32170
31887
31903
32405
32805
33019
33046
33079
32884
32667
32543
32576
32641
32532
32569
32350
32287
32359
32308
32591
32739
32717
32960
32881
32956
33148
32793
32828
32961
32908
32668
32071
31788
31482
31550
31591
31477
31845
31692
31661
31551
31607
31877
32095
32901
33516
33508
33613
33592
33719
33609
33135
32925
32415
32292
31740
31617
31398
31519
31633
32091
32055
32450
32487
32903
33015
33364
33731
33755
33755
33325
32767
32362
31646
31688
31401
31591
31301
31062
30814
31277
32094
32327
32653
32532
32677
32559
32629
32326
32428
32131
32196
32113
32248
32007
32132
31999
32126
32143
31973
32149
31934
32026
31856
32351
32294
32609
33062
33512
33558
33229
33303
32862
32606
32287
32486
32372
32529
32304
32257
31932
31956
32199
32646
32975
33313
33471
33525
33420
33107
33007
32335
31908
31786
31622
31431
31347
31382
31539
31691
31807
32131
32307
32350
32463
32515
32789
32838
32655
32152
31815
31647
31423
31131
31316
31664
31733
31831
31639
31832
31751
32061
32325
32599
32831
32860
33287
33324
32846
32623
32308
32127
31709
31651
31621
31559
31662
31745
32284
32468
32725
32595
32970
32936
33308
33511
33756
33719
33044
33253
32994
32700
32238
32132
31604
31508
31567
31868
32007
31789
32015
31862
31975
32234
32239
32358
32079
32168
32672
32755
32943
32851
32348
32135
31895
32215
32385
32247
32486
32236
32161
31883
32022
32252
32263
32606
32596
32807
33119
33287
33695
33437
33116
32675
32276
32135
31663
31798
31845
32021
32287
32383
32775
32631
32606
32673
32724
33213
33326
33658
33303
33117
32583
32545
32302
32487
32500
32747
32923
32897
32758
32881
33327
33375
33529
33048
32887
32868
33318
33506
33809
33906
33982
33968
33639
33682
33300
33287
32975
32887
32679
32962
33455
33644
33813
33836
33653
33777
33647
33715
33499
33148
33060
32716
32575
32484
32655
32804
32637
32809
32871
32799
32963
33030
33165
33461
33196
32956
32663
32582
32789
32519
32406
32096
31631
31615
31288
31300
31264
31014
31034
30848
31095
31333
31445
31639
31845
32397
32903
32821
32791
32364
32098
32004
31835
31955
31695
31412
31564
31648
31975
31788
31822
32229
32420
32703
32506
32614
32657
32365
32284
31948
32030
31734
31631
31501
31367
31787
31926
32085
32175
32199
32482
32623
32708
32934
32871
32930
33021
32845
32678
32542
32164
31994
31767
31562
31597
31588
31724
31348
31327
31310
31632
32004
32252
32732
32747
33023
33236
33007
32985
32646
32486
32159
32164
32065
32119
32095
32439
32399
32087
32186
32389
32628
32384
32751
32791
32748
32671
32276
32117
31809
31892
31727
31831
31536
31642
31647
31922
31855
32124
32919
33399
34259
34793
35527
36077
36512
37202
37286
37454
37711
37585
37932
38013
38295
38724
39029
40002
40482
41460
42268
43094
43818
43811
44113
43812
43511
43160
42372
42151
41274
40585
40324
39916
39839
39148
38570
37870
37420
36917
36087
35631
34751
34230
33367
33121
32829
32438
32158
31658
31501
31134
31085
30880
30769
30506
30421
30022
29878
29931
30154
30363
30583
30959
31271
31683
31513
31060
30519
30359
29947
29919
29812
29679
29329
29399
29409
29636
29785
29864
30253
30653
31191
31572
31667
31844
31842
31901
31841
31167
30855
30708
30884
30867
30600
30695
30654
30695
30804
30900
31101
31239
31751
31981
32020
31631
31655
31749
31652
31269
30806
30751
30441
30302
30444
30502
30625
30634
30797
31023
31159
31278
31679
32195
32294
32366
32349
32150
32218
31847
31431
30783
30569
30572
31054
31295
31157
31060
30983
31337
31663
31739
31931
32027
32166
32028
32378
32551
32367
32199
31886
31877
31711
31690
31749
31761
31975
31846
31900
31848
32162
32167
32516
32615
32918
32967
32892
32922
32661
32695
32550
32319
32215
31893
31671
31453
31694
31727
31749
32155
32180
32493
32647
32836
33319
33189
33216
33165
33256
33191
32494
32065
31899
32164
32330
32285
32167
32023
32175
31996
32042
32007
32563
32749
33056
32980
33164
33031
33236
33073
33005
32856
32636
32483
31999
31846
32012
32679
32936
32769
32681
32711
33212
33347
33527
33378
33209
33343
33076
33007
32982
33028
33364
33385
33343
32951
33111
33511
33603
33732
33550
33685
33924
33934
34086
33954
34012
33927
33645
33749
33518
33471
33223
32967
33031
33154
33645
34100
34526
34724
34543
34604
34651
34492
34532
34221
34422
34348
34188
34266
34031
33764
33324
33316
33559
33564
33743
33653
33719
33875
33788
34077
33972
34118
33926
34033
33933
33933
33717
33438
33143
32487
32048
31621
31405
31577
31761
32242
32211
32282
32204
32562
32799
33397
33552
33726
33694
33406
33409
33015
32653
32251
31871
31679
31391
31388
31325
31291
31239
31309
31296
31655
32119
32529
32503
32711
32857
32852
32796
32381
32094
31798
31731
31556
31580
31670
31571
31585
31780
31727
31760
31749
32017
32454
32789
32951
32690
32534
32391
32089
31783
31655
31606
31503
31415
31457
31297
31116
31079
30812
30766
31284
31770
32157
32226
32331
32450
32609
32633
32342
32202
31742
31399
31319
31335
31543
31540
31535
31804
32156
32527
32631
32567
32751
32749
32712
32693
32412
32301
32022
31937
31745
31507
31262
31036
30975
31017
31239
31759
32135
32283
32110
32132
32325
32685
33263
33541
33287
33124
32863
32581
32494
32238
32015
31837
31837
31847
31790
31801
31927
32028
32148
32210
31998
31927
32183
32649
32935
32999
33031
32922
32900
32596
32448
32386
32239
32155
31991
31796
31800
31879
32058
32434
32622
32903
33143
32959
32862
32753
32719
32843
32789
32469
31796
31491
31742
32118
32247
32221
32431
32775
32987
32967
33041
33212
33307
33436
33209
33011
32735
32356
32199
31905
31655
31933
32329
32493
32482
32273
32165
32388
32531
32558
32741
32951
33214
33579
33615
33604
33519
33182
33044
32895
32711
32728
32607
32583
32485
32161
32191
32357
32623
33085
33265
33374
33374
33228
33159
33236
33105
33037
32750
32412
32177
32023
31863
31839
31735
31853
32231
32731
33013
33343
33519
33702
33503
33379
33031
32697
32565
32361
32399
32546
32460
32391
32263
32075
31871
31919
32339
32775
32871
33125
33163
33169
33348
33223
33167
33110
32945
32775
32452
32273
32260
32078
31919
31715
31482
31666
32323
32954
33551
33783
33589
33579
33602
33559
33429
32989
32895
32708
32350
31938
31746
31751
31767
31732
31871
32015
32236
32561
32839
33191
33510
33951
34248
33969
33762
33764
33560
33374
33239
33100
32950
32742
32463
32519
32678
32647
32898
33020
33220
33430
33471
33631
33399
33063
33094
33287
33352
33116
32955
33007
32836
32900
32783
32663
32611
32730
32764
32804
32971
33029
33207
33183
33412
33503
33727
33725
33884
33895
34138
34116
34115
34022
33836
33810
33631
33597
33511
33612
33623
33871
34055
34038
34131
33831
33677
33286
33136
32837
32717
32657
32526
32425
32369
32231
32159
32456
32849
33286
33876
34202
34261
34245
33934
33756
33387
33223
33019
32966
32987
32871
32942
33108
33264
33330
33073
32871
32787
32772
32855
32938
33199
33087
32844
32644
32516
32311
32165
31956
31681
31508
31589
31937
32158
32254
32382
32383
32338
32281
32183
32026
32086
32332
32463
32398
32245
32117
32069
31991
31821
31783
31871
31774
31566
31455
31548
31567
31647
31900
32327
32707
33022
33279
33386
33337
33227
33106
32941
32755
32586
32303
32025
31751
31559
31482
31599
31751
31735
31837
31924
32292
32670
33025
33127
33399
33221
33158
33021
32700
32393
32260
32057
31786
31586
31495
31443
31388
31407
31501
31637
31719
31878
32201
32557
32505
32551
32775
33055
32895
32620
32207
31931
31667
31469
31295
31335
31215
31191
31479
32070
32855
33772
34551
35154
36031
36623
37201
37263
37431
37380
37652
37716
38045
37985
38278
38334
38809
39311
40300
40927
41727
42245
42852
43022
43380
43110
43285
42751
42255
41620
40954
40262
39471
39215
38663
38649
38369
38406
38257
38053
37806
37336
36852
35858
35105
34087
33382
32862
32140
31359
30766
30412
30385
30351
30220
30080
30119
30364
30559
30711
30797
30791
30958
30983
31070
31132
31038
30968
31124
31170
30981
30647
30300
30069
29970
30135
30211
30351
30418
30532
30683
30871
31108
31215
31445
31491
31431
31209
31007
30849
30589
30079
29703
29742
30019
30203
30133
30156
30364
30865
31199
31155
30940
30871
31189
31514
31783
31860
31829
31637
31299
30975
30679
30431
30416
30445
30554
30692
30978
31199
31473
31975
32387
32663
32748
32809
32675
32413
31795
31479
31384
31124
30949
30980
31055
31038
31051
31088
31220
31423
31480
31466
31479
31598
31695
31781
31879
32079
32022
31736
31626
31490
31221
30850
30521
30430
30614
30959
31369
31780
32144
32389
32486
32574
32584
32508
32351
32186
31996
31759
31588
31468
31452
31607
31956
32236
32180
32079
32235
32405
32468
32389
32301
32153
31943
31876
31933
31979
31924
31836
31839
31955
31903
31709
31460
31495
31904
32365
32668
32722
32933
33025
33084
32934
32833
32631
32467
32301
32101
31946
31791
31746
31879
32038
32128
32247
32320
32422
32702
33002
33379
33548
33799
33887
33633
33539
33367
33359
33281
33511
33676
33450
33207
32908
32818
32721
32826
33208
33446
33556
33436
33559
33741
33863
33908
33735
33733
33500
33311
33199
33061
32757
32503
32527
32550
32775
33084
33406
33944
34042
34180
34271
34596
34938
34980
35010
34839
34854
34375
34000
33481
33191
32975
32892
32813
32596
32597
32767
33187
33410
33375
33580
33891
34356
34796
34836
34731
34476
33907
33505
33109
32636
32420
32287
32149
32263
32436
32430
32702
33021
33414
33610
33670
33480
33228
32959
32583
32558
32687
32550
32223
31734
31527
31463
31290
31335
31589
31822
31989
32388
32871
33239
33371
33508
33213
33031
32820
32701
32339
31915
31527
31185
30873
30607
30375
30328
30486
30920
31711
32460
32948
33127
33156
33100
33199
33313
33111
32958
32580
32239
32172
32151
31886
31650
31566
31717
31828
31863
31816
31847
32037
32275
32450
32683
32692
32619
32511
32255
31910
31311
30748
30756
30997
31132
31291
31449
31565
31641
31787
31950
32273
32423
32721
32919
32825
32644
32289
32105
32028
32055
31892
31447
31233
31387
31707
31695
31732
31861
32116
32596
32928
33175
33354
33615
33653
33639
33379
33206
32751
32282
31950
31691
31607
31655
31775
32115
32439
32745
32821
33013
33067
32922
32916
32661
32422
32495
32194
31828
31331
31207
31274
31295
31342
31337
31556
31692
31763
32107
32276
32534
32635
32903
33087
33412
33705
33732
33351
32970
32717
32372
32149
32036
31933
31918
31917
31964
31959
32257
32710
33068
33272
33047
33127
33303
33329
33362
33354
32916
32431
32303
32183
32274
32245
32355
32300
32367
32548
32543
32695
32992
33387
33586
33442
33415
32950
32434
32050
32118
32239
32135
32047
31911
31585
31541
31803
32287
32569
32764
32932
32908
33263
33474
33425
33460
33279
33345
33125
32796
32487
32126
32110
32096
32263
32359
32574
32762
32710
32570
32621
32599
32710
33071
33278
33561
33439
33492
33351
33062
32735
32480
32405
32283
32217
32007
32053
32105
32263
32373
32627
33135
33243
33438
33349
33001
32807
32548
32593
32564
32932
33095
33407
33260
32914
32531
32377
32343
32377
32512
32406
32728
32920
33276
33347
33610
33671
33596
33514
33215
33120
32836
32593
32024
31360
31425
31782
31998
32165
32311
32775
33251
33358
33285
33251
33658
33694
33455
33511
33271
33077
32704
32293
32045
31882
31909
31773
31921
32237
32530
32939
33087
33084
33404
33580
33669
33812
33775
33995
33681
33503
33125
32968
32604
32287
32213
32121
32263
32429
32813
33031
33065
33242
33111
33343
33594
33683
33543
33443
33077
32636
32425
32107
32079
32004
32126
32375
32551
32891
33055
33451
33481
33911
34046
34319
34396
34177
33983
33494
33373
33013
32677
32367
32119
32385
32557
32722
32785
32811
32851
32767
32903
32930
33377
33468
33686
33821
34205
34684
34677
34695
34279
33959
33542
33087
33052
32832
32733
32798
32840
33049
33190
33716
34076
34461
34997
35048
35193
34871
34661
33860
33367
32945
32421
32142
32040
32212
32647
32810
33115
33351
33463
33967
34285
34895
34985
35068
34967
34572
34181
33461
33330
33057
32938
32531
32508
32559
32903
33023
33287
33423
33759
33644
33615
33304
33278
33159
32825
32439
31992
32111
32035
31813
31575
31760
31903
31905
32102
32038
32129
31975
31935
31885
31879
32284
32600
32673
32508
32159
32030
31796
31622
31633
31868
32109
31830
31615
31619
31433
31407
31322
31519
31823
32326
32735
32999
33462
33345
33447
33335
32959
32471
32006
31852
31507
31400
31367
31316
31335
31329
31637
32119
32661
33077
33146
33523
33471
33500
33135
32730
32273
32006
32020
31911
32084
32245
32380
32226
32220
32391
32647
33026
33295
33444
33381
33340
33251
33341
33095
32923
32374
32311
32119
31852
31351
31081
30831
31041
31316
31739
31690
31766
31692
31918
32223
32696
32752
33063
33321
33407
33848
33939
34413
34784
35612
36260
36567
37015
37146
37802
38309
39059
39726
39898
40389
40646
40740
41445
41832
42445
42493
42764
43039
42516
42485
41957
42055
41735
41417
41052
40359
40415
40173
40537
40095
40098
39325
38777
37773
36975
35708
34622
33261
32486
31615
31111
30740
30823
31173
31205
31327
31283
31531
31613
31663
31411
31449
31338
31217
30926
30506
30351
30121
29959
29799
29607
29463
29350
29431
29518
29671
29892
30462
30806
31171
31140
31279
31289
31191
31227
31133
30979
30631
30596
30341
30063
29916
30017
30121
30310
30367
30591
30665
30615
30855
31147
31711
32007
32164
31725
31292
31010
31169
31199
31179
31234
31124
31182
30962
30947
31047
31367
31529
31820
31765
31769
31521
31449
31439
31405
31552
31390
31310
30980
31036
30869
30765
30532
30531
30758
30957
31209
31381
32007
32527
33146
33487
33073
32978
32718
32433
31959
31663
31687
31456
31237
31208
31009
31029
31063
31275
31239
31613
32028
32405
32676
32815
32887
32596
32583
32367
32498
32401
32255
31956
31670
31650
31495
31303
31404
31403
31527
31812
31876
32132
32567
32865
32732
32773
32542
32469
32411
32135
31814
31226
31053
31077
31108
31335
31487
31619
31961
32106
32415
32686
32677
32876
32743
32842
32842
32317
31944
31574
31189
31331
31395
31783
32189
32606
33028
32839
33084
33359
33836
34175
34307
34343
33935
33629
33343
32669
32433
32637
32617
32427
32295
32135
32454
32532
32882
33302
33519
33825
33723
33762
33702
33823
33909
33543
33423
33118
32885
33052
32789
32658
32638
32591
32759
32681
32839
33023
33031
33526
33683
34105
34407
34269
33959
33820
33676
33268
32775
32452
32386
32350
32263
32323
32687
33147
33613
34119
34710
35132
35180
35183
35215
34919
34631
34468
34203
33593
33361
33509
33573
33323
33149
33188
33042
32903
33031
33249
33307
33331
33642
34030
34049
33901
33729
33608
33222
32987
32511
32341
32013
31742
31676
31609
31956
32254
32578
32713
32972
33249
33409
33650
33412
33365
33018
32594
32399
32050
31665
31130
30716
30892
31013
31299
31479
31652
32084
32299
32828
33133
33263
33630
33478
33516
33121
32853
32695
31972
31380
30837
30978
31071
31287
31320
31140
31185
31193
31579
31715
32045
31988
32121
32028
32030
31932
31681
31740
32135
32340
32707
32388
32303
31950
31735
31645
31737
32066
32055
32405
32455
32601
32675
32487
32333
31911
31855
31665
31475
31343
31239
31587
31911
32389
32631
32900
32751
32541
32685
32500
32582
32463
32643
32639
32767
32639
32359
32189
31701
31514
31190
31159
31207
31585
32139
32259
32404
32554
32921
33095
33327
33399
33607
33436
33572
33239
33246
32971
32922
32518
32097
32019
31871
31815
31572
31519
31693
31681
31858
32150
32326
32567
32511
32668
32540
32685
32698
32927
33136
32759
32341
31691
31340
31239
31159
31511
31843
32071
32378
32291
32495
33039
33198
33636
33378
33108
32507
32249
32098
31737
31925
32002
32170
32429
32524
32826
32943
32988
33055
32839
33044
33477
33610
33695
33540
33239
33137
32718
32685
32369
32422
32326
32047
32070
31986
32212
32421
32786
33071
32815
32892
32951
32942
33159
32966
33017
32981
32860
32597
32340
32419
32223
32337
32216
32340
32161
32191
32155
32621
32807
33017
33001
33173
33183
33205
33263
33023
32927
32751
32959
32893
32653
32738
32457
32436
32468
32492
32542
32555
32839
33247
33314
33490
33329
33202
33149
32806
32662
32223
32297
32732
32835
32855
32751
32468
32411
32580
32720
32782
32935
33047
33079
33319
33378
33178
33175
33045
32711
32617
32587
32501
32679
32523
32284
32394
32551
33011
33065
33287
33316
33102
33284
33321
33643
33919
33700
33589
33010
32727
32554
32481
32631
32461
32422
32263
32578
32615
32455
32487
32168
32475
32791
33097
33324
33106
33199
33197
33404
33305
33272
33277
32871
32864
32701
32792
32911
32946
33340
33428
33723
33939
33875
33979
33814
33879
33493
33303
32932
32454
32287
31828
31839
31556
31610
31935
31902
32043
32166
32423
33181
33573
34039
34055
33919
33926
33766
33839
33452
33191
32567
32125
31871
31863
32220
32183
32463
32743
32682
32885
32886
33274
33692
33911
34341
34139
34024
33870
33745
33646
33079
32831
32451
32282
32399
32309
32452
32595
32708
33159
33361
33665
34004
33966
33851
34022
33855
33881
33759
33187
32805
32549
32391
32444
32551
33102
33948
34412
34796
35002
34863
35127
35065
35068
35015
34543
34409
34285
34019
34031
33591
33415
33315
33071
33150
33071
33025
33039
32847
32950
33349
33556
33964
34311
34181
34148
34039
33498
33221
32815
32669
33151
33075
32970
33095
32943
32900
32855
32830
32971
32969
33001
33235
32979
32904
32725
32735
33240
33334
33639
33531
33333
33156
32572
32311
31903
31703
31865
31870
32246
32574
32903
33095
32775
32762
32751
32503
32359
32022
31661
31545
31551
31375
31452
31567
31767
32201
32171
32323
32362
31948
31850
31713
32040
32207
32455
32669
32548
32495
32415
32596
33063
33221
32958
32671
32334
32054
32029
32194
32361
32583
32587
32571
32451
31912
31771
32231
32455
32491
32598
32450
32231
32135
31893
31983
32169
32183
32359
32195
32142
32349
32316
32551
32500
32279
32170
31897
32027
31751
31668
31763
31796
31659
31693
31551
31764
32053
32614
32639
32956
33031
33231
33247
32991
33064
32887
32783
32518
32111
31868
31631
31718
31596
31778
31783
32045
32364
32503
33140
34246
34948
35791
36045
36655
37158
38135
38872
39364
40199
40628
41233
41684
41967
42330
42175
42779
42884
43207
43462
43503
44100
43884
43500
43122
42551
42066
41131
40557
39636
39359
38724
38179
37743
36985
36551
35380
34567
33646
32982
32436
31999
31975
31695
31772
31661
31718
31751
31315
31055
30844
30597
30352
29895
29666
29541
29244
29464
30126
30355
30310
30181
29905
29998
30195
30079
30169
30237
30116
30154
30293
30089
29986
30030
30180
30631
30983
31306
31623
31562
31646
31871
31652
31385
31356
31364
31219
31228
31127
30893
30727
30411
30342
30414
30407
30161
30213
30373
30452
30539
30617
30725
31148
31510
31617
31832
31965
31795
31745
31572
31199
31308
31545
31188
30950
30684
30727
30817
30772
31064
31407
31392
31597
32062
32196
32354
32652
32575
32722
32660
32215
31979
31423
31483
31671
31702
31805
31959
31953
32147
32012
31879
32004
32079
31962
32087
32082
32231
32422
32263
32167
31711
31231
30830
30343
29863
29950
30172
30780
31340
31711
32165
32229
32388
32838
32973
33181
33127
32607
32262
31839
31751
31532
31324
31375
31187
31425
31474
31764
31879
31913
32253
32103
32159
32385
32431
32625
32927
32891
32935
32735
32502
32381
32042
31738
31644
31491
31745
31605
31756
32007
32155
32647
32871
33039
32917
32556
32547
32263
31941
31713
31206
31060
31266
31612
32081
32021
31887
32050
32121
32753
33357
34055
34431
34317
34295
33789
33480
33267
32724
32542
32302
32207
32477
32501
32542
32738
32744
33049
33356
33171
33209
33239
33094
33092
32975
32775
32967
32928
32889
33249
33059
32900
33005
32742
32715
32942
33222
33671
33841
34236
34589
34607
34949
34977
35218
35139
34443
34023
33647
33068
32811
32321
32081
32073
31774
31868
31771
31807
32357
32713
33445
33787
34241
34605
34607
34653
34241
34263
33943
33641
33541
32947
32583
32302
32006
31809
31654
31687
31836
31785
31930
31700
31735
31719
31841
31746
31444
31706
31760
31932
31767
31719
32055
32131
32303
31943
31828
31559
31562
31701
31488
31273
30988
31124
31544
31705
32219
32457
32500
32810
32735
32465
32464
32263
31900
31789
31777
31687
31861
31850
31903
32047
31835
31706
31911
31868
31882
31885
31889
32231
32007
31842
31847
31840
31991
31997
31682
31668
31751
31757
31850
31527
31343
31444
31439
31572
31408
31462
31540
31806
32095
32215
32748
32795
32823
32615
32477
32313
31893
31795
31521
31559
31637
31639
31860
31943
32319
32289
32438
32691
32863
33019
33084
32909
32888
32427
32287
32370
32292
32227
32122
32044
32292
32257
31980
32021
31995
32347
32702
32525
32589
32452
32439
32707
32602
32713
32656
32283
32170
32071
32006
32165
32559
32711
32617
32674
32611
32569
32765
32856
32833
32836
32775
32793
33227
33191
33071
33174
32940
32947
32693
32239
32322
31961
31935
31937
32235
32650
32796
33343
33376
33564
33469
33370
33167
33084
33231
32978
33060
33058
32876
32889
32578
32407
32185
31814
31892
31751
31847
31931
32100
32341
32463
33118
33347
33799
33780
33533
33095
32667
32668
32325
32314
32316
32239
32663
32885
33111
33194
33175
33499
33421
33519
33569
33495
33692
33558
33581
33636
33351
33308
33254
32876
32979
33031
32709
32694
32404
32387
32275
32212
32380
32399
32769
33137
32886
32877
32893
33732
34235
34605
34359
34077
33485
33391
33154
32914
33111
33121
33317
33190
33318
33125
33111
33143
32992
33239
33332
33111
33076
32565
32348
32020
32123
32312
32389
32484
32105
32021
31870
32175
32847
33236
33695
33766
33857
33739
33346
33270
32903
32815
32550
32455
32517
32423
32730
32842
33214
33492
33269
33238
33148
33565
33647
33363
33182
32671
32692
32815
32913
33238
33231
33475
33346
33616
33455
33521
33172
33108
32575
32505
32513
32623
32350
32322
32182
32218
32537
32319
32263
32135
32263
32655
32964
33286
33061
33263
33301
33228
33620
33687
33757
33477
33583
33391
33430
33236
33138
32828
32759
32508
32581
32425
32871
32811
32965
32927
32958
32700
32996
32951
33227
33229
33799
34005
34292
33873
33735
33173
33031
32873
32684
32558
32236
32341
32419
32831
33114
33775
33661
33655
33594
33862
33861
34217
34105
34340
33924
33709
33173
32981
32772
32811
32569
32668
32598
32791
32855
33391
33447
33591
33575
33554
33661
33594
33779
33765
34132
33988
34104
34073
34295
34205
34108
34172
33748
33868
33863
33965
34018
33658
33692
33535
33551
33721
33585
33703
33804
33573
33671
33585
33455
33363
32903
33127
33676
34068
34407
34143
34159
34046
33796
33600
33495
33949
34155
33919
33818
33116
32758
32790
32743
33007
33348
33244
33143
33185
32975
33205
33211
33261
33500
33247
32935
32902
32625
32543
32452
32081
32075
31890
31785
31751
31327
31337
31375
31652
31550
31751
32204
32577
32623
32413
32716
32434
32245
32132
32384
32244
32301
32237
31925
31895
31567
31713
31727
31668
31837
31765
31960
31983
31750
31924
32230
32862
33269
33203
33039
32470
32303
32067
31956
31717
31425
31311
31143
31407
31458
31693
32353
32636
32907
32924
32871
33156
33030
32870
32833
32606
32847
32630
32655
32679
32797
32591
32203
32123
31943
32106
31964
32086
32382
32348
32639
32429
32411
32189
32335
32478
32317
32095
31678
31762
31516
31535
31663
32075
32335
32701
32933
32955
33486
33686
34130
34527
35001
35676
35970
36810
37231
37853
38683
39332
39807
39874
40255
40239
40909
40743
41563
41886
42919
42887
43404
43363
43701
43526
43655
43160
42668
42105
41114
40449
39712
39175
38950
38468
38705
38290
38191
37238
36520
35202
34215
33284
32427
31852
31205
31239
31062
31014
30541
30319
30059
30153
30143
30493
30361
30254
29906
30028
30125
30238
30773
31065
31484
31519
31724
31572
31509
31204
31048
30711
30209
30100
29987
30047
29932
30060
30436
30471
30565
30319
30215
30177
30086
30531
30970
31016
31172
31376
31299
31308
31186
31308
30999
30764
30351
30316
30381
30247
30565
30895
31143
31023
31405
31639
31964
31807
31776
31621
31765
31613
31559
31415
31119
31116
30833
31015
31093
31367
31255
31110
30646
30885
31111
31333
31795
32108
31903
31910
31845
32146
31962
31744
31266
31252
31203
31478
31468
31623
31514
31469
31172
31103
31079
31192
31311
31343
31361
30889
31047
31198
31638
32015
32004
32155
32044
32327
32297
32583
32564
32249
31962
31973
32367
32555
32847
32575
32770
32731
32797
32407
32143
31908
31649
31823
31636
31705
31580
31836
31865
31955
32066
31918
32484
32859
33188
33089
32963
33055
33100
33330
32974
32840
32509
32465
32342
32597
32829
32999
32957
32742
32387
32278
32487
32297
32389
32215
32502
32241
32199
32135
32447
32565
32829
32589
32793
32863
32885
32874
32636
32878
32823
32862
32607
32873
32890
33071
33099
33381
33321
33336
33297
33391
33284
33194
33303
33383
33901
33668
33799
33973
34150
34218
34023
34068
33924
33796
33772
33610
33426
33442
33047
33076
33063
33070
33239
32930
33364
34102
34310
34487
34451
34199
34379
34131
33991
33822
33719
33876
33764
33693
33627
33156
33042
33093
33400
33592
33463
33662
33791
33863
34011
33549
33319
33583
33543
33467
33753
33519
33324
33159
32948
33107
32860
33212
33316
33575
33719
33890
34002
33671
33351
32903
32663
32615
32207
31927
32052
32046
32219
32572
32567
32281
32502
32339
32375
32699
32775
32964
32784
32903
32733
32562
32207
31903
31644
31927
32091
31958
31503
31125
31260
31282
31164
31021
31179
31204
31231
31367
31611
31710
31911
31807
31734
31767
31250
31157
31214
31526
32001
31886
31727
31751
31413
31685
31849
32422
32678
32871
32492
32295
32167
32071
32228
32151
32519
32356
32636
32620
32703
32304
31967
31815
31915
32334
32180
32151
31911
31903
31607
31619
31911
31999
32431
32352
32249
31904
32030
32166
32258
32501
32305
32319
31970
32028
32101
31967
32137
32103
32329
32338
32439
32701
32727
32350
32145
31727
31727
31794
31839
32319
32442
32748
32649
32391
32263
31975
32111
31967
32062
31849
31951
31777
32019
32284
32676
33159
33195
33083
33183
32754
32411
32243
32089
32074
31998
32297
32741
32617
32791
32642
32830
32714
32359
32575
32592
32772
32596
32572
32287
32375
32135
32025
32100
32380
32547
32955
32919
33234
33405
33269
33399
33137
33165
32910
33084
32879
32869
33094
32890
33056
32798
32775
32491
32747
32946
33127
33636
33599
33745
33430
33500
33236
33116
32855
32952
33003
32613
32641
32535
32951
33087
33287
33376
33279
33327
33068
32703
32677
32630
32775
32741
32557
32615
32315
32385
32647
33019
33513
33503
33719
33446
33186
32945
32711
32997
33023
33077
33184
32727
32450
32610
32659
32706
32466
32850
33287
33121
32992
32462
32471
32292
31996
31831
31311
31375
31798
32195
32711
32827
32983
32914
32671
32516
32532
32820
32727
32965
33273
33543
33807
33613
33696
33647
32959
32567
32356
32228
32430
32250
32443
32497
32631
32874
32724
32849
32683
32965
32958
33374
33511
33641
33486
33207
33287
32983
33095
32956
33189
32791
32612
32651
32379
32442
31881
31671
32047
32532
32935
32837
32964
32927
32918
33587
33759
33721
33414
33375
33203
32973
32971
32859
33287
33268
33253
32807
32855
32935
33087
32578
32292
31855
32003
32273
32293
32371
32244
32454
32467
32667
32511
32637
32472
32323
31934
31980
31792
32018
32204
32374
32700
33031
33349
33526
33940
33770
33935
33500
33358
33002
32964
32775
32822
32510
32290
32339
32148
32005
32113
32928
33069
33287
32949
33157
33155
33319
33355
33407
33982
33849
34134
34457
34549
34774
34551
34669
34516
34239
33844
33701
33511
33078
32925
32711
33181
33303
33375
33607
33959
33895
33969
33569
33438
33557
33901
33967
33509
33142
32916
33118
32831
32933
32728
32858
32717
32707
32303
32567
32539
32983
33172
33690
33322
33241
32919
32755
32174
31917
31508
31652
31703
31903
32067
32475
32723
32893
33003
32886
32707
32301
32321
32002
31947
32156
32482
32326
31855
31489
31521
31771
31516
31647
31623
31747
31706
31527
31583
31535
31794
32548
32895
33315
33180
33348
33222
32973
32565
32105
31823
31648
31726
31367
31166
31119
31169
31617
31685
31677
31569
31867
32311
32466
32844
33061
33155
33083
32775
32870
32628
32252
32064
31751
31565
31489
31824
31697
31614
31534
31738
31900
31914
32374
32293
32300
32185
32220
31982
31925
32053
32215
32537
32652
32631
32703
32295
32263
32031
32070
32020
32183
32174
32330
32070
32271
32662
33365
33910
33701
33283
32681
32459
32199
32012
32052
32069
32409
32590
33079
33722
34102
34812
35374
36289
36775
37261
37212
37338
37343
38286
38491
39085
39249
39820
40156
40437
41143
41427
42302
42447
42495
42401
42474
42815
42212
42119
41212
40318
39417
38696
38348
37892
37612
37066
37074
36451
35915
34984
34007
32990
32442
32325
32036
31844
31732
31561
31606
31167
31205
31351
31453
31491
31263
30908
30875
30834
31197
31681
31869
32156
31932
31950
31926
31434
31188
30925
30895
30737
30258
30142
29799
29774
29903
30405
30727
30663
30813
30812
30822
30655
30859
30913
30625
30740
30644
30599
30348
30094
30162
29862
29780
29836
30191
30455
30289
30356
30518
31078
31411
31559
31402
31363
31455
31215
31557
31943
32122
32063
31375
31079
31124
31111
31239
30869
30807
30876
30849
31085
31188
31516
31557
31569
31102
31238
31557
32014
32102
32133
31852
31437
31570
31535
31580
31429
31777
31867
32075
32007
32122
31993
31812
31721
31503
31975
31990
31728
31247
31124
31403
31428
31782
32174
32487
32926
32849
32941
32757
32510
32576
32380
32471
32119
31592
31359
31148
31415
31796
32047
32445
32402
32206
32029
31620
31620
31493
31495
31481
31377
31809
31958
32414
32762
33041
33223
33053
33199
32753
32409
31975
31459
31278
30964
31053
31286
31151
31316
31622
31521
32079
32566
33038
33439
33468
33543
33495
33623
33610
33199
33151
32803
32820
32719
32820
33260
33167
33158
33199
33338
33670
33429
32964
32972
33180
33775
33799
33627
33382
32973
33023
32876
32877
32608
32668
32972
33017
33300
33361
33513
33720
33639
33889
33809
33995
33951
33922
34188
34188
33938
33821
33436
33127
33242
33012
33078
32834
32872
33063
32856
32824
33092
33299
34055
34394
34663
34439
34016
34127
33927
34039
34165
34279
34454
34002
33583
33259
32895
32937
33349
33276
33173
33311
33495
33413
33394
33244
33434
33740
33415
33169
33124
32829
32796
32815
32579
32639
32452
32551
32549
32404
32502
32303
32250
32542
32617
32700
32775
32683
32664
32407
31828
31516
31799
32157
32303
31887
31559
31436
31191
31427
31473
31511
31476
31174
31284
31228
31533
31731
31876
32334
32404
32371
32159
32063
32236
31970
31879
31903
31644
31738
31535
31444
31534
31374
31622
31902
32104
32074
31735
31843
31657
31981
31993
31978
31779
31807
31879
32103
32279
32245
32282
31991
32111
31892
31905
31700
31738
32161
32453
32735
32292
32165
31623
31237
31116
31582
31676
32103
32237
32713
32841
32938
33041
32868
32831
32698
32431
32583
32213
32050
31543
31214
30855
30855
30807
30974
31058
31591
31965
32277
32007
31787
31693
31916
32298
32354
32640
32615
33095
33099
33205
32793
32688
32318
32259
32150
32291
32196
32167
32157
32381
32738
32661
32887
32765
32929
32988
32846
32941
32687
32637
32255
32143
31982
31913
31822
31671
31669
31429
31655
31751
32103
32578
32711
33109
33215
33269
33650
33713
33755
33636
33323
33239
32869
32864
32659
32364
32448
32293
32327
32106
32121
32167
32020
32116
31794
31820
31947
31967
32352
32545
32767
32924
32604
32331
32575
32838
33300
33238
33661
33391
33031
32771
32285
32263
32321
32668
32919
33009
33256
33263
33255
33257
32815
32775
32270
32458
32380
32568
32273
31981
31751
31797
32281
32427
32692
32728
32602
32870
32795
32866
33116
33046
33102
32561
32378
32012
31903
31978
31679
31676
31598
31567
31976
32292
32903
33116
33088
33041
32999
33373
33191
33473
33316
33517
33215
33068
32686
32669
32574
32814
33039
32813
32947
32773
32705
32879
32970
32972
32831
32396
32183
31591
31791
31997
32047
31900
32182
32511
32639
32905
32669
32791
33060
32825
32997
32951
33246
33679
33849
33666
33071
32642
32023
31867
31641
31927
32365
32262
32372
32119
32394
32684
33286
33250
33083
33202
33058
33070
33066
32979
33251
33326
33474
33372
33231
33250
33039
32977
32756
32516
32468
32419
32027
32233
32237
32236
32181
32324
32509
32263
32252
32428
32809
32708
32809
32838
32541
32607
32962
33987
34633
34879
35117
34708
34369
34439
34183
33964
33474
33436
32994
33209
33269
33223
33020
32820
33010
32801
33014
32956
33349
33199
33678
33903
34199
34183
34119
34213
33949
33826
33607
33380
33357
33135
33219
33045
32935
32935
32868
32959
32858
32839
33007
32875
32655
32531
32501
32999
33192
33319
33247
32955
33127
33151
33323
33604
33367
33174
32889
32862
33405
33418
33363
33173
32891
32741
32428
32599
32685
32692
32730
32335
32426
32361
32030
32140
32219
32377
32660
32486
32698
32640
33124
33437
33551
33391
32990
32615
32423
32327
32263
32532
32364
32175
31955
31742
31900
31662
31600
31593
31605
31751
31685
32151
32356
32926
32924
33067
33204
32941
32862
32259
31973
31507
31852
31795
31934
31785
31751
31548
31668
31884
31779
31943
31482
31239
31164
31383
31613
31796
31492
31435
31661
31708
31871
31918
32567
32732
32919
32855
32500
32515
32343
32578
32242
31959
31596
31495
31495
31789
32106
32224
32230
32151
32097
31994
32298
32379
32567
32351
32583
32855
32646
32893
32677
32259
31783
31473
31180
30868
30623
30676
31092
31631
32077
32307
32603
33156
33963
34759
36204
37102
37601
38095
38524
38888
38883
39375
39495
39706
40028
40078
40711
41166
41111
41607
42093
42308
42866
43228
42986
42923
42797
42193
42291
41901
41180
40520
39939
38827
38290
38208
38078
38099
37552
37383
36567
35335
34318
33406
32959
32325
31927
31895
31552
31527
31605
31450
31463
31483
31239
31105
30951
30490
30354
30239
30511
30536
30287
30189
29659
29676
29776
30019
30113
30020
30473
30855
31438
31516
31207
30701
30604
30567
30455
30631
30632
30775
30753
30613
31167
31431
31889
32127
32230
32062
31827
31207
30737
30733
30727
30612
30303
30173
30385
30559
30686
30909
30977
30998
31173
31228
31248
31144
30950
30740
30479
30439
30306
30458
30759
30940
31194
31471
31303
31111
30845
30548
30823
31116
31655
32054
32007
32094
32269
32209
32307
32228
31829
31733
31587
31188
31125
30953
30741
30778
30764
30925
30921
30938
31167
31284
31534
32070
32167
32401
32711
32452
32327
32188
31940
31804
31492
31295
31487
31439
31330
31548
31783
32159
32051
31889
32064
32165
32442
32655
32696
32479
31988
32118
32027
31733
31526
31140
30826
30561
30405
30319
30369
30570
31160
31605
31655
31729
31839
31910
31459
31303
31315
31301
31399
31518
31793
32004
32252
32388
32518
32580
32554
32408
32191
32151
32007
32047
32143
32199
32330
32759
33061
33138
33439
33447
33411
33073
32810
32431
32359
32263
32454
32775
33013
32917
32516
32228
32327
32568
33031
33115
33260
33725
33883
33716
33450
33381
33263
33051
32774
32412
32614
33015
33343
33165
32488
32581
33043
33087
32933
32903
32839
33283
33372
33321
33280
33118
33142
32837
32791
32712
32838
33155
33021
33399
33936
34308
34231
33993
34045
33671
33605
33183
32895
32719
32420
32649
33006
33407
33839
34023
34125
34454
34508
34441
34203
34120
34109
33751
33807
33829
33415
33062
32583
32567
32623
32646
32533
32300
32440
32461
32547
32892
32805
32636
32674
32580
32477
32455
32770
32903
33037
32988
32764
32519
32190
31875
31213
31012
31081
31149
31062
30977
31328
31540
31851
32403
32916
33294
33097
33025
32725
32464
31868
31614
31422
31158
31310
31468
31978
32684
32732
32708
32751
32943
33063
32712
32301
31802
31669
31594
31077
30696
30482
30317
30348
30587
30645
31019
31526
31992
32791
33212
33588
33983
33790
33420
33285
33050
32871
32670
32276
31667
31346
31461
31540
31505
31332
31252
31140
31287
31247
31284
31579
31800
32259
32719
32876
33173
33519
33367
33143
32717
32606
32500
32155
32087
32326
32673
32918
32602
32566
32551
32247
32303
32551
32511
32690
33082
33111
32969
32722
32263
32253
31812
31661
31570
31398
31367
31572
32149
32439
32709
32514
32535
32658
32737
33058
33173
33198
32927
32743
32294
32073
31950
31750
31708
31536
31343
31446
31257
31366
32003
32966
33591
33569
33593
33319
33335
33309
32893
32747
32903
33018
32966
32896
32847
32849
32316
31903
31802
31591
31926
32037
32140
32431
32512
32623
32775
32683
32535
32199
32239
32703
33142
33477
33559
33023
32714
32411
32068
32236
32773
33051
33003
32484
31824
31285
31330
31655
31879
32610
33175
33439
33459
33252
33381
33471
33334
33477
33311
33219
33282
33052
33173
33286
32898
32716
32317
32021
32335
32519
32910
33215
33127
33140
32509
32239
32164
32165
32328
32150
32117
32316
32287
32303
32326
32372
32775
33151
32924
32749
32737
32502
32586
32446
32127
32227
32647
32529
32726
32994
32687
32717
32820
32686
32775
32910
32793
32794
32854
32884
32612
32527
32671
32926
33132
32929
32900
32807
32460
32620
32814
32865
32906
32594
32723
32942
32674
32617
32727
32692
32910
32942
32632
32508
32391
32550
32378
32478
32884
33061
33095
32671
32511
32447
32364
32632
32760
32998
33183
32833
32775
32986
32871
33041
33034
32983
33173
33007
32816
32729
32660
32542
32515
32623
32455
32581
32710
32949
33025
32823
32735
32682
32415
32383
32436
32244
32271
32553
32967
33479
33623
33385
33168
32869
32692
32567
32294
32415
32628
32294
32321
32308
32555
32653
32676
32751
32727
32906
33242
33039
33156
33263
33143
33122
33409
33435
33735
33497
33564
33678
33315
33201
33108
32996
33092
33259
33268
33388
33136
33049
33054
32999
33212
33572
33819
34067
34048
33958
34585
34717
34513
34491
34326
34247
33807
33654
33519
32975
32713
32740
32883
32913
32739
32565
32425
32595
32703
33287
34007
34111
34106
33679
33269
33076
32761
32800
32865
32578
32516
32714
32544
32528
32609
32807
33021
32758
32481
32248
31765
31767
31946
31859
31668
31612
31705
31686
31948
32651
33245
33537
33615
33506
33462
33047
33019
33222
32923
32910
32775
32125
31665
31547
31274
31125
31199
31591
31457
31495
31694
31911
32223
32260
32308
32169
31918
32004
32276
32481
32237
32167
32236
32148
32604
32860
32415
31991
31675
31276
31367
31631
31459
31567
32068
32220
32559
32681
32627
32487
32354
32309
31871
31554
31681
31690
31647
31686
31656
31684
31926
31911
32142
32720
32697
32652
32566
32324
32178
32167
32241
32322
32097
31951
31708
31532
31536
31583
31591
31855
31991
32357
32436
32817
33118
32885
32796
32804
32711
32999
33415
33485
33649
34213
34749
35308
35858
36354
37019
37223
37479
37841
37767
38391
39036
39407
40184
41140
41702
42352
42402
42179
42407
42055
41991
41588
41964
41417
40900
40700
40663
40636
39766
40092
40447
39853
39775
39334
38476
37765
36988
35903
34937
33532
32483
31517
30888
30816
30564
30404
30121
30104
30287
30452
30637
30876
30812
30556
30146
29773
29848
29831
29783
29805
29580
29268
29175
29158
29410
29793
29913
29990
29878
30087
30609
30647
30548
30567
30432
30411
30506
30479
30623
30797
30680
30746
30712
30907
30792
30703
30804
30623
30646
30885
30756
30802
31063
31078
31025
30828
30669
30471
30458
30436
30498
30215
30166
30305
30255
30097
30055
30549
31188
31355
31626
31848
31935
31985
31815
31587
31477
31258
31070
30735
30673
30559
30248
30078
30127
30111
30343
30554
30887
30949
31332
31810
31922
32075
32149
32316
32666
32583
32397
32344
32084
31873
31678
31389
31364
31534
31292
31061
31076
30844
31031
31457
31911
32117
32295
32169
32081
31669
31388
31047
30831
30612
30566
30807
30953
30997
31223
31151
31479
31935
31768
31663
31846
31681
31538
31691
31807
31948
32194
32415
32790
32863
32788
32601
32263
32287
32112
32222
32279
32047
31927
31924
31729
31708
31695
31815
32140
32250
32486
32796
32508
32599
32634
32397
32372
32339
32435
32362
32055
32173
32786
33406
33260
33138
32740
32216
32446
32907
32706
32263
31977
31684
31623
31540
31839
32157
32547
32668
32428
32351
32511
32633
32929
32715
32586
32704
32796
32951
32976
32585
32683
33174
33575
34020
34063
33662
33375
32996
33045
33183
32911
32695
32551
32303
32221
32303
32378
32812
32827
32980
33383
33256
33138
33277
33071
32772
32739
32636
32718
32877
33118
33644
33748
33909
34096
33827
33671
33612
33477
33178
32965
32562
32394
32271
32257
32575
32596
32866
33604
33807
34015
34000
33716
33516
33359
33180
33116
32772
32637
32708
32855
32994
33056
32908
32943
33009
32722
32605
32391
31921
31906
31999
31948
32068
32125
32002
32101
32060
32117
32213
31911
31939
32346
32244
32007
31732
31500
31343
31348
31686
31823
32349
32405
32354
32247
31988
31908
31780
31551
31341
31223
31404
31284
31239
30991
30804
30934
30934
31308
31943
32133
32257
32365
31998
31893
31570
31293
31399
31412
31732
31918
31888
32182
32075
31892
32047
32074
32340
32574
32380
32186
32220
32001
32148
32422
32341
32137
31807
31806
31796
31731
31885
31876
32047
32161
32300
32409
32220
32006
32218
32357
32533
32601
32583
32383
32134
31925
31720
31838
31719
31535
31455
31297
31476
31948
32268
32839
33301
33250
33244
33367
33232
33065
32559
32292
32095
31686
31434
31670
31641
31542
31482
31384
31587
31655
32118
32735
32854
33142
32820
32349
32155
32127
32080
31777
32188
32489
32662
32838
32761
32879
33045
32985
32847
32804
32954
32917
32855
33111
33113
33111
33163
32994
33046
32524
31971
31644
30974
30454
30566
31081
32092
33255
33830
33655
33568
33849
33978
34154
34326
34172
34125
33572
33176
32919
32373
31947
31773
31542
31510
31372
31514
31658
31879
32414
32618
32975
33228
33029
32933
33039
32855
32602
32115
31935
31943
31751
31724
31446
31668
31664
31503
31834
32188
32244
32071
31940
32639
33635
34532
34332
33948
33335
33165
33286
33268
33295
33359
33590
33453
33508
33366
32839
32594
32479
32307
32122
31914
32273
32591
32445
32620
32606
32826
33206
33053
32807
32668
32508
32668
32380
32321
32469
32604
32951
33049
32983
32838
32692
32711
32509
32580
32423
32359
32420
32251
32282
31983
32000
31951
31999
31823
31401
31439
31660
32371
33190
33415
33473
33519
33454
33370
33238
32986
32926
32463
32114
32007
31959
32228
32342
32532
32417
32641
32869
33439
33924
34130
34413
34175
33994
33487
33412
33479
33287
32983
32398
32133
32126
32089
32380
32475
32397
32422
32480
32632
32446
32388
32477
32576
32754
32604
32475
32215
31818
31762
31975
32300
32607
32133
32033
32007
32424
32944
33009
33005
32954
32764
32829
33031
32975
32978
33105
32892
32927
32687
32715
32885
32807
32895
32807
32696
32633
32414
32418
32431
32761
32716
32739
32947
33031
33126
33284
33340
33543
33372
33114
32940
32877
33199
33263
33542
33692
33767
33918
34090
34388
34376
34481
34311
34521
34759
34389
34119
33556
33559
33140
32982
32954
32775
32848
32740
32775
33041
33327
33718
33863
33727
33510
33499
33317
33357
33716
33868
34015
33743
33673
33195
32996
32740
32709
33132
33415
33450
33108
33138
32756
32695
32870
32590
32359
32228
31940
31900
31991
32186
32353
32380
32684
32769
32831
32903
32897
32831
32815
32617
32667
32692
32561
32348
32263
32079
31938
31703
31213
31069
30807
30429
30452
30697
31222
31847
32144
32426
32338
32229
32140
32380
32215
32215
32263
32678
32719
32719
32839
32740
32695
32847
32839
32677
32207
31999
31488
31364
31559
32046
32213
32367
32029
32042
32000
32166
32242
32415
32361
31996
31921
31994
32342
32204
32245
32082
31980
32145
32135
32119
31853
32026
31869
31871
32288
32435
32294
32236
32655
32817
33124
32927
32755
32727
32371
32050
31749
31788
31653
31697
31580
32023
32106
32059
32151
32135
32260
31983
31810
31895
32109
32459
33014
33951
34498
35173
35723
36782
37484
38343
38588
38748
39134
39313
39844
39511
39839
39705
40037
40265
40071
40718
41025
41724
41788
42819
43189
43446
43827
43228
42743
41991
41062
40389
39626
39733
39525
39295
38822
37894
37155
36346
35463
34750
33670
32850
31772
31056
30652
30085
29772
29313
29095
29152
29617
30032
30584
30794
31196
31749
32413
32143
31718
31388
31084
30886
30395
30032
29863
30098
29922
29887
30010
29900
30003
30015
30260
30759
31071
31289
31080
30999
30767
30575
30521
30362
30385
30319
30359
30722
30927
31287
31135
30895
30890
30940
31173
31212
31399
31361
31387
31729
31748
31787
31325
30880
30748
30560
30439
30651
30641
30633
30723
30621
30527
30510
30102
29921
30150
30343
30655
30477
30732
31220
31367
31582
31764
31452
31228
30847
30626
30903
31311
31940
32103
31976
31843
31414
31137
31118
31279
31525
31535
31208
31230
31317
31703
31649
31511
31679
31835
32070
32435
32679
33080
33167
33009
32945
32548
32263
31805
31810
31968
31973
32047
31991
31948
31951
31827
31580
31470
31516
31420
31228
31095
31085
31156
31203
31301
31276
31526
31639
31935
32116
32165
31841
31790
31669
31376
31209
31260
31388
31683
31908
32127
32303
32716
32798
32818
32452
32229
31951
32078
31885
32037
32532
32620
32456
32157
32227
32253
32491
32320
32355
32633
32668
32633
32300
32664
32887
32953
33025
32770
32557
32044
31961
31936
32108
31975
32068
32005
32334
32528
32743
32627
32628
32877
33031
33270
33263
33653
33635
33412
32930
32879
32807
33041
32906
32940
33287
33407
33450
33255
33316
33476
33343
33641
33827
34023
33702
33572
33444
33119
33316
33676
34055
33761
33510
33092
33067
33200
33143
33076
32945
33100
33167
32877
32740
32751
32878
32858
33524
33909
34135
33733
33799
33933
33638
33535
33357
33570
33550
33580
33719
33525
33244
32868
32635
32967
32735
32735
32657
32459
32407
32228
32332
32415
32788
32791
32870
32660
32567
32452
32613
32428
32401
32559
32608
32900
32999
33069
32711
32308
31888
31614
31540
31446
31663
31831
32055
32532
32903
33007
32619
32537
32346
32356
32371
32354
32373
32064
32127
32093
31871
31522
31285
31223
31003
31077
31495
31629
31821
32068
32493
32578
32743
32367
32036
31956
31844
31969
31696
31540
31001
30584
30836
31469
31924
32028
32615
33233
33383
33605
33535
33327
33098
32550
32263
31847
31839
31869
31374
31089
31015
31231
31490
31533
31646
31735
31974
32069
32245
32199
32315
32572
32332
32165
32098
32287
32775
32742
32454
32435
32101
31945
32131
32000
31953
31792
31838
32079
32273
32727
33190
33359
33574
33173
32716
32792
33022
33191
33166
32508
32101
31967
31781
31721
31597
31957
32206
32612
32804
32560
32486
32436
32512
32554
32174
32055
32245
32490
32888
32498
32199
32303
32411
32536
32606
32990
32983
33127
33031
33191
33009
33107
33071
33052
33062
33087
33327
33078
32760
32236
32228
32207
32500
32875
32895
32897
32638
32769
32673
32527
32349
32345
32478
32421
32441
32301
32110
31764
31780
31586
31641
31844
32399
32871
33011
33197
33020
32748
32396
32758
32900
32881
32708
33244
33884
33996
34062
33808
33759
33370
33126
32951
32700
32368
32071
32049
31894
31839
32055
32235
32623
32655
32743
32783
32901
32794
32941
32718
32751
32687
32902
32769
32468
32058
31726
31804
32039
32404
32560
32660
32180
31876
31711
32029
32029
32335
32596
32996
33207
33011
32679
32903
32883
33074
32918
32823
32809
32830
32822
32685
32584
32508
32844
32853
32986
32789
32846
32449
32340
32495
32871
33081
32687
32595
32167
31886
32418
32791
33196
33091
33153
33473
33184
32966
32782
32532
32444
32701
32831
33132
32841
32710
32570
32080
31916
32023
32080
32495
32795
33198
33044
32998
33004
32851
32885
32965
33005
32799
32671
32639
32495
32532
32348
32331
32525
32372
32493
32443
32605
32906
33120
33308
32908
32427
32071
32218
32415
32696
32892
32350
32157
32263
32475
32873
33019
33428
33677
34194
34284
34480
34139
34152
33758
33518
33282
32829
32837
32790
33116
33327
33378
32846
32716
32631
32667
32511
32647
33164
33351
33500
33719
33871
34276
34196
34212
33975
33796
33719
33663
33735
33979
34272
34503
34603
34751
34466
34471
34173
34247
34181
34284
33852
33697
33159
33009
32610
32297
32572
33287
34090
33988
33639
33186
32771
32932
32830
32930
33006
32878
32943
32981
33281
33135
33247
33521
33525
33552
33251
33167
33227
33031
33039
32988
32916
32576
32623
32942
32988
33023
33049
33102
32951
32934
32399
32257
32220
32317
32467
32407
32436
32391
32695
32569
32423
32151
32108
31700
31849
31983
32330
32639
32663
32679
32908
32948
33043
32926
33020
32724
32372
32058
31657
31572
31500
31670
31978
32167
32655
32932
33009
32975
32879
33098
32877
32788
33087
32997
32772
32696
32465
32258
31837
31564
31489
31327
31324
31038
31001
30949
30818
30790
30520
30415
30974
31461
32030
32427
33069
33462
33544
33655
33327
32935
32342
32193
31966
31936
31724
31770
31878
32539
32611
32466
32183
32177
32185
32069
32159
31863
31548
31606
31604
31788
31582
31724
31952
32336
32453
32860
33039
33567
34214
34552
34916
35111
35567
35716
36306
36524
36865
37155
37079
37366
37580
38231
38495
39055
39284
39768
39636
40423
41151
41461
41991
42055
42455
42928
43080
43271
42911
42548
42413
41344
40318
39143
38663
38238
37844
37572
37177
37075
36449
35666
34546
33833
33119
32594
32236
31772
31407
30923
30566
30383
30205
30095
29847
29912
30215
30335
30629
30940
31125
31179
31285
31181
31104
30933
30828
30743
30480
30296
30484
30378
30296
30347
30381
30446
30673
30623
30521
30329
30567
30487
30229
29993
29886
29875
30148
30280
30418
30581
30811
30719
30605
30444
30246
30341
30396
30486
30563
30594
30623
30879
31068
31108
31221
31347
31340
31260
31179
30987
30623
30317
29989
29975
29964
30127
30275
30550
30824
30836
31014
31132
31067
31065
31141
30916
30823
30600
30695
31005
31093
31163
30967
31248
31878
32238
32551
32370
32239
32153
32044
32039
31671
31308
31110
31042
31367
31618
31900
32020
32055
32005
31796
31858
31724
31812
31736
31919
31804
31751
31518
31604
31596
31825
31663
31560
31762
31751
31950
32007
31919
31935
32018
32100
31590
31412
31179
30954
30925
30885
31156
31228
31519
31668
31904
31631
31568
31409
31471
31822
32179
32349
32342
32543
32517
32435
32156
32168
32198
32359
32618
32433
32542
32361
32365
32335
32117
31907
31837
32169
32199
32367
32350
32258
32416
32590
32730
32601
32508
32316
32456
32391
32380
32452
32900
32953
32971
32965
32673
32727
32679
32466
31902
32161
32197
32310
32720
33051
33500
33543
33365
33090
33413
33721
33903
34095
34231
34623
34311
33908
33766
33466
33685
33590
33700
33948
34207
34407
34087
33829
33689
33668
33814
33543
33415
33331
33612
33757
33692
33815
33836
33526
33407
33087
33277
33480
33660
33709
33626
33703
33460
33535
33329
33428
33212
32903
32442
32165
32129
32133
32114
32062
31858
31580
31575
31660
31853
31932
32192
32140
32167
32388
32775
33415
33533
33490
33008
32567
32345
32246
32218
32015
31956
31845
32015
32188
32700
32759
32876
33115
33063
33105
32623
32597
32621
32370
32132
31748
31813
31773
31841
31495
31352
31212
31171
31126
31479
31620
31687
31790
31509
31391
31209
31327
31503
31215
31332
31836
31868
32066
31866
31689
31380
31399
31525
31391
31366
31477
31384
31619
31668
31967
32223
32532
32262
31956
31826
31539
31855
31732
31492
31306
31101
31127
30958
30727
30844
30820
30953
30805
30951
30928
30935
31317
31751
32343
32349
32406
32817
32951
32961
32604
32263
31834
31471
30997
30895
31275
31937
32166
32363
32694
32679
32615
32452
32596
32466
32094
32255
32390
32495
32529
32252
31968
31899
31791
32108
32367
32606
32587
32532
32708
32556
32522
32916
32884
32836
32749
32758
32742
32771
32823
32586
32423
32519
32450
32412
32039
32190
32410
32791
33163
33068
33056
32742
32678
32614
32673
32222
32234
32695
32909
32775
32407
32332
32486
32675
32921
33023
33222
33031
32831
32406
32198
32169
32679
32565
32359
32287
32133
32069
31781
31687
31601
31631
31287
31191
31200
31732
32108
32655
33105
33140
32699
32724
32735
32832
32535
32495
32575
32597
32765
32784
32898
32801
32918
32954
33366
33319
33202
33047
33124
32948
33157
33040
33110
32620
32685
32757
32542
32658
32556
32341
31902
31652
31654
31851
31933
32212
32355
32439
32591
32615
32774
32751
33202
33214
33241
32844
32410
32327
32196
32175
32279
32439
32990
33190
33366
33127
32647
32571
32710
33022
33204
32859
32775
32826
32495
32346
32175
32324
32796
32990
33020
32627
32647
32565
32848
32881
32814
32852
32529
32334
32205
31945
31983
31820
31894
31714
31770
32030
32439
32856
32903
33018
32764
32612
32746
32967
32758
32624
32412
32475
32398
32307
32572
32764
32693
32436
31990
32069
32243
32945
33373
33451
33322
33340
33084
33071
32942
32863
33142
33129
33084
33090
33103
33285
32922
32527
32154
32359
32719
32615
32665
32573
32766
33055
33268
33304
33031
32934
32873
33164
33170
33252
32942
32815
32794
32730
32751
32858
32846
32591
32594
32391
32362
32363
32582
32730
32806
33077
33234
33897
34284
34217
34183
34183
33884
33684
33231
33196
33424
33932
33868
33842
33768
34015
34403
34236
34178
33972
33989
33791
33937
34075
33897
33695
33268
33028
32223
31836
31884
32017
32057
32143
32119
32338
32204
32425
32743
33089
33521
33541
33621
33257
33146
32924
32583
32519
32318
31834
31620
31559
31789
31654
31705
31813
32028
31855
31807
31844
31878
32350
32646
32775
32868
32700
32475
31871
31647
31708
31877
31886
31843
32044
32363
32463
32352
32119
31845
31789
32428
32637
32967
32838
32623
32366
31884
31619
31735
31630
31597
31551
31745
31585
31599
32047
32631
33087
33039
32830
32583
32530
32111
32084
31946
31919
31580
31675
31807
31782
31719
31687
31733
32343
32734
32944
32999
32631
32237
32018
31743
31879
31966
32142
32377
32215
32153
31831
31449
31468
31364
31181
31087
31554
32219
32333
32329
32607
32551
32647
32850
32660
32599
32187
32069
31916
31746
32003
32190
32633
32579
32751
32711
32917
33839
34519
35170
35335
35959
36764
37127
37472
37593
37812
38071
38151
38582
38449
39061
39818
40316
41286
41671
42058
42212
41871
42145
42246
41898
42007
41518
41367
41031
40127
39628
38727
38509
38671
38383
38140
37479
36775
35296
33972
33212
32670
32511
32226
32317
31903
31429
31114
30895
31084
31053
31047
30844
30414
30145
30030
30445
30607
30938
30887
30772
30522
30162
30383
30510
30590
30582
30410
30589
30471
30340
30279
30028
29983
29826
29738
29774
29687
29948
29915
29852
30018
29943
30197
30557
31014
31052
30864
30560
30182
30150
30133
30354
30783
31028
31444
31431
31401
31572
31556
31634
31364
31430
31229
31172
31121
30920
31067
30977
31005
31135
30873
30725
30607
30767
30642
30838
30888
31199
31442
32165
32351
32329
32207
31796
31623
31459
31449
31141
31101
31303
31878
31957
31898
31451
31316
30929
30777
30478
30436
30774
31300
31953
32117
32246
32095
32191
32070
32104
32430
32442
32476
32009
31524
31164
30967
31080
30826
30950
30901
31046
31590
32026
32357
32484
32838
32775
32884
32711
32524
32328
31826
31567
30993
30681
30499
30403
30652
30847
31396
31769
32119
32036
32135
32460
32324
32237
32045
31806
31858
32055
32543
32535
32479
32441
32180
31997
31685
31846
32133
32004
31981
32047
32006
32103
32561
33143
33611
33703
33510
33438
33039
32794
32299
31905
31871
31724
31695
31535
31877
32359
32956
33570
33665
33810
33721
33830
33556
33196
33023
33252
33711
33496
33468
33439
33130
32881
32611
32710
32519
32975
33316
33294
33281
33197
32959
33150
33332
33283
33103
32732
32838
33588
33785
33832
33673
33724
33871
33799
33829
33607
33575
33524
33146
33031
32911
32607
32625
32978
33052
32941
32835
32710
32775
32913
32832
32911
33042
32590
32498
32703
33205
33373
33085
32740
32676
32668
33168
33640
33863
33871
33668
33711
33247
33237
33328
33212
33055
32804
32847
33060
33060
33180
32716
32376
32400
32630
32848
32557
32359
32228
31831
31626
31408
31484
31687
31535
31388
31592
31578
31670
32054
32472
32615
32209
32143
32103
31538
31185
31327
31383
31658
31555
31453
31775
32076
32288
32556
32316
32076
32002
31898
31860
31981
31885
32081
32142
31908
32097
32279
32126
31913
31535
31041
30678
30493
30193
30169
30239
30380
30670
31005
31552
31741
32034
32427
32560
32796
32870
32600
32429
32278
31983
31916
31799
31700
31796
31825
31830
32031
32116
32431
32391
32263
32380
32412
32343
32349
32225
32263
32284
31854
31780
31859
31716
31571
31515
31314
31284
31780
32201
32713
33244
33222
33014
32868
32501
32356
32722
32834
32817
32723
32532
32391
32374
32022
31914
32215
32207
31966
31983
31818
31684
31412
31248
31573
31599
31532
31742
31847
31981
32490
32687
32548
32447
32343
32431
32513
32375
32607
32487
32330
32554
33022
32863
32765
32982
32991
33041
33275
33262
33151
33012
32730
32804
32680
32700
32660
32616
32302
32238
32319
32190
32516
32650
32696
32486
32088
32500
33073
32693
32460
32596
32441
32289
32206
31815
31730
31780
32033
32308
32381
32399
32458
32559
32983
33486
33395
33276
33155
32775
32547
32441
31978
31268
31140
31582
31511
31454
31764
32072
32669
33102
33349
33737
33882
33384
33202
33159
32803
32775
32766
32410
32351
32653
32668
32634
32583
32357
32292
32386
32255
32167
32340
32628
32852
33279
33346
33319
33150
32601
32327
32479
32401
32364
32412
32231
32204
32278
32285
32310
32604
32631
32743
32849
33014
32836
32822
32889
32775
32509
32476
32312
32343
32455
32534
32816
33051
32935
32591
32175
32301
32404
32407
32379
32044
31895
31765
31774
31838
31967
32298
32757
33008
32855
32622
32582
32278
32286
32428
32533
32375
32489
32804
32612
32260
31966
32182
32350
32294
32167
32132
32207
32150
32420
32687
33071
33521
33791
34000
34126
34180
34220
34143
33583
33109
32989
32628
32661
32916
32705
32645
32885
33071
33351
33157
33231
33470
33397
33470
33599
33786
33645
33716
33477
33396
33565
33437
33560
33865
33770
33679
33611
33476
33719
33876
33450
33087
32999
32573
32359
32799
33081
33415
33671
33604
33649
33777
34113
34228
34456
34476
34143
33951
33540
33494
33534
33650
33340
33052
32863
32812
32617
32503
32693
32616
32494
32353
31911
31423
31146
31201
32037
32570
32607
32655
32807
32748
32916
32943
32719
32749
33023
33031
32839
32830
32594
32365
32237
32172
32074
31695
31698
31648
31503
31350
31319
31411
31611
31879
32074
32215
32297
32425
32933
33477
33557
33300
32894
32658
32440
32357
32320
32358
32566
32562
32693
32463
31671
31118
30695
30663
30876
31402
31396
31348
31729
32033
32610
33142
33317
33272
33308
33071
32916
32838
33003
32903
32678
32453
32109
32116
32460
32501
32628
32728
32383
31943
31079
31014
31581
31815
31934
31740
31660
31669
31855
32164
32308
32831
33180
33221
33317
33464
33227
32831
32325
31806
31703
31861
31853
32076
32168
32147
31879
32100
32688
32871
33468
34471
35287
36075
36404
36501
36710
37122
37887
38335
39061
39576
39769
40153
40047
40007
40293
40255
40776
41222
41213
41536
42119
41829
42283
42564
41978
41938
41708
40967
39958
39124
38870
38484
38095
37565
37098
36894
36636
35847
35191
34588
34102
33705
33115
32658
32239
31516
30885
30757
30758
30772
30705
30449
30575
30376
30270
30329
30087
