ECG
31488
29278
27006
24876
23076
21948
21649
22229
23882
25944
28574
31345
33681
35394
36567
37260
37346
36738
35427
33799
31740
29419
27009
24814
23004
21840
21561
22207
23927
26036
28698
31459
33744
35462
36603
37228
37255
36696
35424
33883
31828
29620
27320
25167
23396
22257
22010
22656
24388
26488
29141
31896
34167
35846
37036
37664
37653
37025
35750
34159
32139
29832
27494
25309
23512
22411
22180
22774
24404
26462
29084
31796
34062
35779
36926
37507
37452
36831
35508
33879
31860
29602
27303
25210
23487
22429
22196
22823
24462
26469
29060
31704
33874
35391
36319
36917
36934
36341
35162
33762
32105
30276
28458
26890
25650
24884
24669
25066
26157
27623
29493
31290
32751
33855
34615
34985
34893
34449
33635
32439
30960
29354
27770
26406
25365
24822
24820
25453
26676
28183
30060
31852
33380
34535
35252
35522
35411
34865
33895
32732
31263
29690
28113
26746
25615
24796
24520
25005
26324
27992
30010
31988
33635
34885
35860
36306
36278
35823
34855
33692
32188
30586
29020
27564
26340
25524
25267
25783
27084
28828
31049
33188
34965
36463
37550
38144
38302
37895
36924
35674
34060
32134
29944
27942
26390
25495
25327
26047
27611
29565
32017
34344
36191
37648
38818
39388
39485
39031
37958
36639
34943
32886
30679
28705
27166
26236
26043
26732
28231
30276
32806
35144
36996
38319
39140
39415
39308
38788
37735
36390
34717
32680
30471
28476
26959
26054
25898
26661
28164
30117
32489
34821
36735
38230
39143
39621
39609
38999
37868
36443
34578
32353
29988
27910
26354
25501
25442
26347
27978
30052
32532
34877
36862
38348
39413
39923
39860
39162
37993
36526
34671
32428
30028
27978
26454
25687
25692
26669
28314
30471
33001
35350
37233
38608
39694
40193
40052
39400
38185
36635
34710
32404
29969
27831
26285
25535
25575
26572
28265
30447
32996
35324
37300
38650
39399
39802
39630
39005
37862
36302
34384
32041
29636
27597
26151
25469
25564
26628
28394
30671
33287
35665
37446
38758
39719
40149
39964
39171
37881
36205
34199
31766
29321
27305
25876
25180
25279
26417
28236
30575
33275
35662
37401
38732
39633
39965
39734
38838
37567
35879
33796
31389
29025
27063
25682
25060
25234
26442
28287
30661
33391
35831
37711
39044
39884
40175
39895
38908
37572
35847
33824
31316
28954
26982
25607
25021
25254
26567
28488
31026
33628
36090
37955
38966
40002
40244
39715
38950
37508
35687
33780
31210
28886
27026
25686
25126
25385
26670
28538
30906
33677
36173
37895
39036
40022
40392
39969
38816
37639
35978
33710
31290
28952
27050
25703
25156
25400
26681
28549
30997
33740
36134
37895
39195
40013
40293
39943
38822
37584
35967
33829
31239
28870
26970
25666
25163
25481
26837
28768
31271
33976
36330
38060
39345
40081
40340
40013
39035
37686
35932
33813
31356
28934
26978
25659
25134
25402
26711
28589
31081
33924
36327
38108
39332
40071
40239
39858
38817
37444
35692
33516
31023
28662
26783
25510
25031
25380
26780
28751
31338
34005
36189
37871
39138
39871
40092
39752
38753
37439
35704
33633
31092
28764
26951
25752
25332
25757
27158
29095
31560
34173
36437
38151
39324
40037
40210
39806
38733
37444
35750
33644
31213
28850
26971
25741
25276
25660
27071
28942
31406
34014
36337
38092
39257
39907
40064
39623
38500
37135
35516
33559
31118
28781
26953
25766
25380
25831
27288
29224
31717
34324
36519
38106
39324
40015
40150
39679
38594
37218
35462
33333
30828
28564
26799
25679
25331
25808
27361
29397
31985
34529
36603
38171
39282
39785
40015
39612
38487
37119
35335
33181
30706
28458
26714
25573
25239
25752
27308
29300
31911
34588
36745
38351
39429
40015
40067
39572
38443
37026
35193
33017
30526
28268
26542
25454
25188
25792
27436
29519
32100
34662
36738
38289
39413
39902
40045
39431
38277
36839
34996
32810
30394
28228
26564
25589
25479
26385
28311
30823
34060
37339
40134
42375
44101
45500
46469
46871
46676
46151
45062
43634
42141
41007
40509
40808
41743
43434
46047
48691
51444
53978
55894
57071
57663
57550
56710
55226
53133
50728
47765
44076
39793
35762
32564
30452
29487
29623
30764
32361
34450
36424
38023
38962
39554
39836
39303
38148
36668
34881
32680
30138
27484
25186
23388
22240
21940
22668
24316
26360
28956
31590
33636
35105
36059
36528
36408
35666
34407
32812
30796
28473
26068
23993
22378
21460
21358
22276
24051
26188
28834
31416
33532
35028
36029
36493
36447
35722
34412
32810
30756
28404
25985
23865
22246
21371
21336
22287
24033
26184
28759
31271
33354
34966
35929
36414
36330
35625
34356
32784
30792
28532
26263
24305
22819
22023
22052
23072
24831
26980
29612
32124
34138
35604
36553
36951
36841
36084
34807
33247
31257
28961
26624
24616
23068
22226
22169
23196
24935
27110
29733
32207
34140
35548
36487
36895
36751
35997
34794
33255
31286
29055
26765
24773
23297
22562
22647
23768
25584
27882
30572
33036
34991
36390
37279
37639
37425
36351
35294
33508
31498
29271
26821
24877
23383
22631
22690
23807
25594
27765
30425
32972
34665
36124
37015
37136
37196
36347
34941
33488
31368
29071
26778
24739
23253
22494
22573
23673
25436
27709
30445
32767
34725
36198
36922
37223
37109
36215
34789
33358
31260
28998
26781
24848
23376
22618
22634
23714
25415
27598
30161
32544
34484
35967
36911
37255
37048
36212
34923
33167
31239
28950
26676
24750
23292
22586
22695
23842
25633
27874
30496
32887
34799
36204
37100
37434
37236
36388
35132
33588
31604
29300
27022
25101
23664
22974
23108
24277
26082
28388
31053
33468
35364
36732
37646
38015
37802
36975
35726
34146
32188
29856
27580
25702
24366
23788
23997
25255
27036
29468
32215
34491
36392
37839
38546
38972
38898
37932
36700
35183
33068
30957
28570
26728
25426
24799
25039
26332
28204
30512
33145
35687
37548
38663
39559
39951
39748
38869
37575
35887
33876
31505
29135
27172
25766
25176
25409
26668
28520
30871
33533
35847
37637
39013
39844
40183
39861
38874
37530
35890
33866
31488
29118
27197
25876
25317
25569
26825
28669
31034
33605
35887
37592
38997
39786
40001
39677
38719
37406
35685
33630
31215
28880
26924
25596
25076
25383
26692
28620
31190
33834
36132
37798
39023
39723
39931
39452
38662
37298
35582
33464
31048
28807
26967
25641
25149
25455
26783
28671
31172
33858
36276
38036
39247
39934
40119
39740
38692
37326
35474
33415
31037
28788
26936
25676
25213
25615
27004
28878
31399
34060
36422
38068
39205
39902
40055
39687
38663
37301
35570
33462
31013
28709
26852
25637
25233
25651
27095
29028
31537
34093
36380
38118
39398
40013
40119
39667
38520
37166
35445
33305
30841
28597
26825
25619
25223
25636
27101
29041
31551
34164
36465
38165
39250
39782
39904
39453
38329
36959
35215
33030
30637
28396
26613
25440
25110
25586
27110
29084
31626
34268
36454
38072
39103
39754
39847
39359
38248
36864
35169
32999
30599
28361
26588
25414
25039
25503
26961
28846
31342
33786
35786
37278
38353
39004
38956
38588
37639
36302
34668
32775
30574
28496
26826
25729
25455
25873
26959
28495
30628
32847
34775
36133
37261
37895
38052
37639
36658
35540
34031
32340
30598
29031
27646
26461
25985
26343
27565
29261
31480
33652
35503
37001
38088
38823
38965
38559
37543
36337
34714
32762
30535
28468
26804
25674
25334
25838
27367
29350
31940
34592
36806
38468
39543
40017
40076
39453
38211
36738
34836
32615
30318
28177
26570
25579
25380
25983
27502
29425
31878
34351
36379
37881
38956
39502
39580
39011
37863
36342
34606
32586
30342
28202
26506
25457
25181
25790
27326
29319
31879
34536
36695
38244
39284
39738
39663
39036
37799
36199
34303
32083
29735
27604
25918
24937
24716
25433
27017
29057
31644
34193
36289
37911
38927
39388
39311
38612
37335
35822
33925
31729
29396
27337
25742
24806
24623
25335
26924
28916
31373
33756
35866
37382
38415
38965
38938
38241
37125
35751
34061
32078
29916
28028
26581
25719
25575
26252
27804
29862
32519
35024
36974
38615
39640
40128
40070
39425
38159
36530
34556
32293
29804
27804
26298
25438
25417
26263
28022
30246
32782
35398
37326
38780
39912
40230
40129
39503
37947
36686
34940
32751
30783
28708
27151
26271
26014
26820
28471
30382
32868
35287
37038
38519
39540
40047
40016
39362
38282
36855
35044
32988
30840
28912
27503
26660
26501
27249
28732
30607
32842
34975
36663
37890
38807
39261
39190
38511
37407
36007
34355
32461
30444
28614
27258
26494
26408
27189
28627
30471
32620
34615
36167
37344
38126
38504
38431
37780
36804
35523
33908
32039
30189
28488
27175
26439
26352
27199
28686
30647
32935
35113
36717
37932
38782
39140
39132
38434
37294
35861
34183
32238
30202
28422
27051
26309
26375
27466
29303
31818
34793
37677
40273
42462
44259
45582
46572
47140
47423
47437
47205
46620
45788
45229
45252
46068
47484
49615
51974
54964
57991
60412
62286
63212
63519
63839
63687
62006
60256
57988
55532
52500
49569
46518
43527
40945
38289
37255
36998
37650
38919
39590
40552
41007
40982
40646
39851
38398
36742
34626
32616
29919
27245
24929
23064
21999
21693
22410
23841
25791
28177
30502
32124
33524
34212
34534
34303
33213
32091
30334
28467
26252
24132
22299
20906
20181
20167
21184
22749
24669
26817
28799
30166
31215
31821
31854
31765
30827
29873
28440
26961
25295
23706
22428
21516
21159
21403
22428
23879
25728
27620
29433
30852
31735
32372
32618
32219
31593
30444
29235
27688
26100
24597
23384
22552
22280
22572
23645
25140
26980
28935
30637
31936
32791
33322
33476
33127
32260
31103
29736
28196
26492
24930
23687
22869
22599
22947
24042
25540
27460
29484
31230
32564
33574
34223
34415
34158
33356
32213
30917
29480
27982
26469
25259
24496
24332
24711
25871
27372
29247
31177
32888
34180
35041
35471
35557
35180
34202
32998
31556
29998
28318
26727
25410
24591
24330
24601
25607
27105
28817
30748
32391
33426
34387
34709
34631
34284
33114
31988
30686
28992
27340
25866
24569
23762
23510
23848
24972
26370
28183
30164
31647
32980
33652
34086
34150
33519
32641
31408
29879
28276
26533
24967
23686
22900
22683
23028
24108
25585
27416
29340
30979
32022
32847
33389
33147
32775
31911
30669
29316
27879
26169
24664
23508
22823
22677
23132
24295
25867
27791
29649
31313
32628
33356
33773
33887
33349
32371
31367
29913
28375
26815
25268
24157
23486
23409
23960
25175
26692
28764
30676
32355
33735
34413
34879
35035
34525
33580
32622
31175
29624
28081
26748
25647
25105
25115
25694
27089
28814
30767
32934
34472
35782
36718
37088
37255
36835
35828
34898
33462
31879
30329
29004
27895
27374
27394
27999
29404
31081
33046
34956
36708
37980
38772
39084
39046
38663
37648
36407
35079
33570
31918
30481
29366
28839
28895
29554
30788
32362
34426
36358
37916
39068
39844
40239
40218
39739
38733
37560
36054
34437
32767
31167
29982
29366
29362
29990
31318
32893
34862
36770
38182
39290
39983
40350
40196
39749
38722
37471
35949
34203
32380
30839
29663
29030
28968
29540
30817
32383
34364
36239
37517
38715
39391
39711
39559
38986
37926
36711
35126
33516
31825
30367
29270
28631
28642
29205
30516
32084
34014
35860
37317
38395
39079
39375
39246
38703
37695
36551
35141
33567
32008
30420
29372
28833
28735
29302
30667
32018
33983
35804
37165
38308
39047
39175
39156
38530
37679
36492
35063
33518
31979
30599
29614
29076
29117
29711
30918
32305
34044
35660
36986
38039
38807
39007
38695
38342
37446
36223
34855
33468
31911
30479
29511
29127
29085
29640
30813
32071
33610
35079
36320
37172
37731
37916
37766
37175
36135
34993
33932
32654
31159
29989
29161
28804
28774
29349
30454
31751
33430
34972
36111
36944
37395
37525
37334
36743
35821
34751
33495
32177
30879
29725
28944
28549
28615
29173
30240
31473
33082
34545
35676
36454
36837
36952
36780
36343
35448
34531
33339
32030
30629
29484
28640
28219
28342
28956
30189
31550
33102
34567
35655
36404
36967
37108
37077
36544
35708
34758
33598
32290
30932
29770
28970
28551
28637
29319
30401
31838
33449
34795
36114
36820
37327
37618
37475
36931
36046
35027
33797
32474
31133
30020
29247
28873
29004
29647
30791
32120
33684
35094
36180
36892
37365
37527
37540
37013
36148
35140
33934
32652
31328
30211
29479
29136
29309
29979
31093
32413
34004
35492
36583
37351
37853
37991
37831
37249
36350
35255
33998
32672
31324
30132
29340
28997
29110
29791
30949
32282
33834
35177
36267
36958
37369
37518
37263
36621
35714
34684
33551
32228
30871
29751
28958
28653
28828
29508
30608
31934
33484
34819
35847
36520
36908
37023
36871
36255
35308
34279
32991
31686
30388
29300
28548
28176
28270
28952
30087
31422
33053
34446
35447
36176
36571
36620
36373
35719
34798
33781
32528
31180
29874
28807
28073
27799
27980
28734
29895
31274
32842
34215
35236
35942
36334
36517
36284
35564
34628
33511
32212
30920
29670
28667
27987
27773
28012
28855
30033
31476
33098
34500
35544
36212
36559
36657
36370
35683
34791
33770
32568
31283
30034
29060
28404
28255
28555
29438
30654
32156
33855
35260
36312
37089
37510
37613
37417
36783
35823
34799
33475
32215
30980
29951
29457
29150
29413
30403
31474
33106
34580
35839
37009
37663
37951
38171
37764
37113
36208
35055
33886
32460
31321
30235
29583
29495
29707
30530
31777
33324
34764
36097
37095
37894
38321
38388
38084
37383
36455
35325
34019
32761
31541
30530
29897
29810
30127
30975
32078
33550
35111
36487
37562
38167
38463
38462
38087
37383
36349
35287
34092
32783
31530
30575
29958
29799
30068
30930
32117
33556
35066
36419
37423
38122
38535
38581
38301
37543
36620
35502
34244
32905
31587
30559
29906
29751
30009
30940
32191
33708
35274
36538
37417
38023
38335
38303
38019
37247
36299
35174
33906
32548
31295
30279
29620
29485
29743
30661
31818
33252
34668
35834
36636
37133
37412
37383
37134
36422
35676
35030
34428
33868
33618
33676
34063
34925
36315
38389
40861
43576
46540
49224
51509
53428
55204
56720
57950
58680
58994
59076
58719
57957
57004
56060
55210
54718
54605
54972
55582
56277
56631
56461
55733
54607
52966
51031
48365
45455
42701
40356
37909
35488
33203
31206
29575
28532
28080
28349
28951
29906
30911
31716
32201
32444
32391
32069
31476
30468
29311
28051
26823
25511
24288
23340
22753
22649
23029
23956
25121
26541
27956
29156
30036
30599
30887
30780
30284
29412
28497
27430
26240
25029
23925
23104
22637
22644
23094
24119
25367
26900
28335
29570
30471
31081
31420
31367
31004
30253
29327
28223
27029
25834
24800
24038
23641
23718
24284
25400
26730
28329
29916
31220
32116
32679
32825
32751
32471
31665
30631
29541
28351
27046
25983
25167
24702
24705
25181
26212
27432
28961
30365
31607
32550
32934
33151
33175
32825
31870
31012
29958
28652
27492
26449
25687
25292
25375
25910
26983
28309
29964
31577
32850
33791
34407
34717
34671
34266
33462
32476
31239
29945
28671
27551
26683
26220
26215
26679
27703
28949
30495
31906
32994
33774
34195
34311
34164
33700
32767
31569
30300
28982
27620
26474
25638
25172
25142
25600
26588
27783
29235
30460
31462
32236
32719
32899
32775
32271
31334
30311
29103
27825
26552
25435
24616
24199
24212
24712
25724
26878
28322
29656
30782
31602
32068
32254
32090
31561
30647
29616
28433
27159
25885
24783
24022
23655
23746
24339
25441
26722
28255
29675
30812
31676
32223
32457
32397
31935
31102
30151
29031
27791
26579
25607
24910
24599
24745
25458
26598
27956
29575
31109
32311
33161
33671
33717
33739
33063
32420
31353
30337
29023
27879
26838
26156
25884
26110
26833
27943
29416
30990
32485
33791
34471
35005
35417
35118
34751
33699
32644
31607
30307
29188
28278
27604
27356
27601
28292
29495
30890
32549
34110
35301
36149
36684
36919
36775
36183
35292
34265
33098
31829
30569
29529
28846
28574
28762
29487
30662
32084
33653
34969
35892
36655
37170
37322
37066
36487
35684
34740
33543
32244
31028
29975
29261
28942
29094
29836
30988
32356
33935
35298
36316
37058
37428
37495
37275
36595
35646
34587
33356
32004
30727
29610
28873
28583
28772
29487
30578
31909
33423
34758
35779
36414
36770
36815
36539
35879
34986
33891
32631
31329
30079
29058
28358
28135
28315
29071
30222
31636
33222
34574
35580
36143
36519
36564
36289
35614
34671
33553
32263
30960
29740
28807
28163
27951
28204
28987
30127
31528
33065
34394
35399
36070
36461
36551
36342
35607
34652
33551
32294
30939
29653
28609
27930
27732
27975
28799
29972
31441
33019
34319
35231
35888
36291
36348
36100
35406
34519
33399
32171
30906
29685
28759
28165
28020
28284
29134
30317
31777
33314
34550
35496
36148
36497
36601
36369
35674
34772
33629
32358
31020
29770
28798
28194
28039
28351
29266
30482
31978
33557
34865
35815
36455
36815
36826
36500
35742
34828
33702
32423
31061
29818
28876
28292
28159
28443
29344
30540
32038
33580
34900
35821
36375
36663
36644
36330
35588
34634
33494
32243
30898
29719
28799
28211
28090
28410
29360
30591
32089
33608
34879
35809
36454
36775
36780
36498
35806
34862
33681
32414
31043
29830
28900
28356
28284
28646
29582
30771
32282
33856
35167
36164
36845
37155
37079
36667
35880
34868
33703
32431
31095
29912
29007
28478
28420
28766
29756
30976
32527
34112
35391
36309
36871
37108
36940
36606
35906
35007
33845
32535
31139
29933
29084
28584
28521
28900
29900
31185
32712
34174
35259
36132
36724
37023
37020
36700
35847
34798
33575
32280
30951
29795
28948
28466
28444
28871
29887
31103
32597
34058
35273
36117
36710
36999
36999
36615
35772
34830
33594
32351
31033
29856
28967
28454
28390
28818
29891
31183
32749
34263
35470
36332
36844
37055
36906
36486
35676
34695
33535
32241
30902
29747
28885
28428
28423
28911
29990
31262
32829
34324
35494
36324
36847
37066
36974
36500
35622
34596
33396
32023
30670
29584
28774
28356
28407
28935
29973
31228
32765
34199
35332
36183
36767
37026
36887
36430
35547
34528
33313
31996
30646
29519
28699
28287
28359
28908
29999
31316
32910
34405
35582
36358
36833
36926
36658
36125
35281
34303
33115
31883
30692
29619
28840
28489
28614
29207
30357
31717
33315
34815
35963
36719
37205
37402
37263
36757
35805
34799
33598
32259
30965
29916
29170
28815
28896
29473
30548
31878
33447
34894
36055
36840
37287
37502
37308
36756
35857
34802
33499
32186
30853
29788
29046
28703
28827
29450
30592
31969
33614
35034
36103
36855
37329
37430
37212
36632
35740
34670
33436
32108
30831
29757
29009
28687
28839
29508
30660
31970
33664
34912
36007
36935
37227
37450
37329
36623
35656
34798
33450
32135
30886
29778
28998
28721
28916
29520
30624
32063
33506
34935
36143
36968
37271
37324
37108
36511
35642
34663
33439
32094
30762
29668
28946
28638
28774
29435
30546
31895
33473
35079
35988
36695
37125
37228
37013
36428
35511
34455
33239
31932
30645
29588
28838
28514
28655
29386
30591
32124
33895
35604
37044
38227
39172
39998
40628
40777
40636
40483
40416
40266
40226
40049
40423
41223
42079
43882
46276
48810
51526
54072
56028
57702
58646
58940
58796
57807
56417
54868
52751
50551
48262
46037
44236
42370
40600
39294
38287
38375
38858
39479
39908
39655
39431
38846
37838
36996
35533
34202
32615
30780
29099
27628
26521
25865
25775
26228
27121
28304
29693
31000
31871
32599
33023
32948
32799
32151
31173
30166
28912
27582
26284
25278
24600
24348
24494
25183
26317
27692
29269
30660
31700
32415
32836
32892
32674
32041
31125
30053
28829
27564
26321
25293
24594
24300
24506
25283
26413
27820
29384
30764
31824
32568
32946
32975
32711
32066
31233
30164
29007
27767
26617
25671
25053
24858
25095
25921
27108
28541
30139
31540
32566
33348
33775
33888
33631
32913
31976
30887
29694
28396
27172
26196
25527
25316
25601
26412
27524
28897
30413
31758
32808
33539
33975
34036
33784
33071
32142
31013
29783
28487
27248
26335
25697
25559
25798
26721
27902
29398
30914
32340
33305
34004
34503
34399
34159
33579
32540
31475
30263
28998
27775
26783
26119
25954
26275
27156
28295
29730
31287
32610
33610
34265
34604
34583
34215
33389
32373
31222
30008
28715
27526
26591
25948
25780
26133
27052
28224
29668
31197
32498
33447
34071
34421
34410
34082
33308
32336
31173
29933
28620
27426
26485
25893
25762
26081
26981
28157
29590
31073
32388
33354
34003
34372
34305
33975
33165
32199
31055
29813
28535
27391
26481
25906
25787
26148
27116
28321
29804
31372
32671
33550
34159
34566
34614
34270
33364
32551
31398
30182
28885
27756
26839
26287
26241
26586
27617
28816
30321
31777
33175
34183
34695
35187
35016
34623
33932
32846
31794
30596
29360
28253
27407
26935
26858
27214
28248
29479
31014
32551
33852
34908
35623
35996
36031
35676
34887
33935
32803
31567
30293
29163
28313
27849
27876
28298
29349
30638
32216
33737
35017
35967
36579
36899
36967
36554
35781
34854
33729
32477
31146
29972
29123
28653
28670
29134
30156
31438
33021
34559
35798
36681
37236
37490
37412
37027
36239
35239
34031
32719
31372
30163
29269
28751
28735
29187
30212
31527
33121
34573
35717
36525
37070
37313
37199
36776
35980
34999
33799
32503
31175
30029
29181
28700
28703
29181
30227
31459
32973
34469
35630
36476
36966
37172
36989
36487
35578
34610
33488
32250
30938
29857
29042
28629
28710
29228
30237
31502
33067
34578
35700
36579
37127
37366
37214
36705
35701
34854
33495
32284
31020
29894
29110
28691
28762
29287
30375
31591
33150
34750
35956
36597
37127
37488
37207
36615
35838
34711
33613
32260
30891
29790
28983
28543
28575
29116
30189
31543
33148
34614
35756
36612
37167
37353
37204
36716
35860
34856
33580
32181
30860
29746
28931
28513
28603
29164
30244
31551
33118
34558
35753
36582
37092
37269
37119
36615
35743
34741
33549
32196
30841
29719
28935
28554
28615
29171
30234
31530
33130
34623
35778
36533
37076
37301
37189
36678
35805
34807
33577
32216
30842
29698
28931
28593
28703
29322
30438
31740
33278
34719
35972
36551
37155
37215
36924
36516
35644
34485
33387
32079
30706
29631
28843
28502
28626
29228
30342
31684
33247
34706
35874
36660
37124
37276
37118
36566
35572
34551
33326
32017
30710
29626
28901
28580
28695
29351
30471
31818
33397
34869
35985
36780
37309
37453
37215
36576
35669
34597
33335
32021
30727
29639
28892
28583
28762
29461
30646
32007
33582
34959
35991
36715
37157
37286
37066
36487
35631
34599
33375
32014
30703
29686
28993
28706
28895
29572
30695
32055
33646
35056
36090
36791
37274
37350
37106
36439
35509
34447
33236
31928
30667
29636
28917
28628
28775
29452
30566
31937
33530
34934
35943
36658
37062
37149
36927
36252
35269
34209
32985
31681
30423
29410
28710
28441
28660
29439
30626
32085
33701
35079
36073
36780
37173
37207
36897
36236
35239
34103
32850
31543
30297
29308
28643
28436
28679
29494
30635
32094
33671
35023
35949
36560
36924
36940
36677
35979
35060
33950
32738
31468
30253
29252
28596
28418
28704
29542
30721
32148
33668
35006
36007
36699
37079
37051
36699
35991
35029
33948
32689
31353
30130
29119
28484
28304
28563
29414
30607
32091
33700
34973
35893
36511
36935
36866
36562
35846
34924
33825
32564
31239
30028
29063
28461
28327
28618
29503
30661
32124
33671
34949
35923
36575
36932
36935
36639
35898
34999
33892
32644
31340
30171
29294
28757
28679
29012
29946
31133
32642
34127
35547
36337
36905
37305
37127
36977
36055
35287
33958
32794
31412
30162
29244
28653
28534
28839
29756
30927
32420
33924
35084
36200
36659
37110
37022
36525
35917
34882
33669
32528
31098
29935
29012
28437
28300
28610
29524
30775
32193
33799
35161
35956
36714
37010
36862
36647
35769
34759
33771
32357
31112
29919
28975
28404
28293
28628
29571
30737
32263
33848
34940
35957
36492
36822
36816
36525
35788
34895
33764
32470
31111
29863
28927
28380
28307
28634
29587
30817
32367
33876
35102
36013
36612
36914
36839
36487
35759
34871
33733
32450
31076
29861
28974
28455
28394
28753
29727
30932
32456
33996
35252
36143
36707
36984
36959
36552
35741
34775
33601
32286
30998
29714
28796
28295
28293
28812
29962
31396
33192
35201
36964
38301
39584
40799
41306
41543
41973
42172
41788
41583
41287
40757
40967
41383
42334
44196
46164
48456
51028
53287
55191
56453
57029
57214
56860
55933
54516
52860
50759
48332
46281
43816
41235
39020
36904
35495
35255
35596
36446
37349
37944
38204
38192
37893
37340
36466
35266
33977
32494
30859
29150
27634
26447
25656
25388
25653
26482
27577
29009
30442
31633
32470
33013
33250
33118
32650
31762
30746
29526
28241
26932
25751
24892
24413
24366
24798
25840
27074
28588
30097
31302
32212
32791
33023
32923
32518
31668
30645
29433
28167
26852
25692
24834
24340
24319
24775
25852
27127
28695
30181
31422
32303
32870
33116
33058
32650
31847
30909
29794
28556
27319
26270
25500
25095
25166
25712
26828
28121
29649
31121
32301
33112
33608
33809
33751
33287
32447
31420
30189
28844
27511
26391
25567
25141
25175
25700
26868
28157
29690
31215
32408
33230
33687
33868
33736
33329
32434
31481
30388
29103
27840
26786
26022
25639
25814
26403
27511
28785
30373
31775
33042
33911
34339
34657
34439
33807
32991
31889
30636
29397
28108
27025
26181
25818
25844
26422
27486
28761
30312
31756
32860
33631
34131
34362
34191
33668
32831
31780
30535
29241
27942
26803
26012
25599
25686
26265
27363
28652
30198
31652
32750
33548
34006
34179
34028
33510
32584
31523
30326
29046
27713
26583
25750
25346
25435
26019
27118
28454
30000
31439
32518
33285
33735
33864
33663
33049
32132
31138
29932
28637
27335
26274
25517
25175
25314
26004
27162
28516
30087
31465
32610
33458
33812
34039
33710
33084
32310
31239
30014
28795
27549
26503
25746
25517
25684
26409
27557
28957
30489
32002
33201
33884
34504
34660
34397
33983
32913
32021
30826
29594
28426
27460
26791
26516
26751
27465
28646
30028
31751
33333
34408
35423
35907
36052
36037
35539
34723
33724
32516
31193
29858
28774
28036
27797
27976
28733
29974
31527
33300
34898
36127
37056
37557
37719
37438
36791
35860
34756
33524
32095
30665
29503
28770
28518
28759
29575
30892
32480
34268
35909
37120
37836
38199
38250
38201
37532
36404
35076
33711
32297
30855
29565
28743
28447
28679
29468
30833
32423
34123
35733
36871
37493
37950
38116
37716
36896
36051
34887
33493
32031
30583
29287
28167
27457
27581
28364
29571
31141
32874
34423
35570
36329
36789
36902
36660
35891
34874
33687
32296
30869
29508
28413
27670
27398
27671
28527
29786
31362
33088
34612
35746
36546
36977
37031
36717
35970
34965
33767
32422
30974
29579
28481
27737
27513
27767
28695
30020
31701
33492
35146
36319
37067
37460
37516
37228
36270
35267
34101
32770
31341
29906
28789
28087
27939
28308
29370
30791
32575
34431
35990
37004
37732
38165
38221
37919
37138
36110
34862
33431
31914
30489
29398
28678
28487
28804
29860
31239
32961
34702
36172
37215
38001
38361
38355
37966
37064
35993
34740
33316
31749
30332
29197
28491
28316
28642
29694
31103
32847
34666
36175
37233
37966
38375
38375
38032
37125
35989
34635
33159
31535
30044
28918
28208
28084
28452
29539
30929
32704
34515
36009
37055
37735
38007
37911
37430
36489
35370
34071
32593
31039
29572
28484
27835
27742
28134
29283
30727
32512
34329
35783
36839
37543
37895
37849
37428
36516
35417
34103
32707
31183
29809
28772
28189
28159
28667
29916
31440
33317
35130
36560
37454
38151
38522
38543
37959
37191
36028
34589
33269
31551
30160
29118
28484
28418
28919
30038
31567
33512
35121
36518
37751
38343
38505
38692
38215
37139
36208
34761
33279
31828
30311
29311
28734
28640
29143
30343
31909
33727
35463
37079
38056
38599
39103
38919
38358
37653
36367
35061
33745
32092
30607
29546
28950
28885
29319
30530
31983
33652
35495
36946
37775
38454
38884
38599
38190
37370
36138
34732
33407
31679
30292
29252
28602
28550
29017
30091
31585
33514
35141
36375
37372
38079
38443
38354
37865
36959
35892
34587
33118
31535
30151
29128
28532
28522
29042
30270
31735
33572
35308
36630
37602
38244
38435
38303
37812
36871
35773
34459
32963
31351
29932
28919
28325
28306
28845
30036
31542
33382
35225
36688
37718
38352
38650
38519
37972
36810
35874
34375
32840
31350
29893
28870
28300
28284
28819
30127
31615
33455
35363
36751
37567
38253
38566
38540
37988
36975
35799
34400
32855
31212
29742
28709
28145
28135
28702
29927
31461
33340
35119
36581
37639
38258
38484
38340
37753
36653
35458
34037
32476
30862
29492
28484
27957
28025
28672
29954
31527
33452
35178
36516
37436
37989
38191
37927
37320
36319
35166
33759
32191
30567
29183
28220
27694
27755
28380
29648
31188
33063
34791
36151
37034
37576
37785
37762
37012
36191
34792
33478
31935
30187
28867
27884
27422
27512
28200
29535
31162
32887
34719
36038
36847
37560
37780
37466
36996
35901
34746
33516
31830
30317
29031
28061
27627
27711
28351
29606
31076
32851
34494
35726
36604
37124
37268
37071
36414
35423
34301
32983
31612
30242
29109
28297
27907
28039
28663
29830
31215
32856
34365
35498
36303
36775
36925
36727
36119
35195
34135
32846
31495
30129
28998
28215
27895
28058
28758
29954
31399
33041
34526
35666
36466
36908
37047
36815
36250
35317
34219
32918
31503
30130
29039
28317
28071
28255
28967
30147
31555
33172
34618
35679
36436
36852
36959
36839
36242
35301
34198
32878
31484
30167
29071
28345
28055
28245
28999
30140
31556
33196
34611
35655
36383
36832
36935
36674
36039
35099
34159
32762
31500
30088
29060
28319
28049
28230
28956
30029
31534
32994
34524
35482
36236
37083
37263
37661
37462
37305
37149
36743
36542
36284
36142
36772
38076
39687
41710
44476
47296
49809
52876
55430
57768
59789
61124
62343
62692
62649
61943
60615
59271
57511
55964
54830
53990
53510
53460
53359
53447
53215
53108
52410
50900
49205
47364
45380
43609
41669
39205
37182
34668
32530
30499
28964
27972
27522
27726
28385
29396
30623
31636
32468
32766
33063
32725
32335
31519
30353
29191
27868
26524
25183
24101
23295
22959
23148
23880
24988
26436
27959
29319
30303
31005
31416
31367
31150
30354
29325
28196
26974
25684
24371
23240
22576
22271
22407
23236
24382
25804
27422
28804
29831
30548
30972
31087
30866
30239
29375
28361
27166
25868
24605
23597
22976
22817
23087
23973
25222
26753
28398
29813
30898
31623
32012
32057
31796
31095
30191
29126
27930
26671
25430
24404
23719
23469
23759
24668
25921
27386
28942
30288
31311
32028
32442
32500
32239
31556
30674
29590
28366
27085
25898
24993
24400
24297
24720
25752
27048
28594
30242
31637
32688
33369
33766
33831
33559
32820
31822
30628
29333
27964
26692
25675
24991
24795
25041
25898
27071
28535
30052
31348
32292
32927
33199
33153
32734
31887
30882
29645
28323
26927
25634
24612
23965
23794
24163
25144
26409
27972
29513
30804
31789
32449
32722
32679
32251
31367
30301
29044
27685
26276
24927
23877
23178
22974
23252
24187
25422
26948
28463
29709
30695
31332
31540
31454
31078
30261
29230
28022
26728
25319
23998
23009
22438
22340
22635
23667
24917
26547
28141
29445
30452
31156
31475
31425
31045
30255
29303
28108
26826
25481
24186
23293
22715
22656
23129
24284
25669
27311
28935
30304
31342
32055
32406
32351
31979
31159
30223
29088
27796
26498
25316
24419
23866
23834
24374
25578
26956
28637
30265
31659
32821
33574
33906
33844
33495
32733
31813
30655
29359
28055
26879
26020
25572
25592
26119
27350
28796
30548
32276
33583
34496
35218
35713
35655
35071
34156
33149
31960
30737
29510
28404
27583
27164
27271
27885
29111
30567
32290
34000
35451
36546
37311
37679
37639
37190
36295
35327
34079
32740
31386
30249
29412
28973
29058
29626
30840
32224
33927
35542
36860
37847
38569
38932
38804
38253
37318
36197
34911
33507
32105
30892
29977
29504
29549
30119
31309
32735
34406
35969
37222
38119
38671
38943
38844
38341
37383
36296
34996
33563
32101
30823
29942
29474
29535
30112
31300
32733
34446
36038
37324
38257
38895
39117
38977
38436
37524
36415
35114
33692
32217
30965
30104
29717
29839
30474
31718
33198
34908
36392
37614
38573
39206
39431
39257
38747
37850
36727
35402
34037
32647
31482
30648
30286
30439
31111
32354
33799
35494
37039
38336
39303
39853
40038
39858
39175
38279
37269
36109
34718
33222
31982
31154
30812
30983
31712
32988
34465
36116
37621
38911
39788
40222
40247
39814
39207
38205
37066
35741
34337
32809
31495
30591
30203
30334
31034
32295
33737
35326
36806
37948
38733
39238
39405
39165
38518
37479
36267
34836
33335
31874
30673
29847
29479
29603
30299
31483
32930
34630
36160
37267
38017
38407
38435
38147
37383
36347
35120
33772
32303
30883
29696
28902
28545
28718
29456
30696
32159
33830
35395
36599
37255
37671
37780
37655
37039
36068
34904
33541
32137
30815
29719
28987
28767
29036
29867
31174
32784
34552
36061
37086
37878
38480
38655
38329
37573
36654
35702
34420
32970
31546
30471
29775
29528
29777
30654
31944
33515
35177
36534
37590
38318
38727
38943
38750
38039
37028
35836
34488
32975
31568
30508
29823
29591
29844
30732
32009
33521
35143
36548
37730
38484
38846
38881
38422
37716
36772
35682
34356
32887
31432
30311
29598
29361
29645
30587
31879
33492
35111
36359
37335
38053
38564
38484
38031
37233
36263
35140
33799
32324
30935
29854
29175
28988
29215
30123
31379
32943
34572
35812
36765
37411
37774
37806
37540
36672
35541
34309
32996
31569
30198
29188
28567
28417
28660
29567
30807
32351
33967
35402
36429
37044
37260
37175
36919
36226
35228
33961
32634
31258
29940
28963
28356
28202
28442
29432
30685
32199
33773
35135
36220
36847
37127
36999
36639
35935
35029
33858
32495
31079
29815
28845
28211
28119
28468
29447
30693
32255
33797
35041
36071
36799
37004
36855
36464
35727
34796
33588
32184
30810
29590
28594
27998
27969
28332
29303
30517
32042
33571
34774
35772
36469
36749
36673
36154
35327
34453
33260
31895
30560
29320
28414
27911
27868
28239
29236
30532
32129
33678
35057
36012
36519
36775
36894
36548
35653
34558
33351
32104
30735
29509
28652
28145
28027
28414
29473
30772
32372
33927
35133
36143
36774
36998
36839
36492
35806
34767
33514
32223
30900
29684
28743
28265
28255
28707
29753
31023
32654
34228
35482
36301
36866
37306
37222
36726
35742
34733
33598
32294
30887
29692
28779
28154
28118
28585
29602
30892
32471
33985
35223
36140
36747
37031
36919
36455
35586
34549
33284
31950
30593
29396
28514
27996
28022
28479
29495
30760
32290
33772
34937
35764
36305
36532
36473
36090
35199
34207
32902
31591
30215
29099
28238
27719
27751
28209
29237
30578
32134
33743
34847
35780
36404
36481
36322
35999
35009
34065
32876
31617
30295
29071
28289
27804
27800
28324
29476
30769
32431
33888
34999
35974
36519
36615
36535
36190
35261
34166
32983
31661
30339
29232
28385
27879
27961
28496
29568
30946
32566
34167
35260
36215
36794
36892
36664
36268
35408
34271
33007
31652
30268
29180
28345
27997
28295
29156
30808
32772
35174
37591
39541
41366
42945
44071
45351
46296
46727
47415
47652
47409
47652
47950
48548
49623
50927
52524
54660
56623
58516
60388
61575
62196
62508
62215
61423
60235
58423
56046
53572
50840
47664
44776
41774
38935
37022
36101
35740
35838
36463
36837
37074
37236
36978
36525
36002
34993
33760
32460
30949
29403
27752
26258
25215
24517
24387
24773
25775
26973
28622
30028
31217
32087
32667
32882
32775
32364
31558
30623
29481
28324
27052
25937
25114
24823
24901
25474
26689
27989
29622
31102
32316
33175
33818
34031
33977
33575
32644
31598
30356
29116
27829
26726
25890
25541
25596
26198
27498
28911
30498
32028
33197
34070
34496
34744
34638
34092
33303
32279
31029
29628
28311
27075
26075
25630
25671
26247
27428
28738
30263
31693
32839
33583
34117
34195
33893
33342
32460
31450
30207
28806
27514
26285
25470
25051
24986
25522
26571
27757
29225
30788
31881
32671
33141
33397
33263
32709
31743
30708
29479
28120
26839
25664
24851
24437
24414
25018
26138
27512
29099
30541
31742
32538
33031
33186
33067
32524
31628
30578
29308
28094
26722
25520
24590
24203
24267
24853
25967
27321
28853
30362
31541
32361
32875
33102
32933
32382
31495
30534
29323
28093
26740
25591
24758
24228
24387
24983
26080
27416
29063
30510
31686
32519
33060
33245
33094
32479
31526
30470
29293
27897
26592
25347
24510
24078
24093
24667
25857
27238
28793
30378
31564
32415
32900
33124
32969
32391
31486
30438
29325
27963
26591
25412
24571
24117
24215
24828
26014
27434
29132
30627
31902
32768
33308
33500
33341
32783
31877
30788
29593
28308
27012
25872
25063
24670
24809
25515
26735
28178
29841
31393
32598
33495
34044
34205
34003
33425
32511
31433
30214
28884
27542
26435
25648
25320
25510
26289
27616
29183
30933
32566
33877
34772
35298
35484
35303
34769
33914
32902
31684
30332
28988
27920
27216
27015
27275
28086
29406
30944
32718
34338
35588
36412
36942
37100
36896
36284
35335
34231
32934
31599
30283
29204
28450
28180
28444
29247
30523
32038
33734
35242
36395
37218
37674
37780
37520
36850
35868
34676
33370
31942
30554
29479
28740
28454
28660
29411
30663
32109
33828
35290
36444
37031
37583
37621
37223
36704
35733
34521
33197
31770
30414
29254
28521
28228
28383
29239
30406
31897
33561
35078
36046
36807
37277
37164
36951
36396
35350
34234
32942
31573
30200
29033
28375
28080
28239
29156
30357
31812
33515
35018
36186
36743
37290
37251
36951
36332
35314
34274
32941
31556
30207
29184
28436
28199
28461
29244
30508
31966
33652
35108
36304
36948
37359
37541
37147
36372
35504
34338
32991
31553
30253
29154
28350
28137
28367
29162
30399
31854
33543
35062
36096
36869
37396
37334
37236
36420
35573
34406
33110
31695
30408
29320
28551
28391
28575
29431
30599
32137
33775
35286
36238
37062
37332
37508
37111
36492
35503
34328
33052
31673
30287
29164
28495
28172
28458
29265
30455
31975
33681
35101
36284
36991
37335
37531
37102
36450
35544
34300
33014
31605
30344
29212
28443
28292
28503
29329
30681
32175
33871
35412
36455
37176
37725
37599
37500
36648
35664
34538
33162
31732
30332
29343
28660
28410
28661
29606
30812
32394
34074
35588
36530
37434
37773
37839
37684
36820
35997
34758
33446
32016
30716
29638
28858
28690
28911
29735
31047
32541
34245
35639
36841
37576
37895
38084
37580
37007
35940
34775
33493
32054
30636
29560
28852
28527
28839
29639
30967
32460
34131
35572
36738
37362
37932
37916
37580
36976
35856
34764
33415
31996
30607
29610
28879
28662
28941
29789
31126
32659
34320
35797
36890
37447
37997
37868
37631
36983
35859
34751
33389
31927
30516
29489
28750
28506
28788
29619
30943
32460
34182
35514
36679
37359
37720
37857
37383
36772
35662
34554
33157
31720
30324
29282
28597
28332
28644
29560
30777
32310
33967
35394
36423
37124
37516
37555
37244
36519
35526
34335
32997
31573
30242
29172
28476
28258
28527
29477
30761
32325
34004
35449
36503
37159
37540
37552
37229
36451
35463
34244
32897
31461
30124
29137
28501
28284
28599
29607
30884
32430
34076
35440
36452
37113
37471
37517
37166
36344
35332
34149
32838
31444
30132
29090
28426
28316
28731
29700
30967
32570
34247
35639
36644
37358
37689
37668
37268
36390
35335
34100
32744
31332
29983
28975
28346
28239
28619
29703
31031
32660
34390
35653
36586
37308
37438
37543
37088
36191
35300
34045
32679
31259
30017
28993
28309
28331
28719
29735
31142
32749
34454
35758
36882
37367
37783
37679
37313
36495
35407
34212
32796
31328
29984
29007
28316
28290
28657
29650
30990
32613
34288
35532
36591
37231
37399
37501
36989
36139
35128
33836
32473
31050
29718
28679
28096
27987
28407
29400
30823
32388
34047
35359
36430
36916
37375
37218
36868
36155
35002
33812
32431
31006
29648
28675
28061
27942
28407
29422
30736
32382
34027
35392
36324
36933
37223
37146
36742
35869
34850
33605
32238
30786
29495
28514
27931
27921
28400
29476
30789
32435
34111
35445
36384
36936
37202
37065
36604
35771
34740
33505
32163
30757
29520
28499
28014
27935
28378
29503
30768
32433
34052
35430
36239
36981
37221
37095
36743
35716
34788
33583
32244
30820
29544
28599
28045
28019
28391
29385
30846
32500
34254
35716
37041
37918
38583
39156
39201
39219
38956
38254
37908
37398
37187
37321
37564
38668
39821
41637
43874
46716
49671
52327
54468
56192
57500
58132
58060
57279
55988
54332
52426
50228
47770
46057
44316
43134
42148
41141
40532
40039
40346
40705
40685
40791
40333
39507
38708
37243
35863
34287
32565
30790
29035
27735
26786
26379
26553
27343
28326
29767
31057
32185
32935
33417
33555
33415
32924
31995
30917
29658
28388
26982
25784
24901
24465
24431
24809
25905
27219
28773
30226
31508
32359
32917
33126
33057
32615
31796
30727
29603
28291
27010
25830
24915
24361
24439
24862
25962
27245
28820
30399
31622
32451
32982
33220
33103
32705
31870
30972
29841
28552
27354
26215
25316
24841
24933
25450
26599
27940
29645
31140
32439
33348
33969
34165
34055
33628
32772
31775
30564
29375
28042
26812
25876
25447
25446
25911
26984
28250
29719
31299
32474
33361
33890
34207
34020
33612
32724
31727
30509
29351
28039
26844
25978
25607
25697
26183
27272
28577
30254
31740
33009
33854
34445
34750
34588
34095
33266
32240
31096
29829
28423
27350
26436
25943
25969
26494
27555
28826
30416
31881
33116
33983
34524
34759
34627
34119
33196
32152
30940
29627
28403
27196
26289
25813
25895
26472
27560
28802
30431
31879
33066
33952
34495
34663
34639
34106
33247
32181
30937
29580
28329
27102
26228
25714
25714
26237
27355
28717
30263
31729
32893
33812
34271
34543
34356
33871
32996
31981
30783
29468
28282
27105
26268
25849
25896
26452
27598
28935
30524
32052
33287
34202
34713
34839
34686
34215
33348
32320
31159
29894
28516
27455
26605
26188
26319
26962
28077
29390
31039
32495
33731
34489
35079
35259
35115
34686
33735
32724
31546
30295
29005
27844
27063
26678
26869
27459
28709
30064
31716
33255
34533
35397
35841
36197
36069
35447
34674
33650
32475
31234
30004
28975
28199
27804
27946
28519
29774
31079
32774
34311
35655
36393
36938
37265
37004
36474
35716
34641
33453
32164
30862
29783
28951
28606
28732
29387
30571
31958
33592
35087
36268
37118
37628
37809
37599
36980
36065
35044
33854
32495
31137
30022
29239
28908
29063
29695
30831
32202
33836
35298
36351
37142
37594
37733
37516
36885
36011
34903
33644
32294
30958
29838
29096
28781
28940
29622
30808
32215
33815
35244
36335
37116
37590
37703
37483
36908
35999
34972
33689
32300
30927
29766
28961
28643
28839
29603
30788
32255
33959
35420
36430
37332
37660
37706
37631
36917
35936
34966
33610
32295
30973
29917
29100
28724
28919
29594
30804
32250
33981
35423
36391
37161
37742
37695
37468
36968
35892
34772
33516
32129
30772
29684
28933
28639
28827
29518
30666
32098
33709
35129
36207
36902
37470
37436
37175
36743
35684
34712
33454
32027
30680
29626
28914
28572
28828
29534
30693
32127
33821
35116
36341
36919
37374
37542
37159
36658
35517
34525
33148
31806
30492
29414
28637
28423
28593
29354
30516
31965
33556
34918
36029
36615
37117
37220
36839
36349
35378
34176
32988
31573
30228
29177
28487
28228
28453
29209
30398
31847
33491
34887
35954
36675
37049
37095
36826
36117
35183
34051
32749
31354
30034
28952
28205
27938
28167
28960
30196
31750
33471
34956
35858
36708
36974
36916
36796
35925
35028
33983
32626
31282
29954
28932
28222
27975
28324
29157
30383
31902
33497
34959
36025
36586
36971
37127
36649
36060
35175
33919
32669
31340
30063
28978
28314
28111
28361
29237
30468
31974
33596
34951
35995
36715
37098
37134
36795
36044
35063
33840
32607
31239
29947
28911
28294
28095
28324
29244
30444
31950
33527
35006
36058
36548
37094
37106
36811
36076
35055
33871
32559
31164
29894
28868
28249
28099
28391
29292
30511
32010
33744
35058
36022
36822
36973
37127
36724
36089
34981
33860
32537
31134
29879
28903
28213
28116
28367
29268
30504
32038
33684
34956
36103
36615
36999
37132
36715
35900
35055
33903
32538
31199
29937
28956
28284
28199
28438
29326
30542
32095
33628
35102
36156
36679
37191
36983
36803
35844
35061
33772
32484
31045
29742
28751
28174
27964
28300
29178
30417
31949
33684
34961
35951
36797
36975
36972
36778
35847
34892
33788
32429
31094
29837
28833
28234
28092
28407
29413
30687
32281
33846
35256
36422
36975
37326
37509
37059
36197
35404
34085
32863
31511
30209
29212
28591
28485
28799
29750
31033
32547
34233
35534
36415
37233
37372
37475
37083
36188
35362
34031
32801
31356
29959
28888
28263
28116
28421
29397
30663
32233
33918
35132
36261
36764
37175
37185
36690
36100
35020
33994
32556
31228
29969
29002
28359
28270
28574
29556
30828
32343
34053
35304
36220
36975
37126
37276
36756
36143
34977
33956
32516
31174
29877
28888
28230
28149
28457
29464
30749
32374
33895
35332
36171
36895
37142
37212
36747
36066
35004
33880
32484
31143
29843
28888
28308
28225
28583
29556
30831
32368
34031
35364
36212
37020
37229
37125
36951
36042
35134
33984
32545
31229
29896
28910
28349
28271
28638
29598
30861
32372
34023
35121
36167
36938
37167
37437
37066
36758
36132
35365
34874
34226
33620
33509
33633
34655
36185
38132
40537
42753
45418
47604
49646
51677
53391
54644
55716
56001
55988
55521
54423
53151
51463
50116
48924
48149
47727
47623
47841
48391
48647
48007
47148
45574
44390
43227
41853
40665
38839
37102
35182
33045
31249
29646
28515
27927
27821
28316
29191
30383
31687
32721
33279
33743
33886
33555
33125
32117
31139
29924
28589
27221
26075
25076
24402
24306
24647
25628
26855
28372
29924
31266
32127
32721
33128
32920
32673
31808
30751
29598
28311
26969
25703
24742
24211
24139
24474
25519
26807
28337
29911
31139
32131
32721
32967
33012
32543
31729
30796
29612
28351
27020
25783
24904
24366
24293
24782
25798
27061
28671
30278
31654
32604
33415
33679
33609
33315
32421
31411
30294
28994
27662
26440
25572
24990
24887
25354
26356
27590
29133
30708
32023
32871
33620
33775
33777
33439
32477
31560
30373
29076
27800
26623
25731
25159
25157
25572
26590
27904
29476
31084
32422
33400
34004
34310
34247
33874
33033
32047
30868
29628
28331
27156
26236
25690
25574
26015
27038
28318
29838
31338
32646
33457
34148
34222
34244
33659
32892
31831
30631
29349
27968
26738
25813
25231
25142
25626
26641
27919
29455
31095
32346
33435
34063
34169
34164
33583
32775
31780
30489
29177
27751
26458
25414
24879
24763
25188
26180
27463
28975
30511
31722
32741
33116
33419
33215
32797
31879
30798
29634
28370
27087
26015
25108
24519
24540
24956
26002
27271
28807
30292
31547
32490
33004
33359
33068
32703
31774
30756
29603
28319
27062
25993
25135
24583
24631
25095
26184
27489
29069
30551
31902
32820
33342
33780
33656
33248
32516
31416
30319
29167
27905
26794
25951
25469
25575
26095
27198
28570
30247
31944
33148
34246
34943
35087
35120
34793
33828
32999
31868
30527
29309
28206
27380
26955
27060
27590
28740
30054
31822
33342
34596
35745
36175
36711
36449
36090
35376
34302
33127
31957
30598
29434
28634
28219
28279
28782
29891
31204
32889
34447
35588
36463
36980
37259
37177
36710
35820
34800
33594
32280
30972
29781
28879
28442
28486
29032
30187
31569
33217
34784
36020
36846
37356
37499
37247
36807
35939
34917
33668
32335
30922
29764
28933
28529
28564
29099
30215
31566
33211
34766
36020
36855
37335
37491
37247
36740
35812
34757
33497
32102
30708
29518
28654
28244
28300
28887
30029
31405
33045
34554
35668
36476
36999
37229
37086
36588
35750
34796
33582
32287
30910
29741
28911
28567
28686
29295
30466
31884
33640
35260
36471
37310
37788
37930
37784
37238
36271
35300
34084
32702
31356
30252
29511
29170
29324
30006
31262
32674
34273
35695
36804
37615
38089
38055
37895
37341
36414
35335
34169
32898
31555
30434
29650
29332
29519
30229
31426
32839
34457
35950
37028
37685
38228
38334
38118
37439
36449
35269
33956
32522
31119
29988
29214
28891
29066
29758
30931
32286
33831
35193
36215
37012
37409
37450
37156
36431
35445
34329
33114
31729
30343
29255
28539
28259
28501
29228
30489
31900
33543
35146
36058
36953
37303
37239
37206
36465
35485
34538
33065
31821
30461
29367
28732
28497
28721
29552
30736
32183
33964
35303
36335
37254
37510
37649
37470
36650
35930
34639
33487
32148
30788
29785
29079
28807
29055
29924
31068
32571
34246
35858
36763
37569
38036
37953
37845
37239
36156
35259
34025
32519
31294
30231
29521
29395
29639
30406
31713
33262
34758
36088
37254
38039
38339
38439
38293
37457
36646
35447
34255
32921
31501
30522
29741
29545
29852
30607
31860
33462
34913
36463
37383
38135
38663
38583
38363
37662
36844
35644
34343
33125
31626
30677
29860
29657
29825
30654
31989
33358
35119
36433
37350
38306
38512
38685
38420
37647
36823
35534
34439
32885
31573
30484
29685
29493
29633
30528
31654
33138
34863
36021
37207
37713
38172
38279
37806
37271
36231
35026
33872
32252
30988
29849
29120
28939
29103
29950
31124
32556
34328
35457
36643
37096
37599
37511
37079
36543
35364
34303
32926
31524
30215
29127
28447
28194
28423
29219
30308
31874
33400
34685
35884
36398
36871
36934
36468
35971
34892
33741
32483
30975
29756
28695
27997
27830
28047
28944
30106
31635
33383
34583
35737
36380
36612
36829
36599
35793
34877
33988
32647
31366
30188
29131
28517
28384
28668
29599
30876
32410
34150
35591
36716
37446
37862
37934
37687
37012
36085
34887
33615
32246
30961
29941
29304
29181
29505
30446
31748
33313
34964
36352
37334
38079
38532
38624
38279
37551
36550
35335
34100
32803
31585
30527
29845
29692
30029
31035
32356
33966
35540
36850
37727
38404
38781
38820
38527
37872
36946
35830
34525
33171
31910
30886
30243
30117
30454
31417
32690
34239
35748
36990
37916
38631
39033
38957
38623
37820
36846
35670
34394
32999
31684
30671
30043
29964
30338
31335
32628
34263
35828
37119
38036
38677
38983
38881
38479
37569
36528
35367
34069
32641
31367
30374
29770
29660
30032
31092
32436
33990
35567
36860
37741
38323
38589
38533
38097
37258
36247
34983
33572
32085
30707
29658
29054
28994
29415
30580
32100
33928
35878
37767
39250
40932
42213
42927
43610
44061
44129
44396
44705
44655
44966
45334
45770
47292
49123
51284
54103
56856
59422
61311
62181
62681
62807
62694
62886
62721
61100
59040
56652
53887
51447
48941
46525
44761
43116
41468
40447
40507
40708
40563
40352
40034
39137
38228
37125
35459
34037
32247
30317
28375
26629
25243
24261
23835
23927
24667
25672
27015
28326
29407
30193
30692
30874
30705
30215
29285
28228
26988
25639
24225
23028
22112
21555
21449
21869
22878
24153
25726
27265
28516
29386
29932
30150
30014
29527
28653
27667
26471
25175
23787
22559
21659
21205
21234
21761
22899
24260
25865
27386
28666
29604
30268
30621
30564
30168
29345
28404
27267
26050
24753
23610
22782
22341
22398
22929
24094
25451
27063
28601
29838
30711
31255
31469
31326
30845
29974
28964
27818
26581
25288
24171
23336
22907
22974
23575
24738
26095
27671
29174
30411
31341
31935
32255
32255
31789
30967
30058
28940
27735
26526
25505
24772
24495
24693
25395
26579
27972
29634
31176
32455
33382
33963
34142
33986
33434
32537
31492
30209
28872
27528
26433
25639
25298
25381
25968
27079
28401
30005
31340
32562
33356
33675
33935
33639
32954
32116
30885
29647
28372
26991
25874
25064
24711
24803
25390
26493
27798
29380
30772
31947
32830
33245
33227
32991
32404
31503
30428
29119
27780
26436
25300
24473
24105
24212
24839
25956
27284
28819
30263
31428
32217
32702
32799
32551
31919
30999
29908
28704
27442
26161
25060
24293
23986
24152
24899
26080
27474
29079
30567
31769
32629
33122
33241
32961
32307
31418
30377
29191
27962
26718
25678
24967
24692
24899
25676
26868
28289
29895
31386
32545
33359
33948
34123
33942
33331
32429
31404
30205
28926
27707
26735
26085
25870
26124
26960
28252
29744
31431
32953
34175
35135
35655
35847
35690
35122
34321
33329
32128
30846
29607
28625
28007
27844
28136
29030
30325
31879
33606
35026
36103
36846
37274
37434
37231
36628
35786
34735
33540
32278
31034
30055
29418
29275
29614
30540
31847
33379
34985
36359
37415
38140
38575
38671
38401
37711
36795
35683
34466
33131
31869
30828
30136
29914
30165
31068
32279
33820
35503
36894
37930
38573
38874
38812
38356
37679
36715
35557
34247
32813
31477
30431
29737
29580
29863
30784
32025
33510
35020
36228
37050
37687
37959
37828
37478
36693
35684
34492
33237
31820
30513
29463
28804
28644
28958
29910
31130
32669
34247
35588
36614
37295
37617
37589
37215
36405
35422
34246
32932
31533
30251
29268
28667
28558
28894
29871
31157
32683
34247
35542
36486
37095
37415
37342
36924
36140
35149
33956
32635
31188
29916
28966
28374
28310
28655
29649
30924
32471
34026
35291
36231
36847
37340
37108
36655
36017
34963
33708
32419
31134
29821
28871
28341
28314
28666
29696
31043
32618
34240
35495
36396
36908
37148
36996
36482
35626
34615
33378
32061
30695
29500
28626
28118
28103
28556
29614
30943
32599
34218
35512
36452
37035
37287
37202
36765
35911
34868
33606
32292
30884
29639
28745
28274
28271
28758
29852
31183
32805
34381
35620
36468
37013
37271
37176
36724
35820
34778
33501
32229
30862
29679
28808
28340
28385
28902
30020
31334
33031
34642
35991
36885
37442
37717
37631
37172
36340
35365
34172
32930
31628
30508
29711
29277
29346
29922
31055
32445
34116
35714
36937
37748
38288
38385
38262
37760
36918
35933
34754
33460
32068
30856
30013
29575
29667
30251
31439
32846
34495
35967
37080
37940
38459
38609
38432
37956
37076
36023
34815
33413
32014
30819
29975
29566
29652
30231
31415
32924
34612
36052
37175
37966
38465
38511
38420
37938
37063
36063
34847
33468
32076
30893
30045
29666
29767
30404
31583
33020
34674
36133
37255
38023
38454
38568
38414
37847
36863
35773
34500
33093
31732
30507
29675
29303
29416
30052
31223
32659
34307
35746
36854
37614
38044
38161
37882
37266
36317
35209
33919
32576
31220
30068
29303
28916
29062
29791
30884
32294
34039
35290
36444
37301
37551
37831
37639
36861
36044
34981
33752
32469
30921
29789
29028
28697
28807
29515
30768
32111
33734
35354
36388
37074
37535
37677
37455
36851
35945
34878
33660
32307
30926
29790
29028
28731
28914
29676
30940
32484
34154
35626
36764
37550
37974
38110
37799
37210
36301
35238
33972
32628
31326
30259
29567
29303
29513
30330
31522
32975
34560
35965
37034
37886
38293
38327
38062
37293
36223
35071
33794
32382
30978
29807
29095
28862
29093
29940
31182
32685
34311
35623
36655
37390
37858
37925
37503
36911
36013
34901
33652
32251
30848
29751
29035
28822
29063
29896
31111
32614
34242
35685
36772
37468
37818
37862
37636
36904
35871
34671
33319
31951
30649
29623
28958
28768
29003
29902
31044
32633
34240
35486
36711
37242
37588
37887
37428
36667
35927
34627
33419
32159
30742
29771
29147
28944
29223
30098
31317
32936
34450
35703
36783
37561
37806
37765
37671
36980
35883
34765
33476
32132
30828
29740
29020
28783
29023
29894
31080
32532
34061
35347
36303
37020
37383
37380
37084
36420
35575
34688
33814
32962
32366
32227
32575
33415
34678
36753
39168
41920
44735
47374
49720
51660
53360
54863
56104
56995
57573
57829
57644
57061
56143
55444
54812
54480
54396
54740
55262
55881
56207
56111
55527
54493
52932
50671
47968
45135
42626
40261
37869
35534
33249
31217
29555
28501
28039
28319
28956
29967
31116
31981
32492
32732
32745
32441
31807
30767
29549
28257
26929
25556
24270
23222
22430
22162
22444
23401
24626
26146
27645
28918
29874
30489
30737
30663
30256
29434
28447
27290
26051
24702
23464
22485
21960
21890
22315
23349
24628
26140
27594
28814
29716
30262
30508
30423
30012
29157
28138
26923
25674
24406
23262
22330
21823
21863
22407
23558
24926
26535
28105
29388
30201
30753
30991
30950
30599
29819
28846
27724
26512
25172
23932
23044
22575
22586
23124
24269
25586
27223
28790
30087
31029
31584
31828
31705
31209
30348
29407
28292
27056
25766
24677
23834
23359
23371
23933
25085
26396
28008
29575
30843
31751
32294
32527
32431
31934
31118
30173
29013
27747
26432
25284
24445
23996
24013
24503
25624
26929
28518
30015
31178
32040
32570
32754
32623
32122
31220
30223
29030
27732
26381
25238
24407
23952
24017
24583
25735
27053
28649
30167
31382
32241
32750
32931
32763
32228
31343
30335
29158
27886
26532
25382
24505
24086
24185
24800
25924
27237
28830
30277
31423
32236
32757
33001
32749
32122
31209
30182
28980
27689
26390
25260
24462
24086
24187
24837
25990
27381
28959
30478
31545
32463
33066
33060
32927
32470
31524
30488
29371
28147
26876
25804
24990
24652
24820
25522
26697
28039
29628
31129
32403
33318
33869
33988
33730
33127
32197
31196
30030
28782
27479
26418
25691
25380
25527
26266
27492
28955
30653
32220
33422
34255
34731
34919
34737
34140
33260
32226
31057
29780
28536
27527
26858
26599
26807
27591
28836
30305
32035
33671
34950
35735
36228
36381
36234
35628
34685
33595
32412
31117
29857
28836
28167
27943
28165
28993
30311
31855
33584
35049
36058
36791
37239
37450
37315
36718
35738
34582
33264
31870
30551
29556
28903
28671
28879
29687
30892
32342
33982
35396
36491
37268
37767
37879
37620
36866
35967
34687
33553
32127
30747
29718
28994
28764
29030
29857
31157
32787
34300
35662
36884
37517
37774
37871
37591
36645
35652
34684
33185
31876
30564
29468
28807
28605
28793
29606
30882
32303
33940
35509
36393
37015
37587
37524
37150
36598
35586
34348
33167
31716
30384
29373
28692
28463
28700
29572
30757
32238
33932
35361
36484
37305
37714
37722
37395
36572
35583
34444
33124
31823
30465
29429
28749
28571
28839
29692
30889
32388
33959
35239
36228
36879
37268
37286
37035
36321
35375
34217
32871
31471
30140
29086
28476
28355
28679
29602
30855
32420
34174
35569
36567
37262
37638
37653
37227
36359
35291
34089
32764
31372
30121
29159
28547
28442
28748
29715
30983
32586
34199
35557
36484
37035
37399
37403
37062
36279
35319
34151
32874
31479
30184
29212
28610
28503
28857
29823
31162
32724
34305
35822
36631
37182
37700
37622
37164
36447
35482
34157
32892
31412
30199
29172
28620
28532
28863
29818
31143
32729
34246
35668
36747
37252
37523
37511
37132
36382
35359
34160
32868
31505
30251
29279
28698
28589
28927
29959
31279
32830
34469
35809
36743
37317
37598
37500
37098
36300
35320
34119
32751
31307
30031
29135
28596
28521
28911
29935
31204
32788
34421
35701
36639
37276
37564
37527
37113
36289
35303
34067
32732
31324
30052
29121
28591
28567
29026
30092
31361
33015
34651
35980
36903
37479
37751
37631
37213
36174
35279
34034
32557
31205
29901
28948
28453
28457
28947
30015
31388
33114
34533
35812
36900
37375
37505
37468
37135
36166
35066
33991
32519
31050
29840
28903
28395
28411
28863
29934
31383
32894
34587
35889
36620
37295
37597
37302
37020
36117
35031
33940
32503
31100
29876
28917
28383
28343
28783
29812
31196
32756
34266
35652
36508
36945
37351
37217
36654
35892
34922
33550
32359
30806
29608
28742
28240
28236
28703
29750
31172
32823
34311
35668
36561
37029
37503
37353
36793
36104
35068
33705
32471
30921
29742
28882
28398
28451
28979
30119
31390
33135
34817
35950
36902
37510
37516
37551
37059
36119
35246
34031
32589
31299
30055
29140
28644
28645
29106
30210
31543
33180
34772
35948
36815
37406
37561
37383
36871
35958
34933
33669
32327
30977
29796
28914
28394
28383
28909
30066
31465
33204
34772
35988
36847
37350
37527
37319
36823
35936
34903
33708
32358
30951
29750
28892
28443
28501
29055
30159
31521
33265
34802
35935
36743
37268
37511
37353
36819
35903
34823
33564
32177
30782
29567
28750
28333
28436
29048
30205
31558
33197
34687
35873
36738
37317
37582
37375
36730
35766
34620
33349
31997
30623
29506
28695
28309
28421
29069
30268
31687
33462
34966
36079
36839
37218
37364
37210
36663
35816
34823
33581
32197
30768
29590
28782
28441
28564
29217
30407
31841
33590
35177
36344
37183
37655
37749
37454
36806
35795
34817
33693
32516
31484
30695
30367
30654
31620
33059
35015
37188
39687
42012
43992
45642
47014
48037
48744
49197
49585
49870
49896
49687
49319
49047
48796
48700
48708
49007
49813
50263
51033
51422
51316
51303
50591
48966
47153
44614
42022
40181
38017
36195
34268
32441
31143
30145
29719
30022
30674
31803
33084
34006
34885
35117
35309
35207
34493
33657
32661
31311
29919
28532
27174
26018
25190
24877
24962
25620
26777
28164
29788
31112
32272
33103
33354
33580
33196
32637
31526
30470
29239
27882
26554
25461
24799
24547
24741
25569
26732
28186
29761
31292
32318
33063
33624
33558
33399
32733
31660
30615
29414
28043
26741
25663
24959
24653
24867
25643
26862
28333
29957
31424
32650
33396
33785
33989
33703
32979
32149
30941
29784
28455
27182
26134
25466
25177
25423
26210
27424
28889
30456
31896
33093
33799
34093
34228
34035
33153
32268
31189
29895
28536
27228
26158
25437
25175
25383
26229
27486
29010
30670
32161
33279
33992
34407
34516
34295
33622
32728
31651
30376
29002
27710
26694
26044
25809
26020
26870
28095
29603
31231
32662
33733
34384
34685
34716
34429
33696
32711
31532
30258
28935
27654
26631
25986
25799
26052
26906
28135
29645
31339
32806
33910
34615
34927
34923
34542
33718
32682
31489
30164
28793
27530
26541
25923
25740
26052
26975
28189
29711
31346
32786
33844
34519
34836
34636
34275
33639
32640
31374
30018
28647
27389
26378
25747
25631
25951
26909
28143
29730
31395
32657
33638
34447
34823
34740
34311
33543
32677
31540
30261
28862
27599
26623
26015
25893
26271
27236
28510
30062
31712
33084
34106
34772
35087
35159
34874
33960
32948
31781
30492
29175
27975
27015
26455
26384
26773
27798
29084
30672
32311
33630
34614
35280
35623
35623
35270
34517
33514
32482
31094
29797
28660
27777
27282
27271
27700
28769
30098
31783
33323
34836
35690
36335
36868
36701
36484
35521
34654
33540
32134
30891
29592
28700
28206
28191
28650
29753
30988
32710
34270
35535
36653
37115
37492
37578
36967
36268
35281
34001
32831
31334
30039
29146
28644
28597
29019
30087
31367
32970
34618
35927
36853
37482
37798
37743
37300
36419
35380
34140
32787
31239
30002
29086
28479
28458
28887
29912
31272
32936
34378
35727
36710
37096
37415
37471
36905
36093
35164
33767
32505
31148
29811
28876
28362
28390
28813
29860
31228
32854
34265
35623
36591
37007
37191
37301
36806
35815
34807
33753
32408
30884
29713
28847
28301
28272
28776
29948
31297
32923
34481
35668
36582
37251
37550
37431
36983
36097
35054
33799
32449
31002
29714
28753
28270
28245
28731
29876
31132
32752
34436
35650
36377
37053
37290
37055
36819
35807
34887
33777
32293
30957
29797
28854
28364
28398
28853
29908
31253
33021
34479
35671
36734
37127
37379
37348
36657
35863
34894
33532
32257
30882
29607
28745
28279
28252
28788
29959
31220
32977
34572
35684
36702
37274
37362
37329
36895
35847
34996
33625
32278
30996
29652
28822
28331
28343
28863
29936
31351
32959
34452
35790
36703
37110
37494
37423
36785
36013
34917
33647
32412
30883
29757
28826
28343
28391
28824
29991
31302
32926
34639
35808
36605
37359
37543
37269
36961
36004
34860
33766
32309
30815
29652
28852
28359
28337
28853
30020
31448
33014
34545
35958
36610
37344
37487
37262
37015
36025
34927
33836
32506
30941
29777
28924
28382
28406
28975
30128
31426
33088
34712
36053
36775
37359
37689
37471
36863
36205
34986
33799
32343
31055
29730
28881
28356
28340
28951
30044
31433
33305
34732
36054
36983
37338
37782
37580
36920
36215
34976
33714
32506
30951
29700
28847
28326
28407
28993
30106
31605
33208
34712
36118
36812
37350
37695
37327
36870
35910
34895
33724
32172
30803
29543
28653
28251
28262
28796
29976
31196
32954
34457
35724
36638
36967
37414
37023
36734
35598
34734
33246
31955
30487
29258
28396
27890
27983
28537
29688
31159
32687
34283
35551
36158
36902
36923
36831
36294
35253
34381
32950
31697
30239
29070
28298
27824
27933
28510
29630
31079
32730
34154
35348
36375
36914
37011
36918
36535
35550
34613
33479
31969
30658
29525
28645
28264
28391
28962
30070
31513
33257
34674
35770
36753
37302
37323
37311
36737
35696
34868
33449
32166
30850
29626
28742
28327
28458
28969
30104
31553
33053
34530
35677
36516
36987
37175
36964
36422
35606
34595
33332
31962
30555
29383
28596
28202
28302
28904
30079
31479
33141
34643
35777
36540
37011
37255
37115
36603
35734
34687
33454
32073
30672
29489
28687
28325
28423
29110
30353
31797
33423
34879
36014
36801
37191
37327
37034
36453
35575
34508
33255
31900
30543
29412
28647
28324
28495
29191
30428
31866
33532
34988
36103
36575
37270
37163
37125
36417
35479
34531
33076
31880
30388
29383
28564
28271
28521
29182
30493
31878
33477
35084
36036
36800
37369
37266
37255
36495
35650
34388
33237
31664
30396
29127
28443
28206
28474
29478
30863
32892
34910
36910
38852
40135
41636
42353
43072
43713
43725
43900
43840
43324
43311
42953
43476
44536
45697
47796
50079
52263
54836
56892
58172
59079
59310
58926
58293
56839
55015
53054
50604
48214
45615
42670
39959
37412
35916
35490
35496
36194
37098
37717
38040
38018
37919
37493
36780
35514
34246
32948
31233
29524
27835
26452
25449
24908
24854
25431
26455
27814
29239
30724
31680
32391
32922
32797
32582
31910
30813
29772
28391
27065
25794
24783
24098
23819
24042
24839
26000
27348
28991
30263
31363
32279
32628
32863
32770
31952
30993
29823
28548
27220
25943
24891
24195
23935
24124
24911
26092
27542
29116
30503
31607
32372
32807
32898
32648
31947
31027
29970
28761
27471
26263
25292
24695
24524
24798
25679
26943
28406
30147
31521
32502
33348
33579
33549
33386
32507
31519
30465
29100
27804
26551
25538
24902
24700
24981
25846
27013
28543
30215
31516
32711
33247
33708
33819
33433
32862
31891
30767
29604
28170
27001
26052
25456
25303
25593
26492
27688
29164
30895
32169
33316
34055
34303
34396
34036
33267
32350
31031
29850
28460
27126
26136
25479
25305
25592
26443
27611
29159
30691
31987
33088
33832
33987
33962
33732
32826
31889
30792
29418
28179
26890
25908
25292
25065
25317
26070
27253
28638
30240
31598
32475
33257
33441
33455
33175
32294
31414
30183
28819
27496
26153
25167
24550
24321
24557
25420
26574
28055
29649
30964
32159
32744
33085
33276
32775
32002
31015
29849
28665
27325
26053
25088
24429
24268
24582
25449
26668
28208
29698
31015
32151
32691
33153
33259
32799
32198
31212
30102
28971
27527
26326
25345
24762
24659
24986
25930
27205
28679
30382
31796
32820
33716
34006
34121
34037
33207
32426
31394
30148
28964
27745
26903
26436
26313
26724
27775
29055
30775
32564
33877
35018
35858
36257
36187
36165
35531
34531
33585
32391
30998
29900
28972
28404
28410
28770
29828
31164
32862
34366
35920
37023
37574
37959
38151
37698
37047
36175
34960
33862
32377
31169
30268
29652
29720
30004
31137
32320
33986
35654
36743
37969
38566
38796
38952
38439
37732
36871
35559
34211
33001
31564
30591
30039
29764
30175
31060
32468
33881
35586
36670
37794
38100
38678
38475
38167
37329
36131
35167
33700
32361
30994
29958
29435
29191
29638
30503
31799
33415
34743
36142
37010
37628
38035
37732
37476
36711
35527
34564
33226
31748
30618
29542
28967
28933
29167
30159
31495
33076
34515
35990
36959
37327
37883
37735
37348
36431
35463
34285
33012
31650
30387
29433
28891
28838
29300
30383
31660
33193
34726
35874
36811
37463
37815
37866
37471
36612
35590
34410
33085
31663
30380
29413
28856
28734
29121
30187
31470
33050
34707
35991
36935
37558
37831
37727
37295
36440
35434
34276
32996
31588
30315
29335
28755
28693
29055
30054
31359
32930
34495
35700
36596
37124
37308
37163
36691
35812
34716
33471
32096
30694
29455
28527
28004
27985
28468
29575
30922
32558
34137
35364
36231
36752
37030
36927
36455
35571
34537
33314
31950
30533
29324
28457
27995
27999
28519
29611
30946
32492
34159
35374
36067
36764
36891
36743
36389
35396
34457
33322
31845
30555
29266
28351
27982
28007
28522
29694
31157
32726
34228
35510
36494
36903
37185
37236
36650
35828
34887
33513
32363
30885
29703
28949
28390
28492
29148
30225
31675
33353
34797
36180
37057
37398
37799
37729
37085
36305
35317
33982
32772
31317
30140
29431
28869
28967
29547
30621
32090
33700
35062
36471
37367
37699
38127
37958
37400
36677
35431
34468
32996
31637
30476
29530
29159
29122
29666
30760
32085
33735
35348
36656
37502
38007
38197
38018
37495
36575
35508
34231
32847
31431
30229
29359
28903
28931
29463
30536
31904
33536
35055
36256
37063
37535
37678
37438
36855
35967
34951
33738
32352
30928
29799
29034
28663
28755
29340
30504
31871
33511
34982
36099
36770
37126
37228
37099
36582
35602
34513
33223
31853
30464
29310
28484
28104
28197
28847
29995
31412
33079
34596
35703
36498
36919
37031
36753
36077
35079
34014
32660
31320
29952
28826
28000
27644
27854
28529
29621
31006
32714
34077
35082
36035
36548
36523
36412
35904
34748
33844
32500
31159
29808
28768
28039
27744
27971
28726
29956
31430
33127
34577
35732
36551
37079
37255
37055
36418
35430
34359
33044
31721
30378
29300
28614
28348
28558
29297
30549
32039
33706
35189
36252
36963
37400
37631
37269
36575
35719
34379
33271
31915
30439
29409
28760
28406
28627
29487
30623
32110
33780
35301
36395
37156
37572
37574
37305
36506
35583
34416
33223
31913
30598
29480
28762
28524
28777
29620
30833
32332
33955
35367
36403
37126
37530
37574
37278
36579
35615
34417
33076
31710
30371
29279
28566
28295
28516
29391
30660
32220
33891
35274
36300
37031
37418
37271
37126
36395
35254
34333
32914
31606
30191
29100
28514
28209
28484
29481
30647
32164
33834
35110
36213
36983
37452
37494
37194
36452
35479
34333
33007
31599
30214
29100
28372
28159
28409
29319
30564
32132
33783
35087
35903
36556
36975
37181
37041
36684
36328
35815
35335
34871
34510
34428
34776
35673
37255
39447
42261
45304
48326
50985
53374
55630
57695
59317
60478
61063
61215
60829
59999
58588
57318
55879
54916
54189
53925
54263
54279
54926
55092
54791
54218
52717
51029
48794
46512
44423
42299
39744
37480
35018
32457
30544
28834
27903
27630
27978
28900
30153
31571
32497
33311
33599
33710
33519
32770
31812
30580
29119
27676
26145
24821
23721
22926
22666
22950
23933
25211
26833
28554
29943
31137
31644
32040
32065
31540
30727
29614
28370
27012
25540
24236
23174
22510
22380
22748
23803
25121
26839
28491
29949
31164
31714
32151
32127
31700
31007
29854
28679
27427
25954
24709
23743
23151
23068
23518
24615
26003
27693
29506
30886
32129
32663
33212
33066
32823
31884
30848
29677
28231
26850
25469
24462
23828
23671
24047
25050
26368
28084
29682
31156
32334
32890
33193
33334
32894
32001
31093
29834
28652
27186
25982
25079
24538
24518
25020
26149
27620
29414
31142
32684
33870
34474
34886
35037
34578
33799
32875
31519
30273
28775
27462
26533
25899
25832
26138
27178
28559
30094
31751
33150
33956
34655
34828
34762
34437
33355
32340
30950
29591
28127
26742
25748
25089
24959
25329
26273
27597
29191
30820
32306
33105
33765
33908
33840
33519
32441
31486
30126
28754
27378
26001
25021
24430
24313
24702
25666
26878
28503
29934
31215
32289
32751
32967
32964
32349
31469
30377
29208
27771
26405
25092
24111
23494
23388
23761
24749
26001
27566
29254
30434
31472
32189
32336
32335
32057
31038
30132
28887
27580
26246
25028
24079
23549
23511
23953
25007
26279
27956
29685
30955
31932
32713
33135
32967
32615
31951
30869
29770
28527
27106
25945
25095
24614
24597
25081
26192
27574
29359
31018
32419
33538
34382
34642
34719
34474
33583
32737
31711
30358
29140
27953
27125
26731
26695
27252
28490
29828
31628
33391
34655
35947
36463
36935
37070
36550
36069
35023
33836
32754
31310
30073
29300
28743
28727
29315
30495
31868
33637
35431
36735
37589
38460
38835
38695
38517
37495
36683
35352
34106
32742
31398
30617
29969
30087
30444
31650
33121
34661
36416
37694
38721
39335
39575
39462
39012
38275
37102
35941
34472
32926
31737
30589
30082
29964
30349
31515
32911
34383
35996
37383
38149
38753
39126
38879
38439
37630
36383
35263
33727
32247
30951
29892
29426
29306
29771
31006
32323
34021
35772
36910
37951
38695
38772
38900
38390
37493
36572
35154
33925
32359
31102
30269
29592
29601
30197
31247
32676
34474
35953
37359
38458
38740
39289
39239
38548
37927
36809
35540
34213
32604
31375
30383
29748
29845
30269
31460
32935
34489
36199
37530
38357
39136
39189
39143
38816
37639
36783
35429
33980
32602
31127
30186
29461
29493
29884
31064
32502
34044
35853
37004
37906
38575
38641
38455
38051
36943
35791
34572
32935
31369
30056
29005
28316
28255
28785
29807
31197
33056
34543
35823
36892
37335
37604
37621
36969
36028
35060
33571
32164
30676
29184
28195
27698
27605
28092
29295
30751
32361
34136
35468
36170
36966
37094
36933
36556
35471
34373
33191
31591
30116
28719
27753
27247
27256
27695
28879
30373
32005
33692
35148
35956
36556
36974
36751
36333
35543
34351
33158
31759
30207
29044
28095
27585
27709
28210
29521
30895
32675
34528
35702
36887
37423
37728
37831
37169
36332
35261
33863
32644
31000
29792
28843
28276
28351
28819
30007
31542
33197
34728
36186
37075
37471
37980
37839
37277
36521
35311
34071
32707
31041
29808
28751
28253
28319
28783
30099
31485
33177
34915
36271
36974
37815
38003
37923
37571
36351
35503
34054
32741
31124
29880
28943
28468
28527
29091
30330
31637
33531
34967
36421
37079
37839
37869
37967
37358
36423
35426
33948
32612
31042
29882
28808
28341
28430
28924
30080
31631
33346
34789
36124
36812
37344
37754
37355
36894
35893
34713
33568
31973
30585
29177
28308
27788
27664
28179
29287
30692
32591
34011
35441
36267
36906
36940
36839
36305
35211
34299
32826
31453
30023
28612
27747
27255
27239
27872
28972
30488
32238
33786
35181
36087
36486
36853
36639
35927
35207
33957
32714
31364
29716
28490
27615
27081
27131
27815
28965
30493
32407
33892
35197
36216
36630
36933
36829
36055
35311
34071
32759
31474
29863
28703
27797
27361
27527
28159
29469
31091
32756
34432
35886
36596
37177
37524
37190
36505
35779
34614
33198
31917
30284
29070
28195
27685
27789
28485
29724
31158
32988
34692
35813
36562
37274
37532
37183
36662
35783
34496
33143
31830
30189
28897
28001
27603
27623
28276
29526
31022
32736
34423
35775
36572
36935
37383
37086
36574
35543
34471
33279
31655
30215
29030
28020
27594
27715
28371
29478
31039
32901
34396
35590
36665
37204
37204
37245
36566
35503
34601
33124
31736
30281
29028
28194
27732
27878
28615
29711
31180
33054
34507
35768
36701
37028
37486
37302
36513
35792
34533
33277
31858
30284
29183
28238
27856
28023
28663
29908
31484
33159
34660
35975
36930
37319
37416
37400
36817
35662
34791
33306
31937
30423
29130
28326
27959
27962
28614
29850
31239
32808
34297
35696
36527
37127
37677
37786
37634
37374
36773
36400
35810
35079
34915
34919
35697
37325
39142
41401
44122
46760
49132
51988
54383
56126
58087
59228
59878
59887
59180
58324
56829
55004
53429
52034
50751
49879
49510
49372
49188
49567
49357
48345
46965
45662
44510
43340
41812
39940
37989
35865
33608
31396
29415
27844
26863
26444
26702
27486
28628
30012
31306
32237
32836
33130
33121
32724
31943
30872
29644
28282
26837
25447
24292
23441
23023
23143
23889
25068
26559
28255
29792
31002
31845
32282
32399
32166
31471
30457
29303
28024
26645
25279
24132
23304
22967
23163
23980
25226
26730
28427
29988
31228
32082
32607
32740
32487
31787
30785
29620
28308
26919
25590
24508
23795
23547
23789
24667
25972
27519
29254
30873
32121
32970
33470
33613
33345
32628
31642
30398
29012
27583
26205
25100
24333
24071
24301
25227
26515
28110
29833
31319
32400
33167
33647
33671
33338
32580
31577
30447
29126
27655
26296
25250
24530
24327
24643
25578
26878
28474
30194
31692
32846
33646
34086
34112
33847
33101
32084
30844
29503
28065
26717
25605
24902
24711
25036
26006
27312
28944
30698
32252
33372
34119
34492
34518
34150
33345
32263
30998
29615
28148
26786
25719
25013
24819
25147
26135
27458
29146
30844
32310
33331
34031
34392
34368
33972
33103
32049
30763
29369
27911
26590
25519
24824
24640
24999
26024
27369
29030
30738
32158
33180
33871
34277
34260
33854
32969
31900
30698
29286
27762
26411
25366
24715
24583
24981
26064
27436
29180
30913
32403
33513
34183
34524
34459
33981
33084
32078
30841
29521
27992
26576
25535
24928
24850
25306
26429
27843
29612
31320
32745
33764
34448
34830
34786
34349
33438
32381
31096
29703
28271
27004
26033
25468
25428
25912
27060
28470
30247
32006
33462
34567
35290
35700
35709
35255
34380
33336
32060
30663
29190
27935
27033
26527
26566
27108
28300
29778
31613
33394
34837
35919
36643
37021
36930
36471
35591
34527
33302
31980
30539
29270
28304
27773
27751
28319
29559
31122
32985
34695
36087
37084
37474
37884
37830
37340
36386
35252
33925
32455
30928
29671
28764
28262
28263
28866
30102
31597
33406
35022
36420
37351
37917
38063
38028
37447
36458
35300
33955
32488
30954
29601
28644
28167
28251
28908
30138
31671
33453
35052
36310
37101
37639
37836
37639
37159
36127
34961
33655
32084
30483
29143
28214
27748
27847
28542
29828
31364
33181
34880
36181
37076
37618
37815
37609
36972
36029
34893
33498
31918
30404
29132
28228
27802
27919
28661
30031
31668
33567
35271
36350
37223
37761
37966
37812
37172
36191
35025
33639
32063
30458
29140
28231
27818
27930
28679
30055
31684
33566
35202
36412
37229
37734
37730
37531
36897
35950
34777
33373
31877
30338
29095
28269
27943
28186
29063
30439
32068
33882
35428
36686
37491
37964
38079
37938
37241
36226
34984
33525
31924
30375
29079
28188
27820
27982
28842
30127
31767
33700
35412
36673
37461
37815
38007
37748
36972
35930
34689
33348
31855
30342
29090
28268
27962
28194
29079
30399
32049
33902
35540
36772
37631
38165
38255
37950
37144
36052
34788
33462
31743
30132
28999
28260
27962
28197
29282
30586
32260
34250
35673
37033
37555
38286
38228
37962
37083
36205
34766
33414
31756
30236
29117
28227
27951
28249
29175
30533
32406
34141
35798
37044
37644
38263
38163
37949
37071
36145
34852
33377
31730
30206
29012
28212
27982
28287
29269
30628
32320
34086
35636
36901
37509
38062
38070
37681
37008
35793
34590
33155
31532
30178
28903
28190
27996
28213
29252
30666
32276
34141
35746
36711
37303
37943
37863
37533
36895
35711
34567
33142
31580
30271
29222
28498
28381
28716
29615
30920
32647
34284
35591
36689
37463
37631
37620
37378
36438
35348
34293
32852
31323
30023
28935
28300
28175
28487
29396
30748
32391
33908
35381
36372
36820
37354
37292
36940
36254
35096
34054
32633
31178
29950
28863
28263
28167
28415
29432
30632
32196
33944
35232
36135
36870
37297
37155
36853
36137
35043
33890
32766
31254
30054
29152
28492
28410
28827
29751
31052
32713
34292
35540
36702
37233
37594
37686
37189
36606
35544
34279
33063
31623
30246
29317
28721
28572
28813
29783
31111
32629
34205
35612
36478
37295
37364
37511
37085
36207
35295
34075
32686
31416
30012
29033
28480
28347
28646
29703
30999
32481
34140
35556
36388
36967
37519
37420
36950
36359
35196
34094
32872
31279
30036
29159
28487
28394
28791
29671
30911
32619
34079
35334
36462
37049
37228
37429
37056
36098
35311
33950
32572
31271
29883
28903
28374
28246
28642
29743
30948
32465
34135
35583
36404
37028
37471
37311
36839
36303
35212
34076
32844
31262
30026
29094
28426
28311
28721
29732
30961
32606
34320
35511
36383
37210
37519
37340
36993
36262
35215
33999
32673
31270
30033
29106
28544
28486
28853
29849
31108
32663
34284
35618
36635
37358
37711
37910
37836
37425
36938
36439
35875
35173
34695
34671
35079
35929
37223
39190
41223
43287
45928
48377
50439
52445
54076
55095
55592
55815
55231
53828
52544
50647
48520
47095
45463
44333
43860
43558
43623
43686
43031
42561
42397
42004
41440
41141
40269
38708
37422
35733
33958
32081
30301
28841
27758
27202
27181
27863
28858
30201
31564
32612
33350
33805
34132
33815
33279
32492
31252
30008
28704
27270
26047
25154
24593
24519
24929
25954
27191
28734
30359
31567
32422
33116
33463
33240
32894
32002
30924
29798
28455
27115
25972
25106
24589
24556
25012
26065
27334
28833
30407
31830
32671
33217
33625
33463
32942
32222
31020
29873
28692
27332
26219
25383
24893
24916
25397
26506
27814
29388
31013
32416
33453
33882
34220
34199
33639
32887
31894
30588
29358
27986
26781
25926
25422
25386
25818
26855
28126
29775
31434
32567
33576
34093
34300
34145
33593
32690
31672
30544
29348
27999
26802
25954
25499
25531
26023
27117
28449
30086
31661
32943
33836
34398
34622
34545
34122
33284
32330
31116
29775
28339
27103
26263
25820
25831
26341
27432
28727
30343
31938
33211
34086
34582
34771
34591
34071
33191
32143
30930
29561
28275
27046
26211
25784
25817
26376
27462
28793
30464
32043
33103
34029
34538
34671
34679
33983
33116
32113
30748
29508
28069
26927
26085
25625
25693
26194
27325
28650
30249
31917
33004
33925
34296
34583
34431
33783
33062
31903
30790
29309
28009
26812
25998
25596
25674
26238
27386
28726
30432
31944
33117
34129
34485
34878
34524
34215
33143
32249
30820
29593
28212
27058
26277
25911
25973
26596
27815
29157
30814
32431
33693
34402
34975
35252
34926
34407
33446
32410
31206
29892
28543
27453
26663
26300
26397
27055
28242
29675
31370
32950
34234
35190
35686
35911
35787
35261
34426
33388
32166
30828
29500
28429
27694
27391
27536
28250
29471
30982
32567
34066
35455
36254
36582
37015
36820
36079
35399
34233
33068
31826
30343
29207
28474
28118
28252
29033
30263
31629
33385
35039
36035
36911
37481
37383
37399
36806
35728
34812
33591
32100
30864
29654
28787
28444
28622
29191
30375
31889
33607
34970
36079
36990
37278
37479
37338
36540
35796
34668
33310
32108
30625
29515
28804
28294
28411
29167
30204
31751
33405
34791
36013
36788
37271
37412
37129
36484
35468
34355
33087
31723
30352
29242
28468
28162
28364
29098
30395
31906
33426
35030
36199
36845
37322
37571
37031
36581
35599
34364
33236
31732
30399
29423
28550
28263
28487
29155
30447
31821
33543
35125
36092
36884
37338
37444
37335
36536
35591
34601
33141
31888
30423
29319
28660
28257
28532
29235
30431
31997
33511
35033
36260
36837
37500
37549
37275
36785
35662
34597
33451
31895
30602
29599
28694
28465
28688
29365
30636
32213
33732
35211
36412
37130
37482
37559
37442
36679
35682
34674
33215
31948
30531
29369
28669
28449
28669
29405
30591
31993
33610
34980
36064
36842
37255
37339
37151
36454
35515
34417
33132
31835
30342
29271
28583
28198
28442
29337
30428
31892
33622
35061
35968
36806
37303
37255
36956
36375
35503
34214
32934
31630
30092
29073
28257
27978
28294
29021
30252
31838
33425
34689
35924
36732
37030
37110
36964
36156
35075
34165
32844
31381
30086
29049
28260
28045
28293
29026
30398
31794
33565
34823
35874
36764
37133
37052
37026
36351
35189
34287
32930
31471
30247
29031
28349
28182
28276
29143
30340
31780
33539
35004
35932
36767
37178
37111
36998
36064
35332
34100
32850
31500
30073
29071
28387
28134
28434
29265
30394
31931
33671
34981
36027
36870
37156
37223
37086
36233
35159
34269
32860
31506
30247
29076
28444
28146
28368
29322
30427
31998
33770
35025
36140
36924
37127
37263
37123
36279
35383
34096
32972
31443
30116
29132
28287
28058
28385
29157
30364
31909
33671
34954
35975
36827
36959
37221
36923
36135
35239
34022
32831
31304
30027
29044
28225
28007
28305
29127
30303
31828
33549
34970
35863
36601
37119
37045
36773
36205
35213
34069
32815
31354
30058
29015
28297
28094
28380
29383
30663
32175
33777
35140
36191
36767
37279
37350
36915
36021
35242
34011
32788
31314
29982
29071
28277
28138
28472
29232
30437
32030
33711
35084
35940
36666
37082
37110
36519
35983
34903
33665
32551
31018
29786
28748
28116
28017
28262
29151
30428
32016
33546
34973
36085
36651
37031
37237
36796
36118
35177
33823
32742
31210
29950
28758
28167
27878
28182
29220
30384
31913
33710
34989
35956
36843
37250
37063
37048
36068
35358
34068
32813
31348
30047
29004
28353
28249
28423
29385
30716
32172
33948
35238
36164
37103
37271
37440
37084
36276
35460
34093
32924
31366
29964
28975
28206
28158
28372
29339
30722
32178
33973
35474
36309
37135
37477
37436
37223
36359
35309
34203
32734
31341
29935
28759
28134
27874
28260
29476
30823
32761
35010
36825
38663
40038
41316
42318
42588
43213
43303
43386
43599
43338
43268
43508
43684
44996
46612
48734
51325
53984
56521
58837
60413
61367
61820
61614
60884
59655
58015
56060
53863
51261
48766
46164
43943
41701
39756
38727
38091
38687
39364
39672
39892
39647
39157
38630
37480
36429
34972
33367
31733
29757
28044
26466
25485
25049
25037
25784
26771
28284
29807
31031
32055
32615
32820
32935
32471
31513
30598
29258
27927
26508
25226
24246
23619
23453
23751
24666
25944
27563
29215
30586
31574
32304
32656
32613
32236
31320
30282
29073
27716
26288
24997
23973
23358
23226
23582
24532
25786
27382
29052
30501
31540
32229
32566
32515
32194
31399
30398
29194
27935
26550
25343
24458
23951
23959
24364
25347
26597
28211
29848
31199
32261
32913
33231
33246
32845
31951
30930
29703
28327
26919
25669
24741
24106
24055
24445
25438
26765
28378
30013
31495
32456
33074
33584
33466
33067
32389
31284
30246
28974
27595
26367
25446
24914
24876
25345
26455
27826
29535
31192
32518
33471
34078
34337
34231
33750
32847
31766
30461
29060
27622
26340
25385
24814
24752
25190
26246
27557
29188
30781
32071
32960
33511
33783
33657
33256
32319
31265
29975
28578
27152
25938
25039
24545
24547
25009
26128
27467
29127
30716
31996
32839
33326
33470
33263
32698
31674
30581
29285
27876
26388
25178
24215
23739
23734
24165
25235
26564
28104
29622
30947
31735
32361
32606
32391
31989
30963
29860
28596
27249
25869
24676
23836
23424
23471
24050
25213
26651
28356
29935
31230
32147
32751
32964
32954
32500
31633
30607
29376
28072
26751
25637
24866
24480
24625
25301
26551
27991
29811
31341
32751
33732
34170
34625
34532
33980
33260
32167
31016
29815
28380
27340
26645
26213
26405
27202
28415
29945
31695
33559
34962
35808
36455
36868
36596
36252
35482
34357
33263
31876
30465
29457
28564
28239
28494
29107
30407
32070
33749
35276
36676
37765
38183
38439
38479
37850
37022
35994
34527
33279
31786
30569
29844
29335
29534
30215
31367
32954
34685
36068
37510
38367
38640
39052
38843
38181
37372
35987
34887
33390
31908
30767
29782
29463
29416
30057
31354
32640
34415
35966
36972
37916
38183
38485
38234
37548
36764
35348
34197
32674
31209
30072
29095
28699
28867
29436
30555
31996
33751
35318
36406
37050
37660
37879
37714
36958
35980
34895
33578
32068
30661
29436
28542
28123
28221
28922
30215
31701
33381
34804
35929
36937
37532
37719
37455
36773
35793
34660
33270
31756
30332
29124
28279
27918
28045
28767
30031
31575
33348
34849
35999
36732
37169
37255
36881
36332
35321
34199
32916
31504
30133
28950
28072
27703
27819
28632
29943
31457
33081
34511
35845
36711
37107
37207
36934
36446
35436
34213
32738
31363
29968
28853
28028
27639
27771
28537
29792
31374
33009
34311
35548
36398
36815
36830
36461
35644
34714
33588
32287
30721
29298
28207
27417
27151
27409
28202
29415
30988
32702
34220
35511
36285
36683
36739
36286
35695
34750
33620
32297
30876
29477
28340
27588
27322
27571
28462
29759
31311
32973
34375
35497
36253
36695
36789
36532
35846
34900
33686
32383
31013
29692
28625
27917
27703
27973
28935
30268
31911
33662
35178
36314
37066
37530
37593
37348
36712
35765
34652
33382
31996
30671
29615
28962
28838
29162
30133
31426
33004
34703
36114
37196
37924
38295
38373
37949
37300
36137
35039
33783
32193
30860
29882
29047
28879
29265
30226
31434
33191
34629
36165
37294
37841
38237
38344
37912
36990
36230
34841
33607
32095
30666
29759
28977
28848
29212
30088
31429
33019
34471
36023
36917
37575
37948
37804
37591
36660
35614
34404
32871
31375
30112
28919
28282
28084
28351
29327
30639
32085
33634
35086
36067
36500
36975
36909
36519
35870
34751
33615
32229
30754
29565
28481
27802
27687
28068
28954
30246
31946
33678
35003
36030
36871
37228
37239
37060
36206
35071
34090
32750
31277
30125
28980
28406
28359
28587
29598
31010
32549
34116
35423
36559
37137
37393
37484
37110
36268
35402
34063
32806
31283
30012
29063
28347
28201
28559
29460
30846
32487
34020
35359
36460
37039
37380
37519
36982
36304
35263
34030
32844
31342
30130
29154
28492
28445
28754
29780
31192
32751
34260
35799
36803
37231
37811
37831
37220
36737
35591
34556
33287
31834
30644
29638
29015
29042
29407
30406
31881
33389
34978
36406
37201
37963
38372
38049
37846
37005
35818
34915
33470
32084
30815
29814
29311
29134
29612
30551
31895
33585
34973
36388
37286
37837
38298
38231
37668
37077
36103
34810
33604
32024
30759
29863
29162
29153
29422
30524
31951
33444
35060
36413
37050
37837
38111
37887
37577
36424
35537
34241
32782
31322
29923
29074
28528
28749
29297
30802
32846
35182
37383
39868
41682
43439
44621
45959
47002
47511
48236
48740
48807
48508
49084
49661
50303
51764
53398
55288
57334
59454
61188
62500
63028
63220
63317
63267
62135
60271
57985
55461
52568
49628
46636
43194
40431
38190
36935
36449
36260
36871
37217
37543
37548
37335
36975
36269
35471
34055
32847
31124
29468
27671
26007
24796
23921
23583
23702
24537
25623
27117
28479
29777
30533
31149
31456
31207
30847
29819
28811
27684
26288
24950
23751
22836
22271
22202
22590
23550
24772
26280
27783
29149
29967
30663
30967
30862
30510
29546
28583
27383
26106
24831
23621
22722
22234
22209
22631
23687
24915
26508
28089
29406
30538
31124
31505
31567
31075
30343
29386
28209
27061
25708
24600
23766
23252
23245
23713
24759
26119
27668
29254
30648
31541
32095
32574
32394
32017
31231
30164
29078
27752
26438
25335
24421
23948
23925
24383
25415
26727
28452
29966
31409
32383
32991
33562
33555
33140
32551
31523
30384
29338
27972
26936
26119
25732
25815
26348
27511
28922
30481
32133
33533
34349
35071
35254
35123
34837
33871
32971
31661
30417
29102
27812
26942
26314
26291
26740
27750
29108
30630
32131
33543
34350
34807
35181
35004
34406
33725
32617
31361
30173
28653
27486
26641
26090
26088
26555
27600
28919
30644
32113
33497
34375
34871
35239
34885
34583
33535
32508
31332
29836
28483
27301
26308
25819
25735
26169
27259
28494
30124
31636
32748
33757
34230
34336
34401
33758
33013
31926
30665
29476
27964
26780
25937
25430
25437
25897
26978
28381
29864
31537
32797
33620
34407
34564
34471
33934
33190
32084
30999
29670
28301
27220
26280
25856
25893
26391
27545
28792
30494
32135
33303
34338
34872
35036
35163
34580
33767
32898
31584
30383
29124
27900
27090
26618
26671
27271
28336
29823
31436
33089
34465
35206
36062
36263
36215
35900
34916
34077
32829
31652
30311
29185
28338
27991
27980
28665
29719
31120
32895
34367
35789
36626
37304
37515
37453
37076
36178
35282
33894
32761
31238
30178
29183
28806
28869
29381
30634
31942
33671
35388
36455
37449
38151
38108
38242
37663
36853
35758
34479
33191
31631
30552
29526
29164
29102
29689
30892
32172
33951
35445
36596
37607
37938
38383
38143
37711
36743
35764
34424
33063
31569
30300
29492
28892
29023
29485
30612
32155
33662
35376
36671
37277
38095
38111
38133
37628
36522
35740
34365
33094
31545
30391
29408
29039
29107
29660
30971
32254
33999
35694
36847
37712
38458
38466
38580
38063
37148
36139
34716
33607
32047
30919
29863
29492
29466
30145
31436
32759
34642
36094
37399
38273
38774
39159
38821
38525
37534
36572
35287
33877
32535
31145
30372
29807
30031
30556
31815
33437
35028
36653
38069
38780
39615
39825
39703
39133
38234
37140
35770
34298
32711
31375
30327
29878
29695
30263
31307
32659
34454
35915
36906
37932
38476
38401
38438
37767
36852
35666
34463
32909
31466
30109
29167
28759
28669
29332
30386
31895
33579
34913
36225
36947
37540
37735
37261
36933
35991
34727
33598
32036
30526
29348
28339
27911
28030
28562
29789
31249
32804
34498
35608
36462
37151
37252
37116
36724
35578
34591
33211
31746
30311
28988
28119
27560
27652
28257
29420
30996
32656
34199
35561
36420
36733
37194
36825
36389
35351
34359
33132
31595
30214
28846
28005
27565
27685
28422
29556
31119
32771
34287
35716
36462
37070
37378
36991
36639
35577
34510
33285
31707
30345
28967
28112
27748
27791
28455
29756
31153
33060
34503
35841
36647
37220
37604
37215
36954
35863
34844
33592
32036
30716
29417
28625
28285
28361
29068
30386
31820
33764
35348
36442
37541
38036
38228
38252
37573
36706
35527
34310
32886
31279
30093
29107
28802
28818
29588
30850
32315
34229
35650
36961
37878
38151
38615
38407
37841
37038
35751
34670
33064
31671
30309
29417
29101
29108
29834
31186
32561
34323
35976
37025
37895
38535
38518
38403
37802
36571
35572
34037
32613
31239
29831
29006
28506
28612
29251
30455
32143
33846
35335
36775
37501
38099
38336
37926
37567
36511
35473
34032
32563
31072
29713
28885
28387
28558
29177
30444
32100
33699
35313
36538
37135
37849
37870
37620
37034
35954
34940
33429
32116
30415
29213
28219
27847
27953
28666
29919
31540
33131
34844
35878
36660
37354
37332
37215
36599
35598
34590
33143
31810
30188
29012
28069
27726
27802
28464
29716
31289
33026
34460
35706
36677
36956
37289
36985
36316
35418
34076
32864
31200
29815
28506
27706
27324
27486
28236
29436
31113
32749
34449
35491
36412
36950
36842
36819
36047
35079
33847
32453
31108
29540
28430
27563
27260
27372
28148
29419
30971
32879
34262
35628
36179
36848
36839
36693
35844
34837
33695
32173
30772
29223
28039
27164
26863
27096
27852
29241
30727
32564
34177
35188
36111
36551
36519
36455
35562
34633
33505
31887
30429
28919
27793
27157
26978
27509
28761
30637
33031
35609
38004
39904
41918
43428
44602
45830
46644
47030
46959
47038
46818
46879
47260
47889
48884
50205
51901
53852
55860
57735
59328
60327
60733
60742
60135
58927
57048
54788
52206
49370
46148
42459
39088
36420
34719
33647
33307
33455
34052
34884
35490
35971
36174
36074
35647
34862
33678
32335
30918
29297
27558
25881
24458
23436
22931
22951
23681
24859
26343
27987
29407
30527
31286
31716
31751
31431
30661
29646
28423
27100
25684
24291
23140
22369
22116
22406
23335
24655
26275
27998
29464
30592
31350
31809
31820
31508
30758
29730
28543
27196
25751
24383
23267
22542
22343
22657
23631
24980
26623
28363
29903
31038
31814
32255
32263
31986
31272
30316
29172
27884
26527
25218
24122
23420
23223
23559
24595
25922
27541
29252
30730
31879
32661
33094
33139
32720
31887
30837
29604
28277
26844
25511
24452
23789
23607
23950
24975
26296
27926
29663
31182
32318
33068
33447
33432
33110
32284
31249
30008
28663
27201
25888
24831
24167
24038
24431
25495
26876
28572
30351
31861
32964
33670
34010
33929
33510
32588
31518
30210
28823
27373
26055
25028
24385
24295
24723
25813
27165
28834
30528
31933
32962
33633
34051
34015
33609
32699
31604
30251
28828
27391
26108
25095
24480
24348
24752
25846
27245
28973
30681
32082
33060
33692
33967
33833
33341
32372
31280
29970
28556
27088
25759
24731
24126
24061
24541
25692
27060
28740
30414
31836
32796
33420
33727
33634
33180
32268
31194
29959
28562
27095
25828
24892
24351
24335
24851
26031
27444
29175
30826
32204
33202
33856
34167
34033
33532
32596
31623
30447
29097
27680
26422
25460
24935
24945
25511
26712
28156
29904
31593
32959
33986
34639
34916
34829
34388
33489
32460
31223
29814
28359
27143
26261
25833
25950
26620
27832
29372
31086
32929
34289
35276
36126
36239
36223
35765
34919
33716
32565
31039
29655
28471
27571
27155
27265
27894
29100
30680
32434
34159
35679
36471
37242
37396
37375
36829
35847
34934
33502
32185
30554
29313
28449
27980
28069
28718
30000
31437
33298
34940
36188
37290
37709
38119
37792
37370
36308
35311
33886
32390
30989
29600
28689
28244
28241
28839
30001
31607
33287
35159
36295
37335
37868
37949
38010
37266
36392
35236
33831
32420
30785
29542
28579
28135
28183
28788
30055
31469
33406
34928
36315
37098
37557
37997
37602
37173
36152
34932
33752
32144
30705
29414
28533
28109
28239
28891
30191
31620
33526
34997
36427
37159
37784
38142
37806
37367
36327
35087
33875
32239
30835
29538
28634
28233
28322
28988
30272
31671
33500
35269
36339
37246
37868
37791
37807
37118
36103
35159
33623
32260
30740
29437
28581
28122
28223
28874
30183
31812
33472
35204
36544
37251
38004
38004
37934
37293
36336
35157
33759
32353
30708
29476
28553
28137
28220
28949
30170
31693
33626
35135
36332
37380
37735
37993
37828
37059
36231
34999
33600
32231
30623
29397
28519
28100
28211
28897
30192
31690
33655
35124
36506
37239
37854
38129
37831
37196
36193
34974
33671
32089
30630
29335
28476
28063
28178
28916
30174
31764
33700
35149
36529
37438
37909
38167
37709
37263
36090
35063
33516
32130
30534
29317
28447
28055
28206
28924
30249
31751
33612
35236
36470
37431
37804
38199
37812
37364
36204
35180
33695
32279
30737
29444
28596
28191
28359
29086
30437
31991
33694
35479
36526
37583
37944
38303
37878
37364
36231
35143
33703
32153
30706
29365
28524
28134
28303
29077
30356
32024
33743
35548
36615
37660
38005
38198
37984
37175
36348
34960
33684
32064
30460
29234
28384
28017
28185
28946
30283
31788
33588
35199
36423
37294
37950
38078
37817
37108
36020
34728
33311
31766
30282
29084
28260
27927
28108
28888
30212
31842
33714
35324
36511
37284
37748
37799
37519
36743
35759
34545
33119
31610
30122
28966
28183
27884
28081
28918
30240
31892
33700
35292
36494
37359
37839
37895
37851
36961
36077
34782
33412
32006
30410
29250
28423
28111
28322
29140
30535
32055
33896
35574
36525
37421
37826
37727
37671
36759
35803
34666
33095
31622
30206
28974
28196
27887
28112
29004
30287
32014
33740
35269
36615
37255
37859
37975
37524
36951
35804
34575
33325
31630
30205
28947
28179
27887
28131
29063
30406
32016
33962
35383
36655
37533
37782
38071
37751
36818
35964
34522
33190
31692
30113
28934
28149
27847
28095
28967
30291
32034
33693
35325
36497
37155
37831
37639
37551
36628
35705
34482
33006
31537
29981
28830
28023
27771
28045
28999
30385
31962
33933
35346
36606
37269
37787
37894
37455
36907
35639
34587
32986
31550
30027
28820
28068
27793
28065
28973
30392
32002
33951
35541
36527
37452
37722
37788
37521
36615
35862
34487
33311
31983
30752
30039
29684
30207
31239
32939
35150
37446
40212
42494
44542
46356
47690
48788
49391
49911
50364
50284
50558
50034
49707
48973
48877
48767
48753
49351
49788
50901
51500
52023
52271
51885
51077
49500
47062
44479
41936
39892
37580
35722
33481
31759
30197
29375
29072
29538
30488
31695
33213
34164
35002
35327
35457
35258
34554
33732
32391
31076
29478
27956
26477
25287
24460
24202
24391
25268
26614
28228
29925
31489
32484
33340
33654
33668
33441
32500
31567
30224
28860
27380
25977
24793
24117
23878
24179
25213
26547
28167
29895
31473
32717
33320
33759
33890
33396
32679
31632
30282
28946
27495
26116
24998
24223
24065
24372
25420
26774
28471
30252
31814
33073
33743
34215
34391
33957
33306
32254
30997
29693
28261
26885
25760
25014
24899
25227
26196
27531
29225
30927
32501
33695
34255
34638
34801
34337
33479
32539
31164
29703
28209
26804
25695
24947
24756
25111
26119
27468
29136
31008
32421
33709
34446
34789
34959
34465
33765
32706
31380
30108
28620
27271
26159
25493
25318
25655
26695
28077
29732
31528
33167
34142
35007
35372
35277
35025
34102
33143
31689
30326
28791
27377
26258
25607
25407
25667
26692
28006
29698
31500
32976
34090
34823
35194
35169
34778
33887
32800
31515
30082
28580
27221
26148
25471
25303
25607
26629
27958
29665
31396
32900
33869
34741
34974
34908
34671
33627
32664
31263
29881
28424
27023
25917
25197
25023
25351
26437
27813
29511
31253
32837
33838
34717
34917
35044
34599
33668
32745
31335
30001
28526
27160
26124
25495
25366
25735
26805
28143
29769
31564
33063
34094
34927
35279
35163
34932
33914
32882
31719
30252
28855
27499
26422
25742
25623
26016
27111
28510
30241
32020
33567
34679
35444
35842
35847
35495
34657
33670
32439
31068
29584
28236
27196
26579
26514
26975
28149
29594
31468
33326
34703
35940
36564
36900
37142
36679
35724
34852
33452
32084
30582
29180
28184
27576
27547
28012
29159
30666
32385
34194
35809
36708
37607
37796
37821
37543
36440
35596
34129
32823
31160
29861
28763
28183
28087
28541
29656
31015
32916
34518
36025
37007
37525
38064
37876
37500
36679
35433
34284
32705
31215
29822
28692
28094
27978
28420
29614
30932
32762
34589
35813
37020
37604
37890
37895
37300
36519
35405
34010
32671
31002
29628
28632
27954
27875
28352
29442
30919
32653
34340
35927
36841
37563
37972
37707
37491
36415
35492
34006
32671
31055
29662
28659
28030
27991
28409
29638
30982
32940
34540
36041
37198
37699
38046
38047
37475
36490
35534
34258
32610
31064
29736
28668
28038
27950
28388
29479
30960
32812
34582
35926
36893
37439
37853
37682
37284
36359
35295
34074
32578
30948
29562
28582
28023
27991
28535
29691
31062
32847
34662
36196
36991
37775
37988
37726
37292
36356
35333
34092
32630
31069
29663
28606
28030
28008
28538
29703
31122
32884
34727
36119
37020
37596
37738
37698
37192
36334
35247
33876
32340
30744
29400
28413
27841
27835
28431
29631
31069
32865
34612
36060
37095
37713
37951
37797
37199
36186
35044
33611
32143
30617
29286
28330
27848
27891
28551
29807
31326
33169
34859
36182
37007
37566
37891
37783
37295
36388
35247
33834
32239
30690
29335
28356
27868
27956
28610
29892
31441
33271
34945
36190
37092
37551
37762
37621
37111
36156
35111
33774
32255
30666
29345
28409
27956
28023
28679
29943
31443
33282
34968
36241
37265
37804
37942
37575
37015
36045
34996
33604
32063
30467
29151
28185
27751
27844
28541
29804
31367
33287
35046
36282
37233
37773
37874
37671
36999
35971
34796
33354
31828
30285
29012
28112
27726
27859
28631
30022
31622
33479
35116
36300
37111
37461
37719
37495
36871
35943
34758
33390
31833
30268
28972
28046
27672
27815
28600
29918
31524
33388
35119
36412
37231
37660
37570
37298
36590
35599
34429
33040
31508
29988
28742
27887
27534
27734
28538
29857
31558
33518
35124
36293
37054
37468
37455
37188
36487
35492
34284
32858
31348
29901
28693
27818
27468
27662
28500
29903
31656
33510
35017
36067
36932
37406
37527
37319
36639
35627
34411
32967
31381
29834
28629
27839
27591
27850
28817
30243
31911
33743
35247
36412
37271
37797
37998
37748
36951
35893
34609
33164
31619
30111
28934
28230
28012
28284
29236
30596
32247
34055
35588
36845
37628
37895
38091
37620
36852
35921
34551
33062
31588
30135
28876
28036
27767
28053
29031
30301
31941
33836
35521
36642
37380
37701
37667
37412
36654
35647
34378
32934
31348
29858
28655
27910
27726
28012
28951
30278
31983
33930
35364
36298
37160
37639
37725
37282
36339
35329
34143
32462
30822
29350
28295
27532
27296
27615
28656
30129
31780
33516
35087
36326
37079
37438
37382
36899
36173
35254
34005
32516
30910
29415
28284
27575
27414
27796
28855
30210
31895
33720
35382
36501
37189
37406
37422
37137
36308
35335
34054
32564
31010
29533
28364
27631
27487
27866
28907
30223
31975
33849
35428
36422
36991
37176
37187
36778
36038
35022
33799
32511
31153
30049
29447
29366
30078
31347
33273
35452
38089
40868
43432
45490
47445
48855
50175
50950
51431
51796
51885
51815
51559
51428
51290
51272
51436
51815
52412
53500
54684
55806
56479
56599
56172
55220
53606
51894
49223
46048
42895
39861
37150
34731
32748
31303
30293
29826
30136
30922
32150
33386
34393
35062
35281
35025
34627
33869
32778
31594
30053
28450
26798
25330
24204
23502
23334
23706
24813
26164
27860
29495
30871
31972
32572
32813
32654
32181
31252
30152
28903
27444
25919
24559
23532
22948
22927
23420
24612
26048
27815
29530
30903
31859
32455
32639
32455
31959
31079
30127
28843
27365
25827
24505
23535
23002
23024
23613
24862
26338
28196
29991
31367
32348
33038
33399
33479
33029
32108
31006
29714
28259
26813
25587
24710
24239
24263
24862
26101
27567
29364
31051
32428
33494
34130
34333
34100
33484
32516
31377
30020
28613
27119
25811
24893
24409
24449
25071
26330
27849
29762
31543
32869
33772
34420
34692
34567
34124
33187
32001
30584
29078
27516
26228
25287
24806
24853
25471
26690
28151
29876
31480
32774
33685
34239
34415
34311
33719
32628
31388
29980
28518
27035
25744
24786
24349
24393
25014
26224
27749
29501
31100
32396
33359
34014
34172
33871
33142
32135
31084
29703
28154
26656
25428
24547
24113
24215
24940
26168
27663
29428
31124
32476
33333
33708
33757
33569
32980
32020
30902
29470
27906
26394
25144
24228
23778
23865
24542
25729
27171
28868
30487
31806
32731
33263
33383
33044
32339
31354
30215
28908
27430
25969
24746
23855
23510
23692
24523
25853
27444
29247
30879
32128
33023
33572
33767
33601
32964
31967
30822
29511
28084
26698
25572
24762
24489
24738
25604
26936
28581
30462
32164
33457
34424
35018
35349
35199
34583
33639
32556
31340
29969
28613
27532
26787
26575
26909
27906
29345
31108
33059
34768
36085
36999
37512
37678
37495
36804
35896
34751
33479
31960
30495
29343
28585
28380
28676
29703
31151
32942
34798
36402
37583
38405
39004
39117
38906
38188
36943
35934
34385
32873
31564
30244
29550
29223
29551
30497
31966
33649
35326
37060
38100
38814
39415
39165
39111
38268
37252
36031
34452
33015
31404
30204
29495
29174
29380
30442
31680
33334
35311
36679
37874
38689
38803
38959
38513
37638
36652
35181
33841
32172
30657
29597
28775
28509
28847
29749
31093
32820
34710
36188
37249
38172
38519
38407
38297
37347
36301
35084
33518
32151
30582
29399
28743
28485
28749
29780
31261
32876
34613
36285
37320
38026
38567
38548
38128
37255
36090
34870
33464
31919
30440
29292
28538
28343
28676
29720
31094
32816
34646
36167
37268
38087
38494
38479
38156
37316
36302
35057
33502
31886
30437
29295
28610
28465
28842
29907
31365
33148
34917
36290
37222
37979
38417
38363
38020
37138
35925
34574
33054
31429
29927
28773
28031
27846
28181
29255
30662
32398
34122
35516
36540
37220
37543
37518
37125
36324
35134
34028
32382
30930
29388
28257
27625
27445
27820
29004
30294
32032
33927
35407
36229
37008
37415
37142
36852
35981
34711
33473
31956
30300
28892
27758
27002
26906
27327
28351
29833
31613
33316
34910
36039
36615
36815
37020
36650
35591
34724
33372
31942
30501
28990
27951
27301
27198
27716
28800
30298
32231
33943
35461
36659
37418
37673
37703
37428
36369
35428
34174
32719
31270
29751
28735
28046
27966
28479
29565
31076
32965
34659
36140
37325
37923
38279
38351
37686
37023
35994
34557
33194
31691
30199
29220
28583
28453
28945
30027
31483
33423
35093
36519
37710
38279
38580
38700
38133
37354
36252
34908
33580
31866
30508
29509
28770
28711
29175
30324
31687
33423
35330
36727
37556
38462
38812
38503
38295
37432
36149
34914
33523
31797
30397
29343
28538
28459
28975
30014
31425
33343
34969
36358
37487
37871
38309
38311
37547
36879
35653
34193
32863
31201
29687
28606
27916
27838
28321
29322
30769
32676
34273
35717
36837
37351
37735
37639
37006
36286
34916
33762
32162
30619
29253
28059
27456
27379
27774
29013
30423
32218
34165
35440
36596
37175
37671
37495
37140
36135
35132
33743
32246
30656
29258
28153
27527
27527
27914
29188
30516
32382
34151
35419
36637
37172
37511
37527
36805
36100
34884
33576
32207
30512
29159
28082
27447
27482
27887
29180
30638
32405
34375
35588
36781
37279
37671
37567
37198
36341
35075
33972
32390
30844
29568
28433
27863
27887
28354
29549
31135
32963
34622
36231
37165
37795
38243
38063
37687
36702
35712
34239
32927
31239
29972
28820
28313
28215
28758
30051
31423
33256
35110
36376
37419
38181
38299
38379
37659
36904
35552
34415
32725
31301
29807
28843
28263
28367
28827
30141
31479
33413
35039
36454
37519
37915
38473
38053
37794
36606
35759
34215
32900
31161
29913
28801
28309
28261
28861
29999
31577
33220
35057
36260
37277
37830
38023
37915
37070
36280
34925
33666
32074
30604
29375
28645
28535
29244
30407
32668
35085
37783
40565
42804
45092
46713
48759
50116
51233
51680
52004
52263
52303
52463
52523
52741
53400
54057
55174
56260
57872
59284
60743
61559
62078
62014
61252
59900
57958
55558
52736
49742
46025
42354
38620
36297
34188
33004
32167
32303
32588
33583
34487
35119
35643
35530
35425
34668
33792
32348
31053
29492
27775
26044
24440
23227
22500
22337
22812
23927
25284
26980
28664
29938
30996
31435
31773
31558
30959
30068
28767
27460
25983
24494
23173
22219
21723
21700
22238
23470
24924
26593
28318
29580
30593
31208
31358
31298
30571
29595
28553
27147
25772
24309
23028
22061
21660
21745
22375
23677
25203
26956
28753
30234
31191
32039
32259
32229
31749
30791
29790
28393
27068
25605
24368
23407
22919
23015
23660
24914
26465
28198
29942
31367
32212
32935
33111
32877
32449
31303
30265
28860
27439
25978
24721
23789
23343
23428
24087
25360
26918
28799
30554
32127
33113
33871
34262
34063
33826
32800
31864
30432
29123
27606
26380
25535
25062
25133
25726
27036
28547
30480
32236
33471
34588
35070
35247
35078
34511
33391
32233
30727
29300
27630
26318
25294
24780
24790
25364
26581
28026
29823
31457
32870
33630
34340
34363
34222
33641
32554
31461
29986
28526
26965
25697
24751
24241
24289
24917
26166
27580
29398
31134
32290
33260
33865
33925
33766
33223
31999
30842
29524
27943
26484
25149
24172
23652
23660
24273
25513
27023
28863
30406
31800
32836
33247
33526
33445
32677
31708
30634
29180
27780
26303
25051
24140
23700
23782
24462
25729
27240
28984
30833
32047
33167
33584
33987
33681
33177
32218
30959
29714
28148
26704
25469
24558
24130
24231
24927
26212
27758
29578
31410
32642
33767
34344
34699
34510
34115
33108
32140
30799
29436
28010
26835
26052
25731
25932
26708
28097
29722
31751
33470
35087
35991
36665
37084
36835
36434
35516
34356
33302
31735
30366
29141
28272
27999
28103
28911
30272
31865
33924
35657
36775
37938
38476
38526
38638
37988
36903
36004
34585
33133
31783
30388
29590
29254
29308
30100
31476
32989
34946
36742
37895
38886
39534
39622
39647
38749
38047
36812
35556
33972
32471
31179
30244
29927
29947
30762
32111
33554
35327
37207
38390
39300
39963
39863
39854
39264
37967
36998
35479
33980
32412
30944
30092
29574
29732
30457
31618
33334
35032
36687
38039
38765
39295
39565
39199
38719
37440
36503
34917
33577
31844
30622
29556
29167
29327
29969
31400
32920
34742
36471
37574
38418
39079
38956
38982
38175
37212
35999
34444
33102
31359
30112
29156
28657
28836
29526
30805
32519
34273
35780
37074
38007
38227
38572
38270
37637
36743
35344
34124
32486
30885
29679
28679
28295
28511
29172
30559
32200
33903
35644
36855
37551
38214
38286
37962
37393
36130
35117
33506
32023
30508
29089
28212
27716
27820
28566
29788
31301
33178
34791
35917
36762
37349
37405
36987
36566
35381
34221
32798
31195
29730
28356
27500
27116
27206
27980
29226
30823
32817
34353
35522
36548
36934
36935
36940
36116
35127
33921
32421
31007
29375
28150
27335
26919
27110
27836
29146
30824
32540
34274
35510
36244
36987
36988
36746
36222
34999
33922
32443
30917
29507
28175
27326
27028
27211
28041
29476
31076
32890
34693
35977
36731
37305
37586
37235
36643
35727
34375
33175
31532
29990
28793
27927
27589
27846
28639
29969
31738
33527
35098
36550
37270
37816
38071
37663
37207
36071
34919
33607
31889
30412
29178
28387
28019
28297
29078
30436
32213
34037
35538
36967
37719
38364
38497
38069
37671
36415
35446
33919
32437
31014
29655
28863
28495
28671
29550
30912
32503
34531
35946
37261
38189
38519
38490
38479
37631
36711
35455
33947
32524
30893
29652
28871
28430
28603
29489
30921
32458
34425
36111
37359
38160
38629
38750
38460
37719
36628
35273
33829
32282
30742
29479
28593
28304
28484
29218
30504
32156
33987
35566
36851
37711
38221
38293
37955
37228
36178
34939
33505
31763
30299
29025
28142
27823
28064
28919
30354
31994
33685
35336
36477
37106
37764
37687
37428
36793
35567
34556
32974
31559
29933
28715
27882
27559
27820
28609
29980
31663
33535
35364
36447
37475
37804
38063
37666
37114
35898
34847
33270
31874
30232
29097
28270
28028
28244
29145
30525
32247
34086
35516
36812
37362
38034
37951
37670
36915
35682
34567
32964
31551
29939
28772
27959
27719
27977
28961
30260
32101
33783
35451
36454
37277
37703
37698
37468
36577
35671
34332
32919
31301
29889
28615
27787
27487
27709
28618
29895
31655
33444
34894
36220
36821
37404
37181
36889
36211
35100
33855
32452
30775
29375
28200
27422
27195
27452
28412
29738
31401
33384
34748
35994
36910
37161
37353
37050
36089
35260
33847
32509
30929
29412
28297
27509
27306
27604
28533
29953
31541
33453
35023
36016
36948
37175
37479
37023
36359
35188
33919
32644
31041
29626
28375
27614
27346
27655
28620
30101
31716
33543
35236
36191
37038
37527
37342
37193
36206
35078
33892
32221
30678
29287
28164
27581
27551
28191
29682
31584
34180
36822
39079
41266
42799
44268
45642
46594
47310
47389
47623
47390
47196
47252
47337
48259
48991
50684
52366
54550
56572
58487
60076
60820
61420
61224
60509
59136
57083
54852
52148
49159
45886
42103
38657
36296
34410
33524
33407
33517
34293
35396
35967
36583
36625
36584
36135
35197
34120
32538
31127
29419
27628
25869
24479
23479
23057
23162
24014
25330
26895
28607
30125
31276
31909
32323
32412
31916
31143
30076
28809
27429
25909
24492
23300
22541
22285
22591
23609
25013
26668
28452
29956
31096
31855
32304
32322
31969
31143
30071
28831
27466
25991
24567
23428
22676
22497
22878
23937
25344
27034
28839
30317
31476
32388
32807
32728
32462
31774
30727
29486
28181
26788
25479
24451
23841
23727
24082
25140
26463
28102
29794
31134
32260
32991
33185
33231
32928
31969
30975
29831
28490
27111
25814
24829
24180
24054
24371
25423
26727
28353
30021
31502
32463
33292
33630
33569
33372
32476
31467
30332
28927
27508
26220
25225
24580
24407
24852
25932
27257
28861
30543
31974
33093
33849
34245
34111
33676
32791
31767
30518
29177
27751
26435
25414
24783
24674
25089
26196
27569
29241
30927
32325
33342
34008
34398
34340
33926
33036
31954
30631
29174
27690
26364
25334
24723
24633
25074
26212
27596
29325
31100
32516
33532
34186
34490
34381
33775
32908
31699
30478
29004
27558
26210
25198
24583
24478
24988
26147
27540
29199
30848
32329
33266
33839
34226
34119
33531
32721
31638
30324
29049
27660
26397
25406
24854
24823
25265
26412
27798
29506
31130
32516
33616
34101
34527
34431
33899
33103
31901
30734
29321
27952
26760
25845
25275
25269
25759
26951
28352
29991
31725
32999
33923
34726
34849
34853
34428
33581
32688
31382
30162
28822
27674
26807
26373
26437
26959
28119
29517
31270
32834
34191
35302
35791
36253
36220
35687
35058
33934
32858
31608
30174
29031
28158
27686
27710
28255
29375
30830
32420
34193
35342
36391
37039
37172
37332
36748
36063
34977
33741
32563
31058
29947
29060
28607
28628
29110
30226
31567
33132
34880
35961
36973
37510
37611
37740
37163
36330
35407
34055
32807
31349
30174
29251
28748
28736
29239
30367
31750
33381
34952
36143
36983
37566
37831
37689
37175
36303
35290
33869
32614
31119
29884
29037
28551
28599
29073
30176
31619
33174
34812
36111
36813
37474
37710
37422
37164
36262
35109
34027
32524
31159
30047
29124
28664
28662
29183
30348
31649
33355
35119
36212
37060
37828
37863
37862
37315
36319
35447
33960
32624
31180
29875
29030
28567
28611
29164
30322
31713
33386
34991
36228
37151
37700
37955
37757
37135
36142
35030
33777
32364
30958
29668
28780
28324
28429
28988
30215
31559
33415
34958
36219
37318
37702
37999
37938
37255
36415
35439
33959
32625
31179
29863
28996
28529
28569
29156
30316
31706
33543
34988
36384
37127
37686
38007
37578
37266
36260
35156
34063
32475
31104
29872
28908
28441
28506
29062
30286
31706
33367
35113
36295
37076
37852
37890
37922
37271
36388
35406
33967
32676
31075
29845
28929
28434
28514
29087
30279
31773
33382
35100
36413
37104
37863
37909
37836
37338
36230
35319
33862
32538
31043
29696
28818
28377
28460
29064
30212
31729
33500
35008
36375
37331
37659
37861
37726
37167
36230
35148
33879
32454
30930
29682
28783
28314
28378
28994
30212
31711
33413
35012
36408
37007
37764
37783
37727
37019
36133
34956
33616
32305
30697
29482
28560
28128
28204
28829
30095
31488
33313
34950
36103
37210
37567
37910
37627
37086
36163
34951
33799
32195
30822
29551
28676
28231
28276
28903
30119
31580
33287
35047
36134
37167
37668
37759
37823
37046
36257
34983
33716
32228
30663
29494
28583
28166
28255
28888
30158
31538
33366
34988
36136
37247
37655
38012
37714
37071
36277
34970
33670
32220
30609
29337
28442
28010
28096
28762
29932
31454
33250
34797
36172
37159
37562
37895
37748
36996
36199
34852
33593
32111
30489
29236
28346
27911
27973
28629
29831
31340
33199
34661
35995
36988
37397
37750
37620
36884
36110
34849
33567
32204
30575
29335
28396
27914
27980
28652
29946
31435
33361
35126
36248
37243
37964
37999
37991
37378
36377
35434
33918
32564
30903
29673
28698
28204
28208
28823
30094
31578
33399
35161
36263
37310
37827
38029
37991
37207
36455
35121
33931
32240
30772
29447
28489
28032
28078
28701
29855
31391
33252
34790
36300
37025
37831
37894
37883
37317
36254
35308
33749
32333
30707
29383
28395
27879
27906
28564
29834
31434
33318
35030
36294
37160
37765
37986
37863
37276
36204
35033
33815
32157
30703
29361
28439
27961
27965
28636
29889
31399
33333
34836
36124
37213
37572
38037
37685
37135
36277
34980
33606
32158
30492
29255
28284
27823
27893
28596
29853
31398
33325
34818
36023
37137
37582
37740
37831
37105
36095
35090
33570
32002
30506
29180
28192
27732
27791
28497
29816
31374
33204
35015
36431
37297
37850
38324
38197
37439
36669
35244
33927
32358
30709
29521
28703
28441
28826
29859
31623
34044
36424
38812
40908
42485
44062
45300
46015
46383
46383
46071
45658
45268
44995
44945
45073
45627
46558
47831
49238
50749
52252
53468
54279
54532
54255
53511
52428
50817
48612
45775
42590
39324
36471
34219
32465
31284
30661
30779
31444
32532
33939
35183
36087
36647
36871
36698
36157
35163
33879
32439
30823
29131
27507
26076
25020
24465
24444
25199
26428
28028
29820
31427
32662
33519
34035
34202
34030
33381
32385
31154
29711
28154
26655
25362
24426
24055
24167
25015
26300
27918
29726
31372
32634
33526
34084
34239
34036
33328
32311
31074
29644
28116
26586
25296
24384
23977
24132
24999
26316
28022
29879
31530
32839
33792
34399
34567
34383
33697
32693
31431
30005
28472
26989
25788
24935
24561
24732
25666
26989
28710
30558
32192
33428
34337
34885
35010
34743
33934
32887
31589
30124
28536
27055
25829
24935
24548
24743
25681
27022
28753
30595
32233
33504
34440
35020
35199
34980
34245
33250
31958
30543
28972
27481
26271
25412
25091
25325
26318
27655
29424
31323
32961
34183
35095
35622
35756
35495
34676
33613
32263
30726
29113
27636
26391
25500
25157
25380
26351
27692
29415
31210
32775
33966
34822
35335
35436
35143
34351
33316
31975
30464
28894
27420
26209
25369
25054
25316
26295
27645
29384
31183
32727
33900
34727
35195
35351
35012
34207
33126
31596
30170
28535
27070
25870
25095
24796
25165
26178
27557
29306
31159
32767
33857
34868
35210
35325
35111
34088
33139
31797
30231
28686
27235
26047
25255
25029
25340
26407
27805
29642
31500
33024
34362
35060
35527
35772
35277
34634
33367
32095
30609
28951
27527
26382
25626
25394
25778
26842
28279
30046
31953
33578
34669
35702
36125
36171
36044
35023
34087
32728
31200
29616
28202
27055
26314
26132
26481
27580
29100
30912
32894
34364
35691
36429
37072
37150
36833
36223
35005
33871
32249
30752
29227
28124
27427
27249
27636
28766
30245
32117
33929
35443
36775
37447
38097
38103
37631
37010
35747
34511
32901
31286
29867
28642
27930
27772
28155
29333
30681
32668
34391
36076
37022
37872
38244
38106
37959
36911
35873
34375
32887
31210
29643
28548
27828
27708
28180
29295
30822
32585
34370
35996
36855
37575
37946
37686
37447
36336
35239
33975
32302
30785
29325
28242
27614
27481
27951
29095
30638
32444
34186
35817
36689
37364
37877
37681
37268
36419
35115
33881
32208
30588
29186
28047
27426
27367
27826
29012
30572
32304
34262
35693
36820
37716
37962
38097
37820
36743
35882
34300
32793
30915
29369
27981
27044
26619
26798
27829
29324
31324
33559
35462
36940
38331
39132
39412
39277
38150
37036
35208
33340
30959
28652
26662
25222
24637
25031
26508
28620
31382
34458
36756
38603
40007
40439
40732
40119
38772
37306
35111
32865
30092
27709
25777
24541
24191
24764
26523
28772
31751
34610
37094
38965
39890
40553
40629
39997
38704
37124
35097
32710
30068
27689
25825
24639
24318
24973
26832
29170
32182
35138
37503
39239
40399
41059
41068
40380
39023
37336
35247
32772
30054
27652
25781
24657
24383
25092
26887
29191
32144
35062
37358
39150
40319
40926
40927
40220
38846
37126
35013
32539
29821
27468
25653
24559
24362
25142
26998
29414
32429
35295
37452
39079
40244
40823
40801
39924
38663
36871
34807
32336
29693
27402
25647
24618
24439
25279
27084
29434
32341
35152
37376
39051
40140
40604
40583
39755
38402
36858
34857
32455
29908
27696
25996
24999
24812
25573
27190
29294
32007
34672
36807
38417
39532
40119
40129
39566
38404
36906
35143
33103
30937
28951
27378
26351
26020
26584
27884
29743
31930
33980
35911
37254
37971
38687
38607
38079
37270
35908
34516
32765
31015
29428
28142
27382
27055
27497
28649
30164
32199
33998
35458
36868
37775
38261
38381
37943
37051
35847
34350
32637
30904
29354
28076
27258
26986
27441
28545
30132
32047
33979
35567
36767
37582
37995
38044
37431
36517
35332
33975
32281
30509
28900
27562
26707
26422
26885
28056
29767
31747
33666
35302
36604
37632
38202
38292
37852
36890
35571
34129
32389
30394
28760
27295
26477
26218
26799
28148
29899
32236
34292
36116
37879
38961
39410
39798
39083
37979
36629
34628
32415
30113
27832
26225
25277
25095
25996
27700
29860
32644
35382
37286
38887
39968
40154
40326
39545
38202
36743
34548
32260
29629
27487
25921
25031
24955
25893
27500
29728
32468
34876
36761
38459
39351
39791
40020
39318
37852
36402
34325
31890
29310
27174
25559
24740
24710
25748
27470
29927
32644
35436
37528
38762
39978
40391
40047
39477
38151
36240
34261
31796
29285
27244
25622
24778
24712
25698
27444
29999
32821
35369
37607
39150
39943
40359
40308
39200
37812
36116
33815
31356
28890
26682
25145
24373
24457
25580
27479
30079
32926
35714
37748
39236
40182
40518
40275
39335
37895
36180
34073
31558
28992
26826
25250
24476
24519
25674
27492
30102
33044
35540
37549
39071
39953
40081
39908
39159
37609
36312
34352
32460
30415
28940
28279
28411
29420
31647
34471
38162
42384
46026
49244
52076
54167
55714
56985
57474
57623
57316
56371
54996
53268
51479
50178
49082
49031
49844
50892
53139
55116
56567
57384
57464
56995
55668
53191
50220
46916
43548
40534
37118
33664
30608
27764
26027
25287
25786
27098
29173
31698
33687
35153
36378
36922
36729
36382
35294
33578
31775
29743
27284
24998
23020
21410
20503
20340
21300
22894
24849
26861
28609
29975
30917
31431
31559
31247
30387
29343
28198
26941
25547
24116
22946
22209
22013
22362
23401
24759
26420
28263
29813
30961
31772
32301
32330
31981
31129
30108
28845
27444
25989
24770
23756
23117
22975
23391
24536
26012
27852
29769
31273
32377
33109
33531
33539
33141
32284
31187
29894
28476
26973
25636
24541
23878
23767
24208
25360
26801
28602
30410
31884
32949
33671
34039
33969
33518
32618
31583
30290
28872
27399
26072
25058
24436
24391
24874
26032
27471
29263
31056
32586
33721
34522
34892
34802
34330
33345
32263
30914
29524
28038
26742
25778
25197
25133
25580
26727
28139
29866
31485
32868
33743
34311
34631
34451
34050
32967
31943
30544
29070
27638
26293
25322
24753
24693
25160
26319
27655
29379
31148
32590
33460
34038
34454
34382
33738
32887
31780
30365
29061
27474
26183
25214
24615
24540
24994
26133
27495
29228
30920
32252
33178
33813
34071
33917
33363
32397
31251
29912
28460
26917
25561
24538
23943
23979
24501
25673
27116
28931
30652
31986
32966
33534
33781
33639
33085
32042
30954
29633
28152
26671
25379
24410
23911
23908
24492
25741
27202
29002
30671
32020
32995
33487
33861
33591
33152
32196
31078
29947
28456
27081
25905
24974
24516
24532
25092
26401
27848
29668
31422
32863
33887
34644
35012
34972
34575
33766
32745
31567
30193
28770
27535
26690
26268
26365
27004
28295
29845
31708
33500
34953
36076
36805
37156
37069
36650
35781
34943
33791
32551
30887
29382
28053
27044
26724
27111
28516
30207
32710
35234
37812
39699
41087
41873
42085
41417
40248
38507
36628
34161
31519
29264
27303
26244
26037
26836
28718
30974
33972
36896
39014
40583
41783
42247
42197
41767
40406
38825
37009
34649
32295
30122
28336
27318
26988
27382
28803
30523
32822
35247
37103
38313
39565
40047
40070
39745
38503
37432
35810
34172
32359
30751
29685
28925
28847
29455
30663
32116
33964
35814
37032
37776
38623
38974
38662
38132
37247
35907
34604
33076
31282
29975
28799
28175
28167
28717
29946
31644
33479
35369
36912
37713
38612
39009
38751
38353
37460
36207
35031
33439
31652
30356
29167
28630
28711
29223
30498
32189
33920
35559
37065
38090
38502
38988
38943
38223
37231
36199
34652
33176
31652
30160
29215
28741
28711
29412
30526
32048
34031
35590
36796
37933
38390
38728
38612
37935
37115
35686
34451
32673
31031
29699
28537
28012
28089
28613
29814
31432
33068
34741
36116
36855
37396
37728
37319
36862
35901
34567
33356
31709
30125
28898
27822
27332
27397
27958
29201
30807
32640
34220
35529
36592
37070
37359
37315
36580
35617
34471
33070
31610
29956
28712
27622
27098
27047
27671
28989
30404
32279
33948
35133
36316
36695
37063
36852
36239
35454
34215
32986
31392
29870
28711
27655
27252
27271
28017
29267
30803
32810
34414
35823
36950
37492
37790
37805
37153
36205
35194
33791
32207
30780
29468
28449
27969
28087
28692
29947
31580
33463
35004
36191
37299
37956
38108
37843
37229
36162
35034
33730
32246
30756
29551
28697
28301
28406
29063
30204
31657
33372
34979
36183
36922
37352
37371
37265
36663
35710
34703
33401
31897
30436
29217
28311
27878
27959
28723
29989
