ECG
33510
33436
33383
33278
33135
33028
32896
32807
32786
32767
32783
32817
32855
32863
32852
32886
32950
33020
33002
32918
32847
32758
32641
32551
32509
32439
32342
32231
32162
32148
32174
32199
32213
32281
32298
32336
32296
32230
32254
32334
32381
32425
32411
32367
32317
32263
32295
32282
32306
32366
32449
32557
32726
32875
32903
32941
32926
32869
32709
32543
32362
32277
32247
32277
32294
32319
32357
32471
32596
32691
32722
32756
32748
32787
32829
32843
32838
32816
32812
32756
32742
32726
32634
32473
32398
32388
32355
32261
32172
32199
32151
31907
31838
31735
31733
31852
31804
31959
32137
32179
32255
32349
32292
32279
32439
32463
32570
32864
33351
34074
35057
36161
37393
38540
39637
40521
41311
42062
42731
43351
43896
44404
44722
44816
44605
44212
43599
42629
41417
40151
38934
37758
36661
35644
34778
34029
33478
33050
32679
32318
31900
31464
31067
30727
30516
30467
30533
30629
30727
30868
30988
31104
31274
31468
31591
31657
31689
31671
31643
31568
31484
31428
31429
31466
31486
31455
31361
31290
31235
31199
31285
31414
31524
31575
31586
31590
31568
31483
31492
31612
31623
31574
31447
31363
31277
31239
31215
31221
31303
31456
31604
31734
31927
32119
32249
32340
32357
32344
32298
32220
32112
31969
31814
31599
31399
31229
31153
31116
31174
31285
31457
31687
31991
32287
32513
32622
32646
32612
32531
32350
32183
32052
32006
31919
31807
31748
31749
31804
31871
31908
31965
32074
32166
32312
32495
32623
32676
32650
32518
32337
32271
32286
32355
32391
32423
32456
32516
32537
32485
32413
32354
32301
32252
32198
32191
32255
32350
32409
32455
32506
32491
32519
32673
32814
32791
32682
32557
32503
32455
32470
32492
32485
32477
32506
32519
32576
32663
32724
32892
32943
32930
32870
32789
32693
32679
32623
32683
32735
32775
32877
32986
33065
33154
33214
33200
33158
33100
33044
32964
32858
32757
32678
32636
32641
32700
32717
32775
32867
32959
33068
33189
33271
33437
33645
33795
33871
33924
33911
33887
33823
33791
33751
33660
33711
33541
33471
33559
33593
33482
33575
33629
33439
33316
33354
33463
33540
33766
33799
33673
33791
33861
33879
33895
33939
33967
33951
33900
33837
33781
33791
33871
33967
34050
34118
34146
34211
34055
34052
34110
33983
33860
33922
33840
33635
33590
33391
33070
33059
32940
32884
32907
32719
32812
32847
32743
32874
32916
32787
32890
32775
32710
32797
32812
32637
32724
32561
32607
32584
32574
32629
32473
32298
32178
32007
31823
31879
31685
31691
31780
31739
31865
31816
32001
32095
32039
32084
31939
31911
32063
32087
32000
31977
31965
31915
32028
32079
32237
32194
32156
32199
31969
31888
31772
31605
31568
31543
31362
31311
31343
31358
31527
31535
31668
31787
31908
31863
31918
32035
31886
31887
31860
31691
31748
31846
31786
31830
31845
31684
31775
31740
31879
31956
31968
32145
32210
32167
32262
32287
32156
32181
32098
31927
31921
32008
31920
31905
31900
31843
31734
31810
31933
31929
32006
32159
32083
32047
32067
32031
31853
31878
32116
32183
32335
32359
32212
32166
32156
32055
32114
32253
32190
32352
32519
32471
32511
32509
32436
32376
32373
32335
32295
32238
32181
32143
32119
32108
32055
32023
32092
32116
32139
32187
32218
32249
32250
32260
32246
32231
32287
32401
32460
32526
32569
32532
32443
32389
32337
32230
32100
32155
32317
32412
32442
32470
32454
32452
32416
32390
32351
32351
32396
32431
32413
32381
32320
32263
32198
32149
32135
32087
32119
32239
32409
32533
32615
32707
32775
32791
32791
32772
32765
32710
32700
32722
32685
32679
32663
32615
32548
32587
32647
32676
32742
32772
32820
32839
32803
32798
32806
32740
32564
32372
32194
32044
32001
31961
31957
31980
32058
32143
32331
32379
32559
32831
32907
32975
32977
32962
32869
32798
32767
32754
32692
32558
32439
32365
32316
32239
32236
32292
32430
32562
32701
32886
33039
33142
33233
33306
33323
33253
33204
33016
33071
32935
32982
32988
32747
32742
32718
32706
32795
33004
33239
33429
33777
33905
33911
33894
33880
33880
33856
33758
33583
33349
33100
32996
32919
32879
32860
32838
32894
32932
32948
33064
33111
33118
33084
32983
32917
32871
32866
32823
32788
32677
32549
32439
32390
32276
32179
32119
32118
32194
32325
32455
32505
32527
32556
32646
32719
32715
32767
32755
32679
32551
32455
32421
32319
32276
32308
32362
32409
32436
32484
32559
32687
32865
32999
33079
33178
33143
33063
32903
32756
32609
32481
32434
32479
32503
32479
32463
32486
32514
32550
32570
32531
32565
32658
32737
32884
32842
32761
32703
32668
32591
32442
32313
32279
32302
32341
32364
32423
32485
32570
32596
32587
32549
32588
32583
32447
32231
32007
31772
31691
31710
31735
31729
31668
31652
31647
31678
31775
31905
32100
32398
32767
33281
33927
34717
35591
36476
37523
38554
39509
40367
41142
41912
42666
43341
43966
44444
44735
44751
44543
43959
43033
41840
40572
39292
38065
36751
35662
34662
33866
33322
32980
32736
32508
32287
31991
31642
31283
31043
30969
30941
31011
31093
31179
31231
31239
31231
31207
31231
31209
31129
31038
30951
30900
30862
30901
31012
31171
31355
31548
31673
31813
31873
31860
31891
31903
31910
31827
31695
31640
31564
31435
31306
31188
31159
31207
31309
31486
31663
31814
31959
32012
31964
31908
31876
31882
31817
31812
31810
31869
31892
31828
31814
31863
31811
31809
31841
31847
31914
32103
32204
32255
32293
32295
32282
32230
32182
32142
32093
32065
32103
32119
32111
32084
32103
32198
32263
32313
32356
32411
32412
32364
32322
32353
32367
32263
32207
32247
32223
32189
32125
32076
32119
32199
32194
32175
32178
32223
32344
32437
32474
32466
32436
32397
32351
32295
32327
32366
32385
32505
32572
32580
32560
32477
32455
32408
32492
32668
32775
32866
32876
32879
32859
32819
32767
32700
32691
32693
32703
32734
32762
32831
32863
32869
32854
32865
32839
32792
32883
32961
32999
32974
32940
32911
32859
32806
32884
32963
33021
33029
33099
33164
33212
33263
33283
33234
33215
33252
33281
33243
33208
33358
33543
33593
33706
33708
33654
33516
33401
33279
33127
33010
32967
32991
33065
33194
33385
33558
33711
33813
33888
33902
33860
33826
33799
33799
33820
33877
33841
33750
33582
33451
33335
33294
33431
33585
33728
33845
33972
34087
34192
34228
34349
34424
34497
34458
34415
34353
34295
34220
34087
33877
33686
33486
33339
33241
33189
33246
33327
33347
33423
33493
33575
33413
33283
33227
33164
33089
33063
33055
33017
32970
32839
32718
32661
32614
32512
32428
32295
32226
32198
32171
32162
32129
32125
32215
32310
32442
32482
32444
32359
32260
32231
32230
32175
32095
31975
31870
31822
31866
32035
32149
32135
32162
32153
32086
32028
31983
31957
31950
31922
31899
31974
31987
32007
32018
32031
32031
32080
32132
32239
32311
32311
32263
32183
32071
31957
31846
31767
31668
31577
31423
31365
31365
31359
31352
31479
31720
31943
32174
32350
32404
32348
32220
32149
32071
32024
32036
32039
32023
32021
32047
32017
31943
31916
31909
31866
31805
31809
31806
31834
31815
31780
31860
32022
32181
32306
32457
32543
32543
32547
32483
32394
32369
32413
32390
32342
32277
32254
32301
32306
32300
32315
32355
32459
32492
32483
32410
32320
32230
32203
32156
32113
32191
32210
32222
32189
32170
32221
32282
32344
32468
32614
32622
32558
32492
32469
32468
32400
32334
32263
32231
32182
32135
32089
32081
32094
32135
32215
32301
32373
32483
32635
32725
32756
32750
32791
32774
32676
32502
32318
32149
32024
31941
31923
32022
32177
32338
32437
32519
32652
32724
32861
32965
32998
32972
32847
32692
32575
32502
32359
32222
32097
31986
31998
32142
32311
32487
32678
32775
32774
32772
32775
32817
32801
32787
32710
32581
32452
32340
32238
32191
32244
32247
32231
32263
32372
32459
32519
32535
32565
32615
32647
32641
32599
32564
32503
32382
32245
32111
32046
32068
32205
32404
32455
32485
32599
32664
32730
32775
32829
32757
32715
32654
32655
32726
32743
32695
32668
32584
32509
32484
32447
32502
32564
32535
32532
32519
32579
32695
32761
32718
32680
32642
32562
32503
32477
32498
32497
32516
32455
32478
32409
32343
32351
32424
32554
32719
32908
33160
33267
33366
33451
33431
33349
33335
33472
33504
33444
33462
33452
33351
33158
33031
32927
32876
32868
32957
33056
33186
33287
33375
33347
33276
33188
33130
32992
32903
32844
32788
32668
32581
32504
32455
32466
32550
32636
32676
32759
32877
32916
32842
32732
32610
32547
32493
32444
32359
32358
32355
32419
32395
32263
32314
32332
32236
32138
32183
32296
32404
32431
32439
32452
32297
32347
32444
32254
32258
32327
32193
32135
32182
32172
32108
32203
32266
32187
32223
32290
32397
32551
32691
32762
32796
32798
32835
32868
32903
32900
32843
32739
32623
32493
32359
32287
32263
32247
32263
32375
32626
32732
32709
32734
32786
32831
32846
32815
32743
32693
32559
32359
32123
31911
31750
31663
31572
31529
31574
31676
31769
31892
32057
32222
32335
32390
32400
32432
32654
33054
33596
34284
35069
35942
36952
38020
39102
39982
40776
41557
42485
43287
44182
44864
45348
45460
45356
44815
44088
43164
42078
40801
39510
38182
36904
35684
34647
33862
33255
32820
32478
32190
31854
31554
31228
30956
30831
30855
30954
31039
30980
30940
30907
30814
30743
30759
30855
31014
31159
31239
31357
31515
31580
31591
31595
31572
31548
31502
31519
31526
31460
31295
31128
31059
30998
30946
30855
30794
30853
31052
31343
31617
31799
31858
31831
31782
31744
31712
31663
31611
31529
31447
31335
31238
31237
31295
31418
31536
31587
31623
31646
31665
31743
31823
31851
31869
31855
31867
31812
31743
31680
31578
31463
31380
31257
31299
31348
31409
31433
31490
31585
31701
31839
31980
32038
32023
31991
31948
31890
31863
31851
31815
31670
31524
31481
31466
31535
31615
31726
31898
32055
32190
32209
32240
32290
32255
32217
32117
31933
31812
31751
31695
31578
31528
31458
31511
31621
31783
31975
32191
32343
32467
32457
32423
32460
32519
32542
32519
32487
32459
32388
32263
32071
31896
31815
31913
32007
32063
32167
32293
32335
32375
32471
32572
32706
32751
32753
32683
32659
32668
32684
32575
32493
32444
32383
32359
32369
32436
32551
32686
32804
32899
32982
33042
33031
32999
32921
32838
32713
32532
32328
32206
32207
32297
32391
32390
32391
32487
32592
32717
32870
33031
33159
33260
33325
33287
33247
33236
33234
33186
33146
33110
33090
33051
32938
32878
32932
33005
33089
33172
33223
33316
33457
33626
33797
33849
33897
33933
33972
33973
33903
33771
33679
33540
33455
33350
33231
33205
33239
33338
33481
33580
33615
33578
33461
33247
33193
33085
33031
32935
32839
32770
32661
32583
32536
32482
32415
32404
32422
32459
32492
32504
32533
32606
32567
32445
32354
32295
32167
32006
31815
31585
31370
31305
31249
31189
31168
31226
31354
31545
31764
31970
32167
32263
32319
32292
32275
32222
32094
31933
31767
31609
31455
31330
31284
31239
31254
31270
31377
31526
31684
31829
31909
31911
31906
31816
31670
31545
31484
31489
31426
31319
31191
31146
31161
31237
31318
31405
31489
31539
31556
31601
31623
31676
31697
31639
31626
31588
31575
31589
31539
31484
31456
31477
31517
31540
31554
31631
31742
31878
31995
32061
32081
32065
32066
32007
31942
31882
31858
31751
31568
31426
31452
31429
31380
31358
31375
31397
31476
31626
31751
31871
31998
32119
32177
32226
32227
32213
32239
32286
32305
32263
32240
32157
32047
31971
31940
31983
32025
32071
32159
32231
32292
32309
32311
32263
32263
32222
32202
32149
32086
32002
31867
31759
31656
31583
31567
31692
31852
31991
32063
32143
32191
32223
32263
32317
32394
32427
32461
32373
32292
32205
32084
32023
31972
31959
31967
31879
31792
31903
32055
32151
32199
32198
32300
32359
32309
32184
32098
32098
32117
32055
32007
31999
32026
32084
32134
32201
32303
32431
32512
32589
32651
32670
32724
32823
32817
32807
32750
32706
32724
32646
32538
32490
32442
32414
32424
32423
32519
32609
32575
32517
32519
32500
32483
32506
32540
32492
32449
32407
32376
32342
32247
32199
32204
32181
32151
32163
32259
32407
32559
32698
32718
32774
32765
32754
32680
32611
32591
32584
32543
32539
32526
32526
32557
32695
32761
32805
32812
32877
33002
33041
33022
32939
32852
32796
32704
32570
32570
32519
32469
32465
32460
32430
32380
32327
32385
32485
32711
32903
33041
33188
33310
33439
33525
33534
33489
33426
33412
33445
33447
33435
33357
33207
33074
32959
32947
33047
33087
33207
33341
33415
33504
33603
33749
33789
33669
33678
33479
33313
33139
32967
32874
32841
32799
32692
32637
32691
32772
32859
32923
32978
33031
33113
33175
33155
33083
33002
32903
32874
32824
32751
32604
32452
32359
32343
32316
32298
32242
32252
32318
32397
32485
32572
32615
32642
32683
32666
32658
32629
32628
32647
32636
32618
32652
32694
32756
32847
32924
32967
32999
33018
32959
32836
32784
32734
32629
32558
32423
32341
32391
32452
32391
32239
32140
32169
32227
32362
32484
32576
32676
32820
32908
32934
32923
32861
32785
32687
32579
32548
32582
32620
32660
32751
32853
32858
32847
32803
32783
32698
32582
32392
32192
32020
31882
31758
31663
31623
31665
31731
31735
31722
31797
31861
31944
32112
32340
32630
33201
33929
34823
35822
36910
38022
39092
40114
40967
41674
42200
42869
43446
43978
44459
44751
44838
44663
44230
43527
42625
41476
40286
39146
37954
36796
35666
34692
34004
33376
32811
32412
32075
31658
31239
30919
30709
30657
30724
30847
30999
31199
31273
31360
31463
31585
31701
31777
31802
31751
31644
31426
31287
31129
30886
30705
30623
30655
30738
30911
31071
31113
31125
31146
31231
31379
31495
31543
31551
31529
31452
31348
31231
31095
31052
31028
31028
31090
31189
31324
31429
31525
31588
31580
31535
31516
31431
31346
31314
31295
31330
31447
31527
31541
31484
31386
31330
31322
31353
31415
31541
31658
31665
31639
31596
31583
31566
31558
31551
31566
31586
31583
31548
31519
31572
31590
31580
31567
31566
31627
31735
31847
31896
31944
31960
32039
32087
32046
31927
31860
31909
31932
31937
31936
31993
32031
32007
31977
31967
31916
31894
31943
32051
32198
32359
32452
32545
32594
32637
32630
32598
32546
32436
32255
32090
31967
31900
31975
32124
32223
32327
32495
32620
32772
32875
32894
32933
32962
32916
32797
32696
32549
32439
32310
32215
32149
32044
32043
32207
32391
32595
32798
32916
32903
32831
32771
32740
32689
32642
32576
32559
32588
32651
32674
32708
32740
32775
32873
32996
33151
33284
33415
33526
33639
33734
33823
33765
33690
33589
33521
33487
33495
33499
33497
33457
33444
33444
33535
33617
33668
33761
33895
33940
33879
33796
33703
33607
33620
33641
33708
33761
33839
33927
33991
34055
34138
34242
34383
34460
34447
34456
34513
34484
34367
34227
34116
34060
34054
34016
33919
33823
33660
33580
33580
33483
33415
33425
33478
33534
33594
33566
33508
33508
33521
33508
33505
33509
33468
33374
33297
33216
33155
33085
32930
32821
32711
32674
32651
32666
32711
32733
32738
32691
32547
32348
32212
32148
32148
32119
32136
32133
32183
32251
32290
32268
32279
32196
32119
32199
32119
32237
32183
32378
32334
32455
32375
32511
32455
32516
32491
32423
32351
32259
32106
31831
31554
31418
31398
31460
31614
31790
31959
32116
32250
32391
32508
32550
32487
32423
32340
32223
32119
32045
31982
31914
31892
31865
31920
31988
32070
32215
32335
32460
32534
32620
32654
32625
32536
32425
32295
32249
32179
32148
32102
32015
31965
31903
31834
31846
31956
32094
32223
32273
32321
32367
32477
32634
32715
32745
32720
32656
32612
32586
32601
32594
32588
32516
32492
32553
32661
32749
32850
32939
33011
33084
33127
33113
33031
32951
32832
32687
32539
32471
32447
32452
32397
32424
32502
32591
32612
32658
32697
32743
32822
32865
32917
32895
32901
32871
32820
32794
32831
32839
32815
32815
32707
32609
32583
32577
32667
32732
32820
32895
32975
33039
33055
33063
33011
32956
32763
32607
32413
32335
32336
32385
32372
32460
32513
32647
32860
32993
32978
33053
33140
33255
33282
33297
33351
33450
33471
33383
33295
33179
33086
32879
32700
32564
32506
32591
32679
32768
32872
33015
33159
33274
33334
33287
33306
33214
33150
33118
33060
32952
32847
32813
32791
32727
32661
32598
32535
32590
32719
32839
32967
33079
33148
33265
33403
33519
33590
33607
33549
33359
33089
32872
32731
32663
32637
32660
32775
32988
33248
33503
33669
33767
33861
33917
33943
33894
33836
33703
33535
33538
33574
33572
33558
33602
33638
33610
33634
33634
33614
33647
33630
33603
33577
33543
33523
33539
33591
33612
33671
33671
33674
33703
33736
33703
33647
33606
33550
33515
33509
33462
33389
33316
33207
33124
33175
33012
33054
33186
33161
33191
33360
33255
33286
33329
33195
33356
33354
33401
33391
33312
33263
33271
33276
33203
33124
33047
32994
32930
32848
32775
32766
32731
32668
32653
32679
32647
32651
32772
32943
33127
33239
33263
33258
33303
33367
33318
33223
33163
33049
32871
32727
32617
32547
32553
32597
32694
32879
33031
33175
33327
33418
33438
33505
33543
33553
33483
33402
33334
33193
33002
32775
32650
32657
32720
32807
32879
32983
33114
33287
33407
33430
33319
33151
32944
32719
32399
32131
31969
31943
31905
31866
31815
31715
31716
31829
32095
32345
32508
32682
32873
33167
33629
34228
34976
35954
36980
37965
38887
39727
40500
41267
41958
42551
43076
43645
44119
44637
44948
45020
44605
43791
42685
41399
40080
38639
37311
36169
35200
34406
33757
33223
32927
32698
32501
32324
32141
31949
31799
31654
31538
31485
31400
31286
31237
31301
31367
31380
31405
31444
31495
31541
31567
31637
31801
31985
32197
32391
32577
32628
32593
32431
32194
32039
31988
32089
32174
32150
32133
32080
31998
31895
31828
31806
31807
31855
32006
32199
32326
32407
32453
32506
32543
32558
32548
32500
32436
32311
32169
32082
32127
32231
32247
32318
32442
32519
32594
32700
32820
32887
32893
32869
32805
32798
32837
32852
32800
32718
32638
32490
32343
32198
32067
31917
31849
31809
31767
31815
31906
32028
32214
32431
32704
32997
33173
33231
33196
33155
33047
32932
32847
32784
32742
32676
32579
32551
32583
32704
32850
32967
33106
33199
33242
33195
33166
33084
33010
32903
32767
32647
32519
32446
32422
32532
32654
32732
32823
32910
33022
33048
33063
33183
33309
33318
33267
33175
33055
32997
32969
32870
32702
32567
32463
32484
32569
32711
33001
33268
33520
33748
33898
33979
33980
33895
33820
33734
33602
33407
33271
33151
33093
32999
32988
32966
32918
32903
32987
33060
33194
33310
33398
33396
33426
33497
33607
33710
33767
33757
33771
33747
33662
33500
33375
33342
33367
33428
33527
33612
33693
33815
33879
33849
33809
33823
33750
33821
33700
33631
33670
33831
33847
34011
33940
34087
34086
33951
34146
34292
34310
34545
34527
34601
34711
34511
34627
34396
34247
34279
34070
34099
33919
33655
33654
33481
33466
33472
33342
33519
33524
33653
33717
33737
33503
33494
33337
33268
33335
33168
33166
33150
32899
32808
32596
32351
32230
32023
31950
31934
31975
32047
32139
32217
32253
32279
32286
32340
32236
32168
32084
32018
31948
31857
31788
31760
31786
31866
32047
32228
32399
32557
32696
32743
32635
32495
32309
32145
32076
31999
31968
31924
31815
31751
31607
31618
31669
31600
31700
31820
31858
32000
32023
31975
32072
32071
32120
32180
32103
32129
32072
31988
31964
31789
31756
31772
31767
31815
31966
31998
32108
32082
31980
31935
31831
31703
31663
31642
31645
31801
32003
32034
32108
32248
32216
32327
32474
32506
32420
32287
32209
32221
32316
32423
32529
32571
32582
32575
32535
32438
32316
32263
32246
32244
32210
32173
32167
32149
32187
32309
32423
32535
32617
32655
32679
32641
32567
32494
32430
32415
32381
32338
32295
32208
32172
32106
32118
32208
32287
32374
32460
32501
32556
32652
32676
32670
32703
32791
32810
32805
32775
32752
32692
32575
32498
32375
32319
32275
32295
32290
32364
32465
32529
32532
32380
32213
32062
31993
31934
31947
31960
31988
32062
32175
32331
32420
32559
32683
32851
33012
33159
33194
33183
33172
33110
33046
32967
32903
32854
32862
32820
32700
32583
32490
32422
32388
32362
32314
32283
32336
32455
32532
32554
32580
32574
32644
32732
32760
32796
32792
32798
32743
32727
32709
32666
32628
32614
32625
32610
32655
32745
32829
32844
32811
32774
32760
32654
32597
32583
32559
32535
32588
32631
32615
32669
32757
32917
33055
33156
33240
33334
33372
33324
33237
33213
33284
33345
33327
33312
33336
33290
33201
33086
32974
32961
32999
33092
33203
33317
33431
33543
33618
33639
33595
33535
33391
33260
33161
33095
33054
33084
33143
33182
33126
33095
33063
33057
33031
32990
32943
33007
33055
33138
33185
33169
33167
33076
33024
32972
32913
32812
32687
32519
32312
32058
31819
31683
31653
31764
31931
32142
32427
32665
32831
32898
32972
33095
33134
33068
32941
32872
32821
32746
32631
32519
32435
32346
32319
32327
32322
32381
32456
32551
32575
32585
32615
32598
32547
32538
32578
32543
32481
32406
32318
32263
32311
32457
32623
32740
32821
32917
33036
33023
32956
32886
32930
32975
32996
32979
32895
32836
32775
32725
32686
32667
32717
32796
32791
32775
32692
32551
32389
32177
32098
31921
31814
31706
31697
31687
31635
31614
31656
31726
31850
32007
32213
32490
32914
33410
34094
35004
35956
36951
37974
39087
40053
40871
41855
42623
43212
43822
44415
44820
44994
44894
44591
44007
43110
42002
40764
39703
38644
37559
36563
35668
34878
34264
33762
33435
33122
32759
32411
32028
31632
31298
31143
31102
31111
31178
31206
31274
31351
31363
31401
31428
31519
31652
31743
31780
31852
31857
31842
31803
31686
31538
31466
31448
31478
31535
31546
31591
31604
31593
31612
31623
31623
31653
31679
31730
31817
31911
32001
32055
32083
32031
31950
31811
31685
31589
31552
31623
31733
31825
31921
32029
32098
32091
32108
32153
32220
32238
32235
32241
32263
32218
32292
32242
32236
32239
32194
32247
32319
32341
32379
32500
32567
32574
32702
32678
32583
32443
32292
32094
31940
31812
31820
31852
31892
31965
32116
32310
32426
32486
32599
32657
32708
32652
32541
32374
32211
32083
31991
31921
31911
31959
32029
32108
32255
32471
32673
32788
32882
32941
33015
33084
33140
33164
33154
33169
33326
33421
33420
33344
33222
32999
32742
32479
32292
32303
32479
32617
32743
32886
33007
33056
33103
33165
33220
33214
33251
33287
33240
33326
33297
33202
33232
33218
33191
33331
33332
33489
33542
33494
33556
33492
33482
33575
33460
33530
33479
33373
33383
33220
33166
33303
33234
33351
33422
33401
33582
33759
33772
33954
34071
33991
34083
33893
33889
33947
33826
33886
33957
33835
33942
33978
33935
34162
34215
34227
34394
34367
34578
34455
34556
34354
34437
34263
34412
34430
34663
34672
34708
34491
34260
34038
33758
33695
33636
33839
33912
34279
34382
34651
34644
34822
34925
34868
34780
34725
34391
34368
34084
34005
33831
33669
33567
33428
33460
33534
33511
33522
33641
33677
33607
33556
33498
33410
33287
33159
33040
32955
32871
32824
32771
32681
32604
32533
32534
32615
32700
32775
32828
32815
32742
32666
32596
32495
32420
32391
32409
32447
32458
32406
32363
32387
32401
32446
32535
32588
32625
32694
32695
32670
32652
32636
32663
32701
32687
32636
32519
32356
32205
32173
32174
32190
32231
32323
32439
32495
32534
32548
32509
32515
32511
32551
32573
32573
32550
32527
32451
32344
32248
32206
32158
32121
32097
32103
32111
32137
32177
32175
32156
32255
32395
32530
32646
32712
32740
32718
32631
32495
32361
32305
32354
32391
32418
32446
32527
32644
32716
32845
32973
33023
33042
33052
33051
32991
32938
32893
32775
32740
32669
32605
32494
32434
32425
32453
32497
32563
32647
32770
32906
32975
32975
32980
32998
33026
33045
33025
32983
32919
32809
32687
32615
32561
32535
32572
32677
32837
33050
33247
33389
33444
33418
33375
33318
33296
33201
33062
32976
32888
32773
32636
32615
32670
32695
32629
32628
32691
32831
32995
33129
33222
33311
33409
33483
33479
33404
33327
33293
33204
33025
32853
32775
32699
32693
32735
32800
32862
32936
33026
33083
33089
33052
33055
33063
33001
32986
32983
32985
32892
32796
32733
32647
32574
32465
32535
32893
33130
33167
33182
33220
33279
33321
33327
33316
33279
33254
33225
33154
33094
32980
32852
32743
32661
32606
32567
32612
32740
32868
33043
33184
33244
33172
33125
33121
33125
33191
33255
33244
33223
33110
32983
32892
32830
32826
32796
32857
33029
33141
33231
33343
33460
33549
33574
33575
33607
33631
33659
33647
33605
33630
33558
33447
33317
33251
33223
33196
33218
33275
33404
33550
33694
33791
33753
33764
33799
33853
33863
33809
33744
33680
33543
33351
33223
33198
33141
33106
33066
33060
33042
33071
33127
33189
33270
33356
33383
33345
33328
33323
33260
33113
32969
32879
32866
32903
32926
32966
32934
32914
32956
33017
33021
32897
32735
32670
32590
32514
32461
32406
32404
32415
32452
32472
32436
32431
32497
32530
32509
32532
32619
32732
32774
32855
32996
33156
33283
33397
33365
33242
33115
32994
32842
32679
32559
32481
32423
32371
32282
32263
32292
32373
32519
32719
32847
32943
33005
33058
33082
33020
32926
32807
32678
32612
32628
32707
32818
32887
32958
32999
32993
32871
32644
32399
32128
31911
31820
31832
31876
31818
31783
31791
31803
31751
31679
31751
31863
32042
32237
32466
32950
33583
34341
35167
36103
37172
38138
38991
39943
40743
41550
42372
43127
43860
44543
45127
45484
45574
45449
45103
44366
43339
42093
40772
39503
38164
36940
35891
34975
34279
33799
33382
32946
32566
32210
31825
31453
31211
31084
31081
31165
31262
31342
31458
31546
31510
31431
31385
31388
31391
31335
31191
31100
31015
30989
30975
30952
31022
31155
31286
31407
31469
31516
31543
31546
31487
31471
31506
31462
31385
31264
31178
31084
30993
30983
31107
31119
31087
31077
31134
31247
31366
31578
31823
32140
32384
32479
32415
32244
32047
31889
31767
31716
31703
31686
31662
31631
31643
31652
31704
31787
31878
31961
32060
32047
32031
32007
31961
31893
31874
31916
31903
31985
32031
32007
32051
32055
32015
32119
32223
32253
32300
32288
32242
32199
32161
32199
32255
32291
32271
32294
32247
32175
32133
32056
32066
32102
32180
32261
32385
32506
32606
32667
32711
32724
32741
32691
32676
32669
32555
32454
32431
32447
32386
32228
32118
31998
31972
31996
31999
32092
32111
32103
32215
32410
32545
32650
32702
32767
32915
32938
32961
32918
32899
32853
32812
32775
32727
32698
32727
32699
32661
32706
32838
32927
32998
33084
33162
33197
33124
32978
32915
32868
32879
32960
33022
33067
33099
33092
33062
33115
33268
33421
33613
33695
33687
33636
33625
33658
33631
33578
33497
33362
33246
33111
32988
32906
32903
32933
33053
33199
33348
33480
33620
33731
33774
33757
33644
33564
33540
33457
33367
33287
33204
33174
33234
33273
33423
33577
33754
33945
34159
34335
34439
34487
34430
34311
34189
34060
33959
33843
33732
33615
33519
33453
33463
33499
33476
33483
33471
33471
33380
33287
33179
33092
33027
32971
32932
32936
32924
32864
32766
32727
32721
32572
32407
32284
32230
32206
32174
32150
32183
32230
32260
32231
32167
32069
31996
31965
31945
31905
31737
31482
31271
31125
31038
31009
31069
31217
31433
31639
31797
31871
31873
31884
31943
31959
31902
31751
31591
31480
31404
31378
31335
31327
31399
31530
31603
31730
31874
32017
32119
32095
31956
31823
31761
31783
31816
31869
31911
31901
31781
31695
31684
31719
31751
31787
31777
31839
31958
32068
32071
32114
32100
32103
32101
32111
32070
32004
31868
31665
31519
31441
31445
31474
31526
31647
31839
31996
32181
32330
32342
32263
32207
32217
32254
32227
32150
32087
32026
31937
31868
31807
31801
31863
31927
31975
32055
32100
32131
32167
32210
32234
32204
32170
32151
32095
31977
31807
31594
31406
31269
31250
31327
31476
31677
31947
32228
32472
32597
32742
32876
32965
32983
32983
32975
32958
32878
32733
32576
32438
32276
32158
32046
31980
31966
31931
31914
31962
32051
32113
32191
32244
32232
32231
32182
32194
32196
32214
32220
32207
32134
32111
32059
32100
32263
32396
32569
32673
32701
32634
32595
32613
32600
32591
32559
32564
32547
32529
32541
32493
32455
32423
32375
32289
32255
32222
32263
32331
32464
32580
32617
32686
32743
32770
32813
32837
32876
32823
32672
32519
32305
32183
32135
32094
32092
32188
32372
32557
32679
32810
32913
32932
32923
32960
33044
33085
33015
32903
32759
32681
32624
32629
32618
32519
32403
32263
32239
32308
32396
32487
32613
32711
32739
32756
32736
32712
32735
32798
32780
32773
32802
32839
32812
32715
32636
32595
32629
32680
32705
32718
32752
32743
32738
32721
32633
32492
32387
32315
32310
32263
32287
32369
32484
32597
32716
32841
32974
33116
33287
33372
33373
33358
33343
33338
33369
33372
33305
33316
33262
33235
33209
33196
33215
33244
33287
33352
33374
33388
33423
33488
33519
33463
33378
33331
33345
33326
33273
33175
33081
32998
32840
32705
32598
32475
32335
32310
32357
32429
32503
32547
32594
32647
32631
32644
32661
32647
32637
32572
32492
32452
32411
32373
32359
32327
32312
32294
32273
32308
32420
32503
32548
32634
32681
32679
32676
32669
32659
32631
32603
32555
32372
32254
32075
31997
32085
32129
32172
32344
32615
32769
32895
33080
33081
33073
33047
32982
32959
32879
32725
32644
32564
32487
32454
32472
32516
32558
32548
32591
32663
32743
32771
32753
32692
32617
32555
32484
32473
32494
32487
32416
32231
31979
31718
31543
31429
31353
31345
31403
31548
31725
31988
32254
32420
32443
32404
32378
32339
32304
32390
32530
32831
33257
33775
34565
35584
36749
37870
39082
40281
41207
42029
42692
43382
44004
44539
44871
45172
45159
44975
44435
43671
42676
41586
40455
39280
38054
36860
35783
34851
34183
33671
33226
32870
32598
32332
31985
31642
31326
31087
30933
30838
30774
30819
30779
30727
30721
30743
30908
31146
31311
31391
31443
31485
31541
31532
31535
31574
31623
31637
31567
31479
31337
31151
31039
30954
30887
30884
30942
31015
31059
31103
31140
31178
31180
31231
31220
31212
31197
31170
31183
31148
31101
31101
31132
31142
31148
31216
31231
31183
31182
31190
31246
31272
31268
31215
31220
31233
31253
31227
31221
31263
31311
31357
31423
31583
31716
31831
31924
31909
31903
31926
31958
31964
31933
31956
31906
31821
31727
31618
31505
31340
31164
31050
31077
31193
31314
31502
31734
31946
32143
32236
32287
32340
32331
32263
32181
32116
32043
31971
31928
31931
31887
31827
31770
31703
31681
31695
31719
31827
31991
32181
32337
32423
32435
32401
32382
32343
32225
32126
32038
31944
31936
31983
31975
31930
31943
31988
32088
32245
32371
32513
32676
32725
32670
32636
32618
32578
32528
32423
32299
32180
32031
31884
31809
31764
31772
31784
31934
32116
32333
32445
32528
32668
32706
32685
32596
32484
32445
32433
32413
32475
32578
32699
32757
32855
33071
33230
33372
33513
33598
33556
33567
33519
33460
33388
33226
33124
33106
33031
33016
32966
32967
32964
32971
33110
33204
33287
33444
33551
33596
33702
33686
33743
33710
33607
33620
33586
33572
33561
33458
33380
33301
33236
33186
33208
33148
33159
33159
33159
33193
33284
33340
33313
33426
33407
33366
33249
33044
32844
32806
32763
32678
32626
32586
32583
32580
32686
32838
32925
32956
33009
33049
33042
32996
32948
32912
32810
32623
32431
32254
32125
32003
31893
31882
31924
31942
31911
31908
31924
31989
32119
32219
32189
32126
32066
32024
32007
32028
31983
31911
31815
31679
31575
31514
31508
31517
31588
31659
31690
31719
31780
31796
31764
31717
31693
31700
31716
31694
31611
31516
31548
31615
31596
31527
31354
31185
31103
31170
31340
31479
31540
31653
31794
31898
32014
32055
32024
31964
31925
31869
31797
31749
31719
31710
31721
31782
31871
31925
31908
31884
31884
31949
32002
32080
32159
32131
32060
32015
31944
31953
31999
32087
32063
31999
31975
31976
32000
32060
32136
32226
32308
32359
32402
32420
32407
32357
32313
32230
32119
31960
31868
31772
31644
31578
31561
31546
31477
31465
31561
31631
31693
31828
31991
32115
32249
32319
32409
32472
32532
32569
32541
32532
32459
32277
32052
31885
31787
31756
31796
31908
31975
32095
32199
32310
32371
32354
32281
32294
32375
32415
32446
32472
32449
32383
32330
32305
32356
32384
32399
32431
32393
32353
32356
32344
32313
32198
32064
32004
31960
31980
31996
32054
32071
32142
32221
32353
32557
32661
32746
32773
32770
32741
32710
32684
32650
32646
32622
32604
32542
32415
32215
32049
31933
31905
31945
31986
32003
32036
32127
32254
32326
32416
32402
32348
32325
32322
32305
32209
32104
32066
32106
32204
32348
32521
32678
32836
33006
33067
33141
33127
33095
33057
32977
32901
32840
32712
32659
32588
32436
32301
32255
32237
32260
32263
32218
32239
32287
32356
32482
32543
32607
32657
32631
32629
32590
32606
32659
32722
32735
32795
32837
32768
32705
32621
32563
32590
32619
32663
32711
32758
32802
32832
32820
32839
32875
32863
32839
32762
32675
32524
32411
32372
32387
32439
32497
32560
32647
32808
33047
33138
33249
33300
33323
33310
33255
33229
33213
33197
33215
33191
33138
33129
33154
33193
33207
33164
33151
33199
33271
33329
33402
33367
33234
33111
32986
32879
32730
32628
32582
32506
32420
32324
32315
32342
32359
32394
32435
32459
32510
32606
32709
32765
32716
32637
32588
32615
32613
32551
32434
32280
32197
32142
32070
32065
32117
32181
32212
32258
32363
32444
32555
32577
32568
32588
32594
32516
32319
32086
31871
31741
31700
31724
31828
32042
32190
32254
32321
32412
32561
32786
32963
33041
33103
33142
33129
33124
33107
33095
33071
32999
32881
32718
32556
32468
32445
32462
32487
32572
32660
32748
32847
32923
32967
32919
32844
32744
32624
32459
32262
32030
31678
31402
31239
31172
31169
31229
31409
31652
31863
31987
32013
32079
32188
32396
32675
32991
33368
33900
34651
35519
36478
37489
38620
39782
40886
41975
42970
43852
44641
45244
45655
45943
45708
45276
44679
43766
42623
41346
40053
38744
37484
36326
35303
34529
33901
33447
33128
32871
32636
32324
31930
31574
31303
31172
31089
31031
30945
30847
30784
30727
30761
30822
30874
30868
30871
30910
30933
30911
30943
30978
31052
31116
31233
31349
31379
31389
31375
31356
31284
31158
31089
31060
31044
31031
31023
31010
30999
31010
31075
31138
31179
31204
31220
31211
31204
31196
31215
31166
31133
31083
31046
31015
30991
31012
31067
31138
31161
31206
31255
31316
31399
31509
31599
31646
31683
31734
31679
31527
31427
31340
31327
31335
31319
31372
31471
31597
31700
31772
31810
31802
31716
31644
31634
31684
31725
31766
31801
31847
31946
32017
31972
31906
31852
31795
31777
31817
31917
32049
32135
32168
32208
32218
32199
32150
32127
32165
32202
32202
32123
32006
31892
31815
31726
31724
31825
31907
32088
32277
32423
32478
32518
32563
32620
32580
32434
32228
32042
31877
31751
31672
31671
31703
31781
31887
32007
32143
32300
32478
32696
32892
33020
32990
32895
32764
32639
32503
32399
32327
32331
32377
32450
32507
32504
32604
32739
32883
33010
33120
33208
33228
33133
33047
32999
32935
32846
32839
32917
33031
33087
33149
33215
33217
33252
33287
33349
33374
33411
33452
33522
33526
33511
33514
33499
33465
33424
33380
33337
33319
33293
33252
33218
33190
33159
33188
33270
33391
33495
33498
33470
33475
33445
33443
33484
33582
33685
33709
33748
33901
33926
33850
33740
33652
33561
33426
33398
33468
33514
33607
33653
33590
33485
33383
33333
33282
33157
32996
32847
32703
32567
32495
32478
32492
32531
32542
32538
32519
32483
32513
32638
32729
32766
32797
32801
32743
32617
32410
32198
32068
31935
31846
31702
31532
31472
31468
31482
31631
31725
31884
32043
32164
32299
32239
32103
32036
31959
31903
31887
31844
31735
31532
31415
31307
31172
31146
31199
31318
31471
31657
31818
31951
31974
31942
31884
31830
31782
31724
31606
31439
31269
31175
31147
31135
31170
31280
31445
31615
31780
31920
32081
32183
32154
32175
32201
32222
32178
32047
31871
31644
31519
31503
31551
31587
31591
31618
31652
31675
31751
31884
32007
32097
32168
32202
32175
32165
32097
32007
31911
31787
31631
31437
31306
31280
31286
31427
31664
31879
32102
32233
32235
32194
32141
32080
32042
32036
32108
32231
32237
32245
32304
32316
32210
32046
31918
31823
31786
31798
31879
32017
32161
32333
32443
32490
32551
32620
32639
32553
32452
32349
32247
32151
32060
32002
31945
31919
31863
31899
31989
32135
32271
32341
32400
32447
32450
32456
32509
32511
32471
32324
32053
31830
31727
31686
31661
31675
31740
31889
32038
32232
32468
32648
32794
32895
32898
32827
32684
32481
32327
32195
32078
32013
32003
32021
32061
32055
32071
32098
32143
32202
32295
32327
32351
32416
32532
32565
32566
32600
32671
32771
32843
32823
32723
32572
32430
32346
32309
32330
32359
32424
32498
32509
32541
32519
32498
32495
32549
32559
32503
32422
32346
32295
32213
32167
32164
32231
32325
32437
32497
32582
32719
32769
32720
32689
32653
32642
32670
32647
32631
32629
32679
32679
32655
32655
32661
32697
32726
32788
32860
32966
33121
33237
33295
33319
33301
33287
33387
33523
33614
33614
33568
33460
33362
33276
33228
33217
33170
33159
33187
33194
33193
33155
33175
33180
33172
33179
33218
33236
33176
33089
33015
32914
32831
32772
32775
32775
32814
32879
32957
33060
33157
33118
32952
32825
32669
32575
32495
32454
32449
32510
32618
32765
32868
32884
32817
32720
32659
32665
32759
32882
32968
33022
32990
32899
32774
32655
32592
32542
32500
32439
32373
32343
32318
32377
32405
32511
32588
32596
32657
32740
32855
32899
32903
32883
32820
32804
32881
32965
33034
32994
32923
32833
32772
32766
32716
32660
32608
32643
32679
32739
32831
32897
32951
33021
33116
33210
33268
33302
33374
33352
33332
33241
33100
32895
32599
32260
31975
31764
31548
31495
31472
31536
31633
31705
31859
31940
31967
32068
32177
32282
32383
32605
32991
33503
34113
34988
35841
36794
37813
38771
39663
40490
41268
41990
42716
43316
43917
44401
44608
44494
44115
43332
42187
40871
39516
38263
37071
35935
35089
34462
33997
33667
33415
33228
32997
32684
32303
31845
31462
31185
30927
30736
30612
30570
30557
30651
30720
30839
30933
31094
31262
31447
31599
31729
31847
31924
32020
32135
32134
31969
31862
31777
31702
31713
31769
31824
31804
31687
31591
31548
31539
31605
31636
31644
31663
31679
31663
31644
31695
31765
31741
31669
31623
31646
31712
31775
31814
31815
31781
31799
31887
31989
32108
32243
32288
32263
32220
32163
32151
32172
32167
32113
32066
32063
32105
32135
32125
32018
31972
32162
32350
32431
32412
32366
32330
32290
32247
32193
32199
32188
32225
32215
32246
32314
32300
32247
32132
32049
32050
32094
32132
32247
32422
32636
32810
32890
32879
32773
32676
32628
32630
32618
32583
32556
32500
32399
32403
32429
32432
32487
32556
32575
32551
32567
32590
32627
32639
32637
32671
32711
32699
32669
32613
32532
32455
32388
32381
32415
32493
32639
32686
32743
32788
32815
32949
33118
33280
33391
33297
33223
33178
33108
33089
33091
33106
33095
33050
32986
32981
32950
32948
32947
32979
33026
33057
33082
33183
33338
33454
33447
33336
33231
33153
33111
33137
33228
33364
33516
33664
33799
33924
34027
34087
34071
34086
34055
34020
33954
33909
33850
33799
33764
33702
33596
33564
33574
33631
33739
33783
33836
33847
33865
33927
33956
33991
34025
34038
34010
34007
33989
33991
33979
33940
33870
33813
33748
33770
33852
33908
33959
33951
33964
33964
33967
33937
33882
33812
33732
33572
33383
33121
32823
32625
32460
32319
32255
32263
32418
32591
32748
32795
32769
32659
32564
32558
32562
32510
32398
32228
32094
31966
31809
31669
31533
31417
31463
31647
31846
31951
32061
32159
32175
32141
32046
31894
31763
31668
31646
31680
31673
31669
31655
31546
31441
31409
31406
31432
31461
31523
31585
31639
31661
31644
31607
31591
31604
31657
31683
31658
31572
31506
31370
31285
31228
31164
31140
31156
31207
31260
31356
31480
31579
31628
31615
31632
31655
31715
31696
31604
31466
31306
31223
31167
31205
31331
31492
31663
31825
31944
32050
32119
32155
32170
32190
32186
32165
32135
32074
31988
31918
31863
31828
31806
31747
31647
31630
31679
31791
31853
31866
31879
31854
31838
31839
31874
31847
31805
31831
31911
31981
32018
32038
32044
31946
31879
31860
31850
31949
31999
32007
32062
32070
32077
32090
32136
32155
32159
32171
32247
32331
32359
32271
32148
32033
31943
31926
31949
32023
32085
32190
32276
32314
32367
32409
32436
32428
32423
32451
32487
32464
32447
32406
32391
32309
32240
32203
32172
32148
32125
32159
32214
32276
32372
32519
32687
32786
32812
32746
32643
32500
32317
32152
31994
31941
31919
31972
32143
32325
32463
32556
32674
32743
32707
32708
32711
32693
32583
32426
32294
32182
32077
32038
32100
32236
32343
32428
32532
32647
32676
32716
32773
32863
32991
33039
32988
32903
32827
32694
32547
32386
32258
32155
32079
32072
32055
32091
32173
32287
32427
32576
32686
32815
32989
33095
33186
33318
33402
33436
33429
33415
33423
33424
33414
33385
33358
33255
33118
33018
33044
33150
33244
33330
33327
33374
33415
33423
33455
33471
33489
33447
33369
33247
33172
33094
33028
33038
33050
33015
32958
32946
32980
33011
33068
33110
33168
33180
33148
33006
32912
32692
32419
32227
32070
31951
31900
31948
32127
32298
32502
32765
33031
33263
33372
33319
33180
33063
32959
32878
32775
32714
32665
32524
32431
32351
32310
32334
32388
32460
32606
32812
33025
33127
33140
33083
33031
32994
32949
32865
32833
32814
32794
32771
32775
32695
32574
32618
32738
32884
33006
33047
33087
33135
33121
33057
32966
32791
32551
32408
32337
32384
32493
32620
32740
32878
33031
33023
32956
33004
32993
32892
32895
32866
32796
32758
32683
32543
32391
32239
32060
31875
31719
31590
31526
31584
31764
31977
32205
32498
32978
33620
34287
35060
35940
36688
37551
38142
39023
39636
40399
40861
41628
42087
42461
43136
43556
43527
43660
43292
42655
41697
40607
39386
38110
36722
35429
34324
33423
32711
32199
31870
31604
31370
31118
30884
30694
30540
30417
30439
30566
30716
30842
30967
31102
31231
31377
31457
31495
31528
31593
31615
31604
31604
31632
31687
31721
31690
31703
31666
31455
31301
31324
31415
31573
31702
31889
32180
32412
32454
32437
32350
32255
32215
32181
32151
32155
32148
32081
32012
31989
32004
32092
32195
32294
32335
32367
32439
32505
32519
32535
32492
32484
32423
32292
32199
32164
32137
32157
32234
32422
32575
32671
32732
32825
32871
32890
32827
32732
32660
32635
32598
32541
32492
32375
32220
32143
32137
32156
32227
32418
32576
32650
32719
32783
32815
32775
32714
32641
32623
32629
32567
32485
32399
32364
32311
32278
32252
32212
32158
32113
32135
32201
32260
32350
32493
32714
33003
33260
33365
33230
33003
32789
32703
32695
32767
32775
32845
32981
33149
33359
33495
33566
33570
33539
33449
33405
33352
33260
33126
33030
32978
32971
32993
33036
33076
33087
33125
33151
33218
33309
33387
33435
33471
33510
33519
33583
33644
33671
33671
33639
33558
33471
33413
33372
33356
33412
33453
33525
33574
33702
33831
33882
33919
34003
34132
34175
34127
34071
34035
34048
34062
34088
34095
34082
34055
34012
33999
33954
34039
34215
34306
34311
34222
34174
34151
34129
34175
34216
34267
34311
34309
34263
34231
34231
34272
34305
34353
34402
34451
34536
34511
34548
34656
34676
34594
34538
34487
34439
34343
34188
34045
33898
33607
33335
33163
33031
32980
33022
33088
33143
33208
33251
33193
33137
33077
33029
32986
32997
32951
32901
32873
32783
32670
32537
32359
32212
32144
32172
32237
32274
32356
32436
32458
32469
32450
32420
32263
32093
31974
31860
31798
31788
31621
31396
31292
31272
31351
31507
31657
31778
31911
32059
32230
32310
32249
32151
32038
31952
31892
31782
31682
31602
31560
31550
31589
31615
31617
31580
31567
31575
31604
31557
31567
31663
31751
31847
31990
32079
32109
32100
32027
31933
31782
31644
31591
31594
31669
31762
31880
32047
32110
32071
31922
31696
31572
31506
31456
31490
31607
31751
31903
32055
32172
32235
32241
32199
32151
32130
32152
32167
32159
32106
32065
32076
32151
32236
32329
32396
32399
32357
32384
32375
32296
32143
32024
31934
31890
31943
32015
32066
32060
31983
31906
31935
31997
32039
32180
32372
32465
32501
32561
32623
32596
32519
32385
32276
32188
32166
32244
32412
32599
32710
32768
32804
32820
32892
32925
32956
33001
33003
32927
32853
32722
32598
32423
32383
32323
32271
32215
32239
32299
32315
32309
32378
32548
32684
32647
32619
32594
32589
32556
32494
32390
32323
32428
32511
32583
32668
32679
32602
32513
32457
32448
32475
32564
32618
32724
32817
32892
32879
32706
32495
32335
32290
32347
32493
32667
32807
32903
32996
33148
33359
33531
33652
33732
33783
33762
33767
33757
33655
33481
33321
33190
33057
33031
33055
33111
33227
33329
33399
33375
33324
33234
33087
33056
33143
33272
33349
33430
33470
33503
33537
33496
33441
33335
33157
33068
33041
33114
33223
33295
33361
33338
33316
33236
33060
32872
32791
32658
32543
32478
32426
32365
32324
32357
32437
32524
32671
32804
32846
32860
32845
32858
32836
32775
32735
32660
32526
32423
32322
32262
32207
32223
32263
32319
32414
32543
32685
32826
32954
33050
33071
33023
32909
32799
32740
32668
32584
32532
32510
32458
32436
32391
32376
32344
32351
32319
32292
32330
32455
32632
32748
32783
32806
32827
32745
32743
32825
32858
32927
32940
32919
32822
32714
32647
32600
32593
32697
32802
32965
33027
32926
32821
32742
32612
32487
32335
32170
32015
31823
31686
31594
31447
31321
31261
31298
31495
31898
32378
32900
33420
33966
34545
35260
35924
36593
37174
37748
38326
38812
39328
39919
40507
40964
41420
41805
42046
42041
41847
41414
40854
40124
39175
38163
37173
36111
35067
34087
33150
32320
31727
31355
31042
30768
30535
30260
30038
29862
29767
29731
29770
29982
30167
30370
30605
30891
31178
31468
31676
31727
31676
31615
31603
31605
31530
31449
31430
31476
31575
31751
31959
32148
32278
32334
32355
32318
32251
32173
32177
32159
32135
32084
32026
31946
31847
31743
31720
31703
31700
31751
31871
31975
32094
32230
32365
32444
32451
32391
32351
32292
32101
31967
31846
31759
31724
31838
32062
32204
32302
32407
32485
32454
32486
32583
32678
32754
32791
32801
32794
32759
32712
32615
32455
32284
32188
32120
32202
32366
32526
32689
32850
32916
32913
32919
32942
32928
32875
32818
32740
32661
32572
32471
32375
32310
32253
32144
32062
32047
32103
32286
32548
32740
32897
33069
33254
33303
33229
33153
33122
33039
32975
32889
32828
32839
32789
32722
32665
32654
32687
32747
32838
32918
32978
33014
32995
32885
32766
32703
32655
32732
32834
32939
33039
33109
33172
33236
33405
33524
33535
33594
33683
33652
33614
33538
33396
33236
33151
33107
33117
33227
33369
33473
33580
33678
33684
33725
33796
33911
33994
34112
34183
34156
34182
34180
34138
34076
34028
33999
34012
33931
33871
33825
33770
33735
33737
33752
33796
33959
34111
34217
34298
34349
34407
34359
34289
34238
34143
34018
33935
33940
33949
33934
33918
33980
34094
34152
34228
34359
34407
34447
34449
34405
34270
34110
34014
33933
33935
33950
33911
33740
33599
33455
33296
33246
33314
33396
33472
33526
33405
33292
33237
33134
33046
33031
33055
33079
33048
32975
32978
32949
32893
32810
32726
32668
32583
32462
32356
32247
32234
32222
32149
32102
32111
32132
32102
32020
31911
31791
31716
31709
31743
31811
31796
31763
31691
31599
31607
31650
31670
31566
31402
31204
31100
31118
31206
31270
31380
31524
31559
31502
31545
31383
31294
31335
31367
31463
31678
31679
31538
31476
31405
31319
31396
31516
31611
31750
31863
31950
31972
31895
31747
31591
31499
31439
31388
31365
31402
31495
31676
31929
32023
32052
32103
32135
32083
32021
31943
31799
31626
31535
31482
31422
31327
31324
31415
31582
31788
31957
32135
32227
32215
32165
32102
32088
32042
31900
31775
31701
31549
31459
31466
31460
31490
31501
31508
31530
31638
31747
31862
32003
32087
32094
32135
32194
32172
32058
31868
31879
31911
31936
31910
31812
31748
31767
31789
31894
32038
32174
32260
32388
32540
32642
32740
32775
32634
32403
32187
31982
31877
31793
31701
31639
31631
31721
31857
32002
32151
32261
32345
32423
32492
32575
32707
32896
33034
33062
33031
32900
32640
32455
32286
32162
32143
32110
32071
32003
31992
32075
32174
32307
32476
32607
32654
32613
32581
32557
32566
32570
32590
32620
32615
32538
32493
32390
32299
32263
32319
32440
32647
32867
33018
33062
33120
33212
33307
33379
33370
33334
33247
33122
32999
32876
32734
32711
32788
32788
32775
32829
32924
33015
33031
33064
33025
32936
32931
32904
32850
32816
32785
32718
32622
32556
32418
32271
32187
32160
32162
32135
32198
32356
32540
32679
32812
32908
32913
32808
32657
32471
32340
32215
32026
31830
31678
31629
31655
31710
31860
32038
32282
32535
32670
32729
32711
32627
32519
32415
32366
32279
32198
32097
31958
31879
31889
31863
31842
31860
31926
32026
32169
32332
32501
32630
32722
32718
32691
32626
32572
32582
32575
32502
32447
32382
32277
32156
32101
32142
32254
32422
32595
32720
32799
32759
32751
32719
32681
32676
32700
32610
32461
32263
32005
31809
31596
31356
31167
31060
31081
31161
31313
31464
31652
31924
32212
32431
32650
32947
33311
33729
34247
34865
35532
36179
36780
37282
37822
38362
38916
39445
39999
40590
41141
41588
41895
41893
41479
40910
40124
39099
37978
36967
35923
34820
33779
32901
32215
31710
31500
31428
31382
31226
31053
30833
30607
30428
30332
30324
30379
30428
30526
30603
30633
30748
30908
31044
31151
31255
31372
31494
31687
31703
31713
31834
32065
32318
32516
32493
32389
32363
32337
32253
32108
32066
31977
31940
31954
32074
32328
32511
32689
32821
32839
32844
32775
32739
32718
32620
32544
32390
32366
32370
32337
32327
32381
32350
32282
32315
32437
32541
32634
32711
32802
32891
32986
33020
33031
33012
32944
32903
32831
32679
32506
32343
32143
31973
31789
31644
31623
31783
31996
32223
32359
32474
32639
32788
32858
32895
32911
32875
32820
32775
32734
32656
32574
32508
32491
32481
32466
32460
32404
32455
32610
32758
32952
33175
33310
33321
33222
33005
32775
32570
32459
32369
32350
32380
32439
32519
32612
32601
32646
32679
32834
33031
33222
33358
33308
33246
33261
33251
33237
33271
33252
33174
33050
32927
32912
33034
33190
33315
33428
33510
33559
33523
33406
33269
33182
33157
33159
33139
33077
32999
32917
32900
32939
33004
33092
33191
33324
33427
33574
33734
33874
33909
33868
33823
33812
33836
33847
33799
33734
33703
33620
33541
33410
33258
33215
33159
33204
33339
33518
33709
33890
34118
34398
34607
34606
34539
34415
34373
34365
34403
34451
34497
34541
34597
34613
34591
34533
34461
34339
34250
34220
34286
34350
34351
34367
34415
34449
34426
34347
34273
34157
33975
33772
33588
33495
33508
33629
33767
33860
33889
33867
33783
33652
33492
33334
33185
33087
33063
33080
33055
32944
32805
32663
32547
32432
32319
32230
32216
32271
32353
32399
32388
32343
32290
32247
32244
32221
32239
32197
32078
31972
31860
31724
31556
31463
31438
31495
31680
31893
32122
32253
32322
32364
32306
32212
32118
32059
32127
32099
32085
32086
32055
31952
31870
31791
31751
31759
31782
31854
31965
32055
32164
32224
32259
32302
32357
32364
32292
32151
32103
32007
31874
31689
31559
31444
31450
31495
31607
31761
31885
31997
32095
32185
32235
32227
32130
32000
31940
31908
31868
31806
31792
31733
31731
31770
31831
31943
32059
32196
32356
32433
32490
32567
32678
32730
32774
32790
32814
32809
32744
32599
32378
32157
31967
31815
31727
31693
31711
31823
31902
31990
32156
32292
32303
32256
32263
32250
32196
32185
32203
32220
32202
32207
32244
32256
32354
32494
32572
32587
32517
32426
32353
32309
32205
31985
31814
31639
31564
31601
31735
31947
32225
32474
32699
32916
33077
33151
33095
33018
32909
32824
32813
32826
32798
32743
32668
32636
32628
32554
32503
32444
32413
32392
32375
32372
32378
32406
32455
32515
32564
32575
32555
32567
32579
32559
32525
32533
32512
32481
32483
32499
32551
32558
32467
32410
32459
32584
32736
32911
33094
33159
33154
33104
33022
33022
32956
32861
32756
32671
32631
32615
32638
32710
32771
32775
32796
32924
33124
33258
33422
33519
33541
33566
33557
33527
33414
33239
33101
33025
32980
32981
33014
33076
33053
33050
33078
33128
33172
33199
33135
33089
33044
33015
32923
32845
32780
32699
32612
32516
32418
32316
32199
32099
32063
32071
32121
32287
32463
32615
32748
32807
32770
32678
32580
32508
32434
32354
32239
32084
31938
31780
31711
31634
31671
31826
32036
32263
32488
32710
32842
32895
32897
32887
32871
32830
32767
32634
32483
32322
32207
32089
31988
31943
31926
31917
31903
31972
32159
32261
32263
32300
32292
32316
32386
32510
32575
32596
32559
32448
32278
32115
31997
31942
31907
31882
31953
32103
32318
32527
32719
32961
33104
33189
33182
33159
33112
32940
32719
32526
32346
32127
31868
31665
31462
31272
31229
31279
31398
31540
31694
31820
32020
32281
32606
32948
33279
33636
34151
34786
35391
36028
36546
37013
37516
37995
38487
38980
39344
39815
40432
41111
41684
42037
42119
41880
41356
40663
39700
38654
37540
36380
35151
33994
33042
32290
31714
31368
31151
31004
30884
30759
30600
30506
30495
30551
30685
30844
31014
31161
31301
31328
31311
31374
31440
31558
31647
31681
31703
31751
31796
31870
31959
32074
32164
32202
32202
32119
32057
31996
31941
31900
31886
31814
31783
31791
31796
31843
31964
32111
32292
32471
32541
32579
32651
32702
32723
32734
32756
32771
32743
32701
32628
32565
32444
32324
32256
32227
32253
32343
32477
32575
32644
32751
32901
32964
32885
32753
32623
32511
32410
32342
32318
32314
32309
32300
32296
32323
32379
32462
32559
32637
32661
32661
32682
32706
32687
32615
32542
32497
32489
32541
32595
32627
32623
32660
32751
32831
32903
32976
32988
32927
32903
32926
32972
33125
33247
33375
33350
33166
33075
33050
32971
32881
32837
32894
32863
32850
32913
32993
33095
33221
33362
33409
33404
33439
33390
33255
33191
33231
33204
33228
33283
33348
33399
33383
33396
33460
33543
33564
33526
33540
33588
33590
33570
33539
33496
33495
33474
33522
33600
33711
33901
33956
34167
34248
34349
34535
34389
34415
34310
34136
34191
33990
34043
34041
33943
34024
34148
34229
34202
34171
34135
34114
34106
34146
34227
34321
34423
34514
34708
34916
35076
35174
35220
35207
35109
34997
34887
34806
34719
34594
34483
34492
34502
34567
34700
34836
34985
35124
35242
35335
35423
35421
35398
35289
35087
34819
34626
34519
34439
34413
34415
34506
34630
34756
34864
34919
34911
34823
34659
34468
34256
34079
33900
33719
33575
33512
33452
33414
33376
33322
33285
33249
33211
33175
33156
33105
33023
32947
32916
32905
32931
32847
32633
32455
32356
32327
32335
32377
32460
32540
32576
32625
32612
32608
32638
32690
32718
32714
32694
32663
32630
32598
32580
32562
32546
32487
32364
32255
32087
31940
31859
31780
31714
31682
31682
31707
31789
31927
32062
32181
32255
32283
32380
32483
32575
32617
32647
32645
32583
32511
32431
32332
32123
31896
31767
31668
31703
31807
31931
32055
32164
32315
32468
32614
32710
32766
32804
32795
32631
32388
32258
32111
32047
32127
32188
32164
32241
32455
32644
32772
32887
32975
32986
32941
32805
32612
32423
32305
32228
32148
32069
31990
31892
31846
31836
31935
32079
32159
32159
32118
32088
32163
32195
32171
32230
32238
32319
32471
32623
32758
32809
32851
32845
32851
32884
32908
32902
32846
32776
32740
32695
32735
32809
32841
32852
32775
32689
32619
32540
32431
32364
32334
32297
32263
32308
32414
32625
32901
33020
33055
33066
33086
33046
32998
32927
32821
32749
32668
32581
32487
32406
32369
32359
32423
32477
32443
32502
32631
32704
32737
32746
32737
32710
32715
32698
32692
32703
32705
32647
32591
32503
32479
32487
32580
32677
32759
32829
32820
32811
32771
32668
32511
32328
32166
32116
32209
32336
32428
32510
32553
32571
32623
32663
32706
32730
32775
32835
32915
33015
33095
33157
33229
33188
33199
33199
33200
33159
32993
32725
32519
32358
32327
32367
32422
32502
32562
32585
32617
32644
32633
32581
32556
32638
32687
32536
32559
32572
32531
32669
32849
32802
32838
32875
32719
32677
32789
32775
32854
32911
33010
33077
33158
33238
33240
33196
33111
33010
32887
32762
32692
32590
32530
32484
32518
32639
32763
32887
33010
33119
33199
33191
33151
33167
33175
33167
33140
33022
32944
32882
32825
32702
32588
32542
32434
32316
32305
32303
32352
32495
32692
32916
33175
33437
33668
33793
33878
33975
33966
33909
33812
33644
33439
33370
33399
33421
33407
33399
33372
33431
33482
33554
33551
33432
33407
33338
33263
33220
33221
33254
33255
33257
33189
33138
33094
33095
33119
33055
33041
33015
33007
33023
33007
32999
33005
33025
32999
32945
32795
32547
32326
32140
32083
32075
32092
32173
32303
32512
32732
32893
33030
33092
33098
33082
33016
33011
33094
33121
33169
33087
32882
32679
32492
32276
32115
32103
32135
32178
32249
32394
32495
32470
32415
32520
32644
32720
32759
32732
32596
32511
32463
32419
32384
32386
32410
32480
32528
32612
32694
32729
32787
32845
32927
32974
32993
32903
32810
32708
32636
32596
32598
32535
32437
32366
32391
32412
32540
32498
32655
32587
32717
32546
32474
32287
32228
31975
31962
31875
31660
31631
31612
31596
31743
31868
31946
32226
32423
32510
32905
33351
33799
34556
35057
35770
36665
37145
37799
38439
38958
39428
39812
40218
40631
40967
41222
41396
41475
41372
41140
40757
40326
39574
38679
37709
36637
35516
34447
33405
32487
31751
31231
30871
30610
30454
30300
30189
30148
30084
30138
30207
30252
30335
30468
30639
30805
30970
31111
31303
31481
31557
31604
31660
31631
31590
31631
31698
31783
31900
31975
32039
32093
32226
32308
32395
32409
32451
32445
32348
32183
31940
31689
31585
31550
31490
31448
31559
31679
31798
31895
31971
32053
32180
32250
32302
32405
32516
32483
32439
32359
32234
32158
31966
31783
31756
31769
31812
31946
32185
32464
32678
32825
32947
33029
33047
32918
32797
32638
32504
32455
32473
32471
32452
32433
32420
32450
32416
32369
32330
32379
32441
32553
32707
32803
32846
32830
32858
32829
32690
32495
32332
32232
32237
32231
32244
32278
32359
32439
32529
32631
32750
32908
33007
33028
32958
32962
32938
32841
32657
32493
32384
32287
32285
32342
32482
32663
32831
32948
33013
33028
33074
33103
33172
33240
33287
33414
33502
33529
33503
33367
33180
33025
32903
32774
32737
32588
32524
32638
32818
33114
33186
33367
33311
33350
33501
33391
33362
33463
33281
33327
33367
33127
33050
33049
32852
32829
32974
33097
33216
33397
33536
33600
33580
33561
33532
33499
33404
33307
33227
33148
32973
32783
32679
32698
32827
33031
33305
33630
34040
34320
34518
34668
34707
34636
34415
34223
34075
33970
33872
33799
33679
33656
33590
33529
33619
33627
33685
33783
33972
34233
34474
34679
34779
34703
34525
34335
34108
33914
33708
33626
33574
33521
33505
33462
33488
33491
33487
33526
33562
33556
33647
33730
33692
33608
33483
33319
33172
33085
33079
32961
32814
32639
32495
32375
32336
32330
32326
32354
32386
32384
32295
32141
31997
31941
31927
31956
31903
31869
31807
31655
31433
31174
30991
30899
30929
31005
31138
31269
31377
31545
31718
31814
31908
32098
32282
32391
32428
32350
32213
32092
31934
31759
31597
31468
31375
31311
31347
31441
31517
31535
31639
31746
31748
31709
31629
31563
31501
31468
31444
31463
31458
31420
31375
31356
31380
31412
31506
31566
31716
31829
31933
31999
32039
32039
32135
32213
32161
32029
31897
31815
31742
31686
31623
31558
31482
31523
31623
31724
31799
31943
32017
32087
32007
31983
32052
31999
31965
31836
31767
31718
31645
31601
31547
31510
31454
31437
31420
31412
31495
31620
31758
31919
32079
32314
32519
32636
32661
32511
32242
31957
31745
31621
31522
31439
31381
31449
31580
31728
31927
32124
32343
32487
32514
32458
32319
32215
32109
32024
31942
31879
31903
31959
32026
32159
32263
32335
32426
32533
32628
32766
32788
32911
32964
32926
32835
32720
32615
32502
32389
32159
31960
31841
31802
31743
31659
31546
31578
31620
31838
32119
32322
32570
32743
32850
32884
32855
32804
32759
32617
32479
32319
32208
32103
32022
31912
31879
31868
31879
31967
32036
32114
32191
32257
32354
32418
32517
32580
32695
32805
32798
32708
32671
32707
32683
32574
32435
32439
32471
32535
32626
32663
32694
32740
32750
32743
32702
32687
32615
32536
32428
32371
32135
32155
31931
32068
31980
32228
32219
32338
32671
32733
32767
32940
33029
32909
32810
32891
32773
32609
32430
32231
32071
31832
31628
31511
31449
31527
31676
31921
32241
32517
32716
32913
33055
33063
32965
32815
32643
32543
32538
32463
32336
32199
32074
32007
32042
32113
32183
32300
32463
32612
32695
32744
32751
32814
32879
32901
32884
32887
32876
32874
32894
32867
32679
32465
32327
32239
32151
32103
32133
32148
32243
32308
32340
32373
32412
32454
32480
32514
32625
32704
32764
32775
32707
32612
32534
32470
32441
32485
32594
32620
32706
32767
32834
32821
32823
32847
32910
32916
32860
32793
32623
32427
32263
32119
31999
31946
31981
32068
32214
32424
32695
32925
33166
33351
33513
33652
33687
33633
33533
33438
33287
33122
32929
32809
32822
32927
33023
33020
33119
33303
33262
33255
33263
33333
33264
33252
33244
33223
33255
33233
33174
33026
32794
32622
32561
32611
32742
32807
32825
32861
32913
32991
33092
33179
33302
33316
33396
33385
33270
33087
32846
32647
32449
32356
32282
32257
32309
32359
32380
32420
32382
32329
32399
32492
32548
32565
32542
32538
32559
32532
32428
32263
32102
32102
32183
32311
32510
32732
32903
33030
33100
33103
33096
33022
32913
32775
32639
32516
32335
32199
32100
32084
32113
32184
32263
32280
32277
32329
32402
32447
32546
32564
32587
32593
32700
32775
32815
32774
32802
32871
32764
32590
32343
32068
32118
32076
32070
32226
32580
32816
32799
32775
32788
32857
32725
32519
32397
32223
32143
32007
31766
31521
31399
31381
31512
31674
31708
31750
31847
32004
32219
32462
32582
32787
33023
33322
33745
34281
34954
35540
36047
36710
37407
38071
38612
39118
39633
40110
40455
41039
41436
41735
41962
41952
41703
41311
40622
39641
38719
37526
36260
34982
33831
32773
31973
31276
30740
30444
30350
30311
30253
30199
30207
30261
30396
30592
30756
30779
30727
30721
30764
30823
30959
31079
31194
31263
31271
31334
31385
31471
31460
31464
31525
31507
31590
31687
31933
32038
31991
31942
31879
31782
31758
31772
31780
31858
31996
32190
32367
32390
32418
32308
32078
31979
31926
31855
31918
31960
32041
32127
32172
32127
32090
32121
32140
32159
32308
32555
32743
32885
32975
32959
32782
32494
32263
32093
32023
32004
31936
31961
31932
32018
32165
32327
32396
32505
32716
32828
32915
32980
33023
32973
32893
32771
32591
32432
32278
32087
31954
31951
31972
31959
32023
32102
32199
32341
32486
32579
32637
32775
32871
32934
32903
32820
32796
32744
32719
32666
32668
32599
32596
32600
32609
32533
32350
32159
32053
32094
32145
32212
32263
32411
32541
32653
32773
32813
32852
32903
32899
32924
33045
33094
33122
33138
33169
33174
33168
33165
33282
33297
33198
33135
33087
33065
32974
32919
32882
32815
32713
32650
32618
32659
32734
32837
33007
33159
33286
33351
33364
33454
33598
33671
33747
33884
33879
33819
33739
33614
33458
33271
33125
33023
32950
32925
33015
33124
33143
33263
33437
33656
33799
33935
34020
33980
33861
33740
33686
33639
33615
33599
33583
33607
33676
33671
33668
33679
33794
33927
33913
33814
33791
33767
33740
33725
33716
33819
33886
33990
34091
34175
34183
34156
34119
34065
34010
33989
34014
34035
34054
34046
34026
33942
33881
33758
33636
33642
33644
33534
33457
33360
33300
33186
33018
32918
32862
32859
32935
33031
33068
33024
33002
32930
32784
32724
32660
32575
32385
32158
31977
31841
31735
31701
31690
31711
31724
31798
31906
31981
31962
31915
31847
31721
31653
31609
31575
31495
31463
31547
31594
31665
31742
31855
31941
31895
31885
31865
31845
31879
31888
31828
31734
31620
31495
31439
31405
31490
31623
31687
31719
31775
31858
31947
32002
31952
31934
31951
31977
32021
32085
32051
32135
32201
32281
32353
32372
32287
32130
31983
31892
31842
31704
31631
31520
31478
31495
31558
31669
31772
31932
32039
32246
32415
32567
32565
32462
32330
32212
32126
32025
31918
31735
31610
31536
31514
31553
31642
31751
31948
32172
32338
32494
32505
32327
32103
31895
31821
31803
31748
31671
31735
31848
32143
32355
32463
32492
32519
32540
32589
32666
32678
32678
32551
32477
32463
32478
32445
32391
32339
32279
32215
32159
32205
32156
32204
32221
32223
32223
32248
32191
32185
32196
32207
32205
32228
32404
32503
32540
32516
32474
32464
32454
32332
32195
32154
32154
32126
32084
32099
32148
32125
32036
31951
31917
32023
32111
32170
32292
32446
32492
32439
32414
32455
32452
32387
32436
32479
32556
32582
32510
32460
32454
32399
32449
32383
32305
32388
32493
32508
32552
32525
32426
32365
32300
32285
32319
32463
32550
32573
32604
32647
32662
32583
32542
32518
32406
32343
32309
32286
32255
32263
32257
32293
32390
32476
32482
32508
32599
32700
32672
32770
32671
32676
32623
32632
32650
32662
32603
32502
32379
32226
32120
32041
31872
31822
31791
31737
31719
31727
31774
32002
32288
32632
32887
33090
33220
33242
33170
33066
32900
32697
32519
32473
32445
32464
32484
32447
32445
32423
32411
32372
32359
32378
32479
32567
32678
32775
32747
32712
32551
32395
32244
32170
32156
32207
32286
32409
32436
32459
32500
32604
32747
32862
32901
32918
32911
32956
33012
33084
33089
32951
32819
32759
32798
32794
32791
32726
32774
32860
32863
32885
32861
32783
32785
32775
32724
32588
32519
32516
32431
32389
32471
32551
32665
32764
32852
32960
33038
33220
33198
33127
33084
33159
33171
33218
33255
33260
33231
33182
33117
33019
32859
32807
32863
32935
32988
33030
33031
33011
33028
33044
33032
33030
32978
32998
33039
33062
33044
33028
33003
32938
32911
32850
32754
32612
32655
32573
32561
32534
32531
32519
32557
32503
32527
32556
32569
32518
32398
32322
32300
32253
32175
32132
32110
32135
32254
32390
32508
32666
32743
32742
32581
32475
32423
32405
32401
32430
32354
32231
32054
31991
31919
31909
31935
32084
32207
32292
32396
32495
32524
32532
32565
32580
32580
32548
32471
32415
32326
32199
32031
31879
31747
31711
31707
31860
32015
32180
32354
32516
32668
32716
32756
32782
32751
32763
32798
32769
32734
32660
32510
32287
32183
32044
31876
31700
31618
31569
31581
31626
31695
31820
31954
32071
32239
32346
32547
32843
33103
33496
34010
34688
35406
36086
36639
37351
37973
38629
39369
39935
40502
41020
41501
41841
41972
41975
41836
41405
40676
39679
38535
37228
35868
34526
33277
32230
31398
30814
30534
30415
30333
30231
30099
29906
29759
29729
29748
29815
29944
30089
30166
30253
30333
30425
30531
30681
30868
31045
31173
31348
31495
31669
31764
31911
31918
31900
31864
31886
31823
31684
31547
31411
31319
31297
31392
31532
31677
31769
31882
32037
32175
32156
32163
32135
32039
31955
31857
31800
31825
31830
31773
31772
31791
31803
31922
31959
32062
32135
32038
31791
31684
31671
31612
31535
31558
31590
31710
31839
32000
32103
32198
32141
32106
32071
31972
31884
31815
31750
31724
31716
31727
31796
31935
32085
32325
32462
32508
32511
32514
32451
32358
32289
32104
32036
32006
32047
32045
32081
32119
32135
32189
32292
32254
32413
32566
32668
32628
32532
32426
32284
32212
32263
32318
32365
32442
32528
32527
32458
32439
32337
32396
32495
32540
32537
32413
32311
32227
32286
32244
32262
32196
32118
32035
32060
32032
32108
32135
32164
32290
32431
32570
32735
32978
33140
33316
33375
33319
33175
33083
32988
32977
32924
32903
32767
32678
32600
32559
32617
32704
32767
32831
32868
32879
32863
32785
32868
33012
33099
33172
33310
33458
33537
33563
33511
33374
33246
33284
33339
33415
33478
33527
33546
33540
33567
33566
33551
33531
33466
33274
33231
33138
33100
33044
33007
33084
33139
33247
33325
33467
33695
33944
34087
34121
34164
34252
34302
34289
34218
34089
33932
33766
33618
33519
33391
33286
33192
33229
33330
33461
33519
33543
33524
33596
33519
33451
33132
33109
33007
32897
32756
32731
32631
32489
32340
32263
32258
32314
32455
32541
32610
32669
32798
32871
32898
32865
32729
32592
32383
32255
32203
32023
31930
31850
31782
31687
31654
31636
31639
31687
31761
31780
31839
31822
31775
31751
31742
31791
31878
31918
31895
31778
31580
31348
31151
31060
31053
31167
31316
31492
31713
31829
31890
31926
31900
31877
31828
31725
31609
31500
31359
31210
31148
31111
31151
31227
31332
31508
31686
31812
32015
32069
32017
31943
31844
31810
31791
31733
31676
31623
31505
31372
31273
31317
31424
31501
31635
31801
31879
31909
31946
31938
31916
31946
31982
31998
32056
32037
32019
32004
31995
31964
31940
31919
31913
31967
32033
32055
32116
32217
32263
32246
32229
32117
32053
32041
32004
31996
32077
32030
31879
31680
31587
31535
31556
31618
31696
31812
31928
32103
32271
32406
32542
32631
32689
32712
32708
32714
32623
32451
32410
32320
32268
32236
32163
32039
31974
31916
31996
32103
32190
32305
32380
32502
32611
32674
32670
32660
32604
32455
32310
32169
32007
31970
31967
32067
32215
32367
32576
32682
32649
32709
32775
32857
32949
32842
32767
32751
32700
32556
32463
32324
32144
32126
32148
32108
32097
32108
32251
32365
32491
32593
32703
32578
32423
32437
32428
32348
32367
32271
32136
32012
32015
31996
32038
32137
32295
32454
32591
32738
32846
32997
33027
33005
32990
32892
32798
32621
32452
32364
32239
32063
31917
31894
31925
31879
31899
32007
32073
32204
32406
32620
32772
32902
32943
32892
32876
32798
32691
32565
32413
32245
32109
32036
31983
31935
31972
32173
32372
32543
32663
32719
32764
32758
32747
32679
32581
32575
32631
32735
32806
32775
32668
32532
32391
32234
32087
32081
32224
32413
32555
32665
32727
32769
32860
32975
33007
32918
32970
32835
32648
32571
32261
32007
31877
31650
31835
31901
32038
32335
32242
32530
32572
32705
32858
32945
32978
32943
32946
32964
32935
32927
32869
32756
32646
32582
32551
32567
32655
32742
32853
32895
33023
33059
33067
33111
33147
32995
32885
32810
32730
32693
32623
32639
32652
32727
32864
33034
33197
33318
33364
33372
33383
33428
33382
33247
33154
33051
32892
32587
32372
32181
32055
32017
31919
31873
31910
32108
32434
32796
33068
33273
33364
33351
33268
33067
32705
32502
32297
32123
31975
31845
31783
31819
31913
32028
32097
32199
32399
32470
32572
32631
32647
32679
32655
32683
32693
32599
32561
32484
32398
32226
32212
32263
32211
32223
32213
32135
32117
32166
32141
32204
32138
32068
31999
31917
31911
31930
31999
31919
31951
32075
32119
32158
32196
32214
32375
32484
32614
32719
32654
32618
32622
32639
32557
32510
32516
32590
32550
32456
32334
32101
31836
31510
31316
31311
31372
31441
31514
31567
31678
31806
31964
32100
32206
32519
32769
33029
33338
33642
33788
34196
34687
35309
35993
36646
37323
37986
38520
39474
39711
40557
41047
41615
42049
41972
41991
41128
40676
39679
38498
37211
35915
34838
33480
32550
31810
31311
31043
30924
30899
30876
30723
30464
30169
29832
29614
29508
29425
29399
29516
29718
29929
30123
30303
30580
30932
31287
31583
31852
31942
31927
31785
31688
31673
31790
31846
31848
31874
31975
31968
31983
31951
31832
31676
31569
31527
31579
31721
31808
31935
32004
32017
32143
32199
32278
32396
32469
32518
32396
32303
32236
32183
32202
32146
32045
31956
31934
31959
31988
32007
32032
32030
32051
32175
32343
32524
32575
32604
32586
32638
32555
32406
32361
32364
32375
32348
32314
32314
32395
32500
32539
32645
32615
32631
32592
32455
32287
32101
31967
31858
31734
31671
31628
31703
31925
32204
32615
32939
33218
33378
33518
33418
33476
33350
33214
33076
33005
32860
32684
32481
32335
32231
32244
32318
32362
32380
32455
32508
32555
32623
32638
32733
32864
32853
32906
32904
32903
32812
32684
32567
32475
32498
32454
32490
32558
32658
32796
32854
33038
33085
33070
33054
32999
32959
32972
32953
32895
32809
32738
32566
32375
32180
32063
32175
32398
32670
33046
33308
33539
33777
34010
34172
34151
34036
33902
33863
33810
33759
33580
33364
33256
33098
32970
32921
32928
33156
33242
33351
33438
33528
33684
33786
33895
33916
33926
33906
33781
33704
33622
33503
33434
33414
33207
33274
33333
33432
33596
33734
33866
33879
33940
33958
33892
33994
33962
33937
33927
33908
33882
33791
33621
33365
33255
33237
33140
32964
32916
32993
33115
33302
33415
33560
33708
33687
33621
33535
33543
33478
33399
33310
33124
32916
32734
32530
32432
32391
32532
32494
32406
32279
32199
32116
31993
31828
31652
31534
31513
31503
31440
31403
31399
31501
31703
31758
31785
31798
31764
31802
31917
31999
31902
31879
31948
31911
31818
31557
31382
31229
31043
30899
30757
30646
30599
30637
30655
30737
30998
31211
31462
31588
31674
31803
31788
31719
31641
31465
31488
31490
31410
31268
31054
30878
30792
30745
30852
30943
30935
30975
31015
31073
31119
31198
31239
31335
31410
31427
31395
31351
31321
31322
31302
31255
31123
31170
31349
31399
31458
31502
31562
31644
31666
31696
31646
31645
31711
31751
31775
31740
31671
31561
31394
31196
31029
30900
30812
30817
30887
31052
31206
31430
31599
31766
31921
32002
32019
32007
31969
31903
31878
31870
31764
31653
31568
31468
31383
31352
31396
31463
31550
31596
31682
31751
31815
31936
32017
32092
32113
32071
31964
31847
31660
31509
31366
31218
31044
30945
30985
31180
31440
31780
32068
32244
32263
32328
32436
32417
32360
32332
32324
32206
32077
31843
31777
31695
31693
31684
31735
31751
31746
31742
31878
31973
32094
32203
32284
32274
32261
32291
32263
32127
32071
32021
31864
31837
31770
31712
31716
31793
31909
32015
32016
32148
32226
32340
32399
32400
32317
32191
32053
31970
31964
31978
31922
31933
31983
32079
32218
32477
32751
32871
32806
32702
32669
32590
32508
32408
32346
32292
32181
32021
32126
32079
32022
32035
32100
32084
32120
32104
32262
32437
32623
32727
32691
32727
32639
32552
32402
32244
32127
32007
31847
31732
31698
31860
31949
32119
32320
32444
32410
32354
32330
32519
32804
32970
32999
32962
32934
32770
32739
32591
32454
32231
32102
32052
32095
32128
32286
32388
32508
32547
32725
33023
33276
33287
33255
33217
33151
33064
33002
32925
32691
32476
32250
32171
32182
32263
32580
32821
33092
33319
33532
33706
33895
33918
33854
33734
33660
33543
33447
33303
33111
32929
32795
32775
32751
32743
32647
32610
32639
32642
32576
32481
32454
32455
32359
32255
32192
32165
32031
31919
31794
31687
31626
31662
31749
32000
32230
32325
32349
32328
32249
32259
32280
32247
32311
32386
32486
32574
32762
32773
32772
32725
32668
32639
32620
32639
32618
32514
32374
32220
32138
32165
32209
32273
32399
32458
32439
32438
32470
32490
32415
32286
32247
32183
32260
32359
32578
32531
32634
32727
32767
32865
32891
32806
32711
32554
32576
32483
32511
32548
32551
32549
32476
32316
32069
31868
31759
31726
31815
31925
31902
31808
31765
31777
31799
31873
31941
32123
32388
32542
32652
32897
33212
33576
33980
34519
35149
35942
36729
37494
38196
38791
39151
39430
39716
40063
40284
40577
40903
41105
41030
40668
40207
39532
38821
37743
36548
35314
34179
33230
32512
31975
31628
31292
31052
30823
30598
30348
30150
30012
29924
29916
30026
30213
30391
30567
30772
30917
31102
31233
31428
31561
31727
31799
31876
31879
31925
31941
31979
31980
31981
31940
31949
31848
31788
31748
31775
31932
32025
32119
32244
32356
32480
32598
32742
32900
32975
32949
32893
32714
32500
32130
31852
31767
31647
31729
31940
32338
32738
33100
33359
33399
33511
33603
33613
33594
33486
33462
33368
33229
33061
32922
32763
32708
32678
32675
32684
32719
32804
32870
33001
33056
33151
33321
33439
33530
33580
33612
33558
33444
33307
33221
33108
33109
33125
33090
33171
33345
33668
33840
33903
33927
33930
33886
33879
33879
33950
33999
33861
33623
33340
33050
32927
32855
32807
32839
32997
33215
33527
33823
34023
34215
34430
34622
34725
34801
34812
34782
34713
34583
34418
34228
34102
34069
34055
34060
34077
34095
34184
34039
34055
33981
33884
34119
34214
34220
34282
34311
34311
34380
34461
34445
34359
34311
34287
34221
34257
34346
34397
34450
34535
34540
34607
34727
34695
34537
34526
34504
34466
34444
34407
34463
34485
34407
34413
34466
34485
34567
34804
34848
34799
34727
34724
34725
34721
34764
34777
34745
34713
34671
34662
34652
34668
34646
34663
34727
34713
34766
34734
34726
34679
34657
34690
34685
34823
34807
34776
34671
34528
34566
34657
34676
34556
34593
34397
34310
34507
34527
34602
34868
34943
34815
35050
35079
35102
35114
35066
34986
34823
34623
34326
34033
33703
33640
33518
33435
33422
33364
33407
33521
33538
33534
33599
33572
33521
33554
33543
33421
33277
33076
32911
32775
32692
32545
32514
32463
32430
32423
32335
32292
32359
32391
32417
32430
32334
32282
32218
32087
32087
31900
31707
31540
31463
31530
31652
31879
32071
32187
32185
32133
32090
32011
31967
31879
31751
31671
31655
31693
31809
31842
31780
31690
31659
31675
31684
31669
31617
31620
31699
31797
31903
31927
32038
32134
32231
32230
32183
32081
31991
31951
31943
31863
31703
31495
31407
31414
31398
31493
31631
31768
31988
32153
32318
32327
32310
32234
32257
32325
32323
32247
32168
32100
32003
31927
31879
31921
31974
32048
32116
32074
32006
31863
31742
31678
31582
31436
31360
31342
31316
31388
31599
31860
32103
32282
32378
32516
32543
32534
32479
32410
32396
32337
32303
32263
32239
32159
32148
32145
32131
32165
32263
32370
32354
32418
32444
32535
32715
32769
32943
33064
33125
33076
33010
32835
32649
32659
32615
32477
32609
32659
32593
32610
32703
32700
32684
32856
32812
32948
33146
33135
33127
33157
33198
33018
33057
33135
32989
33172
33310
33108
33056
32955
33077
33059
33015
33107
33167
33214
33260
33312
33355
33349
33287
33303
33319
33270
33247
33198
33159
33193
33079
32943
32793
32611
32433
32494
32674
32916
33125
33247
33345
33445
33535
33599
33527
33384
33204
32970
32715
32568
32604
32735
32886
33031
33228
33345
33447
33604
33825
33924
33941
33884
33815
33703
33725
33719
33686
33732
33700
33606
33539
33364
33216
33201
33258
33381
33452
33451
33535
33604
33636
33601
33647
33719
33755
33753
33791
33882
33874
33766
33637
33607
33596
33631
33663
33607
33643
33700
33706
33703
33749
33716
33695
33591
33519
33501
33519
33454
33374
33244
33166
33166
33199
33415
33687
33833
33996
34150
34177
34223
34137
33922
33727
33501
33380
33353
33261
33249
33191
33151
33124
33076
33031
32959
32866
32790
32724
32695
32846
32964
33002
33031
33084
33060
32988
32873
32969
32924
32901
32926
32985
32999
32988
32940
32917
33023
33066
33030
32917
32860
32857
32839
32851
32831
32775
32823
32876
32934
32877
32806
32630
32532
32485
32564
32629
32658
32686
32682
32895
32980
32973
33045
33159
33113
33069
33031
32975
32902
32902
32774
32583
32397
32284
32205
32145
32183
32180
32155
32013
32121
32101
31956
31901
31878
31928
31951
32093
32220
32401
32487
32565
32649
32821
33067
33303
33689
34135
34658
35225
35865
36525
37204
37782
38388
38836
39476
40042
40501
40813
41169
41476
41495
41379
41102
40565
39890
38978
37968
36880
35764
34767
33951
33199
32512
31812
31214
30897
30707
30567
30409
30234
30090
29999
29940
29927
30051
30179
30247
30306
30372
30527
30759
30977
31196
31407
31601
31732
31743
31730
31681
31711
31678
31711
31727
31805
31906
31951
32044
32170
32334
32423
32429
32270
32039
31798
31676
31620
31656
31732
31818
31877
32003
32063
32178
32149
32103
32029
32047
32119
32179
32225
32183
32212
32282
32326
32343
32356
32296
32232
32164
32086
32133
32207
32082
32027
32173
32263
32263
32263
32343
32432
32551
32645
32700
32724
32696
32520
32295
32016
31767
31574
31452
31484
31542
31626
31818
31972
32173
32343
32461
32564
32660
32630
32678
32657
32615
32519
32390
32247
32090
31977
31900
31854
31887
31959
32140
32308
32420
32529
32621
32666
32716
32810
32802
32724
32601
32481
32348
32292
32218
32135
32060
32068
32124
32222
32308
32327
32396
32420
32485
32512
32567
32615
32660
32559
32687
32736
32724
32673
32550
32457
32410
32375
32412
32502
32634
32757
32838
32927
32964
33003
33063
33086
32962
32750
32610
32542
32535
32553
32578
32684
32775
32831
32946
33108
33191
33261
33287
33335
33392
33516
33650
33647
33598
33574
33472
33330
33190
33115
33063
33024
32924
32815
32763
32774
32836
32911
33047
33143
33207
33327
33563
33756
33892
33903
33871
33852
33922
33853
33746
33607
33475
33354
33206
33175
33159
33143
33127
33118
33103
33126
33182
33278
33352
33350
33397
33322
33251
33213
33124
33175
33155
33185
33143
33131
33078
33011
32945
32935
32900
32855
32823
32734
32591
32493
32439
32423
32455
32440
32401
32334
32229
32039
31890
31721
31599
31627
31679
31794
31890
31947
31980
31961
31895
31846
31751
31604
31527
31473
31463
31405
31398
31351
31339
31419
31455
31567
31700
31847
31892
31879
31834
31786
31648
31548
31551
31565
31543
31524
31515
31463
31436
31423
31445
31492
31518
31621
31767
31872
31905
31951
31942
31878
31823
31671
31558
31502
31485
31503
31471
31471
31418
31444
31434
31552
31715
31902
32004
32067
32102
32036
32004
32025
31975
31863
31788
31749
31524
31479
31436
31596
31761
31935
32082
32260
32320
32414
32396
32340
32189
32072
32015
32000
31940
31896
31903
31878
31876
31901
31970
32003
31966
31880
31974
31946
31946
32056
32150
32263
32391
32486
32527
32572
32613
32551
32455
32368
32263
32159
32086
32061
31989
31906
31851
31845
31839
31973
32071
32176
32231
32294
32334
32375
32420
32423
32440
32456
32500
32473
32380
32247
32198
32182
32129
32048
31935
31809
31729
31793
31927
32014
32117
32163
32181
32237
32151
31943
31815
31726
31817
31836
31814
31937
32060
32322
32582
32881
33146
33313
33399
33415
33343
33236
33180
33220
33182
33031
32820
32555
32276
32097
32069
32106
32227
32319
32612
32746
32881
32903
32926
32935
32999
33039
33016
32934
32835
32727
32596
32540
32518
32482
32487
32473
32482
32484
32548
32602
32652
32740
32775
32738
32631
32557
32515
32448
32390
32373
32391
32375
32334
32249
32271
32352
32398
32486
32660
32839
32917
32940
33007
33082
33015
33038
33059
33012
32967
33023
33080
33231
33383
33463
33452
33524
33668
33764
33783
33738
33743
33831
33949
34014
33990
33858
33652
33300
33039
32742
32593
32518
32454
32318
32177
32055
31933
31940
31967
32015
32126
32197
32246
32327
32410
32476
32489
32446
32455
32455
32420
32399
32316
32240
32209
32224
32262
32281
32350
32452
32561
32527
32481
32485
32422
32252
32263
32281
32228
32143
32111
32140
32262
32335
32389
32394
32510
32691
32756
32897
33085
33236
33311
33415
33511
33532
33489
33359
33174
32894
32614
32364
32163
32021
32004
32054
32113
32239
32538
32876
33178
33321
33439
33575
33635
33772
33809
33711
33527
33267
32928
32538
32220
32052
31942
31839
31814
31863
31939
32067
32254
32417
32551
32755
33021
33307
33634
34087
34593
35149
35658
36204
36705
37192
37722
38279
38806
39373
39996
40671
41285
41792
42180
42279
41851
41295
40695
39654
38599
37489
36327
35049
33843
32719
31886
31407
30797
30623
30444
30412
30553
30436
30499
30527
30623
30792
30642
30674
30660
30677
30684
30809
31031
31294
31623
31971
32263
32468
32548
32612
32631
32607
32604
32514
32391
32301
32221
32167
32155
32111
32119
32135
32190
32251
32342
32414
32519
32590
32664
32790
32826
32837
32878
32949
32962
32897
32864
32831
32780
32650
32467
32287
32116
31983
31943
31972
32062
32244
32465
32701
32892
33031
33159
33294
33380
33287
33191
33046
32908
32789
32674
32610
32571
32545
32543
32561
32545
32614
32618
32580
32591
32647
32749
32804
32858
32839
32867
32895
32871
32795
32692
32619
32577
32571
32591
32654
32748
32890
33053
33222
33322
33439
33510
33573
33628
33655
33606
33525
33399
33285
33125
33015
32903
32783
32727
32753
32799
32860
32935
33009
33118
33239
33433
33540
33493
33530
33470
33370
33335
33301
33269
33258
33209
33142
33080
33124
33300
33350
33317
33316
33367
33423
33441
33484
33489
33516
33565
33572
33557
33494
33383
33241
33196
33195
33262
33239
33300
33367
33442
33542
33661
33870
33982
33994
33949
33923
33858
33799
33659
33594
33512
33420
33287
33191
33155
33137
33143
33200
33447
33631
33589
33630
33615
33576
33534
33476
33492
33511
33588
33679
33764
33837
33844
33837
33799
33799
33901
34039
34207
34331
34359
34380
34378
34297
34287
34439
34537
34583
34460
34364
34255
34068
33889
33771
33714
33696
33652
33604
33567
33570
33692
33764
33799
33809
33799
33797
33788
33719
33670
33495
33271
33088
33009
32985
32957
32903
32819
32791
32775
32791
32787
32743
32695
32657
32631
32596
32568
32500
32418
32375
32262
32106
31999
31884
31740
31662
31710
31777
31875
31965
31976
31959
31974
32067
32086
32084
32068
32039
31993
32012
32039
32120
32149
32140
32144
32100
32076
32087
32095
32071
32073
32132
32134
32134
32111
32160
32184
32166
32038
31845
31792
31716
31662
31598
31538
31439
31417
31418
31501
31686
31886
32074
32219
32286
32342
32438
32477
32474
32479
32433
32316
32143
31983
31861
31793
31732
31749
31794
31851
31885
31887
31929
31943
31956
31987
32060
32148
32229
32235
32211
32159
32141
32143
32125
32106
32087
32084
32132
32182
32239
32295
32347
32391
32429
32399
32279
32185
32128
32078
32053
32015
31871
31839
31819
31813
31819
31828
31897
32078
32308
32515
32716
32847
32965
32943
32876
32785
32738
32756
32731
32694
32612
32484
32363
32356
32404
32318
32334
32452
32490
32494
32485
32438
32404
32381
32356
32326
32302
32263
32202
32207
32230
32240
32280
32326
32350
32392
32429
32503
32612
32680
32767
32799
32816
32808
32775
32718
32583
32418
32384
32343
32311
32253
32219
32188
32157
32137
32167
32236
32280
32337
32357
32407
32524
32650
32771
32852
32908
32959
32991
33007
33004
32999
33004
32967
32732
32482
32327
32248
32260
32356
32421
32505
32588
32713
32919
33062
33143
33210
33156
33099
32982
32823
32652
32586
32598
32714
32935
33090
33181
33221
33316
33370
33359
33205
33164
33205
33268
33309
33369
33244
33039
32866
32697
32604
32527
32508
32550
32644
32780
32852
32903
32903
32839
32755
32687
32540
32479
32407
32294
32251
32144
31951
31815
31831
31904
32001
32095
32220
32372
32547
32700
32830
32903
32975
33021
33013
32972
32924
32838
32599
32418
32284
32208
32172
32250
32389
32494
32634
32683
32661
32691
32658
32593
32557
32565
32508
32434
32367
32273
32223
32115
32028
32020
32047
32086
32152
32323
32487
32681
32835
32951
33043
33156
33218
33200
33188
33084
33004
32955
32939
32965
32855
32688
32463
32243
32060
31879
31646
31518
31513
31535
31620
31732
31918
32120
32327
32465
32615
32815
32956
33236
33551
34050
34620
35222
35890
36640
37500
38166
38956
39572
40110
40508
40899
41246
41274
41309
41290
40745
40183
39036
38214
37094
35879
34810
33956
32914
32228
31829
31422
31335
31292
31283
31167
30919
30655
30361
30068
29895
29823
29847
29926
30055
30227
30496
30881
31286
31687
32033
32276
32462
32659
32816
32853
32870
32810
32677
32540
32461
32327
32244
32255
32395
32395
32397
32380
32396
32467
32599
32729
32792
32716
32670
32618
32679
32858
32962
32986
32980
32977
32979
32955
32885
32839
32812
32789
32748
32713
32734
32852
32860
32822
32826
32943
32772
32841
32679
32729
32895
32748
32863
32759
32959
32950
32952
32986
33019
33254
33350
33407
33285
33433
33351
33165
33214
33087
33149
33050
33169
33009
33198
33084
33132
33200
33219
33381
33245
33346
33129
33199
33030
33231
33321
33498
33740
33619
33708
33537
33615
33718
33706
33961
33828
33941
33698
33759
33609
33558
33679
33524
33642
33539
33623
33518
33434
33437
33462
33399
33484
33410
33498
33376
33535
33462
33663
33564
33739
33662
33740
33778
33655
33689
33679
33658
33584
33572
33575
33614
33607
33592
33559
33543
33575
33604
33660
33662
33766
33945
34300
34500
34534
34449
34504
34537
34621
34603
34535
34494
34452
34372
34327
34246
34081
34001
33941
33966
34030
34153
34263
34356
34421
34450
34528
34535
34508
34435
34311
34213
34180
34124
34023
33834
33752
33684
33767
33886
34039
34269
34512
34818
35020
35111
35129
35093
35003
34919
34892
34884
34916
34864
34688
34518
34303
34127
33937
33743
33637
33651
33734
33894
34078
34194
34248
34285
34351
34394
34380
34356
34289
34107
33788
33476
33142
32913
32849
32935
33060
33167
33284
33380
33413
33388
33345
33298
33236
33127
32970
32836
32756
32618
32516
32431
32359
32322
32263
32236
32256
32341
32463
32620
32725
32761
32749
32703
32639
32546
32335
32029
31687
31326
31032
30876
30908
31031
31239
31634
32099
32502
32724
32861
32932
32976
32895
32828
32797
32775
32762
32620
32495
32327
32135
31948
31820
31768
31742
31751
31871
31929
32007
32100
32219
32278
32314
32277
32247
32171
32087
32007
31981
31927
31883
31863
31906
31953
31946
31995
31999
31946
31966
31956
32006
32085
32167
32320
32458
32580
32596
32537
32411
32292
32223
32135
32110
32135
32206
32226
32228
32236
32255
32308
32371
32372
32381
32380
32388
32353
32254
32189
32191
32204
32159
32056
31889
31831
31838
31903
32007
32103
32167
32278
32436
32551
32602
32605
32591
32560
32503
32428
32399
32290
32082
31902
31813
31846
31912
32006
32134
32289
32468
32594
32665
32753
32751
32660
32515
32283
32057
31879
31775
31695
31695
31769
31900
32120
32369
32591
32841
32948
32949
32909
32822
32737
32646
32533
32486
32426
32367
32359
32379
32378
32350
32303
32314
32330
32332
32462
32664
32839
32951
33007
33076
33059
32953
32816
32783
32800
32788
32751
32751
32718
32600
32559
32559
32613
32652
32676
32694
32827
32989
33093
33188
33244
33223
33180
33171
33190
33159
33094
33076
33062
33060
33116
33199
33350
33487
33517
33454
33367
33263
33219
33263
33242
33176
33167
33156
33171
33071
32947
32841
32704
32623
32554
32525
32580
32609
32684
32726
32783
32817
32846
32842
32807
32726
32629
32511
32354
32203
32119
32181
32239
32198
32205
32147
32042
31943
31946
31929
31933
31972
32021
32119
32218
32350
32517
32710
32814
32885
32864
32804
32704
32684
32740
32775
32782
32871
33031
33159
33255
33269
33178
33082
32991
32954
32886
32725
32543
32470
32455
32534
32591
32543
32500
32516
32495
32526
32634
32775
32886
32951
32908
32771
32613
32543
32476
32447
32410
32417
32389
32304
32187
32107
32116
32220
32431
32681
32922
33226
33597
34124
34735
35308
35889
36447
36917
37286
37676
37935
38196
38511
38858
39230
39504
39810
40228
40376
40280
39779
38846
37777
36628
35400
34207
33202
32484
31918
31442
31110
30972
30884
30778
30623
30487
30381
30355
30396
30465
30513
30608
30772
30966
31271
31495
31647
31732
31807
31824
31868
31938
32031
32058
32046
32029
32030
32029
32077
32167
32303
32470
32622
32756
32823
32883
32926
32915
32911
32915
32844
32775
32671
32622
32555
32482
32516
32663
32797
32753
32583
32482
32513
32639
32849
33062
33222
33092
33090
33146
33264
33253
33124
32999
32829
32815
32769
32667
32586
32553
32500
32516
32588
32574
32577
32575
32597
32653
32745
32917
33031
33126
33163
33252
33271
33356
33348
33300
33254
33325
33348
33443
33490
33576
33551
33581
33468
33391
33203
33020
32891
32743
32673
32596
32551
32515
32503
32466
32516
32602
32741
32836
32976
33098
33214
33351
33407
33431
33370
33336
33278
33231
33191
33132
33084
33058
33095
33095
33139
33204
33137
33079
32986
32910
32874
32869
32991
33097
33253
33337
33349
33295
33213
33074
32887
32791
32773
32872
32972
33183
33407
33617
33783
33971
34052
34044
34079
33994
33979
33959
33924
33831
33681
33590
33484
33444
33453
33574
33619
33706
33774
33946
34105
34274
34338
34356
34327
34258
34215
34087
34068
34022
33867
33765
33615
33542
33532
33554
33553
33580
33671
33838
33933
34011
34075
34229
34332
34407
34415
34406
34351
34240
34135
34084
34086
34065
34084
34145
34164
34142
34151
34132
34039
33950
33992
34005
33918
33817
33763
33688
33666
33683
33745
33799
33774
33679
33556
33474
33482
33543
33631
33732
33783
33780
33771
33799
33771
33652
33444
33223
33006
32766
32561
32397
32244
32089
32031
32034
32133
32295
32452
32615
32735
32806
32813
32785
32735
32615
32519
32456
32383
32303
32241
32166
32022
31887
31815
31820
31792
31698
31567
31581
31555
31619
31679
31651
31775
31840
31810
31932
31919
32106
32127
32095
32146
32105
32113
32045
32038
32020
31879
31942
31929
32062
32045
32095
32013
32149
32140
32119
31886
31791
31567
31529
31411
31527
31591
31775
31878
32031
32189
32390
32603
32647
32754
32796
32855
32716
32662
32551
32431
32454
32373
32425
32302
32324
32253
32239
32222
32247
32402
32370
32420
32369
32383
32422
32440
32341
32311
32303
32356
32474
32542
32500
32455
32415
32431
32430
32373
32288
32294
32396
32486
32571
32646
32714
32714
32663
32591
32463
32247
32055
31941
31895
31845
31847
31908
31988
32070
32196
32375
32575
32841
33031
33135
33207
33241
33191
33048
32910
32834
32783
32711
32645
32582
32507
32389
32293
32246
32311
32404
32542
32532
32519
32471
32415
32371
32355
32372
32426
32545
32689
32775
32812
32805
32719
32583
32438
32458
32543
32633
32771
32833
32877
32903
32900
32840
32805
32748
32684
32710
32653
32602
32551
32527
32540
32655
32741
32803
32903
33031
33100
33013
32983
32962
32981
33095
33172
33175
33046
32854
32621
32435
32305
32234
32263
32414
32612
32771
32919
33054
33204
33318
33349
33343
33284
33262
33255
33251
33228
33137
32975
32823
32635
32488
32335
32224
32153
32094
32048
32078
32085
32118
32126
32163
32195
32172
32057
31935
31815
31734
31638
31673
31695
31787
32010
32005
31962
31989
32092
32058
31951
31972
31913
32137
32089
32058
32151
32033
32097
31959
31740
31783
31653
31588
31510
31444
31492
31675
31943
32223
32446
32671
32849
32819
32667
32483
32428
32278
32107
31928
31758
31696
31665
31650
31670
31641
31662
31807
31879
31964
32127
32325
32395
32362
32386
32310
32116
31898
31680
31568
31430
31279
31126
31043
30960
31012
31088
31198
31425
31713
32079
32460
32917
33586
34261
34810
35275
35694
36150
36590
36999
37405
37756
38063
38377
38759
39249
39719
40054
40167
39988
39512
38727
37728
36625
35412
34196
33068
32164
31422
30902
30556
30356
30188
30036
29953
29903
29847
29824
29782
29868
30079
30341
30646
30887
31146
31452
31775
32005
32159
32141
32005
31775
31788
31652
31546
31524
31500
31459
31684
31787
31867
32074
32151
32163
32197
32196
32141
32190
32166
32087
31996
31966
31956
31935
31938
31953
31987
31942
31868
31855
31807
31688
31570
31559
31607
31735
31825
32018
32159
32194
32190
32137
32142
32140
32175
32213
32198
32204
32228
32263
32230
32117
32039
32019
32078
32230
32317
32367
32356
32406
32516
32665
32742
32799
32791
32770
32750
32719
32613
32479
32369
32330
32343
32406
32412
32448
32507
32566
32573
32532
32458
32460
32503
32568
32622
32644
32628
32623
32708
32740
32765
32756
32746
32775
32789
32770
32750
32831
32898
32818
32620
32352
32203
32086
32005
31914
31856
31924
32149
32406
32663
32939
33188
33319
33415
33420
33308
33165
33062
32949
32863
32801
32775
32736
32758
32724
32708
32806
32926
32999
33124
33248
33307
33353
33358
33332
33308
33241
33207
33125
33066
32987
32877
32876
32851
32849
32885
33047
33135
33188
33254
33327
33375
33359
33284
33191
33115
32987
32871
32762
32647
32638
32703
32791
32900
33034
33144
33383
33695
33862
33916
33928
33972
33828
33652
33437
33127
32852
32839
32870
32862
32905
32975
33081
33213
33340
33485
33621
33692
33716
33696
33566
33447
33380
33415
33415
33469
33478
33385
33286
33230
33188
33172
33139
33009
32900
32804
32775
32732
32727
32702
32700
32702
32685
32679
32705
32687
32639
32585
32475
32309
32181
32068
31994
31972
31996
32087
32164
32116
32109
32128
32103
32040
31975
31834
31655
31495
31295
31056
30902
30812
30764
30775
30797
30808
30831
30839
30900
30983
31150
31246
31348
31494
31560
31567
31501
31527
31603
31660
31628
31527
31401
31274
31159
31040
30998
31045
31144
31298
31436
31661
31847
31876
31751
31543
31448
31492
31485
31523
31524
31423
31293
31191
31173
31228
31368
31535
31687
31903
32146
32343
32486
32575
32540
32444
32346
32233
32099
31887
31622
31460
31383
31415
31333
31312
31436
31574
31683
31776
32006
32279
32483
32534
32489
32455
32435
32377
32320
32258
32167
32031
31797
31579
31416
31359
31431
31433
31512
31732
31925
31919
31912
32030
32174
32212
32196
32151
32031
31845
31654
31484
31329
31236
31159
31142
31246
31535
31802
32092
32409
32714
32726
32690
32645
32633
32660
32588
32409
32202
32006
31868
31781
31725
31681
31689
31762
31919
32067
32183
32341
32516
32721
32852
32935
33031
32897
32801
32626
32397
32332
32210
32018
31853
31610
31469
31459
31476
31773
32009
32300
32620
32834
33204
33349
33454
33479
33355
33396
33198
33007
32955
32808
32719
32686
32639
32748
32757
32767
32802
32856
32971
33070
33172
33188
33133
33015
32855
32895
32974
32862
32713
32616
32495
32423
32373
32378
32477
32695
32895
33070
33116
33072
33018
32959
32902
32894
32740
32599
32439
32279
32075
31798
31437
31126
30945
30900
30812
30882
31175
31514
31912
32215
32475
32730
32939
33045
33086
33103
33123
33097
32983
32791
32591
32482
32412
32331
32308
32369
32447
32494
32479
32478
32482
32509
32506
32555
32672
32687
32626
32519
32396
32292
32187
32147
32151
32116
32100
32155
32332
32429
32517
32680
32648
32618
32596
32532
32415
32308
32250
32184
32145
32097
32050
32007
32025
32038
32132
32192
32161
32079
31919
31790
31665
31588
31556
31598
31671
31772
31857
31895
31949
31993
32070
32100
32116
32180
32361
32623
32905
33228
33626
34250
34895
35580
36295
36945
37582
38164
38759
39335
39782
40140
40482
40859
41179
41396
41452
41270
40861
40084
39012
37783
36549
35254
34023
32932
32023
31425
31103
30986
31036
31045
31015
30924
30852
30836
30847
30878
31057
31286
31411
31470
31559
31643
31620
31596
31591
31565
31639
31638
31597
31524
31615
31780
31931
32051
32164
32330
32504
32669
32788
32766
32802
32697
32663
32636
32602
32555
32631
32645
32623
32526
32399
32263
32163
32062
32007
32052
32052
32132
32277
32374
32439
32506
32636
32687
32718
32759
32729
32629
32438
32396
32310
32270
32239
32294
32386
32570
32687
32797
32867
32924
33020
32999
33045
32974
32854
32812
32652
32532
32519
32538
32505
32500
32583
32660
32766
32906
33083
33222
33318
33391
33420
33381
33226
33026
32857
32775
32673
32586
32566
32526
32511
32598
32721
32817
32879
32845
32807
32863
32936
32954
32989
33007
33012
33024
33076
33124
33114
33063
33009
32958
32879
32831
32832
32871
32978
33052
33116
33210
33219
33091
32914
32775
32665
32612
32663
32755
32898
33048
33084
33190
33281
33313
33297
33346
33412
33380
33371
33459
33534
33565
33527
33484
33464
33439
33404
33414
33389
33301
33250
33211
33204
33148
33172
33283
33404
33444
33506
33551
33622
33670
33731
33797
33895
33952
33995
34017
34002
33966
33822
33654
33531
33455
33397
33359
33287
33287
33303
33344
33386
33428
33474
33553
33715
33909
34022
34117
34093
33932
33663
33361
33143
33055
33014
33070
33100
33150
33302
33512
33666
33783
33863
33850
33776
33732
33654
33620
33573
33401
33218
33018
32815
32621
32397
32205
32148
32199
32330
32444
32551
32764
32895
32978
33044
33090
33093
33023
32844
32660
32495
32436
32365
32260
32166
32077
32026
32031
32163
32254
32295
32293
32235
32177
32144
32089
31992
31838
31660
31415
31190
31090
31111
31195
31349
31471
31631
31741
31780
31805
31834
31839
31783
31712
31735
31751
31759
31657
31538
31349
31103
30929
30853
30852
30918
31025
31205
31405
31647
31816
31858
31884
31953
32058
32151
32205
32204
32166
32157
32148
32071
31957
31896
31814
31736
31661
31627
31607
31623
31604
31687
31823
31909
31892
31867
31854
31847
31898
31875
31713
31578
31555
31596
31722
31844
31959
32055
32205
32367
32510
32630
32660
32636
32620
32559
32491
32375
32263
32156
32052
31982
31866
31774
31670
31726
31861
32030
32142
32263
32297
32314
32349
32305
32215
32102
31953
31799
31712
31661
31551
31530
31629
31788
31934
32066
32222
32388
32478
32541
32611
32692
32743
32703
32560
32339
32146
31972
31891
31865
31851
31767
31684
31719
31787
31974
32184
32375
32497
32519
32543
32588
32591
32527
32420
32289
32172
32199
32126
32018
32020
31997
31954
31919
31863
31887
31936
31920
31907
31898
31899
31941
31980
32042
32133
32242
32383
32532
32707
32926
33063
33203
33212
33155
33091
33056
32994
32863
32727
32607
32516
32455
32382
32441
32532
32565
32561
32615
32607
32476
32411
32380
32332
32263
32182
32156
32191
32292
32385
32514
32683
32724
32690
32647
32554
32394
32210
32047
31974
31797
31646
31537
31432
31389
31364
31442
31515
31562
31619
31716
31814
31830
31908
31958
31959
31949
31799
31637
31562
31523
31511
31534
31525
31487
31544
31566
31535
31521
31559
31663
31807
31965
32078
32154
32207
32159
32038
31893
31812
31734
31654
31622
31572
31511
31445
31453
31519
31583
31622
31611
31716
31772
31775
31751
31719
31774
31794
31792
31751
31688
31687
31703
31644
31659
31695
31717
31799
31886
31983
32038
31989
31847
31646
31399
31072
30770
30545
30375
30204
30123
30196
30270
30397
30524
30675
30920
31270
31678
32123
32632
33217
33844
34454
35098
35707
36316
36847
37324
37775
38132
38378
38606
38875
39237
39617
39905
39961
39754
39372
38695
37733
36682
35758
34700
33676
32824
32036
31434
30914
30548
30257
29959
29684
29387
29181
29054
29039
29148
29314
29490
29657
29827
30115
30184
30239
30319
30401
30511
30521
30653
30711
30750
30759
30852
30983
31118
31266
31351
31415
31559
31687
31527
31631
31572
31644
31550
31599
31489
31428
31269
31331
31296
31320
31259
31306
31316
31335
31389
31514
31523
31512
31421
31428
31431
31348
31445
31426
31519
31497
31583
31626
31559
31667
31604
31655
31597
31623
31668
31622
31711
31655
31527
31615
31588
31511
31708
31751
31693
31825
31852
31834
31781
31751
31764
31775
31837
31887
31855
31846
31852
31878
31935
31916
31918
31862
31765
31612
31467
31373
31315
31356
31383
31297
31223
31167
31185
31300
31440
31583
31806
32042
32230
32427
32525
32578
32601
32543
32431
32326
32297
32327
32397
32423
32441
32433
32487
32550
32663
32750
32800
32812
32877
32951
32922
32935
32927
32863
32794
32743
32692
32547
32440
32400
32298
32198
32314
32411
32439
32676
32789
32917
33124
33238
33322
33365
33383
33287
33255
33167
33028
32861
32762
32774
32848
32986
33158
33305
33487
33648
33759
33775
33782
33738
33767
33791
33740
33691
33661
33572
33507
33401
33287
33127
32917
32854
32925
33067
33216
33356
33562
33820
34060
34214
34380
34543
34693
34708
34592
34434
34289
34194
34087
34034
34038
33940
33940
33967
34001
34012
34076
34118
34159
34162
34148
34077
34042
34063
34061
34001
33945
33908
33869
33736
33555
33365
33236
33116
33049
33053
33118
33252
33264
33273
33287
33391
33503
33573
33588
33508
33375
33197
32986
32775
32571
32398
32308
32263
32255
32288
32301
32330
32418
32385
32326
32355
32446
32532
32490
32404
32276
32159
31987
31879
31743
31749
31775
31784
31807
31802
31814
31855
31837
31919
32070
32206
32356
32471
32636
32828
32924
32929
32668
32458
32339
32244
32171
32167
32269
32188
32274
32292
32321
32346
32343
32394
32412
32397
32346
32273
32164
32087
31993
31885
31844
31899
31942
32050
32183
32366
32519
32612
32649
32543
32316
32106
31966
31888
31910
31905
31968
31996
32071
32063
32098
32155
32159
32190
32360
32484
32551
32594
32630
32609
32596
32541
32487
32478
32524
32597
32529
32463
32444
32330
32209
32150
32346
32571
32741
32790
32775
32772
32775
32727
32697
32740
32764
32709
32566
32365
32236
32135
32106
32132
32270
32379
32516
32714
32955
33185
33321
33362
33326
33300
33246
33174
33056
32941
32807
32647
32487
32388
32283
32246
32261
32349
32508
32708
32876
33028
33210
33358
33375
33343
33210
33121
33043
32906
32796
32678
32646
32614
32613
32644
32661
32641
32679
32796
32886
32848
32775
32748
32828
32916
32985
32968
32884
32880
32914
32943
32979
32947
32839
32668
32525
32630
32764
32929
33159
33373
33489
33527
33458
33406
33407
33437
33514
33556
33537
33492
33472
33470
33466
33492
33508
33484
33372
33371
33414
33471
33549
33577
33596
33615
33581
33543
33500
33415
33342
33264
33098
32869
32673
32519
32423
32354
32291
32215
32217
32234
32334
32470
32655
32725
32824
32859
32850
32784
32713
32549
32234
32062
31900
31748
31631
31574
31612
31739
31855
32021
32222
32383
32451
32481
32506
32538
32526
32528
32491
32477
32494
32426
32400
32341
32319
32455
32502
32485
32479
32418
32359
32311
32337
32364
32428
32535
32602
32569
32432
32327
32282
32263
32184
32158
32196
32202
32235
32286
32325
32391
32407
32405
32447
32543
32647
32693
32644
32516
32286
31959
31631
31359
31118
30925
30813
30715
30671
30629
30671
30862
31030
31252
31447
31692
31997
32315
32692
33187
33751
34280
34758
35210
35678
36207
36710
37215
37835
38595
39215
39752
40297
40798
41191
41460
41376
40967
40247
39249
38081
36917
35729
34420
33216
32182
31411
30881
30556
30487
30566
30599
30470
30340
30102
29985
29895
29862
29933
30070
30199
30258
30273
30287
30367
30442
30536
30668
30859
31069
31268
31412
31561
31574
31611
31611
31584
31576
31511
31392
31321
31250
31156
31091
31029
31004
30983
30966
30992
31041
31084
31237
31428
31540
31692
31838
31884
31889
31823
31686
31553
31468
31438
31374
31196
31244
31175
31140
31182
31271
31404
31480
31479
31445
31518
31647
31764
31890
31879
31741
31538
31388
31328
31302
31455
31448
31429
31415
31456
31593
31751
31830
31948
32012
32038
32151
32144
32077
31980
31919
31934
31943
31978
32010
31948
31815
31775
31847
31924
31902
31803
31767
31804
31892
32034
32146
32188
32161
32113
32135
32247
32305
32223
32156
32063
32014
32008
32047
32095
32103
32052
32070
32069
32114
32255
32294
32326
32397
32397
32324
32254
32190
32122
32111
32132
32231
32339
32436
32511
32591
32673
32716
32682
32653
32679
32770
32830
32820
32789
32703
32615
32554
32432
32229
32013
31930
31905
31991
32169
32492
32708
32870
33068
33218
33346
33463
33480
33380
33300
33156
33155
33217
33238
33134
33045
32937
32856
32769
32756
32804
32933
33062
33204
33351
33511
33631
33756
33831
33855
33799
33727
33649
33584
33495
33388
33322
33342
33337
33335
33404
33485
33536
33561
33503
33575
33639
33695
33683
33661
33671
33745
33814
33845
33871
33820
33720
33669
33458
33405
33378
33423
33363
33251
33096
32879
32702
32796
32871
32897
32870
32878
32871
32877
32898
32834
32764
32602
32394
32199
32099
31962
31904
31919
31930
31973
32039
32166
32306
32358
32342
32324
32260
32135
32035
32036
32030
31930
31860
31855
31878
31928
31959
31988
31993
31892
31751
31549
31374
31298
31249
31271
31345
31412
31456
31606
31632
31655
31654
31653
31598
31569
31584
31685
31853
32100
32180
32215
32136
32116
32108
32069
32039
31946
31946
31928
31879
31821
31804
31751
31720
31740
31766
31808
31836
31871
31959
31986
32012
32019
32022
32090
32151
32229
32327
32326
32292
32276
32276
32196
32026
31802
31641
31580
31622
31740
31886
32036
32118
32197
32307
32391
32383
32295
32183
32028
31823
31543
31429
31308
31343
31436
31630
31806
31967
32151
32353
32566
32770
32881
32894
32820
32729
32683
32620
32452
32263
32030
31935
31887
31888
31901
32022
32103
32177
32249
32352
32423
32481
32519
32521
32492
32434
32340
32239
32157
32167
32167
32167
32198
32217
32103
31992
31919
31908
31873
31858
31863
31890
32015
32172
32357
32500
32616
32612
32535
32397
32306
32211
32140
32291
32371
32367
32389
32424
32501
32558
32564
32516
32476
32457
32439
32438
32399
32349
32284
32287
32450
32519
32543
32672
32756
32874
33004
33058
33068
33098
33073
33086
33100
33143
33207
33310
33309
33302
33252
33130
32877
32619
32477
32409
32439
32519
32612
32807
32959
33094
33082
33093
33167
33185
33220
33131
32925
32712
32524
32463
32393
32260
32110
31998
31956
31990
32059
32153
32227
32327
32284
32222
32295
32252
32284
32344
32364
32279
32202
32119
32030
31993
31987
32044
32207
32260
32366
32447
32488
32509
32629
32554
32357
32164
32092
31881
31943
31871
31997
31977
31935
32070
31903
32023
32078
32286
32423
32557
32612
32549
32570
32518
32358
32151
31951
31796
31751
31821
31845
31777
31687
31676
31652
31709
31836
31990
32175
32231
32295
32354
32391
32471
32494
32540
32454
32479
32439
32329
32170
32069
31957
31765
31612
31527
31547
31698
31822
31941
32043
32151
32235
32237
32210
32185
32234
32391
32540
32729
33064
33584
33955
34407
34926
35522
36260
37015
37778
38518
39120
39733
40364
41012
41477
41735
41600
41272
40314
39311
38249
36909
35672
34430
33151
32144
31479
30862
30612
30391
30350
30319
30274
30207
30156
30066
30094
30103
30123
30227
30350
30538
30671
30814
31098
31349
31595
31871
32031
32081
32132
32044
32159
32337
32370
32331
32229
32148
32044
31903
31791
31681
31574
31535
31556
31693
31834
31964
32159
32463
32639
32717
32734
32686
32491
32325
32161
31969
31764
31603
31404
31487
31508
31436
31408
31385
31444
31590
32035
32400
32661
32867
32974
32981
32967
32961
32987
32871
32623
32453
32391
32247
32175
32186
32164
32183
32223
32308
32390
32516
32614
32775
32886
32935
32918
33074
33148
33158
33092
33018
33071
33067
32981
32868
32731
32612
32424
32326
32380
32341
32310
32273
32317
32386
32580
32885
33125
33335
33454
33509
33444
33359
33394
33422
33390
33275
33214
33092
32869
32728
32687
32699
32830
32882
32967
32997
33031
33194
33341
33420
33333
33321
33372
33396
33447
33447
33484
33519
33431
33302
33414
33415
33441
33315
33383
33434
33254
33279
33077
33091
32999
32934
33209
33219
33468
33615
33854
33960
33905
33948
33823
33733
33581
33436
33454
33218
33178
33038
33052
32970
33032
33084
33120
33252
33359
33508
33759
34120
34423
34612
34857
34919
34673
34436
34183
33986
33845
33736
33663
33569
33639
33686
33799
33868
33879
33864
33877
34016
34118
34109
34204
34214
34324
34338
34340
34116
34093
33830
33772
33564
33500
33383
33270
33321
33364
33487
33568
33782
33996
34245
34303
34304
34367
34136
34030
33943
33879
33668
33639
33334
33154
32959
32810
32800
32700
32657
32636
32622
32567
32679
32700
32649
32579
32556
32578
32549
32501
32364
32151
31978
32007
31949
31918
31911
31933
31999
31951
32036
32116
32124
32119
32159
32135
32252
32212
32086
31769
31855
31571
31573
31316
31345
31328
31399
31265
31569
31657
31948
32103
32224
32290
32348
32436
32308
32468
32239
32342
32150
32181
32007
31937
31956
31866
32103
32105
32167
32299
32231
32188
32103
32068
32039
31975
31861
31708
31546
31428
31253
31090
31030
31110
31370
31596
31783
31975
32225
32387
32567
32726
32721
32708
32705
32667
32611
32564
32499
32348
32191
32034
31927
31823
31723
31599
31599
31612
31590
31579
31676
31772
31855
31978
32132
32282
32436
32511
32564
32595
32575
32583
32629
32629
32607
32557
32640
32734
32822
32881
32916
32860
32861
32768
32668
32454
32274
32167
31946
31804
31774
31818
31914
31964
31999
32046
32178
32362
32495
32744
32863
32921
33024
33111
33165
33117
33039
32868
32677
32486
32326
32156
32004
31919
31870
31911
32025
32231
32419
32606
32735
32888
32900
32943
32932
32940
32924
32836
32747
32683
32652
32649
32609
32662
32663
32646
32745
32766
32825
32895
32935
32964
33031
33262
33351
33415
33457
33402
33326
33233
33167
33084
33004
32872
32775
32698
32712
32734
32654
32575
32567
32590
32567
32562
32607
32764
32865
32891
32864
32775
32756
32660
32577
32489
32458
32338
32263
32270
32287
32387
32540
32439
32334
32303
32318
32341
32393
32464
32550
32545
32528
32578
32543
32464
32374
32427
32387
32404
32447
32398
32431
32437
32556
32660
32724
32736
32719
32664
32593
32532
32481
32423
32363
32482
32364
32274
32228
32231
32189
32219
32306
32339
32467
32582
32691
32756
32799
32845
32838
32751
32647
32558
32459
32381
32279
32181
32125
32172
32236
32273
32292
32279
32252
32276
32276
32239
32316
32284
32038
32030
32039
32048
31966
31847
31796
31791
31831
31999
32143
32322
32461
32655
32917
33357
33892
34540
35183
35815
36469
37032
37430
37988
38445
38887
39359
39708
40060
40554
41022
41412
41628
41428
40815
39920
38875
37780
36670
35544
34515
33629
32862
32198
31730
31425
31233
31055
30927
30842
30804
30847
30919
31012
31108
31218
31340
31454
31491
31528
31590
31716
31825
31867
31910
31953
32039
32114
32187
32341
32517
32681
32847
32975
33093
33201
33210
33213
33164
33104
33057
33055
33085
33031
32918
32756
32703
32691
32718
32836
32951
33099
33217
33313
33327
33335
33306
33257
33261
33343
33447
33422
33338
33221
33277
33202
33162
33127
33079
32962
33109
33243
33409
33569
33687
33770
33719
33927
33756
33694
33471
33543
33420
33269
33271
33038
33126
33015
33147
33125
33302
33390
33519
33636
33683
33716
33879
33855
33786
33717
33687
33694
33607
33428
33260
33119
33015
32943
32924
32928
33034
33263
33520
33669
33846
33997
34023
33983
33927
33876
33847
33782
33604
33359
33181
33057
33177
33269
33471
33549
33687
33919
34295
34481
34559
34607
34519
34276
34310
33991
34021
33941
33759
33883
33702
33775
33807
33638
33721
33799
33610
33935
33914
34204
34266
34374
34392
34415
34491
34573
34536
34429
34460
34391
34286
34218
34082
33937
33799
33727
33845
33985
34242
34383
34287
34324
34495
34500
34404
34396
34603
34645
34613
34526
34459
34345
34285
34172
34142
34223
34311
34565
34687
34623
34502
34423
34373
34365
34364
34353
34462
34699
34854
34938
35014
35057
35049
35023
35004
34981
34967
34944
34942
34951
34960
34975
35060
35095
35129
35100
34983
34812
34511
34468
34393
34320
34311
34248
34153
34175
34128
34160
34171
34296
34239
34170
34143
34138
34023
33944
33799
33639
33470
33311
33116
32972
32903
32900
32860
32865
32898
32946
33020
33287
33351
33359
33415
33436
33414
33341
33237
33039
32924
32848
32757
32706
32747
32572
32464
32393
32181
32326
32479
32642
32872
33137
33216
33169
33428
33412
33530
33438
33442
33321
33212
33100
32881
32958
32733
32754
32535
32562
32375
32568
32461
32745
32772
32748
32973
32942
33119
32956
33047
32722
32852
32753
32731
32700
32565
32797
32826
32966
32959
32994
33014
33030
33184
32908
32954
32723
32751
32535
32567
32428
32290
32188
32183
32238
32427
32604
33045
33142
33520
33466
33668
33632
33518
33324
33140
33067
32919
32928
32697
32795
32558
32736
32660
32627
32609
32487
32525
32534
32748
32824
32966
33074
33167
33287
33371
33314
33479
33372
33373
33253
33215
33079
32951
32880
33020
33052
33110
33173
33066
33062
32893
32893
32688
32664
32148
32130
32019
32254
32197
32382
32365
32405
32546
32724
33082
33203
33687
33735
33888
33700
33775
33499
33456
33191
33176
33004
33165
33021
33219
33077
33213
32985
33094
32841
33006
32902
33122
33075
33341
33186
33435
33308
33447
33252
33374
33223
33324
33255
33372
33214
33374
33175
33346
33159
33351
33271
33425
33282
33582
33618
33607
33562
33810
33703
33873
33677
33799
33517
33663
33418
33487
33176
33302
32999
33010
32775
32895
32730
32960
32830
33120
33332
33498
33730
33702
33888
33695
33662
33304
33319
33051
33052
32838
32828
32660
32422
32580
32411
32615
32648
32558
32730
32598
32713
32775
32530
32709
32647
32760
32903
33075
33122
33274
33303
33236
33048
32812
32576
32524
32400
32444
32594
32879
33108
33296
33542
33727
33757
33896
33864
33474
33382
33271
33210
33121
33063
32921
32817
32708
32625
32656
32725
32826
32911
33010
33109
33165
33213
33320
33423
33437
33428
33372
33314
33252
33282
33294
33219
33100
33029
32940
32868
32824
32749
32719
32663
32644
32583
32542
32667
32594
32481
32367
32390
32524
32612
33210
33820
34392
35142
35950
36743
37578
38254
38813
39284
39719
40116
40558
40967
41402
41745
42031
42190
42089
41718
41098
40250
39244
38203
37149
36088
35079
34186
33364
32649
32148
31735
31449
31351
31224
31179
31088
31084
31167
31354
31590
31897
32182
32436
32618
32770
32914
32948
32860
32842
32871
32850
32728
32652
32547
32417
32326
32271
32364
32508
32719
32938
33284
33602
33669
34049
34033
34182
34122
33879
33839
33679
33548
33392
33303
33229
33126
33111
33099
33154
33252
33551
33679
33767
33825
33845
33886
33955
34004
33975
33910
33814
33679
33486
33252
33135
33162
33350
33450
33460
33409
33380
33344
33388
33414
33420
33428
33428
33476
33540
33590
33599
33738
33708
33670
33618
33537
33586
33694
33845
34037
34240
34350
34188
33930
33740
33685
33574
33455
33300
33126
33099
33164
33204
33140
33262
33295
33300
33310
33546
33791
33902
33942
34046
34239
34348
34572
34727
34823
34874
34852
34796
34526
34180
33866
33638
33549
33474
33515
33580
33628
33700
33848
34037
34108
34186
34278
34375
34476
34534
34630
34699
34663
34588
34526
34475
34448
34439
34461
34476
34534
34618
34654
34702
34692
34708
34737
34698
34663
34573
34533
34477
34434
34388
34470
34524
34532
34567
34569
34492
34394
34360
34438
34430
34378
34463
34522
34620
34689
34823
35087
35167
35127
35044
34922
34874
34853
34895
34876
34788
34789
34886
34972
35072
35207
35397
35501
35716
35673
35768
35671
35617
35452
35236
35052
34984
34927
34918
34929
34929
34966
35062
35198
35165
35151
35013
34834
34748
34708
34673
34660
34641
34622
34458
34270
34120
34212
34311
34054
33937
33940
33854
33806
33797
33874
33900
33770
33940
33934
33966
33716
33724
33421
33336
33103
32981
32798
32638
32614
32735
32890
33020
33228
33410
33588
33745
33825
33766
33702
33674
33601
33451
33292
33165
33052
32949
32959
32942
32980
33043
33009
32922
32796
32728
32724
32754
32614
32532
32446
32356
32220
32089
32160
32365
32428
32500
32685
32899
33158
33356
33639
33820
33844
33711
33511
33302
33175
33079
32999
32988
32962
32993
32960
32974
32963
33028
33127
33172
33135
33097
33088
33144
33278
33349
33437
33444
33354
33339
33248
33132
33062
33012
33003
32951
32876
32799
32760
32806
32850
32889
32916
32967
33047
33073
33103
33140
33159
33073
32826
32550
32370
32314
32341
32409
32494
32641
32954
33279
33564
33780
33863
33855
33758
33705
33662
33659
33588
33465
33374
33255
33089
33007
32962
32959
32919
32855
32876
32945
33074
33140
33255
33412
33453
33421
33350
33236
33082
32949
32868
32786
32697
32639
32658
32749
32767
32858
33062
33382
33588
33568
33495
33525
33564
33575
33519
33445
33359
33164
33119
33067
33018
32990
32853
32678
32500
32432
32356
32359
32479
32620
32724
32892
33074
33231
33349
33420
33406
33431
33487
33572
33614
33572
33540
33442
33377
33340
33335
33351
33393
33395
33394
33397
33428
33483
33579
33647
33725
33756
33725
33649
33518
33407
33260
33107
32945
32911
32832
32775
32862
32914
33047
33164
33311
33383
33519
33535
33596
33606
33502
33414
33192
33040
32901
32826
32721
32703
32692
32707
32695
32605
32600
32646
32669
32669
32622
32519
32562
32564
32581
32574
32534
32455
32395
32351
32451
32475
32487
32384
32304
32257
32193
32135
32095
32022
31910
31785
31658
31550
31480
31487
31601
31779
32070
32332
32356
32346
32458
32514
32519
32492
32545
32628
32791
32992
33139
33167
33086
33074
33007
33005
33012
32981
32914
32836
32703
32573
32364
32278
32160
32020
31871
31819
31684
31567
31614
31751
31782
31815
31855
31987
32050
32080
32134
32208
32231
32290
32522
32807
33281
33919
34626
35424
36184
36902
37503
38104
38711
39299
39742
40101
40455
40735
40911
40897
40612
40130
39407
38550
37604
36589
35583
34511
33597
32874
32344
31932
31713
31536
31462
31476
31247
31042
30721
30405
30137
30029
29952
30138
30319
30644
30993
31314
31565
31780
32109
32372
32381
32437
32444
32383
32349
32399
32467
32527
32457
32415
32343
32348
32281
32218
32214
32511
32696
32814
32918
32971
33103
33076
32942
32892
32806
32745
32692
32634
32596
32418
32194
32119
32216
32330
32449
32574
32705
32866
32980
33186
33343
33428
33443
33359
33273
33178
33011
32962
32939
32900
32932
32969
32999
33022
33053
33071
33125
33116
32948
32814
32741
32855
32951
32891
32847
32855
32954
33088
33258
33327
33407
33479
33657
33764
33850
33876
33902
33845
33791
33710
33637
33548
33365
33151
32942
32662
32420
32384
32412
32356
32476
32743
33116
33497
33874
34232
34522
34676
34669
34560
34348
34076
33772
33537
33285
33228
33128
33036
33094
33251
33319
33423
33588
33767
33879
34018
34120
34210
34279
34311
34258
34094
33893
33784
33655
33540
33484
33446
33598
33663
33739
33786
33844
33909
33967
34066
34196
34270
34263
34237
34217
34126
34090
34112
34128
34190
34271
34364
34335
34250
34142
34086
34100
34055
34100
34238
34328
34235
34172
34311
34356
34439
34505
34572
34586
34537
34427
34369
34357
34311
34161
34188
34231
34334
34366
34522
34574
34622
34670
34749
34779
34836
34927
35010
34991
34783
34447
34148
33924
33747
33682
33817
33991
34202
34398
34614
34851
35070
35170
35183
35039
34903
34759
34570
34342
34124
33911
33702
33481
33330
33221
33174
33199
33388
33442
33532
33535
33476
33501
33532
33532
33443
33287
33031
32861
32744
32603
32478
32436
32281
32119
31969
31871
31797
31772
31764
31871
31977
32066
32183
32316
32398
32496
32551
32486
32426
32334
32293
32247
32234
32206
32247
32170
32040
31988
31806
31675
31495
31466
31618
31745
31897
32149
32377
32583
32746
32764
32679
32564
32499
32542
32530
32498
32396
32341
32335
32244
32126
32076
32118
32257
32327
32361
32324
32310
32247
32145
32024
32070
32132
32064
31845
31975
32007
32012
32055
32059
32063
31976
31903
31934
31940
31951
31954
31924
32030
32066
32039
31944
31897
31927
31994
31977
31968
32007
32068
31998
32000
32007
31999
32007
32091
32252
32372
32431
32427
32359
32249
32137
32172
32302
32367
32351
32412
32453
32501
32444
32396
32310
32147
31996
31920
31878
31812
31857
31935
32157
32222
32246
32202
32170
32215
32181
32262
32260
32402
32327
32588
32450
32677
32602
32508
32636
32359
32421
32381
32135
32164
32068
32041
32028
32093
32190
32263
32333
32396
32440
32533
32575
32610
32670
32599
32436
32358
32308
32239
32204
32087
32090
32147
32249
32412
32487
32614
32721
32764
32839
32877
32927
33087
33146
33126
33126
33159
33223
33292
33235
33106
32932
32732
32547
32453
32391
32279
32172
32126
32092
32170
32196
32229
32300
32367
32440
32513
32589
32577
32463
32375
32250
32148
32135
32087
32041
31975
31952
31956
31950
31919
31854
31802
31906
31948
32031
32143
32172
32178
32116
32007
31896
31916
32058
32159
32095
32071
32132
32052
32158
32271
32309
32331
32364
32363
32316
32315
32228
32143
32007
31916
31894
31760
31623
31576
31615
31804
32024
32159
32162
32204
32231
32216
32144
31992
31850
31785
31748
31810
31778
31765
31700
31652
31663
31767
31851
31946
31974
31992
31950
31925
31845
31716
31492
31446
31274
31205
31181
31150
31159
31205
31256
31276
31303
31399
31574
31750
31982
32158
32535
33019
33580
34191
34805
35439
36037
36639
37140
37633
38071
38487
38890
39421
39972
40423
40789
40812
40647
40236
39620
38684
37632
36626
35584
34342
33303
32318
31420
30847
30386
30140
30012
29991
29962
29953
29854
29870
29938
30162
30245
30351
30404
30498
30529
30666
30644
30690
30787
30906
30999
31052
31033
31007
31084
31217
31457
31783
32068
32239
32401
32573
32600
32601
32621
32607
32618
32596
32500
32357
32173
31999
31895
31730
31655
31569
31462
31367
31412
31524
31569
31590
31598
31717
31982
32182
32286
32385
32478
32508
32533
32620
32615
32644
32673
32594
32494
32416
32258
32151
31940
31685
31623
31715
31861
31906
31908
32022
32202
32285
32404
32444
32430
32400
32410
32271
32246
32227
32231
32229
32290
32449
32566
32529
32519
32702
32775
32860
32934
33030
33092
33031
32941
32842
32807
32808
32870
32836
32723
32753
32794
32892
32944
32936
32893
32998
32999
32903
32856
32825
32774
32722
32622
32543
32598
32724
32756
32891
32904
32972
33062
33247
33280
33220
33159
33120
33051
32893
32775
32641
32583
32588
32684
32841
32961
33194
33171
33239
33265
33265
33193
33108
33100
33079
33108
33126
33183
33223
33314
33426
33482
33475
33429
33525
33481
33406
33468
33506
33535
33595
33663
33729
33735
33758
33794
33751
33709
33655
33572
33471
33378
33342
33315
33365
33454
33476
33506
33562
33687
33810
33895
33864
33830
33861
33859
33858
33905
33892
33999
33983
33912
33836
33735
33637
33606
33604
33553
33486
33407
33274
33132
32999
32954
32862
32759
32775
32823
32824
32932
33011
33150
33270
33460
33525
33399
33098
33001
32754
32791
32433
32414
32268
32161
32170
32045
31950
31924
31657
31728
31869
31782
31836
31909
31906
31916
32007
32076
32042
32012
31996
31910
31740
31653
31592
31503
31394
31298
31183
31036
30900
30546
30375
30278
30249
30275
30437
30532
30599
30796
30885
31062
31206
31379
31508
31526
31534
31585
31577
31492
31367
31212
31076
30943
30813
30709
30671
30645
30660
30715
30827
30823
30868
30933
30946
30796
30752
30844
30954
31012
31028
30961
30877
30767
30735
30838
31015
31301
31484
31504
31462
31405
31398
31367
31390
31364
31256
31186
31108
31060
31023
30989
30887
30823
30887
31007
31060
31046
31055
31084
31194
31226
31209
31174
31141
31173
31210
31188
31172
31221
31299
31517
31575
31645
31836
31831
31693
31616
31645
31632
31621
31505
31323
31155
31226
31361
31711
31877
31916
31943
31889
31732
31642
31618
31550
31420
31315
31332
31422
31557
31684
