ECG
33073
32911
32919
32772
32806
32865
32708
32800
32804
32894
32955
33028
33103
32983
33060
33135
33207
33029
33032
33196
33040
32901
32926
32796
32694
32908
32724
32788
32771
32871
32749
32839
32925
32828
32929
32929
33031
32967
32828
32868
32922
32785
32641
32745
32495
32516
32701
32486
32519
32619
32698
32621
32631
32757
32622
32653
32716
32591
32587
32599
32646
32465
32396
32466
32338
32322
32396
32436
32348
32284
32467
32381
32459
32534
32625
32462
32420
32607
32423
32350
32422
32507
32364
32242
32384
32226
32198
32365
32320
32428
32605
32607
32712
32983
32932
32911
33109
32996
33031
33126
33007
33079
33197
33116
33095
33074
32966
33071
33142
33158
33086
33083
33253
33110
33213
33245
33276
33149
33093
33150
32951
32909
32852
32911
32701
32625
32788
32668
32570
32748
32612
32593
32791
32816
32676
32631
32691
32685
32500
32447
32595
32427
32349
32416
32420
32287
32319
32365
32429
32260
32295
32279
32435
32452
32353
32357
32390
32500
32328
32364
32274
32373
32377
32206
32182
32151
32259
32242
32275
32357
32255
32323
32453
32527
32411
32446
32492
32631
32652
32449
32411
32488
32476
32400
32391
32431
32495
32364
32428
32375
32292
32406
32415
32326
32066
31958
31828
31715
31625
31343
31396
31284
31216
31237
31188
30911
30821
30756
30853
30949
31083
31119
31548
32065
32906
33758
34660
35879
37117
38613
40214
42145
43913
45366
46858
48150
49295
49924
50048
49948
49716
49331
48647
47847
46846
45575
44084
42698
41182
39343
37551
35604
34084
32839
32345
32046
31941
32036
31796
31844
31847
31875
31852
31652
31667
31605
31735
31788
31628
31652
31581
31622
31595
31524
31239
31097
30977
30942
30781
30727
30695
30870
30937
30838
30919
30871
30977
30969
30831
30854
30842
30922
30708
30668
30684
30664
30779
30612
30713
30706
30891
30790
30883
30948
31029
30918
30977
31060
31135
31020
31016
31031
30911
30896
30962
30809
30788
30937
30823
30931
31063
30985
31055
31207
31172
31245
31332
31223
31238
31324
31239
31272
31330
31197
31227
31289
31181
31248
31371
31277
31367
31472
31598
31548
31599
31745
31648
31596
31723
31747
31623
31628
31711
31732
31562
31590
31590
31709
31776
31642
31735
31838
31975
31975
31972
32112
32051
32103
32131
32108
32122
32181
32036
32058
32107
31959
32040
32127
32051
32100
32276
32177
32273
32386
32487
32369
32356
32481
32359
32358
32399
32468
32293
32327
32385
32377
32221
32295
32403
32269
32300
32391
32528
32410
32513
32567
32378
32377
32356
32553
32394
32407
32301
32390
32159
32095
32136
32320
32159
32210
32276
32349
32235
32311
32351
32396
32207
32273
32199
32177
32152
31943
31892
31935
31919
31668
31637
31601
31620
31663
31695
31660
31567
31595
31610
31660
31681
31484
31487
31420
31425
31386
31153
31124
31087
31144
31028
30975
30974
30965
30897
30952
31014
31046
30856
30961
30934
31056
30885
30898
30898
30916
30774
30793
30768
30779
30807
30711
30736
30831
30932
30837
30965
31068
31183
31093
31151
31172
31282
31139
31151
31163
31220
31106
31159
31150
31248
31179
31242
31341
31460
31364
31430
31655
31607
31668
31781
31828
31722
31716
31853
31676
31645
31782
31663
31679
31740
31652
31668
31876
31804
31877
32100
32037
32100
32207
32127
32162
32234
32340
32231
32198
32334
32214
32244
32329
32221
32135
32377
32296
32381
32596
32535
32545
32676
32565
32638
32589
32747
32806
32667
32589
32722
32597
32589
32685
32564
32601
32495
32628
32740
32660
32775
32930
32884
32845
33054
32903
32988
32970
33062
32889
32900
32945
32816
32809
32806
32915
32808
32878
33103
33027
33046
33156
33030
33097
33134
33064
33132
33103
33148
33039
33017
33039
33100
32980
32869
33042
32961
32987
33088
33047
33121
33173
33269
33185
33231
33280
33343
33159
33115
33212
33077
32943
33015
32994
33005
33085
32881
32958
32977
33096
33015
33037
33075
33153
33001
33015
33007
33015
32956
32864
32837
32889
32731
32717
32804
32669
32710
32676
32868
32775
32844
32930
32843
32855
32999
32805
32748
32871
32707
32719
32671
32774
32620
32581
32696
32492
32455
32624
32537
32647
32694
32862
32737
32804
32900
33070
32954
32998
33087
33181
33020
32988
33132
33016
33068
33068
33246
33164
33232
33349
33241
33390
33388
33537
33404
33423
33415
33474
33287
33238
33252
33236
33056
32978
33078
32875
32884
32934
32988
32888
32878
33086
32957
32847
33004
32845
32817
32772
32834
32609
32620
32506
32556
32418
32380
32446
32502
32330
32396
32529
32433
32526
32596
32659
32487
32466
32485
32508
32351
32308
32276
32340
32165
32151
32223
32263
32127
32167
32259
32373
32492
32343
32397
32506
32591
32489
32436
32577
32383
32417
32405
32490
32326
32332
32411
32510
32423
32353
32516
32407
32531
32591
32692
32572
32559
32569
32333
32234
32087
31985
31850
31530
31329
31220
30947
30951
30906
30916
30727
30748
30756
30743
30620
30711
30808
31116
31611
31940
32548
33397
34460
35548
36964
38418
40384
42062
43682
45586
47310
49204
50768
52039
52967
53348
53612
53255
52550
51612
50966
49780
48404
46933
45271
43496
41601
39412
37620
35431
33949
33126
32549
32228
32018
32024
31759
31685
31674
31479
31410
31410
31389
31239
31178
31236
31056
30953
30918
30679
30504
30479
30380
30236
30293
30321
30419
30282
30371
30342
30342
30350
30148
30180
30108
30157
30196
30073
30125
30141
30139
30263
30325
30431
30346
30415
30494
30514
30566
30411
30429
30372
30451
30426
30364
30404
30369
30390
30454
30340
30418
30447
30462
30623
30714
30654
30667
30721
30772
30806
30668
30668
30624
30727
30587
30556
30537
30674
30572
30597
30774
30701
30798
30916
30831
30912
30997
31055
30891
30937
30983
31023
30873
30839
30903
30989
30879
30900
30982
31046
30974
31044
31120
31247
31165
31295
31269
31290
31362
31269
31270
31234
31327
31405
31231
31279
31285
31394
31303
31327
31517
31422
31536
31622
31708
31633
31647
31788
31668
31627
31783
31627
31591
31612
31552
31569
31700
31561
31638
31782
31679
31732
31879
31770
31745
31935
31818
31833
31876
31900
31760
31781
31777
31736
31599
31690
31703
31591
31601
31684
31570
31612
31727
31649
31668
31708
31578
31611
31504
31623
31456
31446
31366
31437
31359
31315
31197
31336
31167
31165
31207
31263
31209
31175
31159
31246
31076
31089
31004
31103
31019
30912
30743
30775
30651
30634
30607
30615
30460
30458
30441
30505
30566
30449
30492
30514
30579
30439
30353
30403
30259
30253
30209
30245
30278
30147
30103
30186
30062
30172
30241
30332
30311
30386
30517
30409
30463
30524
30478
30527
30572
30365
30462
30630
30787
30713
30652
30804
30699
30807
30945
30910
31042
31167
31309
31191
31308
31293
31504
31407
31458
31511
31419
31533
31492
31631
31544
31655
31826
31751
31780
32010
31967
31979
32250
32167
32187
32380
32324
32223
32414
32298
32279
32456
32263
32312
32391
32515
32421
32394
32622
32537
32621
32604
32775
32852
32729
32676
32853
32858
32740
32748
32681
32817
32666
32676
32703
32818
32710
32631
32854
32948
32860
32917
32900
32908
33015
33076
32967
32950
33087
32903
32915
32991
33053
32916
32917
33039
32934
32985
33059
33193
33084
33077
33330
33165
33187
33268
33164
33135
33110
33239
33073
33039
33119
33021
33102
33131
33235
33287
33183
33086
33328
33231
33258
33365
33278
33252
33423
33287
33317
33398
33210
33285
33210
33100
33319
33169
33236
33380
33236
33284
33486
33327
33396
33280
33303
33397
33316
33346
33230
33209
33278
33196
33225
33308
33181
33276
33287
33230
33343
33231
33249
33364
33207
33219
33311
33156
33136
33191
33094
33108
33143
33265
33132
33061
33225
33228
33233
33109
33301
33211
33215
33303
33129
33094
33185
33071
33124
33096
33130
33316
33292
33406
33571
33540
33707
33689
33772
33889
33908
33913
33916
34064
33913
33850
33973
33780
33825
33751
33926
33842
33913
33970
34114
34196
34096
34159
34195
34245
34335
34141
34088
33961
34007
33715
33669
33553
33457
33582
33638
33499
33508
33642
33603
33729
33726
33991
33900
33831
34049
33807
33550
33611
33300
33227
33210
33058
32997
33031
32828
32814
33021
32966
33083
33287
33333
33461
33647
33510
33521
33460
33245
33122
33055
32807
32692
32630
32445
32318
32495
32433
32494
32815
32862
32924
33273
33212
33279
33359
33316
33191
33076
32823
32582
32460
32263
32103
32023
31980
31865
32004
31930
31950
31854
31788
31919
31676
31550
31333
31004
30887
30581
30441
30147
29955
29845
29542
29468
29479
29462
29568
29871
30268
30789
31592
32284
33379
34845
36287
38031
39710
41503
43455
45260
46946
49079
50569
51932
53119
53748
53750
53463
52952
52310
51356
50261
49073
47608
45762
43968
42315
40100
37496
35585
33684
32668
32024
31605
31375
31318
31099
31002
30942
31003
30888
30863
30921
30961
30771
30801
30765
30727
30432
30298
30231
30131
29956
29843
29792
29872
29890
29863
29791
29897
29955
29847
29862
29798
29871
29919
29919
29908
30065
30081
30022
30164
30062
30172
30244
30267
30237
30164
30215
30125
30174
30191
30263
30229
30201
30286
30316
30383
30418
30598
30611
30544
30670
30724
30673
30610
30684
30693
30557
30544
30437
30428
30481
30492
30482
30590
30669
30740
30743
30940
31104
31099
31062
31202
31223
31135
31101
31103
31142
30942
30869
30943
30829
30844
30935
31047
31071
31146
31234
31372
31393
31635
31636
31558
31668
31565
31530
31407
31508
31367
31297
31292
31180
31199
31276
31382
31347
31487
31583
31660
31772
31937
31925
31887
31942
31833
31879
31772
31719
31685
31642
31485
31327
31416
31458
31460
31418
31681
31738
31727
31952
31923
31991
32075
32124
32036
31831
31908
31879
31621
31447
31479
31483
31330
31301
31401
31548
31456
31590
31646
31900
31871
31897
31930
31846
31823
31759
31730
31536
31279
31295
30990
30951
30964
31012
30852
31022
31030
31140
31300
31418
31420
31437
31474
31257
31232
31163
31127
30900
30797
30678
30456
30362
30324
30159
30279
30405
30436
30476
30665
30792
30838
30772
30703
30746
30717
30607
30432
30407
30359
30137
30048
29975
30014
29957
29923
30123
30257
30274
30511
30620
30717
30751
30889
30990
30943
30828
30900
30682
30668
30643
30672
30623
30589
30758
30746
30842
31108
31366
31506
31650
31726
31918
32028
32022
32007
32020
32043
31951
31870
31879
31914
31797
31844
31942
32132
32149
32284
32480
32654
32707
32783
32975
32961
32976
32855
33004
32868
32816
32803
32886
32740
32711
32759
32900
32775
32891
32916
33175
33364
33415
33383
33438
33591
33487
33439
33553
33343
33277
33252
33279
33180
33170
33328
33268
33268
33368
33514
33454
33511
33711
33676
33515
33695
33585
33623
33716
33580
33543
33568
33451
33345
33495
33444
33303
33487
33422
33415
33679
33614
33492
33703
33589
33540
33681
33604
33440
33601
33429
33357
33446
33326
33225
33429
33348
33276
33486
33490
33446
33575
33516
33471
33571
33583
33447
33473
33446
33391
33500
33276
33315
33461
33346
33259
33434
33365
33287
33383
33375
33315
33533
33488
33315
33481
33369
33303
33447
33351
33250
33233
33285
33196
33087
33247
33204
33107
33229
33273
33324
33418
33292
33140
33272
33223
33230
33205
33295
33142
33131
33172
33031
33066
33127
33054
33028
33178
33108
33103
33239
33179
33194
33140
33077
33128
33216
32991
33173
33147
32991
33169
33109
33063
33247
33287
33215
33429
33496
33464
33586
33620
33590
33664
33724
33594
33844
33724
33671
33691
33595
33822
33767
33599
33755
33678
33586
33653
33687
33581
33671
33628
33450
33541
33535
33420
33415
33466
33268
33247
33339
33183
33031
33121
33214
33021
33026
33028
32959
32989
33039
32815
32921
32956
32871
32936
32917
32743
32857
32804
32678
32740
32741
32524
32676
32615
32530
32551
32668
32556
32632
32756
32631
32508
32711
32657
32501
32630
32513
32487
32553
32410
32464
32482
32359
32490
32606
32518
32459
32648
32612
32587
32759
32660
32630
32764
32694
32541
32639
32646
32519
32535
32558
32378
32303
32324
32127
31911
31943
31764
31448
31412
31395
31249
31061
31112
31090
30957
31020
30882
30595
30612
30619
30486
30668
31045
31428
32073
32906
33831
35031
36511
38010
39720
41536
43572
45438
47188
48791
50308
51286
51830
52140
51940
51492
50951
50276
49295
48270
46950
45300
43658
42098
40150
37959
36076
34404
33383
33073
32785
32462
32444
32375
32217
32012
31992
31962
31834
31787
31895
31915
31839
31866
31948
31879
31642
31623
31516
31226
31134
31054
30775
30756
30758
30668
30665
30791
30767
30630
30727
30855
30833
30686
30735
30750
30804
30758
30605
30675
30693
30736
30713
30669
30677
30687
30764
30641
30702
30794
30892
30899
30796
30860
31001
30983
30929
30953
31042
31029
30937
30931
30983
30950
30794
30925
30951
30874
30972
31095
31111
30983
31103
31225
31223
31063
31066
31213
31286
31087
31205
31311
31216
31220
31311
31255
31224
31363
31374
31300
31412
31587
31510
31468
31612
31701
31596
31682
31807
31696
31591
31685
31663
31543
31646
31701
31596
31772
31837
31738
31906
31979
31932
32006
32135
32154
31981
32141
32220
32081
32054
32176
31967
32068
32097
31918
32044
32086
31994
32219
32175
32207
32329
32247
32292
32407
32388
32294
32295
32379
32239
32248
32303
32241
32063
32151
32167
32063
32019
32148
32233
32098
32191
32277
32240
32167
32324
32292
32036
32052
32106
31906
31940
31983
31777
31791
31828
31669
31774
31703
31690
31853
31772
31837
31897
31780
31710
31735
31606
31529
31556
31315
31367
31255
31143
31185
31021
30972
31076
31014
30954
31053
31067
31003
30994
31043
31033
30935
30795
30808
30789
30770
30577
30567
30595
30538
30444
30526
30522
30471
30520
30560
30589
30706
30727
30642
30743
30742
30659
30678
30808
30647
30690
30788
30718
30688
30839
30839
30839
30986
31033
31020
31140
31249
31116
31130
31231
31187
31239
31319
31179
31268
31357
31201
31253
31375
31351
31312
31394
31454
31622
31651
31596
31794
31832
31703
31828
31874
31788
31867
32061
31962
31908
31956
32062
32092
31996
31971
32113
32306
32255
32236
32430
32535
32476
32519
32652
32647
32580
32536
32655
32726
32685
32500
32615
32695
32745
32669
32716
32873
32847
32807
32727
32958
33155
33086
33041
33060
33141
33148
33134
33146
33066
32887
32948
33040
33031
32887
33006
33146
33197
33202
33108
33212
33324
33356
33268
33100
33166
33159
33207
33138
33028
33117
33159
33015
32961
33076
33204
33116
33063
33183
33299
33204
33237
33325
33380
33311
33146
33302
33264
33093
32993
33085
33103
33023
32911
32958
33067
33039
32959
33149
33150
33038
33175
33196
32983
33127
33164
33039
32948
33093
33034
32860
32797
32900
32775
32770
32895
32831
32858
32995
32919
32949
33061
32973
32916
32999
32975
32806
32852
32861
32756
32567
32611
32775
32703
32602
32695
32737
32668
32686
32784
32901
32861
32768
32842
32895
32793
32613
32613
32725
32807
32847
32803
32853
32998
33004
32855
33034
33209
33117
33151
33412
33403
33302
33431
33581
33543
33444
33391
33470
33431
33212
33385
33359
33247
33222
33329
33311
33218
33226
33349
33285
33142
33268
33271
33098
33096
33159
33041
32828
32871
32917
32839
32620
32723
32759
32684
32574
32735
32748
32606
32743
32820
32703
32623
32705
32722
32711
32689
32625
32607
32455
32412
32431
32468
32390
32374
32455
32579
32450
32493
32508
32583
32625
32529
32687
32687
32463
32471
32604
32483
32391
32431
32527
32448
32310
32476
32595
32589
32478
32613
32780
32647
32664
32775
32754
32588
32634
32719
32612
32490
32506
32391
32223
32244
32050
31764
31751
31706
31559
31527
31644
31600
31512
31652
31637
31412
31391
31394
31276
31127
31191
31343
31492
31871
32601
33351
34100
35158
36434
37666
39060
41217
42910
44316
45615
46855
47686
48095
47962
47894
47391
46684
45935
45368
44378
43176
41863
40598
39038
37422
35574
34022
32868
32220
32037
32198
32390
32375
32180
32213
32190
32058
31852
31751
31735
31751
31698
31637
31791
31924
31932
31839
31901
32047
31902
31795
31736
31543
31399
31282
31230
31211
31037
31010
31076
31076
31017
31083
31191
31140
31239
31408
31277
31292
31356
31399
31287
31138
31193
31277
31172
31156
31192
31121
31074
31174
31291
31238
31311
31420
31465
31359
31434
31546
31476
31391
31552
31532
31349
31399
31443
31312
31279
31356
31348
31235
31372
31526
31495
31591
31770
31799
31747
31918
31908
31743
31860
31911
31741
31652
31783
31775
31652
31699
31813
31809
31707
31877
32026
31997
31978
32156
32259
32182
32104
32236
32271
32145
32130
32177
32212
32204
32101
32107
32160
32240
32186
32148
32287
32461
32431
32463
32616
32564
32473
32637
32647
32542
32522
32587
32485
32327
32391
32455
32393
32514
32629
32639
32559
32700
32852
32813
32785
32957
32860
32704
32890
32697
32855
32768
32679
32745
32575
32661
32596
32597
32645
32617
32748
32608
32805
32799
32724
32814
32628
32816
32755
32554
32694
32495
32487
32436
32299
32451
32253
32308
32391
32134
32343
32237
32323
32316
32239
32257
32188
32288
32102
32113
31983
31860
31821
31604
31708
31596
31535
31606
31399
31548
31528
31461
31527
31368
31527
31500
31390
31514
31271
31261
31319
31135
31228
31058
31031
31044
30917
31016
31103
30952
31162
31236
31199
31350
31243
31398
31268
31444
31394
31367
31400
31239
31354
31343
31239
31349
31285
31389
31394
31387
31489
31500
31636
31533
31732
31739
31751
31808
31652
31700
31715
31632
31552
31609
31553
31525
31571
31428
31584
31668
31611
31815
31751
31903
31901
31955
31969
31854
32039
31917
31906
31935
31807
31831
31903
31833
31844
31799
32039
32039
31962
32188
32252
32263
32391
32327
32420
32455
32512
32449
32380
32351
32396
32476
32393
32407
32423
32428
32450
32599
32771
32716
32806
32773
32875
32966
32935
32958
32871
32692
32828
32916
32836
32812
32775
32804
32843
32791
32827
32906
32865
32876
32967
33132
33107
33068
33097
33175
33086
33031
33050
33115
32998
32820
32980
32911
32791
32985
32936
32910
32978
33123
33063
32993
33159
33241
33151
32930
33056
32998
32934
32794
32845
32815
32775
32648
32626
32757
32860
32733
32806
32837
32923
32847
32842
32871
32908
32856
32754
32813
32676
32510
32621
32439
32431
32454
32527
32462
32455
32375
32580
32590
32646
32551
32599
32681
32580
32629
32609
32482
32426
32436
32239
32278
32348
32285
32316
32407
32388
32380
32513
32660
32686
32726
32901
32930
32904
32782
32906
32927
32855
32739
32889
32999
32940
32869
33002
33073
33036
33020
33199
33219
33212
33270
33339
33212
33166
33116
33211
33123
33006
32867
32863
32900
32661
32647
32639
32727
32644
32522
32660
32579
32623
32679
32764
32671
32495
32600
32426
32431
32469
32486
32340
32277
32271
32250
32293
32363
32335
32204
32386
32258
32341
32281
32421
32487
32407
32359
32467
32325
32281
32354
32213
32251
32148
32130
32214
32319
32184
32143
32157
32410
32526
32617
32655
32574
32454
32645
32447
32496
32497
32548
32494
32447
32375
32340
32385
32444
32423
32391
32501
32574
32481
32322
32406
32240
32078
31830
31825
31582
31511
31410
31402
31407
31276
31239
31230
31093
31063
31174
31273
31332
31421
31580
32073
32582
33204
33812
34809
35836
36764
38079
39399
41300
43006
44252
45338
46182
46924
47255
47062
46647
46023
45700
45088
44136
43143
42023
40789
39185
37668
36045
34290
32954
32007
31618
31665
31711
31956
32111
32090
32089
32144
31934
31844
31896
31799
31790
31751
31872
31733
31775
31810
31751
31658
31686
31686
31545
31396
31437
31476
31335
31224
31409
31340
31404
31454
31502
31365
31255
31357
31417
31280
31226
31266
31214
31073
31180
31225
31180
31213
31376
31394
31317
31479
31402
31479
31588
31546
31408
31476
31274
31321
31326
31359
31239
31318
31274
31306
31397
31533
31503
31575
31559
31701
31758
31709
31687
31740
31773
31630
31612
31655
31693
31566
31519
31559
31623
31625
31702
31863
31785
31876
32003
32095
32076
32015
32188
32100
32039
32165
32062
31938
32100
31906
31914
32075
32033
32036
32207
32103
32205
32329
32473
32373
32454
32554
32445
32391
32529
32402
32378
32420
32548
32359
32286
32474
32391
32390
32556
32509
32646
32574
32611
32879
32766
32724
32916
32782
32804
32884
32726
32700
32826
32682
32571
32710
32579
32614
32710
32701
32668
32914
32884
32835
32981
32899
32887
32932
32904
32764
32615
32729
32686
32607
32572
32552
32500
32436
32621
32496
32549
32543
32652
32604
32567
32594
32661
32481
32452
32276
32261
32242
32290
32121
32004
32017
31882
31902
31939
32014
31927
31830
31936
31846
31879
31796
31911
31698
31573
31653
31445
31409
31361
31385
31156
31154
31099
31253
31169
31148
31253
31309
31268
31300
31283
31237
31264
31158
31162
31176
31121
31069
30975
31023
31094
31000
30935
31066
31109
31102
31151
31322
31476
31389
31426
31502
31564
31441
31431
31590
31391
31401
31447
31508
31340
31399
31458
31501
31500
31495
31646
31780
31739
31716
31946
31846
31810
31854
31746
31723
31775
31851
31676
31671
31801
31705
31654
31858
31812
31908
32060
32118
32247
32154
32257
32402
32311
32310
32471
32326
32341
32287
32276
32287
32374
32231
32286
32351
32474
32391
32555
32698
32822
32791
32767
32932
32825
32827
32885
32749
32844
32736
32690
32887
32756
32747
32665
32750
32945
32837
32961
33123
33063
33115
33183
33172
33150
33204
33295
33135
33119
33191
33052
33048
32972
32972
33088
32998
32975
33236
33151
33143
33378
33263
33332
33399
33314
33327
33265
33390
33181
33185
33239
33088
32985
33156
32999
33040
33159
33119
33173
33300
33230
33194
33383
33198
33222
33255
33324
33135
32982
33122
32956
32942
32931
32785
32884
32798
32839
33046
32924
32958
33092
32984
33036
33073
32977
32990
33045
32830
32710
32744
32668
32671
32745
32566
32581
32692
32619
32703
32787
32710
32797
32964
32912
32905
33141
33020
33062
33163
33046
33094
33132
32969
33018
33037
33191
33142
33039
33306
33271
33363
33439
33569
33485
33404
33593
33382
33286
33415
33244
33219
33120
33197
32980
32916
33110
32951
32833
33011
32895
32955
33046
33148
32999
32985
33047
32852
32815
32747
32612
32452
32495
32547
32340
32308
32288
32401
32356
32426
32433
32615
32556
32556
32548
32624
32423
32444
32404
32479
32303
32225
32235
32292
32191
32152
32255
32110
32174
32302
32422
32416
32348
32526
32436
32439
32644
32475
32464
32519
32423
32328
32462
32303
32305
32228
32356
32317
32391
32461
32602
32566
32583
32767
32646
32664
32680
32545
32446
32388
32137
31974
31781
31679
31372
31181
31197
31045
31103
31105
31229
31153
31119
31108
30950
30886
31029
31026
31300
31759
32183
32791
33652
34519
35692
37150
38567
40161
42021
43716
45189
46872
48090
48829
49959
50126
50078
49695
48970
48229
47308
46116
44935
43388
41636
40493
38772
37311
35372
33775
33035
32383
32231
32039
31994
31884
31916
31727
31661
31590
31321
31376
31420
31410
31304
31281
31215
31295
31397
31455
31298
31259
31002
31068
31001
31071
30917
30943
30986
30837
30863
30869
30878
30735
30763
30799
30656
30708
30713
30855
30913
31023
31119
31044
31114
31199
31090
31095
31124
31146
31014
31012
31029
30894
30878
30938
30820
30886
30995
30936
31021
31158
31086
31108
31266
31222
31255
31356
31239
31230
31286
31184
31185
31250
31127
31047
31135
31175
31206
31190
31400
31390
31585
31503
31526
31660
31568
31575
31471
31524
31564
31431
31487
31495
31412
31423
31557
31426
31479
31750
31687
31749
31877
31870
31967
32068
31945
31918
32055
31892
31853
31981
31840
31748
31884
31751
31773
31953
31837
31913
32030
31974
32050
32213
32109
32156
32380
32263
32318
32144
32188
32231
32087
32079
32062
31934
31895
32153
32089
32156
32338
32227
32251
32511
32370
32419
32373
32514
32401
32339
32332
32187
32216
32050
32015
32060
31924
31879
32062
31958
32077
32247
32183
32140
32358
32244
32198
32232
32077
31948
32081
31886
31687
31712
31380
31412
31542
31509
31454
31388
31589
31553
31528
31626
31551
31551
31590
31430
31316
31350
31361
31233
31139
31011
30820
30863
30787
30372
30246
30373
30452
30632
30805
30677
30655
30743
30842
30739
30713
30746
30543
30566
30555
30555
30418
30362
30471
30319
30431
30545
30650
30572
30727
30907
30825
30875
30785
30882
30888
30952
30878
30896
30927
30751
30806
30927
30885
30970
30844
31067
31230
31165
31346
31463
31531
31502
31551
31654
31740
31556
31556
31586
31624
31421
31471
31489
31602
31533
31633
31785
31743
31914
32060
32178
32196
32204
32370
32234
32212
32199
32014
32072
32135
31935
32023
32007
32174
32091
32217
32348
32501
32324
32436
32519
32541
32634
32708
32792
32660
32694
32600
32711
32580
32596
32682
32554
32584
32747
32606
32621
32871
32813
32854
33105
32973
33020
33140
32967
32716
32647
33052
32983
32900
32966
32732
32728
32773
32893
32725
32775
33023
32930
33095
33124
33234
33111
33183
33311
33159
33157
33205
32972
32903
32908
32840
32821
32887
32775
32751
32916
32903
33059
33087
33167
33278
33175
33126
33106
33276
33090
33036
33050
32836
32734
32832
32582
32596
32684
32624
32680
32749
32921
32964
33030
33089
32934
32936
32974
33084
32908
32877
32871
32652
32595
32618
32653
32474
32494
32582
32509
32583
32741
32678
32820
32965
32875
32857
32908
32973
32796
32746
32908
32767
32736
32775
32693
32692
32839
32992
32903
32959
33213
33286
33371
33405
33508
33655
33500
33479
33492
33492
33299
33184
33261
33046
33012
33028
32887
32909
32879
33060
33015
33156
33135
33296
33116
33061
33074
33022
32843
32828
32797
32671
32688
32654
32430
32436
32359
32373
32431
32567
32678
32572
32609
32727
32682
32631
32540
32708
32700
32492
32391
32341
32356
32186
32114
32122
31965
32085
32166
32375
32318
32493
32475
32551
32544
32511
32721
32550
32483
32482
32380
32440
32282
32286
32172
32085
32071
32174
32348
32371
32492
32632
32569
32798
32770
32746
32914
32740
32764
32562
32542
32533
32237
32199
31967
31806
31726
31655
31674
31442
31485
31318
31410
31295
31266
31148
31127
30999
30669
30615
30515
30492
30602
30928
31391
31958
32828
33705
35055
36468
38081
40316
42106
43972
46119
47908
49773
51332
52618
53812
54279
54380
53919
53340
52519
51533
50501
49068
47684
45919
44232
42742
40615
38534
36166
34575
33600
32942
32547
32354
32171
31847
31706
31552
31495
31255
31212
31288
31157
31209
31266
31319
31362
31125
31119
30950
30796
30767
30463
30376
30305
30378
30336
30057
30000
30041
30068
30050
29900
29928
30126
30261
30215
30191
30230
30254
30377
30402
30274
30237
30343
30215
30215
30013
30023
30196
30089
30223
30135
30290
30533
30514
30679
30635
30714
30708
30751
30842
30675
30599
30663
30526
30512
30372
30395
30486
30362
30481
30380
30596
30936
30975
31131
30869
30440
30431
30526
30319
30484
30532
30385
30542
30620
30663
30788
30783
30959
30839
30999
31093
31268
31239
31329
31449
31542
31410
31428
31468
31526
31335
31339
31349
31333
31345
31180
31262
31293
31399
31535
31521
31614
31695
31844
31713
31805
31848
31932
31798
31783
31767
31705
31630
31609
31529
31583
31618
31543
31508
31794
31708
31779
31900
32244
31997
31788
31837
31669
31864
31986
32023
31908
31889
31879
31667
31591
31748
31587
31596
31716
31689
31694
31717
31829
31950
31877
31918
31796
31778
31798
31607
31519
31475
31255
31255
31159
31277
31124
31164
31281
31354
31246
31316
31432
31396
31359
31357
31151
31144
31118
31034
30855
30774
30649
30607
30567
30574
30509
30371
30508
30353
30502
30548
30575
30654
30478
30518
30565
30455
30389
30388
30170
30110
30148
29987
29940
30016
29838
29861
29985
29927
30104
30171
30276
30271
30339
30399
30439
30463
30351
30460
30281
30342
30351
30428
30300
30274
30450
30478
30499
30630
30842
30810
30983
31104
31228
31164
31231
31335
31280
31271
31262
31308
31157
31221
31261
31335
31293
31444
31461
31600
31747
31868
32042
32121
32076
32196
32076
31988
32040
32098
31985
32044
32220
32167
32169
31969
32163
32191
32363
32528
32702
32740
32806
32855
33047
32999
33051
32944
33081
32933
32933
32876
32837
32732
32695
32575
32660
32871
32810
32943
32919
33146
33268
33359
33223
33183
33287
33429
33220
33167
33087
33167
32965
32935
33036
32927
32860
32738
32991
33099
32972
33016
32692
32791
33191
33331
33393
33331
33349
33391
33392
33375
33124
33098
32986
33038
33149
33052
33060
33097
33072
33255
33191
33382
33403
33435
33300
33337
33364
33353
33229
33339
33143
33006
32937
33123
32998
33054
33182
33420
33287
33302
33060
33148
33153
33223
33375
33246
33345
33419
33060
32980
32965
33058
32918
32978
32963
33039
33169
33077
33089
33276
33394
33428
33301
33283
33318
33269
33180
32951
32775
32822
32602
32533
32715
32626
32591
32417
32655
32940
32996
33252
33646
33610
33667
33798
33652
33530
33785
33698
33557
33783
33711
33601
33662
33430
33114
32975
33199
33368
33428
33405
33711
33698
33780
33832
33874
33759
33598
33690
33500
33335
33442
33270
33199
33256
33081
33165
33188
33190
33385
33256
33188
33281
33111
32775
32948
32902
32756
32906
32880
32815
33030
32826
32775
32893
32838
32693
32901
32790
32786
33014
32966
33031
33077
32652
32556
32509
32590
32638
32523
32318
32469
32644
32580
32431
32590
32598
32471
32549
32671
32797
32762
32712
32871
32879
32736
32765
32869
32637
32564
32697
32503
32550
32519
32472
32642
32609
32639
32736
32775
32639
32623
32594
32652
32427
32294
32166
32023
31743
31479
31302
31245
31015
30759
30342
30016
30054
30238
30257
30491
30580
30517
30849
31270
31863
32678
33589
34735
36255
38124
39834
41533
43854
45988
48085
50228
52141
53758
55098
55991
56136
55860
55527
54703
53734
52663
51278
49741
47942
45844
44372
42092
39648
37176
35267
34396
33671
33062
32890
32508
32380
32163
31992
32164
31920
31877
32005
31918
31796
31745
31557
31418
31313
31068
30924
30712
30446
30461
30369
30302
30281
30165
30215
30268
30190
30165
29912
29836
29714
29620
29639
29790
29871
29775
29599
29813
29926
29943
30028
30090
30037
30014
30161
30179
30094
30165
30294
30222
29986
29851
29849
30065
30076
30172
30215
30103
30126
30279
30199
30260
30419
30411
30381
30488
30484
30455
30556
30549
30388
30360
30420
30370
30419
30481
30197
30290
30532
30548
30695
30717
30650
30671
30537
30820
31040
30927
30813
30801
30697
30847
30964
30775
30815
30975
30772
30813
30773
30708
31047
31238
31124
31207
31309
31107
31197
31349
31364
31277
31239
31404
31492
31437
31284
31380
31447
31444
31382
31491
31607
31551
31518
31675
31684
31647
31884
31838
31764
31655
31656
31614
31684
31710
31653
31539
31628
31731
31591
31575
31575
31581
31628
31879
32083
31908
31934
31863
31741
31802
31772
31655
31815
31502
31087
31295
31294
31416
31564
31438
31607
31677
31556
31623
31669
31561
31739
31687
31540
31543
31479
31276
31285
31364
31101
31075
31138
31062
31007
31039
30911
30727
30901
30970
30918
31018
30932
30772
30825
30822
30599
30518
30470
30404
30374
30487
30343
30295
30356
30250
30288
30329
30223
30044
29893
30052
30236
30282
30372
30412
30375
30292
30409
30380
30266
30244
30399
30375
30388
30476
30660
30612
30759
30932
30983
30964
30939
30676
30695
30877
31124
31111
31014
31137
31158
31210
31337
31239
31287
31469
31433
31516
31648
31622
31738
31953
31973
32038
32090
32043
31938
31927
31915
31879
31992
32181
32145
32135
32279
32422
32413
32563
32704
32841
32722
32863
32919
33037
32993
32908
32685
32501
32431
32655
32806
32576
32556
32748
32711
32734
32948
33268
33421
33467
33425
33383
33443
33532
33750
33689
33616
33579
33450
33406
33231
33070
32887
32375
32375
32999
33378
33626
33510
33511
33707
33857
33791
33700
33740
33714
33697
33648
33435
33366
33423
33429
33220
33091
33310
33314
33287
33396
33162
33127
32989
33184
33524
33789
33628
33620
33703
33573
33470
33519
33411
33295
33371
33405
33366
33381
33457
32993
32660
32878
33123
33470
33638
33668
33567
33606
33749
33452
33306
33463
33507
33297
33271
33405
33372
33284
33391
33381
33093
33127
32905
32815
32806
33086
33479
33527
33351
33255
33366
33377
33236
33236
33287
33215
33119
33138
33261
33119
33075
33028
33273
33323
33243
33243
33366
33407
33284
33302
33461
33464
33372
33415
33524
33430
33370
33447
33536
33391
33614
33747
33599
33807
34020
33782
33856
33990
34026
33786
33668
33668
33620
33581
33583
33470
33287
33236
33588
33623
33516
33529
33654
33414
33383
33368
33391
33255
33279
33167
33082
32825
32821
32956
33026
32875
32892
33031
33183
33084
33062
33135
32997
33003
33084
33198
33042
32971
33141
33028
32820
32839
32750
32579
32606
32498
32455
32631
32833
33063
33020
32821
32922
33151
33215
33079
33100
33177
32964
32717
32756
32881
32795
32685
32606
32588
32636
32599
32742
32949
32964
32950
33009
33140
33287
33180
33071
33012
32967
32916
32818
32565
32293
32135
31926
31716
31696
31543
31484
31483
31560
31303
30937
30936
30975
30954
31035
31026
30881
30831
30817
30983
31421
32075
33031
33911
35143
36930
38732
40697
43069
45293
47204
48980
50868
52457
53332
53604
53812
53535
53028
52332
51588
50493
49188
47698
45841
43956
42060
40132
37911
36064
34962
34378
34085
33926
33764
33623
33353
33118
32903
32775
32548
32324
32149
32031
31919
31879
31919
31913
31863
31820
31793
31723
31579
31313
31324
31228
31040
30882
30775
30497
30323
30350
30465
30452
30358
30277
30298
30262
30318
30671
30814
30628
30675
30752
30433
30134
30159
30478
30607
30604
30551
30524
30442
30326
30370
30516
30590
30717
30877
30876
30850
30775
30767
30755
30639
30386
30447
30524
30539
30463
30461
30566
30695
30858
30983
31047
31116
31251
31328
31383
31468
31411
31348
31319
31346
31223
31191
31127
31199
31269
31151
31249
31247
31180
31276
31385
31438
31509
31679
31783
31770
31835
31911
31923
31887
31879
31930
31918
31811
31815
31828
31751
31599
31628
31615
31606
31780
31878
32046
32175
32286
32185
32023
31903
31967
32122
32165
31980
31626
31841
32135
32166
32180
32130
32095
32132
32316
32391
32455
32556
32575
32600
32639
32654
32611
32440
32400
32357
32316
32396
32320
32214
32191
32150
32031
31972
32012
32135
32204
32236
32117
32156
32292
32336
32309
32295
32254
32194
32113
32007
31839
31815
31804
31630
31637
31713
31703
31698
31703
31671
31642
31746
31869
31885
31798
31727
31512
31259
31199
31123
30988
30944
30855
30804
30879
30868
30952
31072
31100
31199
31263
31275
31284
31163
31090
31044
30932
30727
30726
30742
30791
30791
30759
30763
30746
30551
30681
30833
31111
31209
31167
31198
31331
31543
31611
31485
31420
31389
31431
31463
31318
31106
31223
31374
31426
31358
31275
31351
31428
31659
31810
31927
31975
32021
32034
31999
31967
31908
31814
31719
31710
31695
31580
31494
31286
31320
31438
31799
32012
32084
31896
31899
32003
31975
32028
32084
32305
32381
32415
32354
32308
32316
32348
32381
32455
32447
32311
32231
32255
32026
32271
32535
32695
32831
32817
32837
32759
32743
32795
32742
32732
32769
32830
32652
32549
32586
32732
32925
33026
32999
33025
33087
33254
33351
33287
33182
33200
33224
33194
33039
32997
32983
32979
32878
32707
32807
32955
33063
33187
33255
33249
33249
33241
33263
33303
33279
33271
33308
33173
33007
32937
32841
32760
32703
32720
32951
32986
32996
33001
33107
33192
33239
33141
32936
32796
32741
32829
32839
32900
32929
32892
32906
32919
32923
32887
32878
32958
32995
32934
32954
32977
33028
32923
32900
32959
32894
32715
32805
32810
32866
32857
32684
32510
32119
31519
31681
32630
32973
32972
32959
32985
32959
32957
32917
32993
33131
33217
33058
32967
33115
33122
33134
33184
33131
33109
33243
33384
33438
33397
33423
33478
33468
33487
33511
33535
33442
33450
33426
33354
33383
33377
33415
33212
33069
32977
32709
32756
32875
33137
33121
32663
32564
32793
32922
32964
32838
32746
32749
32802
32822
32759
32703
32605
32601
32807
32967
32873
32895
32972
32943
32796
32710
32679
32613
32648
32756
32746
32551
32518
32537
32551
32455
32549
32719
32764
32697
32686
32613
32252
32223
32572
32789
32641
32558
32639
32585
32470
32501
32571
32499
32461
32333
31985
32183
32684
32830
32756
32756
32785
32955
32871
32940
33078
32983
32669
32578
32381
32167
31713
31525
31695
31836
31642
31601
31654
31568
31513
31524
31655
31553
31270
31188
30938
31135
31204
31239
31338
31604
32148
32640
33247
34114
35162
36429
38151
39970
41914
43831
45438
47099
48452
49156
49725
49881
49707
49281
48611
47956
47123
46084
44822
43399
41706
40164
38231
36012
34412
33351
32967
32975
33170
33196
33168
33111
32901
32831
32688
32476
32092
32124
32250
32141
32068
32046
32074
31974
31922
31988
32054
32020
32050
32055
31990
31851
31775
31678
31447
31220
30988
30952
30887
30959
30964
30788
30637
30530
30658
30843
31062
31175
31281
31354
31429
31463
31332
31345
31399
31349
31322
31153
31028
31103
31076
31108
31004
31132
31129
31025
31162
31101
31106
31087
31338
31512
31484
31495
31580
31503
31514
31414
31358
31271
31282
31364
31332
31356
31428
31454
31430
31358
31407
31711
31820
31895
31959
31686
31740
31746
31751
31847
31879
31716
31701
31610
31398
31649
31874
31982
32109
32094
32140
32222
32495
32550
32543
32462
32282
32303
32439
32479
32351
32289
32145
32039
32001
32311
32413
32526
32604
32722
32883
32954
33042
32921
32889
32923
32807
32747
32647
32631
32687
32741
32700
32540
32640
32630
32741
32754
32860
32859
33031
33198
33213
32996
32963
33169
33141
33111
33020
32895
32911
32767
32771
32600
32511
32628
32633
32836
32916
33061
33076
32827
32904
32702
32741
32947
33036
32830
32716
32501
32312
32162
32124
32117
32220
32192
32244
32263
32324
32493
32671
32546
32503
32428
32362
32095
32103
32123
32023
31582
31239
31446
31628
31551
31478
31418
31470
31517
31760
31807
31892
31820
31985
32004
31990
31710
31735
31693
31588
31525
31559
31391
31306
31212
31318
31311
31461
31487
31562
31671
31799
31991
32078
31975
32045
32059
31972
31962
31887
31701
31745
31325
31421
31460
31394
31228
31198
31083
31295
31797
32092
31944
31807
31983
32175
32228
32100
32031
31924
31835
31689
31615
31284
31037
31378
31604
31493
31489
31583
31732
31727
31879
32096
32215
32279
32387
32235
32198
32129
32251
32167
32095
31807
31520
31455
31538
31735
32007
32207
32178
32247
32486
32671
32781
32836
32767
32807
32820
32636
32603
32511
32247
32194
32239
32239
32227
32291
32338
32167
32607
32990
33156
33144
33202
33385
33387
33328
33222
33175
32974
32909
32847
32718
32740
32729
32740
32790
32836
32936
32853
33105
33169
33254
33373
33543
33612
33500
33393
33316
33332
33132
32956
32975
32748
32597
32570
32807
33026
33225
33243
33421
33447
33604
33550
33608
33585
33217
33042
32935
32918
32836
32906
32863
32862
32628
32537
32622
32674
32771
33063
33185
33207
33106
33119
33152
33159
33163
33041
33036
32886
32716
32439
32636
32647
32748
32663
32784
32936
32959
32823
33194
33503
33460
33407
33487
33648
33633
33507
33553
33427
33367
32958
32845
32838
32804
32830
33261
33386
33437
33319
33431
33524
33609
33457
33506
33487
33439
33200
33179
33074
32756
32634
32605
32618
32647
32600
32646
32693
32699
32871
32846
32794
32714
32812
32815
32743
32591
32702
32616
32655
32468
32379
32413
32383
32297
32244
32226
32383
32424
32502
32487
32550
32587
32700
32639
32452
32413
32459
32455
32380
32407
32440
32438
32235
32167
32278
32426
32405
32284
32330
32591
32552
32596
32683
32811
32693
32590
32559
32404
32273
32342
32180
32231
32207
32348
32485
32539
32388
32423
32380
32307
32170
31999
31935
31671
31647
31511
31177
31076
31217
31347
31204
30983
30727
30751
30820
30917
30964
31101
31444
32221
32999
33956
34855
36038
37451
38943
40711
43048
45013
46562
48292
49505
50607
50932
51034
50863
50322
49590
49038
48260
47340
45932
44412
42740
40887
38796
36612
34660
33498
33022
32947
32836
32952
32968
32914
32742
32741
32671
32489
32239
32166
31981
31946
31827
31835
31764
31656
31743
31637
31595
31567
31566
31479
31239
31142
30973
31055
30936
30912
30967
30889
30812
30718
30759
30780
30842
30704
30541
30286
30516
30523
30457
30662
30788
30859
30788
30791
30695
30538
30252
30372
30845
30759
30772
30778
30910
30970
30831
30807
30860
30922
30927
31011
30943
30933
31092
31151
31024
31015
31216
31326
31239
31004
31086
31336
31309
31173
31239
31292
31316
31308
31290
31324
31471
31525
31508
31534
31618
31767
31764
31828
31822
31783
31839
31831
31855
31881
31911
31879
31862
31870
31868
31914
31934
31918
31839
31958
32125
32111
32094
32161
32194
32238
32116
32074
32239
32421
32252
32301
32393
32396
32350
32327
32188
32116
32099
32170
32378
32566
32582
32647
32644
32532
32428
32538
32584
32572
32456
32495
32637
32663
32658
32525
32597
32764
32865
32858
32714
32753
32849
32758
32794
32868
32529
32065
32382
32606
32730
32565
32542
32615
32516
32519
32595
32562
32639
32740
32652
32600
32647
32567
32408
32343
32271
32180
32268
32273
32175
31861
31986
32122
32079
31839
31790
31748
31823
31839
31829
31890
31739
31787
31773
31679
31503
31525
31534
31476
31122
31080
31201
31233
31122
31127
31204
30956
31068
31255
31277
31278
31320
31335
31110
31237
31170
31180
31083
31010
30815
30820
30790
30813
31023
30863
30963
31063
31220
31511
31610
31455
31398
31476
31526
31544
31567
31431
31405
31332
31183
31135
31346
31405
31500
31605
31673
31562
31674
31751
31746
31658
31717
31751
31649
31783
31844
31838
31642
31646
31828
31893
31981
32053
32006
31959
32041
31925
31596
31697
31962
32173
32277
32300
32370
32269
32297
32230
32244
32196
32157
32298
32420
31902
31492
31840
32262
32375
32284
32436
32599
32591
32439
32492
32646
32719
32740
32754
32700
32653
32673
32695
32711
32773
32764
32827
32819
32886
32909
32879
32794
33025
33205
33156
33030
33069
33039
33012
33062
33078
32900
32691
32859
33076
33057
33007
32964
33130
33231
33292
33197
32907
33102
33268
33301
33340
33283
33264
33141
33212
33231
33183
33087
33079
33103
33068
33031
33053
33146
33222
33116
32880
32811
33005
33036
33064
32959
32954
32964
32993
33029
33039
33055
32972
32981
32903
32794
32703
32740
32835
33029
33093
32871
32817
33009
33090
33107
33084
33082
33031
33021
33086
33071
33084
33103
33140
33023
33110
33251
33419
33426
33463
33413
33463
33448
33356
33211
33302
33405
33496
33390
33267
33234
33263
33207
33253
33300
33228
33220
33227
33231
33247
33151
33023
32900
32842
32775
32772
32877
32871
32873
32878
32879
32807
32638
32405
32542
32743
32831
32738
32666
32583
32598
32753
32763
32718
32591
32703
32732
32593
32487
32407
32294
32108
32103
32327
32348
32002
32162
32652
32644
32596
32635
32714
32720
32687
32705
32688
32645
32643
32700
32660
32535
32508
32517
32626
32592
32609
32708
32738
32793
32796
32765
32778
32855
32815
32723
32708
32635
32575
32566
32247
31813
31823
31975
31813
31716
31703
31617
31452
31477
31327
31259
31223
31190
31017
30911
30599
30391
30615
30633
30777
31169
31855
32627
33575
34868
36327
37848
39724
41884
43935
45943
47910
49988
51708
52972
54247
54824
54732
54469
53909
53183
52305
51410
50411
48684
46667
44900
43077
40921
38685
36564
34885
33861
33396
33185
32871
32527
32485
32283
32078
32044
31914
31783
31676
31580
31474
31406
31399
31380
31332
31250
31193
31051
31018
30826
30604
30372
30112
29926
29659
29673
29890
30043
30161
30238
30261
30250
30266
30284
30282
30272
30207
30142
30198
30177
30223
30309
30330
30265
30191
30223
30257
30255
30215
30298
30343
30364
30268
30314
30533
30540
30532
30279
30366
30526
30449
30492
30545
30494
30454
30525
30567
30503
30559
30687
30692
30725
30748
30629
30727
30886
30823
30839
30476
30364
30547
30889
31057
31141
31129
31191
31246
31160
31138
31222
31298
31172
31291
31558
31436
30965
30727
31143
31495
31563
31555
31605
31527
31519
31623
31665
31633
31700
31807
31696
31746
31814
31907
32062
32028
31983
31946
32017
31914
32018
32119
32119
32039
31937
32098
32183
32101
32107
32182
32124
32220
32335
32279
32302
32355
32463
32421
32260
32325
32239
32191
32335
32372
32286
32252
32226
32292
32318
32300
32228
32218
32348
32514
32445
32614
32711
32519
32372
32531
32386
32292
32454
32337
32300
32308
32063
32103
32095
31917
32068
32090
32166
32327
32248
32199
32279
32201
32079
32021
31974
32021
31798
31719
31774
31743
31711
31738
31596
31480
31527
31559
31494
31448
31101
31127
31533
31631
31510
31503
31383
31153
30956
31186
31278
31034
31151
31143
31042
31010
30983
31147
31414
31372
31352
31310
31151
31140
31317
31170
31070
31413
31359
31255
31378
31336
31293
31294
31279
31292
31364
31458
31354
31416
31526
31270
31333
31646
31633
31502
31638
31598
31564
31717
31615
31588
31597
31487
31628
31815
31779
31684
31721
31829
31956
31989
32020
32185
32039
31994
32158
32198
32087
32028
32187
32079
31980
31860
31865
32052
32195
32007
32135
32297
32450
32527
32703
32588
32582
32701
32551
32543
32712
32657
32564
32578
32695
32606
32637
32696
32623
32725
32866
32821
32780
32810
32764
32821
32963
32741
32519
32654
32832
32895
32927
33073
32998
32859
33010
32967
32865
32887
33044
32983
32925
32935
32909
32895
32992
32997
32902
32881
32908
32970
32711
32519
32672
32909
32903
33092
33090
32962
32934
33151
33119
33049
33122
33188
33075
33074
33135
32972
32905
32933
32811
32775
32719
32916
32963
32847
32884
32981
32875
32835
33041
32967
32948
33055
32941
32967
32772
32823
32881
32724
32817
32691
32744
32660
32890
32793
32898
32873
32745
32875
32917
33110
32951
33181
33201
33439
33151
33238
33163
33415
33196
33218
33319
33233
33335
33201
33430
33149
33442
33660
33727
33630
33495
33249
33342
33515
33611
33538
33287
33161
33214
33246
33140
33095
33031
33140
33039
33175
33207
33029
33180
33006
33111
33031
33077
32834
32561
32731
32679
33014
32924
32866
32893
32597
32634
32832
32683
32693
32851
32900
32703
32556
32746
32790
32767
32767
32599
32566
32683
32554
32532
32534
32615
32496
32447
32623
32471
32433
32663
32686
32665
32763
32772
32693
32642
32767
32677
32487
32513
32594
32519
32466
32460
32591
32672
32631
32755
32731
32647
32711
32785
32655
32727
32957
32806
32615
32607
32383
32195
32176
31894
31030
30930
31458
31239
30895
30828
30785
30812
30875
30636
30453
30404
30277
30497
30905
31363
31883
32769
33641
34735
36381
37988
40180
42244
44023
46269
48334
50244
52103
53876
55420
56679
57092
56940
56740
56124
55366
54278
52917
51685
49967
48079
46202
44347
42046
39228
36974
35303
34061
33295
32852
32719
32404
32074
31938
32056
31772
31570
31612
31565
31229
31109
31230
31329
31029
30711
30607
30559
30324
30189
30071
29954
29959
30126
30135
29959
29941
29849
29762
29767
29899
29887
29764
29702
29556
29525
29675
29837
29959
29970
30015
30002
29978
30024
29892
29900
30017
29960
29775
29614
29553
29772
29902
30015
29950
29951
30086
30086
30045
30080
30228
30204
30151
30279
30247
30226
30267
30343
30229
30287
30388
30405
30257
30297
30501
30457
30382
30548
30561
30385
30507
30776
30777
30702
30727
30708
30726
30756
30696
30721
30543
30588
30831
30991
30849
30921
31078
31105
31199
31238
31300
31330
31362
31280
31267
31229
31346
31303
31222
31246
31359
31205
31231
31398
31457
31302
31303
31367
31301
31311
31490
31585
31558
31288
31194
31374
31611
31727
31770
31680
31575
31549
31637
31778
31772
31684
31682
31642
31808
32007
31854
31818
31892
32046
31960
31954
32039
32053
32032
31992
31879
31820
31719
31738
31768
31802
31759
31738
31907
31918
31860
31903
31945
31786
31711
31671
31716
31822
31658
31500
31413
31414
31553
31516
31439
31366
31442
31446
31323
31234
31291
31471
31325
31180
31124
31111
31030
30784
30910
31038
30874
30751
30822
30971
30932
30823
30798
30875
31014
30962
30845
30826
30891
30958
30839
30648
30622
30639
30650
30743
30674
30529
30559
30493
30439
30516
30685
30652
30655
30778
30975
30908
30780
30866
31049
30956
30847
30910
31005
31111
31008
30932
30978
31107
31047
31043
31057
31239
31328
31384
31435
31596
31543
31375
31407
31529
31487
31519
31748
31581
31487
31587
31813
31747
31702
31831
31987
31999
32007
32175
32360
32235
32029
32128
32263
32141
32059
32247
32278
32355
32407
32293
32351
32172
32022
32164
32383
32463
32673
32812
32609
32674
32892
32772
32847
32903
32785
32877
32767
32662
32854
32678
32689
32895
32853
32839
32940
32796
32731
32775
32757
32723
32950
33148
32999
32892
32948
33018
32848
32886
33054
32872
32711
32746
32872
32941
32962
33114
33049
32989
33102
33311
33135
33158
33254
32988
32925
33012
33188
32977
32982
33061
33031
32961
33021
33167
33310
33204
33184
33238
33384
33254
33258
33252
33270
33228
33258
33389
33319
33225
33228
33165
32803
32812
33199
33201
33124
33256
33234
33096
33195
33352
33176
33031
33119
33278
33115
33010
33102
33205
32967
33023
33158
33181
33079
33089
33231
33095
32963
33209
33529
33475
33477
33738
33731
33585
33505
33553
33558
33581
33761
33835
33795
33807
33788
33736
33851
33879
33783
33865
33974
34036
33876
33658
33541
33694
33789
33686
33444
33420
33552
33433
33321
33314
33287
33404
33434
33300
33154
33344
33340
33140
33174
33348
33391
33274
33188
33287
33115
32991
33020
32893
32788
32786
32813
32991
32926
32796
32895
33116
32998
32893
32975
33060
32876
32796
32804
32959
32764
32602
32602
32735
32774
32597
32585
32719
32676
32664
32586
32811
32997
32871
32784
32865
32982
32882
32738
32679
32751
32672
32677
32655
32730
32619
32299
32476
32919
32983
32861
32874
32871
32847
32591
32583
32663
32430
32127
31934
31868
31568
31329
31163
31080
30871
30727
30686
30802
30577
30484
30373
30562
30746
31082
31772
32253
32774
33819
35300
36806
38425
40620
42853
44810
46783
49330
51671
53572
55348
57071
58325
59060
58911
58812
58171
57222
56116
54852
53241
51399
49607
47748
45384
43085
40302
37518
35483
34183
33447
32990
32655
32324
32135
32119
31935
31740
31739
31514
31356
31228
31132
30983
30761
30639
30551
30280
30082
30026
29849
29735
29805
29843
29721
29516
29224
29002
28956
29102
29433
29287
29273
29479
29393
29341
29426
29471
29479
29589
29485
29519
29727
29664
29727
29824
29738
29694
29783
29789
29652
29569
29700
29700
29548
29612
29770
29774
29783
29850
29784
29846
30055
30045
29938
29910
30026
29993
30026
30159
30012
30022
30076
30121
29923
29799
29932
30046
29986
30058
30177
30215
30278
30301
30447
30528
30471
30516
30630
30637
30494
30173
30339
30588
30559
30444
30620
30521
30528
30855
30868
30855
30916
30901
31040
31205
31255
31135
31143
31235
31220
31182
31187
31308
31196
31143
31231
31260
31186
31247
31411
31361
31302
31389
31373
31437
31655
31495
31485
31671
31658
31524
31539
31751
31675
31473
31393
31502
31516
31562
31665
31966
31963
31616
31591
31920
31852
31727
31746
31949
31655
31401
31733
31806
31817
31899
31903
31782
31738
31743
31845
31861
31772
31884
31819
31791
31902
31823
31708
31688
31735
31598
31412
31465
31533
31437
31372
31461
31349
31234
31202
31261
31286
31271
31382
31422
31351
31209
31126
30926
30847
31018
30804
30855
31023
30892
30933
30932
30757
30847
31016
30983
30979
31103
30908
30839
30811
30843
30828
30918
31024
30936
30788
30807
30885
30828
30895
30995
30988
30871
30940
31203
31239
31219
31227
31332
31257
31271
31375
31277
31308
31402
31301
31468
31412
31344
31321
31446
31393
31487
31623
31599
31684
31739
31638
31716
31908
31820
31718
31893
31825
31830
32007
31994
31871
31815
31559
31524
31681
31975
32200
32229
32201
32348
32375
32271
32263
32326
32092
32007
32110
32242
32263
32399
32355
32301
32388
32358
32278
32313
32510
32337
32260
32471
32453
32413
32606
32640
32561
32614
32714
32503
32436
32492
32687
32576
32469
32657
32508
32433
32743
32647
32639
32895
32775
32868
33050
32890
32988
32904
32785
32964
32852
32732
32692
32708
32842
32750
32863
32647
32617
32308
32430
32682
32731
32915
32892
33073
33042
32807
32865
32775
32755
32998
32888
32871
32994
32853
32799
32964
32864
32879
33039
33027
33189
33013
33031
33125
32998
33119
33112
32943
32868
32959
32855
32999
32898
32831
32968
32794
32987
32851
32817
32951
32930
33083
32980
32965
32999
32847
32804
32959
32950
33025
32898
32637
32484
32649
32751
32624
32903
32852
32892
32969
32935
33138
33031
33082
33187
33135
33079
33212
33111
33214
33373
33241
33183
33249
33220
33303
33399
33279
33305
33415
33497
33719
33638
33636
33804
33679
33742
33799
33575
33527
33638
33502
33349
33543
33391
33372
33510
33442
33438
33439
33445
33324
33246
33396
33388
33172
33208
33199
33053
33132
33062
32943
32964
32841
32735
32945
32858
32847
33028
32998
32842
32773
33003
32892
32770
32863
32774
32790
32747
32489
32564
32687
32599
32578
32689
32506
32326
32535
32878
32926
32820
33008
32988
32821
32972
33015
32793
32923
32835
32735
32865
32706
32698
32887
32879
32797
32727
32876
32792
32901
33111
33018
33006
33206
32938
32786
32903
32763
32632
32587
32452
32285
32092
31962
31890
31668
31516
31313
31418
31678
31663
31591
31495
31326
30950
30956
31074
31038
30965
31151
31765
32596
33195
34085
35278
36719
38236
39964
42145
44096
45876
48001
49726
51126
52225
52785
52788
52263
51963
51420
50618
49602
48623
47165
45280
43257
41629
40028
37730
35556
34212
33609
33436
33283
33183
33111
33107
32806
32601
32549
32411
32185
31999
31902
31885
31791
31775
31943
31876
31751
31623
31631
31515
31468
31274
30926
31079
31030
30863
30779
30735
30628
30381
30484
30737
30659
30374
30431
30663
30687
30721
30754
30919
30926
30866
30802
30852
30766
30652
30697
30815
30684
30581
30614
30660
30716
30756
30902
30938
30938
30959
31080
31087
31034
31012
31119
31095
31045
31071
31143
31078
30970
30911
30917
30884
30822
30661
30903
31095
31118
31247
31362
31407
31375
31281
31391
31567
31519
31510
31592
31585
31522
31469
31527
31628
31599
31575
31635
31847
31849
31807
31876
31910
31927
31970
32020
32155
32046
32003
32117
31991
31900
31981
32032
31997
31928
32105
32170
32247
32239
32314
32380
32528
32589
32505
32513
32564
32434
32512
32601
32373
32353
32551
32412
32311
32541
32362
32345
32558
32507
32652
32936
32887
32830
32770
32716
32929
32908
32708
32702
32692
32617
32729
32620
32775
32659
32595
32595
32487
32719
32754
32703
32887
32823
32687
32807
32663
32600
32569
32430
32386
32379
32186
32246
32356
32178
32030
32090
32044
32279
32429
32348
32327
32316
32085
32154
32183
31879
31788
31903
31700
31620
31695
31623
31468
31399
31632
31647
31599
31724
31750
31662
31684
31780
31746
31645
31742
31575
31391
31157
30982
31194
31290
31335
31223
31197
31292
31274
31414
31601
31549
31565
31716
31712
31661
31588
31719
31746
31663
31585
31577
31540
31562
31479
31343
31422
31463
31466
31551
31751
31782
31751
31935
31879
31846
31994
31926
31877
31805
31700
31742
31631
31492
31431
31367
31429
31675
31735
31734
31887
31884
31972
32246
32183
32167
32263
32190
32100
32059
32103
31934
31871
31902
31851
31916
32023
31994
32043
32297
32372
32355
32585
32524
32490
32629
32613
32460
32557
32470
32511
32591
32434
32351
32396
32244
32316
32503
32367
32460
32686
32679
32769
32711
32684
32775
32927
32847
32844
32873
32836
32799
32944
32791
32613
32615
32774
32568
32545
32939
32943
32916
32949
32926
33031
33097
32958
32980
33069
32929
32957
33084
33018
32964
32948
32802
32845
32878
32871
33052
33092
32988
32955
33071
32895
32849
32760
32901
32978
33079
33124
32879
32907
32875
32770
32860
32806
32697
32675
32807
32737
32789
32995
33037
32998
32886
32820
32624
32515
32511
32663
32917
32799
32647
32571
32655
32596
32463
32621
32697
32711
32647
32676
32919
32914
32767
32476
32593
32762
32821
33055
32971
32847
32950
32960
32843
32903
33020
32994
32922
33099
33232
33261
33423
33519
33375
33300
33468
33455
33335
33458
33531
33308
33124
33049
33026
32998
33030
33005
33058
33100
33197
33271
33172
33239
33071
32988
33023
33061
32924
32851
32931
32758
32571
32606
32588
32543
32519
32575
32417
32530
32655
32603
32430
32693
32840
32819
32892
32756
32541
32572
32562
32466
32519
32360
32175
32218
32405
32324
32279
32466
32466
32487
32639
32626
32641
32647
32683
32645
32610
32580
32511
32379
32278
32381
32254
32167
32198
32382
32487
32404
32359
32550
32834
32762
32515
32397
32474
32687
32741
32666
32575
32548
32351
32063
31830
31668
31580
31647
31575
31442
31341
31535
31554
31572
31642
31731
31587
31461
31467
31319
31159
31092
31351
31885
32391
33062
34164
35111
36270
37866
39528
41332
43319
45100
46371
47921
49005
49562
49708
49447
48805
48287
47671
46660
45780
44791
43367
41936
40319
38495
36870
34971
33403
32758
32381
32460
32647
32772
32615
32375
32338
32213
31969
31903
31793
31626
31650
31727
31673
31583
31638
31655
31622
31673
31739
31591
31511
31438
31279
31315
31136
30897
30780
30805
30719
30616
30635
30755
30791
30816
30868
31015
31044
30945
30897
30933
31057
30999
30915
30954
30879
30751
30658
30819
30797
30740
30830
30782
30739
30753
31038
31122
31186
31127
31142
31271
31172
31236
31234
31247
31207
31268
31159
30942
30943
31116
31182
31092
31120
31328
31461
31430
31436
31626
31623
31551
31523
31693
31647
31390
31415
31657
31741
31675
31553
31407
31535
31430
31332
31553
31817
31849
31916
31982
31975
32084
32237
32238
32091
32007
32156
32108
32012
32015
32089
32103
32022
32028
32127
32316
32294
32331
32536
32534
32478
32582
32759
32623
32513
32647
32510
32327
32421
32372
32356
32561
32559
32536
32645
32775
32746
32844
32850
32735
32850
32807
32860
32903
33025
32936
32749
32747
32803
32725
32584
32681
32787
32678
32704
32871
32980
33021
32870
32775
32884
33101
33141
33023
32799
32678
32767
32871
32647
32425
32525
32562
32475
32465
32599
32608
32486
32519
32668
32490
32308
32455
32407
32236
32351
32327
32107
32079
31998
31648
31611
31647
31503
31515
31646
31597
31663
31826
31773
31638
31823
31822
31724
31602
31551
31394
31359
31412
31222
31231
31381
31333
31252
31335
31299
31340
31487
31334
31509
31637
31631
31599
31668
31535
31440
31550
31473
31431
31518
31349
31301
31394
31423
31409
31549
31783
31751
31767
31873
31793
31668
31830
31855
31769
31846
31706
31639
31782
31669
31548
31654
31558
31489
31534
31575
31687
31813
31815
31780
32053
32108
31909
31927
32029
32036
31975
31898
31966
31951
31884
31903
31981
31956
31901
32130
32247
32236
32296
32410
32469
32447
32558
32679
32495
32364
32351
32428
32335
32292
32426
32295
32086
32253
32470
32399
32375
32625
32716
32671
32869
32935
32868
32884
33001
32954
32836
32774
32847
32818
32717
32687
32591
32704
32847
32757
32807
32850
32977
33139
33068
33052
33199
33216
33069
33037
33189
33095
33057
33012
33069
33124
32989
32893
32740
32709
32798
32941
33287
33287
33231
33404
33321
33215
33261
33327
33094
33133
33100
32991
32847
32917
32884
32852
32919
33100
33039
32911
33061
33243
33143
32990
33084
33055
33112
33186
32986
33061
32908
32898
32895
32623
32687
32734
32623
32774
32845
32620
32762
33071
33018
32963
33116
33031
33089
33167
33156
33179
33159
33153
33122
33021
32933
32967
33119
33206
33227
33447
33538
33508
33565
33781
33712
33543
33713
33656
33506
33530
33347
33165
33280
33231
33151
33359
33200
33079
33300
33311
33216
33378
33287
33205
33351
33228
32998
33095
32989
32954
33071
32937
32753
32823
32751
32623
32474
32452
32471
32549
32844
33055
32935
32807
32989
33020
32736
32647
32796
32636
32567
32639
32481
32385
32511
32323
32342
32626
32581
32610
32804
32657
32750
32790
32730
32724
32807
32689
32651
32684
32506
32618
32559
32479
32512
32586
32340
32229
32490
32868
32965
32773
32751
32812
33008
32751
32466
32420
32646
32682
32489
32244
32116
32102
31919
31671
31567
31653
31617
31554
31648
31782
31724
31630
31541
31458
31301
31133
31047
31070
31077
31370
31908
32573
33318
34452
35778
36974
38682
40721
42580
44296
46552
48292
49670
50886
51847
52296
52148
51816
51247
50468
49488
48616
47398
45878
44167
42687
40855
38858
36925
35180
33947
33207
33063
33102
32921
32775
32533
32253
32127
32079
31879
31776
31772
31692
31604
31629
31572
31668
31772
31673
31572
31572
31460
31239
31107
30983
30762
30636
30543
30471
30365
30399
30343
30311
30359
30260
30363
30654
30647
30716
30771
30702
30658
30685
30584
30471
30588
30571
30493
30498
30455
30445
30426
30535
30560
30551
30662
30810
30755
30676
30652
30727
30781
30819
30916
30908
30844
30840
30837
30742
30675
30684
30599
30747
30811
30844
30863
31006
31116
31151
31189
31322
31351
31271
31223
31378
31462
31329
31066
30974
30947
31140
31340
31427
31475
31566
31556
31722
31738
31701
31871
31844
31881
31977
31879
31878
31909
31812
31807
31786
31905
31894
31719
31740
31910
31946
32040
32178
32114
32152
32313
32399
32263
32291
32422
32463
32393
32316
32364
32219
32198
32147
32302
32328
32319
32440
32442
32467
32641
32583
32607
32753
32758
32503
32464
32231
32323
32652
32647
32522
32487
32549
32463
32404
32508
32572
32551
32442
32437
32584
32743
32685
32721
32793
32614
32554
32601
32439
32350
32382
32222
32001
32051
32082
32023
32046
32246
32222
32191
32314
32308
32167
32182
32149
31983
31862
31695
31556
31562
31646
31742
31574
31335
31355
31452
31413
31381
31448
31527
31503
31447
31524
31538
31396
31202
31133
31228
31263
31071
30895
30946
31049
31004
31002
31047
31135
31126
31052
31212
31391
31449
31468
31461
31316
31324
31432
31394
31299
31251
31131
31143
31216
31239
31212
31300
31327
31373
31439
31537
31572
31590
31567
31326
31390
31775
31815
31711
31701
31571
31398
31357
31373
31402
31430
31511
31694
31746
31765
31921
32027
31939
32039
32149
32088
32070
32066
31996
31946
31776
31855
31984
32119
32013
32127
32177
32193
32309
32330
32452
32615
32543
32579
32655
32551
32614
32556
32444
32586
32684
32548
32447
32496
32519
32592
32596
32615
32661
32830
32951
32966
32949
33018
33021
32884
33041
33006
32987
32988
32914
32919
32918
32743
32775
32898
32891
32903
33124
33159
33113
33241
33300
33196
33152
33215
33015
32996
33252
33135
33065
33151
33071
32943
33060
32974
33069
33223
33109
33015
33223
33373
33367
33287
33346
33463
33346
33341
33340
33205
33197
33157
32961
32845
32895
32894
32912
33063
33063
33055
33114
33236
33285
33253
33177
33218
33269
33153
33012
32871
32826
32795
32756
32746
32852
32837
32754
32724
32846
32900
32938
32986
33135
33130
33126
33099
33077
33159
33139
33057
33103
33213
33229
33226
33263
33282
33207
33219
33398
33519
33493
33560
33619
33621
33570
33695
33716
33570
33522
33519
33439
33265
33223
33215
33181
33157
33268
33210
33155
33191
33262
33245
33244
33299
33205
33169
33119
33084
33088
32979
32884
32895
32806
32740
32581
32529
32687
32749
32825
32775
32741
32689
32713
32810
32873
32855
32775
32647
32605
32637
32604
32449
32395
32350
32301
32353
32380
32390
32435
32551
32666
32692
32647
32671
32690
32712
32615
32559
32540
32484
32471
32550
32567
32495
32454
32484
32586
32608
32647
32707
32749
32711
32645
32736
32822
32775
32622
32639
32590
32511
32396
32246
32012
31807
31692
31607
31476
31345
31316
31293
31239
31223
31151
31047
30938
30809
30681
30682
30700
30705
30954
31438
31962
32691
33593
34861
36382
38007
40024
41934
43650
45879
47812
49671
51549
52908
53968
54788
54759
54247
53895
53177
51951
51102
49788
48234
46320
44638
42983
40878
38621
36552
34882
33796
33202
32822
32574
32343
32166
31969
31892
31818
31650
31580
31547
31469
31524
31493
31413
31371
31253
30887
30652
30828
30860
30780
30663
30518
30436
30399
30348
30303
30286
30236
30204
30212
30225
30269
30309
30246
30354
30392
30418
30383
30425
30478
30480
30398
30318
30319
30326
30278
30175
30161
30215
30281
30247
30293
30375
30442
30470
30492
30587
30628
30564
30534
30564
30567
30508
30561
30514
30489
30481
30484
30372
30437
30575
30477
30500
30710
30842
30837
30969
31025
30995
30962
31057
31103
31028
31068
31055
30841
30935
30994
30975
30929
30941
31049
31213
31217
31294
31426
31535
31517
31508
31605
31677
31610
31562
31630
31620
31597
31526
31534
31563
31583
31568
31683
31823
31863
31894
32015
32137
32122
32158
32210
32234
32220
32144
32099
32097
32116
32042
31963
32014
32071
32087
32061
32132
32293
32372
32385
32494
32550
32469
32535
32602
32513
32487
32466
32375
32285
32240
32190
32085
32125
32187
32143
32197
32318
32438
32453
32479
32486
32501
32532
32497
32412
32349
32262
32207
32046
31955
31913
31871
31759
31663
31703
31767
31870
31863
31935
32015
32047
31990
31967
31918
31882
31733
31601
31513
31433
31345
31140
31055
31045
31092
31084
31111
31159
31319
31412
31500
31449
31337
31357
31375
31349
31175
31094
31038
30983
30792
30719
30700
30638
30565
30705
30844
30980
31018
31115
31229
31308
31265
31263
31378
31385
31276
31143
31153
31113
31025
30852
30840
30873
30978
31006
31036
31142
31325
31468
31590
31618
31658
31737
31776
31782
31686
31585
31596
31553
31481
31320
31295
31398
31422
31559
31617
31751
31898
32099
32220
32228
32342
32436
32456
32311
32287
32255
32200
32071
32007
32061
32060
32084
32072
32032
32122
32295
32553
32606
32620
32769
32836
32839
32775
32795
32775
32743
32571
32535
32527
32429
32323
32385
32444
32446
32485
32687
32830
32900
32904
32978
33047
33099
33015
32911
32901
32887
32770
32692
32697
32631
32548
32579
32561
32586
32753
32806
32866
33003
33047
33031
33055
33111
33015
32987
33002
32995
32813
32775
32775
32767
32618
32657
32714
32716
32683
32837
32970
32993
32954
33048
33100
33095
32974
32982
33005
32993
32794
32734
32735
32775
32732
32651
32690
32775
32798
32791
32927
32999
32993
32947
32995
32989
32991
32860
32751
32693
32636
32616
32654
32703
32586
32562
32625
32631
32651
32801
32811
32773
32860
32871
32782
32858
32878
32846
32695
32751
32726
32673
32607
32639
32670
32653
32711
32845
33020
33058
33090
33263
33452
33375
33435
33533
33573
33415
33393
33452
33487
33337
33285
33287
33387
33273
33298
33397
33473
33390
33464
33567
33579
33449
33447
33455
33439
33405
33351
33323
33107
33148
33092
33022
33056
32891
32945
32967
32859
32931
33108
33013
33117
33106
33108
33171
33080
33041
33022
32983
32828
32830
32791
32801
32630
32703
32692
32652
32660
32775
32892
32813
32910
32967
32980
32951
32987
32927
32797
32814
32769
32652
32558
32550
32538
32602
32486
32578
32666
32719
32768
32900
32948
32949
33002
33063
32975
33014
33038
32831
32806
32775
32607
32647
32641
32511
32581
32604
32519
32604
32573
32541
32381
32303
32113
31931
31793
31635
31490
31286
31153
30966
30807
30708
30552
30615
30701
31012
31335
31978
32532
33446
34508
35800
37401
39221
40956
42844
44780
46708
48645
50334
52170
53759
54860
55678
56022
55708
55125
54594
53804
52622
51510
50095
48412
46517
44740
42805
40420
38004
35907
34403
33565
32989
32682
32348
32244
32108
32020
32069
32073
32111
32002
32012
31875
31801
31719
31495
31311
31096
30674
30533
30404
30141
30112
30119
29990
30110
30223
30176
30306
30402
30387
30367
30378
30386
30470
30437
30267
30346
30268
30204
30182
30015
30036
30051
30151
30063
30193
30283
30359
30359
30453
30545
30461
30559
30556
30517
30396
30415
30462
30399
30258
30283
30324
30279
30206
30321
30375
30548
30606
30572
30771
30764
30847
30839
30798
30830
30795
30829
30815
30703
30596
30671
30659
30688
30588
30744
30802
30941
31023
31008
31177
31239
31334
31185
31260
31284
31298
31180
31274
31214
31204
31097
31151
31137
31239
31293
31311
31557
31572
31652
31726
31693
31692
31778
31809
31823
31789
31732
31765
31704
31711
31561
31603
31713
31573
31724
31820
31912
31847
31909
32037
32028
32126
32143
32007
32063
32017
31993
31911
31877
31882
31852
31710
31772
31836
31711
31871
31968
31966
32079
32121
32025
32014
32097
31998
32005
31970
31831
31852
31826
31759
31727
31702
31592
31591
31644
31611
31695
31718
31691
31708
31774
31647
31591
31561
31540
31313
31351
31311
31248
31157
30973
30974
31023
30989
30834
30892
30974
31003
30869
30969
30954
30918
30837
30841
30880
30773
30637
30553
30567
30460
30336
30399
30404
30271
30359
30438
30426
30399
30571
30654
30541
30640
30625
30671
30551
30538
30535
30575
30564
30441
30485
30564
30460
30587
30686
30697
30836
30994
30949
31094
31231
31130
31278
31295
31377
31284
31239
31316
31369
31433
31424
31316
31412
31468
31570
31516
31686
31823
31940
32087
32100
32058
32161
32231
32275
32284
32263
32226
32202
32111
32037
32028
32098
32197
32292
32236
32390
32471
32614
32532
32679
32696
32823
32771
32741
32751
32765
32714
32549
32564
32615
32582
32458
32577
32606
32672
32728
32806
32932
33052
33055
33114
33105
33168
33080
33025
32949
32968
32871
32743
32727
32659
32711
32735
32680
32810
32933
33007
33124
33147
33155
33229
33234
33270
33119
33140
33076
33071
32984
32815
32785
32772
32799
32727
32837
32959
33083
33030
33255
33317
33363
33340
33411
33437
33300
33332
33316
33220
33107
33071
32975
32975
32804
32889
32911
32996
33000
33180
33327
33423
33380
33449
33478
33372
33375
33422
33237
33236
33156
33068
32868
32823
32857
32710
32823
32925
32975
33073
33244
33335
33321
33380
33447
33303
33302
33294
33214
33008
32990
32864
32822
32668
32636
32660
32582
32690
32815
32837
33044
33190
33271
33344
33391
33349
33447
33470
33423
33382
33332
33329
33189
33140
33159
33129
33190
33318
33498
33554
33751
33956
33905
34060
34101
34032
34004
33942
33880
33782
33667
33505
33382
33303
33154
33151
33095
33184
33255
33388
33519
33596
33697
33611
33653
33647
33584
33330
33274
33198
33167
32894
32807
32770
32718
32663
32607
32717
32900
32998
32983
33132
33217
33302
33309
33148
33174
33122
33009
32767
32748
32673
32547
32468
32310
32359
32447
32518
32527
32734
32943
32984
32954
33052
33063
33169
33069
32949
32962
32895
32780
32618
32484
32486
32500
32534
32566
32535
32730
32872
33013
33052
33135
33241
33236
33082
33092
32967
32792
32440
32311
32129
31772
31509
31364
31174
30973
30983
31071
30960
31098
31163
31196
31142
31138
31285
31517
31730
31973
32516
33130
33963
34942
36518
38180
40071
42100
44212
46381
48636
50860
52968
55030
56608
57606
58132
58012
57421
56418
55533
54303
52889
51182
49415
47656
45805
43740
41367
38668
36632
35335
34532
34055
33780
33511
33268
32895
32766
32580
32381
32164
31821
31725
31620
31525
31379
31250
31135
31013
30756
30709
30742
30674
30610
30374
30324
30383
30334
30258
30021
30004
29937
29884
29748
29624
29677
29767
29767
29725
29868
30053
30196
30276
30275
30174
30308
30329
30258
30061
30113
30096
29999
29922
29738
29751
29902
29961
30003
30082
30016
30215
30385
30431
30332
30408
30549
30532
30426
30331
30387
30312
30052
30054
30196
30125
30100
30037
30273
30447
30372
30509
30701
30823
30743
30820
30938
30915
30749
30834
30822
30625
30702
30688
30566
30495
30695
30795
30748
30930
31111
31194
31154
31324
31388
31404
31268
31433
31476
31448
31239
31199
31295
31327
31199
31230
31330
31403
31324
31540
31652
31799
31767
31851
31942
31977
31823
31881
31889
31850
31759
31808
31751
31560
31582
31670
31704
31773
31703
31738
31825
31905
32015
32039
32001
32097
32039
31842
31951
31884
31832
31676
31722
31776
31778
31723
31634
31727
31741
31696
31538
31631
31703
31836
31880
31729
31767
31728
31534
31569
31522
31442
31210
31245
31180
31190
31190
31193
31196
31216
31239
31252
31255
31151
31065
31038
30997
30928
30978
30952
30855
30629
30697
30695
30650
30471
30591
30679
30655
30548
30677
30746
30615
30727
30788
30735
30575
30690
30762
30687
30510
30603
30614
30448
30478
30646
30692
30584
30798
30930
31022
30969
31198
31300
31159
31274
31363
31204
31319
31395
31391
31270
31343
31495
31519
31423
31634
31775
31886
31791
31999
32065
32106
32156
32245
32278
32108
32198
32239
32126
32260
32295
32282
32148
32318
32380
32228
32388
32535
32600
32682
32659
32751
32833
32739
32786
32871
32751
32798
32876
32823
32674
32795
32871
32874
32877
32954
33046
33016
33028
33116
33188
33066
33187
33239
33246
33129
33149
33136
32948
33031
33053
33031
33092
33138
32996
33159
33328
33323
33243
33311
33388
33279
33303
33332
33319
33121
33191
33217
33180
33040
33142
33153
33103
33172
33268
33278
33175
33320
33375
33383
33246
33361
33360
33172
33262
33251
33135
33189
33200
33136
33084
33201
33243
33230
33323
33351
33255
33380
33415
33252
33298
33346
33180
33219
33185
33140
33063
33077
33121
32966
33082
33152
33132
33119
33116
33294
33217
33300
33327
33261
33125
33151
33159
32959
33002
33014
32959
32730
32851
32896
32936
32917
32982
33111
33231
33282
33157
33281
33253
33216
32987
33022
32948
32711
32802
32826
32734
32677
32756
32840
32799
33039
33265
33287
33467
33629
33728
33807
33769
33671
33563
33477
33415
33351
33187
33279
33316
33316
33217
33409
33541
33614
33603
33774
33814
33827
33944
33904
33700
33687
33561
33365
33114
33133
33031
32804
32861
32870
32775
32924
32975
32936
33127
33284
33225
33421
33438
33279
33314
33174
32870
32805
32673
32421
32421
32385
32337
32294
32389
32284
32494
32587
32544
32802
32901
32971
33091
33190
33102
32893
32775
32599
32341
32263
32221
32130
32021
32187
32227
32174
32290
32576
32826
33006
33044
33231
33286
33173
33116
33036
32737
32698
32495
32254
32259
32189
32073
32223
32135
32329
32471
32436
32715
32775
32695
32679
32577
32249
32159
31916
31479
31351
31148
30837
30900
30786
30524
30520
30532
30525
30626
30895
31207
31484
32167
32962
33647
34692
35757
36892
38181
39648
41441
43296
44816
46284
47698
48908
49690
50124
50266
50053
49831
49330
48753
47964
46855
45439
43749
42062
40024
37668
35380
33698
32556
32274
32187
32164
32138
32391
32511
32432
32636
32740
32678
32754
32775
32711
32481
32390
32196
31934
31608
31570
31239
31225
31119
30881
30818
30947
30957
30871
31086
31294
31225
31532
31649
31556
31593
31368
31059
30853
30642
30370
30369
30351
30189
30311
30422
30491
30613
30890
31124
31138
31489
31573
31533
31652
31492
31326
31146
30778
30703
30618
30354
30400
30404
30287
30491
30560
30826
31108
31163
31530
31720
31835
31988
31902
31765
31663
31495
31137
31042
30916
30655
30685
30753
30611
30866
31078
31150
31464
31556
31897
32127
32135
32308
32392
32141
32084
31948
31751
31488
31398
31133
31147
31133
31068
31342
31511
31519
31806
32186
32431
32482
32661
32775
32772
32761
32481
32333
32197
31823
31751
31672
31430
31549
31625
31720
31812
32129
32330
32448
32686
32871
33103
33181
33133
33017
32868
32722
32504
32124
32070
31943
31679
31733
31842
31900
31975
32208
32491
32583
32868
33076
33107
33248
33271
32994
32884
32660
32188
32020
31839
31674
31537
31525
31509
31534
31760
31769
32050
32298
32335
32641
32828
32732
32719
32593
32286
31965
31714
31311
31239
31060
30750
30821
30707
30789
30993
31004
31300
31561
31578
31846
31907
32031
32046
31724
31639
31297
30999
30782
30388
30332
30266
30195
30195
30201
30513
30663
30852
31199
31460
31543
31842
31829
31895
31835
31514
31354
31077
30730
30708
30615
30356
30453
30567
30589
30907
31078
31342
31663
31799
32220
32263
32447
32444
32218
32157
31775
31618
31373
31036
31029
30895
30916
30991
30897
31265
31535
31650
31961
32089
32471
32586
32725
32791
32581
32486
32116
31997
31596
31514
31410
31287
31212
31387
31367
31686
31863
32149
32498
32723
33020
33141
33344
33237
33263
32999
32879
32446
32384
32065
31988
31960
31774
31945
32080
32143
32516
32793
32919
33311
33474
33546
33744
33825
33656
33524
33130
32929
32697
32519
32391
32226
32247
32099
32350
32416
32783
33087
33319
33623
33718
34023
33919
33983
33751
33634
33366
33118
32902
32654
32572
32298
32366
32372
32355
32600
32656
33004
33300
33460
33758
33804
34002
33905
33824
33655
33244
33075
32636
32495
32386
32211
32210
32111
32255
32215
32575
32684
33047
33328
33460
33703
33654
33734
33521
33300
33054
32662
32492
32230
32024
31924
31711
31866
31860
32132
32379
32505
32873
32925
33309
33422
33492
33535
33249
33159
32937
32494
32313
31914
31919
31879
31859
31974
32001
32335
32496
32882
33195
33415
33724
33844
33952
34016
33813
33799
33620
33245
33094
32954
32598
32557
32543
32439
32652
32768
32932
33228
33345
33695
33932
34065
33991
33969
33886
33582
33399
33090
32647
32463
32307
32057
32076
32113
32077
32308
32527
32578
32886
33167
33270
33566
33420
33506
33419
33123
32941
32696
32285
32215
31950
31797
31793
31623
31838
32038
32099
32434
32677
32829
33133
33286
33286
33422
33229
33018
32855
32415
32204
32087
31820
31804
31708
31783
31898
31845
32194
32501
32639
32952
33136
33380
33556
33417
33421
33273
32954
32678
32407
32208
31922
31900
31868
31667
31791
31837
31930
32058
32041
32257
32412
32346
32454
32503
32239
32148
31948
31467
31295
31012
30623
30611
30516
30396
30755
31207
31694
32678
33735
34855
35966
37266
38663
40439
41882
43494
44802
45876
46625
47212
47514
47318
46947
46533
46012
45555
44965
44223
43436
42309
41134
39823
38048
36383
34533
33372
32662
32287
31978
31955
31930
31808
31567
31652
31662
31532
31728
31924
31964
32297
32573
32590
32788
32815
32614
32413
32262
31972
31657
31230
30999
30863
30736
30499
30665
30795
30921
30991
31415
31713
31820
32110
32250
32221
31971
31863
31701
31300
31095
30963
30703
30470
30505
30533
30686
30785
30981
31239
31536
31668
32027
32199
32279
32172
32239
32081
31687
31488
31327
30979
30918
30831
30702
30682
30896
30977
31111
31540
31734
32088
32342
32364
32579
32647
32373
32338
32225
31785
31655
31494
31183
31127
31159
31221
31318
31429
31659
31942
32109
32498
32750
32791
33038
33143
33048
32743
32647
32396
32189
31830
31751
31751
31654
31538
31719
31938
32042
32321
32684
32936
33070
33325
33505
33415
33397
33277
33027
32689
32505
32349
32043
32047
32005
31879
32086
32286
32444
32636
33018
33190
33446
33703
33661
33764
33727
33451
33287
33030
32607
32486
32383
32116
32128
32173
32156
32310
32559
32713
32892
33263
33453
33508
33716
33676
33466
33380
33117
32668
32464
32255
31907
31836
31785
31545
31676
31793
31873
32185
32455
32623
32743
32933
32970
32797
32660
32547
32140
31925
31668
31331
31158
31014
30781
30702
30879
30804
31055
31260
31405
31581
31911
32055
32007
32118
31975
31668
31560
31191
30861
30727
30571
30303
30413
30385
30290
30549
30780
30847
31233
31550
31615
31866
32075
32095
31946
31928
31716
31351
31268
30997
30839
30751
30607
30631
30883
30972
31046
31459
31739
31871
32263
32366
32525
32657
32541
32244
32169
31872
31551
31434
31247
30983
31051
31066
31159
31357
31399
31791
32101
32226
32602
32819
32871
32918
32860
32620
32583
32342
31980
31874
31686
31556
31591
31439
31662
31897
31916
32323
32547
32722
33029
33319
33457
33497
33388
33299
33039
32745
32575
32215
32167
32105
31882
32052
32015
32330
32588
32679
33060
33325
33461
33729
33886
33876
33740
33604
33452
33065
32917
32701
32484
32331
32372
32361
32294
32583
32772
33012
33192
33423
33735
33958
34004
33946
33927
33807
33508
33221
33027
32812
32628
32360
32385
32386
32339
32540
32812
33044
33129
33479
33775
33940
33860
33907
33891
33713
33485
33008
32869
32640
32311
32249
32216
32042
32241
32375
32457
32719
33031
33148
33445
33448
33591
33670
33477
33344
33175
32813
32549
32367
31979
31951
31915
31782
31986
31966
32230
32454
32556
32934
33044
33302
33422
33342
33377
33129
33087
32938
32538
32481
32382
32175
32239
32263
32231
32417
32671
32903
33111
33315
33746
33960
33980
34050
33989
33836
33613
33230
33093
32689
32615
32519
32255
32365
32450
32407
32748
32899
33017
33402
33604
33671
33893
33861
33636
33471
33311
32857
32663
32450
32115
32006
32031
32010
31979
32215
32311
32516
32775
32862
33186
33385
33375
33508
33422
33231
32834
32663
32407
32110
31842
31743
31706
31513
31700
31908
32103
32204
32526
32756
33037
33191
33275
33327
33329
33020
32926
32677
32302
32068
32004
31866
31655
31818
31836
31863
32162
32447
32613
33013
33141
33317
33527
33584
33337
33261
33060
32701
32207
31935
31677
31399
31029
31051
31024
31018
30942
31250
31484
31771
31846
32023
32149
32047
31727
31576
31343
31026
30695
30897
31048
31363
32116
33033
34071
35566
37188
39128
41176
43172
45308
47144
48764
50006
50892
51301
51167
50592
49772
48892
47945
46918
45767
44533
42975
41468
40152
38630
37004
35402
34238
33828
33626
33585
33287
33195
32903
32499
31948
31572
31340
31150
31026
30901
30982
31233
31463
31660
31772
32115
32339
32410
32285
32329
32111
31675
31463
31151
30798
30434
30434
30279
30030
30139
30236
30144
30412
30778
31044
31145
31507
31710
31652
31708
31783
31656
31399
30992
30853
30622
30408
30100
30077
30215
30230
30233
30545
30865
31102
31340
31751
31926
31910
32059
32061
31815
31482
31315
31029
30599
30535
30430
30242
30407
30444
30487
30872
31168
31304
31731
32044
32203
32316
32465
32420
32095
31999
31735
31273
31159
31012
30749
30823
30895
30791
31020
31320
31429
31808
32205
32383
32596
32794
32855
32629
32559
32455
32119
31695
31622
31508
31207
31274
31316
31239
31474
31768
31971
32121
32530
32828
32879
33108
33197
33151
32908
32838
32549
32166
32076
31853
31717
31716
31604
31772
31751
32063
32333
32424
32799
33050
33159
33372
33405
33287
33179
32955
32503
32351
32143
31942
31649
31655
31662
31680
31679
32005
32146
32224
32607
32871
32869
33061
33095
33004
32647
32516
32236
31766
31623
31430
31088
31100
31092
31007
31065
31330
31471
31542
31910
32074
32210
32303
32124
32143
31978
31719
31489
31009
30863
30695
30359
30400
30371
30215
30397
30622
30711
30942
31170
31198
31442
31578
31401
31477
31357
30997
30855
30665
30263
30150
30215
30119
29940
30113
30312
30409
30527
30932
31143
31300
31583
31606
31761
31821
31559
31556
31420
31207
30952
30938
30780
30600
30716
30864
30956
31054
31436
31612
31759
32101
32247
32254
32442
32468
32213
32165
32047
31911
31554
31602
31516
31333
31444
31568
31536
31866
32010
32140
32475
32685
32739
33007
33106
32961
32943
32929
32714
32429
32404
32261
32110
32164
32014
32175
32367
32512
32620
32915
32966
33333
33543
33540
33686
33679
33437
33423
33037
32917
32771
32518
32576
32495
32359
32540
32606
32618
33001
33159
33223
33514
33724
33858
33767
33858
33749
33421
33335
33172
32815
32713
32695
32658
32539
32599
32830
32935
33020
33305
33555
33673
33791
33950
34075
33889
33895
33740
33477
33214
33109
32873
32695
32755
32685
32602
32834
32960
32981
33321
33552
33620
33860
34044
34025
33983
33895
33684
33330
33226
32943
32676
32714
32589
32431
32599
32652
32664
33018
33190
33283
33602
33811
33799
33926
33901
33543
33413
33182
32964
32606
32567
32367
32228
32314
32300
32404
32630
32692
33100
33450
33592
33988
34138
34212
34238
33999
33980
33716
33317
33239
33118
32949
32801
32913
33001
33115
33132
33469
33724
33822
34143
34356
34399
34320
34280
34209
33971
33527
33348
33102
32753
32710
32625
32564
32439
32660
32806
32967
33031
33404
33578
33596
33767
33770
33708
33484
33415
33105
32705
32557
32452
32276
32167
32007
32161
32293
32415
32430
32783
32993
33023
33254
33423
33301
33423
33258
32903
32775
32598
32313
32211
32071
31820
31929
32022
31956
32223
32399
32471
32839
33103
33108
33361
33452
33407
33151
33102
32903
32602
32340
32311
32160
31941
32028
32100
32056
32261
32515
32701
32870
32900
33116
33160
32958
32911
32609
32058
31681
31371
31036
30596
30540
30271
30114
30161
30141
30095
30435
30647
30980
31643
32353
32897
33774
34612
35516
36855
38271
39854
41421
43116
45008
46740
48558
50276
51921
53446
54524
55291
55520
55252
54622
53988
53044
51796
50358
48674
46831
44848
42645
40503
37942
35690
34072
32998
32612
32332
32063
32056
32148
32338
32449
32447
32293
32303
32237
32002
31686
31261
31028
30764
30453
30087
29831
29897
29871
29934
29909
30237
30460
30635
30750
30704
30858
30881
30713
30435
30364
30134
29868
29692
29665
29558
29354
29548
29696
29764
29842
30142
30415
30615
30644
30889
30986
30959
30818
30591
30495
30375
30175
29863
29860
29828
29630
29816
29946
29941
30186
30523
30721
30746
31012
31252
31313
31159
31176
31073
30784
30588
30530
30327
30042
30132
30174
30052
30308
30476
30636
30725
31101
31297
31320
31607
31664
31535
31484
31495
31292
30974
30915
30805
30503
30608
30642
30522
30682
30977
31149
31156
31462
31734
31900
32007
31955
31978
32040
31919
31604
31548
31433
31285
31012
31122
31108
30980
31219
31422
31392
31679
31978
32132
32132
32406
32516
32342
32397
32246
31903
31854
31678
31378
31416
31317
31167
31364
31383
31343
31613
31828
31863
32174
32348
32300
32486
32511
32331
32009
31973
31727
31373
31388
31197
30919
31020
31028
30921
31134
31284
31415
31445
31724
31864
31760
31983
31908
31572
31516
31306
30919
30842
30646
30415
30199
30244
30270
30125
30278
30502
30612
30708
30741
31014
31111
30981
31002
30969
30765
30401
30301
30139
29972
29644
29772
29676
29660
29564
29855
29919
29972
30263
30292
30569
30762
30820
30699
30761
30703
30396
30276
30231
29949
30012
30014
29839
30049
30215
30234
30551
30801
30849
31235
31462
31484
31708
31793
31611
31709
31528
31322
31300
31111
31101
31143
31095
31091
31373
31501
31540
31910
32140
32197
32497
32695
32623
32813
32814
32572
32543
32388
32103
32128
32122
32015
31940
32127
32204
32210
32479
32678
32732
33071
33311
33391
33340
33500
33383
33247
33158
32933
32805
32739
32492
32528
32578
32512
32563
32761
32842
33026
33276
33265
33447
33653
33743
33600
33575
33567
33423
33245
32895
32813
32847
32715
32616
32757
32804
32739
33013
33196
33253
33526
33688
33732
33764
33828
33732
33479
33470
33321
32993
32964
32956
32881
32721
32813
33006
33025
33116
33310
33360
33652
33830
33880
33817
33942
33908
33677
33647
33494
33281
33004
32988
32991
32931
32801
32970
33079
33004
33159
33460
33631
33649
33879
33952
33854
33774
33712
33411
33348
33208
32899
32966
32811
32658
32815
32829
32861
33064
33219
33231
33483
33621
33612
33788
33793
33556
33452
33457
33242
32988
32998
32895
32676
32846
32936
33041
33124
33389
33444
33775
33984
34020
34197
34388
34405
34210
34269
34132
33934
33837
33568
33596
33533
33391
33470
33476
33460
33671
33639
33842
34020
34031
34165
34260
34095
34017
33983
33815
33599
33253
33133
33139
32980
32821
32940
32943
32956
32924
33213
33327
33352
33652
33724
33726
33575
33613
33524
33370
33051
33042
32890
32698
32508
32546
32559
32428
32676
32767
32767
33074
33247
33244
33507
33574
33394
33423
33388
33220
32898
32879
32701
32391
32464
32450
32282
32489
32606
32614
32781
33041
33178
33203
33479
33519
33442
33356
33397
33236
32916
32887
32721
32435
32476
32426
32288
32231
32279
32258
32130
32214
32157
31929
32045
31887
31588
31556
31348
30942
30764
30558
30299
30176
30247
30302
30714
31324
31972
32688
33932
35359
36839
38980
41063
43409
45287
47338
49423
51367
53240
54952
56548
57652
58146
58191
57759
57044
56327
55404
54212
52932
51494
49832
48028
45946
43694
40721
38012
36188
34660
33941
33239
32759
32404
31999
31973
31647
31764
31749
31716
31910
31936
31908
32027
31895
31567
31476
31132
30617
30498
30215
29889
29840
29551
29628
29623
29491
29703
29655
29831
30133
30213
30234
30502
30348
30540
30407
30362
30183
29823
29814
29717
29462
29589
29433
29447
29629
29547
29872
29924
30110
30326
30330
30676
30639
30518
30646
30575
30291
30309
30029
29958
29909
29660
29767
29849
29746
29975
30137
30151
30522
30664
30655
30929
31032
30916
31065
30925
30630
30581
30469
30169
30277
30140
30079
30208
30074
30317
30522
30553
30815
31151
31263
31384
31492
31340
31511
31386
31108
31135
30886
30599
30670
30607
30545
30613
30476
30758
30954
30928
31327
31466
31495
31804
31874
31733
31934
31596
31601
31495
31190
31233
31118
30906
31011
31026
30975
31191
31272
31302
31583
31842
31870
32117
32202
32055
32148
32072
31772
31798
31524
31277
31293
31175
31013
30972
31154
31215
31312
31253
31546
31748
31705
31855
32010
32017
31772
31750
31609
31374
31019
31028
30874
30575
30642
30625
30502
30679
30762
30831
30895
31164
31291
31193
31322
31375
31249
30948
30884
30701
30355
30140
30164
30046
29756
29831
29887
29799
29994
30165
30167
30295
30585
30670
30554
30612
30682
30538
30243
30104
30062
29869
29593
29665
29585
29625
29566
29719
29990
30137
30146
30379
30727
30869
30964
30895
31068
30991
30758
30725
30740
30584
30383
30427
30494
30535
30556
30681
31003
30999
31303
31623
31799
31836
32096
32196
32181
31986
32015
31896
31627
31628
31612
31503
31343
31518
31660
31597
31824
32117
32342
32543
32649
32950
33039
32973
33099
33019
32721
32706
32579
32331
32444
32315
32146
32324
32254
32486
32652
32638
33004
33153
33287
33529
33582
33617
33669
33415
33421
33183
32953
32894
32636
32714
32680
32532
32740
32766
32841
33076
33119
33425
33620
33588
33790
33828
33764
33566
33539
33329
33094
33026
32724
32820
32742
32580
32743
32679
32961
33143
33190
33551
33638
33727
33852
33758
33817
33753
33467
33388
33083
33052
32916
32788
32799
32645
32815
32738
33026
33175
33261
33542
33630
33774
33868
33756
33883
33700
33505
33436
33084
33094
32958
32661
32711
32671
32644
32817
32916
32935
33120
33388
33588
33594
33789
33606
33609
33629
33457
33140
33129
32994
32702
32686
32645
32487
32652
32691
32691
32756
33116
33333
33319
33595
33740
33743
33582
33633
33568
33303
33148
33164
33013
32984
32978
32871
33079
33150
33269
33494
33505
33887
34086
34179
34237
34340
34300
34151
34084
33680
33594
33438
33130
33158
33118
32903
33050
32977
33165
33345
33489
33566
33855
33923
33927
33991
33788
33831
33710
33316
33222
33014
32689
32687
32633
32535
32552
32717
32796
32767
33031
33252
33391
33497
33636
33639
33439
33402
33238
32860
32828
32599
32399
32300
32273
32110
32361
32391
32348
32641
32879
32935
33271
33350
33275
33455
33431
33200
33180
32927
32485
32479
32398
32164
32279
32100
32292
32457
32455
32813
32973
33042
33332
33479
33428
33597
33564
33252
33174
32893
32450
32206
32108
31784
31381
31268
31148
30890
30949
31087
31165
31076
31359
31561
31387
31450
31253
30897
30877
30606
30392
30660
30849
31473
32271
33234
34516
36210
38023
40106
42311
44367
46524
48489
50221
51744
52764
53316
53383
52957
52249
51463
50540
49399
48174
46649
45153
43415
41791
39908
37765
35968
34743
34310
34020
33718
33682
33516
33183
32774
32521
32183
31719
31524
31511
31383
31396
31599
31660
31630
31886
32050
32132
31952
32072
31964
31744
31381
31287
31017
30592
30526
30438
30261
29964
30164
30212
30198
30535
30647
30602
30965
31181
31281
31207
31349
31409
31286
30954
30870
30711
30311
30191
30214
30119
30108
30283
30285
30437
30740
30860
30892
31189
31365
31518
31385
31492
31383
31281
30939
30847
30716
30452
30375
30471
30409
30388
30654
30735
30757
31143
31332
31383
31669
31869
31748
31875
31815
31543
31484
31316
31016
30982
30959
30849
30831
30971
31076
31070
31414
31637
31831
31930
32204
32293
32252
32374
32250
32091
31874
31824
31614
31468
31426
31234
31278
31453
31510
31499
31846
32102
32180
32367
32655
32759
32604
32661
32711
32553
32231
32162
32037
31847
31658
31769
31719
31639
31857
31975
32024
32383
32493
32548
32871
32936
32989
33012
32705
32666
32467
32111
32087
31907
31639
31768
31637
31552
31735
31684
31966
32212
32245
32538
32652
32505
32653
32641
32358
32300
32068
31657
31475
31350
31111
30978
31080
31006
30937
31170
31339
31454
31622
31863
31815
31889
31969
31925
31604
31492
31362
31070
30726
30717
30521
30228
30378
30365
30311
30533
30487
30786
30976
30941
31271
31445
31348
31513
31364
31069
31022
30807
30453
30512
30429
30290
30430
30539
30494
30782
30983
31172
31333
31641
31839
31834
32079
32064
31778
31849
31590
31390
31391
31260
31132
31137
31098
31029
31293
31438
31421
31771
32005
32070
32244
32519
32534
32431
32371
32318
32186
31820
31793
31682
31588
31562
31550
31518
31767
31875
32031
32298
32361
32705
32932
33062
33002
33103
33047
32773
32658
32547
32189
32175
32230
32080
32103
32178
32131
32483
32637
32748
33085
33287
33270
33492
33535
33398
33384
33351
33228
32909
32866
32718
32458
32489
32500
32564
32576
32831
32968
32985
33281
33532
33671
33687
33842
33849
33607
33550
33410
33197
32854
32864
32700
32646
32708
32675
32590
32908
33044
33088
33398
33628
33594
33777
33852
33641
33652
33580
33286
33151
32842
32666
32601
32559
32572
32446
32723
32837
32838
33135
33255
33321
33565
33657
33492
33588
33558
33287
33252
32973
32706
32677
32389
32305
32405
32375
32335
32502
32699
32804
32941
33194
33425
33506
33367
33479
33438
33158
32977
32799
32473
32356
32326
32223
32201
32162
32431
32575
32660
32974
33235
33265
33627
33828
33847
33791
33781
33687
33337
33223
33103
32935
32756
32807
32807
32715
33023
33124
33180
33329
33639
33857
33820
33903
33950
33924
33806
33694
33433
33188
32949
32652
32580
32501
32452
32432
32375
32668
32839
32924
33189
33386
33371
33567
33645
33499
33460
33344
33023
32628
32532
32455
32212
32122
32183
32135
32143
32348
32463
32679
32924
32950
33212
33359
33278
33372
33284
32943
32853
32634
32117
32060
32028
31978
31841
32022
32071
32034
32377
32733
32861
33205
33348
33372
33480
33479
33236
33156
32948
32591
32451
32301
31963
31946
31982
31975
31974
32214
32378
32422
32728
32775
32802
32808
32535
32487
32223
31797
31604
31316
30918
30895
30727
30374
30322
30277
30214
30468
30735
30877
31457
32100
32799
33700
34732
35632
36493
37673
39029
40695
42127
43551
45002
46199
47196
47829
48160
48247
48076
47750
47468
46942
46277
45305
44097
42831
41142
39247
37124
35060
33190
32377
31987
31710
31828
31988
31932
32069
32171
32278
32516
32647
32686
32804
32946
32844
32596
32468
32268
31892
31791
31482
31140
31052
31021
30776
30958
30999
30927
31193
31544
31717
31850
32023
32036
31890
31879
31751
31380
31128
30989
30719
30420
30425
30444
30358
30514
30780
30847
31076
31352
31717
31951
31957
32129
32164
32006
31702
31626
31371
30996
30947
30826
30546
30626
30711
30676
30912
31197
31510
31740
32006
32164
32340
32487
32468
32260
32198
31983
31631
31536
31396
31142
31182
31015
31089
31321
31428
31658
32072
32255
32431
32729
32775
33012
33015
32728
32656
32468
32083
32003
31860
31543
31533
31606
31516
31780
31991
32159
32246
32636
32956
33015
33302
33248
33287
33237
32945
32831
32655
32390
32168
32117
32048
31866
32034
32216
32381
32430
32715
32932
33231
33342
33531
33661
33637
33391
33300
33135
32864
32682
32398
32327
32355
32316
32325
32343
32519
32727
33001
33197
33314
33632
33837
33822
33710
33629
33465
33260
32833
32590
32424
32255
32030
32057
31970
32071
32260
32455
32634
32755
32876
33014
33278
33357
33204
33086
32898
32497
32188
32007
31701
31371
31325
31269
31214
31372
31476
31465
31725
32004
32027
32282
32492
32481
32516
32364
32186
31834
31367
31185
31031
30846
30655
30528
30543
30606
30628
31016
31414
31663
31774
32088
32335
32383
32327
32183
32127
31924
31511
31411
31204
30916
30938
30935
30848
31100
31263
31341
31661
31925
32087
32439
32639
32748
32811
32555
32448
32228
31892
31559
31429
31282
31033
30782
30964
31212
31233
31566
31887
32125
32244
32560
32810
32764
32907
32836
32516
32305
32013
31623
31517
31419
31239
31082
31285
31473
31647
31734
32140
32476
32639
32871
33146
33313
33209
33159
33044
32782
32381
32235
32059
31718
31701
31749
31810
31897
31999
32196
32567
32829
33018
33463
33626
33568
33631
33655
33367
33303
32994
32625
32418
32297
31998
32106
32217
32276
32278
32622
32927
33227
33602
33652
33871
34043
34042
33852
33716
33436
33060
32807
32582
32263
32282
32263
32231
32188
32477
32668
32858
33191
33492
33547
33856
33930
33808
33758
33616
33226
33048
32764
32509
32350
32007
31998
32050
32008
32259
32429
32724
32954
33404
33580
33727
33858
33697
33455
33468
33233
32732
32482
32246
31864
31785
31776
31684
31860
32051
32188
32615
33031
33366
33540
33903
34019
33988
33942
33799
33487
33138
32838
32525
32232
32231
32221
32116
32399
32638
32718
33133
33490
33850
33991
34311
34443
34413
34213
34076
33711
33259
33007
32670
32246
32111
32031
31836
32019
32273
32375
32729
33074
33403
33580
33854
33981
33868
33735
33541
33055
32689
32398
32054
31658
31439
31448
31346
31573
31804
31890
32306
32697
33048
33286
33581
33746
33667
33564
33244
32767
32350
32100
31743
31356
31257
31234
31051
31309
31556
31767
32150
32454
32879
33287
33543
33638
33745
33626
33222
33007
32549
32073
31651
31532
31419
31131
31247
31447
31497
31900
32269
32533
32999
33263
33373
33500
33495
33148
32836
32383
31681
31231
30925
30476
30386
30263
30206
30190
30468
30631
30762
31238
31647
31871
32308
32587
32705
33119
33485
33696
34052
34470
35158
35879
37172
38502
40189
41752
43085
44315
45348
46087
46367
46408
46304
45899
45214
44356
43430
42167
40521
38884
37087
35385
33810
32044
31046
30763
30757
31308
31823
32156
32728
32988
33331
33446
33269
33118
32822
32392
31800
31504
31142
30764
30722
30695
30684
30702
30956
31281
31462
31793
32171
32491
32519
32815
32839
32541
32321
32036
31537
31103
30914
30660
30265
30282
30233
30147
30553
30874
31027
31514
31974
32263
32646
32857
32723
32723
32554
32255
31823
31273
31023
30855
30513
30531
30595
30535
30862
31140
31284
31740
32204
32543
32770
33070
33127
32963
32849
32551
32036
31770
31398
31043
31025
30791
30980
31151
31165
31527
31910
32135
32599
33015
33192
33509
33615
33519
33107
32934
32637
32135
31924
31685
31330
31302
31291
31455
31701
31959
32290
32532
32993
33432
33613
33895
33991
33878
33524
33256
32929
32475
32031
31952
31882
31775
31589
31799
32106
32327
32575
33079
33391
33702
34021
34270
34220
34183
34020
33705
33188
32924
32660
32250
32134
32049
32102
32103
32362
32618
32807
33308
33724
33944
34215
34402
34426
34360
34191
33735
33351
32988
32655
32237
32183
32106
31903
31967
32194
32423
32742
32925
33343
33748
34001
33994
34125
34046
33794
33287
32948
32553
32103
31812
31441
31397
31349
31386
31389
31686
31958
32096
32532
32900
33103
33145
33255
33159
32860
32549
32116
31543
31161
30910
30764
30631
30418
30617
30861
31078
31197
31652
32068
32276
32599
32785
32946
32687
32550
32294
31804
31388
31071
30613
30583
30604
30532
30525
30838
31103
31261
31751
32133
32428
32774
32983
33060
32865
32690
32428
31975
31444
31193
31039
30677
30678
30775
30801
30807
31111
31483
31871
32141
32628
32935
33162
33095
33101
32927
32630
32106
31806
31448
31077
30999
30975
30804
30992
31189
31402
31622
32065
32519
32720
33108
33350
33511
33314
33138
32843
32551
32165
31730
31469
31391
31324
31213
31345
31638
31882
32014
32466
32932
33335
33530
33799
33900
33766
33610
33453
33031
32482
32230
31970
31851
31636
31760
31885
31916
32253
32599
33015
33254
33690
34046
34133
34302
34244
34022
33533
33280
32991
32439
32274
32158
31934
31953
32135
32284
32367
32748
33190
33563
33797
34171
34374
34253
34143
34071
33814
33383
33065
32696
32284
32132
32081
31870
31937
32188
32448
32590
33012
33455
33707
33934
34247
34382
34282
33983
33503
33164
32772
32383
31928
31718
31713
31684
31785
31839
32043
32430
32790
33284
33677
33998
34186
34241
34213
34092
33824
33401
32990
32465
32278
32097
32071
32134
32167
32285
32589
32985
33305
33687
33882
34207
34404
34452
34417
34164
33772
33409
32969
32420
32281
32042
31943
31716
31879
32079
32303
32548
32788
33168
33582
33916
34112
34069
34002
33732
33338
32845
32378
32016
31751
31381
31344
31341
31439
31604
31791
32128
32524
32870
33063
33486
33757
33761
33621
33387
33106
32501
32100
31855
31591
31239
31197
31209
31239
31264
31613
31937
32273
32574
33076
33423
33663
33598
33593
33431
33159
32726
32171
31879
31653
31415
31211
31115
31298
31556
31759
31987
32332
32745
33145
33410
33423
33484
33372
33116
32471
31999
31510
30966
30498
30318
30197
30073
30082
30108
30373
30684
30913
31079
31522
31914
32263
32558
32788
33116
33347
33783
34260
34871
35900
37061
38455
40146
41807
43345
44871
46215
47348
48180
48487
48511
48244
47775
46972
45966
44648
43194
41551
39481
37786
36206
34439
32855
31823
31264
31275
31604
32028
32255
32672
32956
33063
33024
32919
32675
32174
31823
31456
30963
30804
30629
30548
30509
30375
30639
30886
31042
31174
31617
31962
32047
32237
32383
32366
32204
31783
31457
31038
30475
30238
30142
30030
29862
29913
30196
30430
30585
31104
31500
31799
32084
32337
32517
32431
32117
31939
31566
31015
30764
30539
30192
30195
30228
30237
30328
30649
31017
31255
31804
32212
32512
32663
32794
32837
32486
32288
31943
31526
31152
30727
30639
30638
30599
30559
30871
31180
31365
31701
32223
32720
32900
33231
33352
33306
33006
32758
32428
31845
31597
31435
31239
30980
31077
31272
31437
31535
31943
32340
32719
33071
33281
33577
33735
33558
33479
33236
32742
32450
32199
31949
31674
31537
31640
31743
31751
32119
32423
32837
33096
33463
33766
34016
33964
34028
33925
33621
33207
32940
32680
32391
32055
32078
32115
32104
32278
32556
32828
33031
33447
33810
34007
34234
34372
34216
34071
33847
33356
33099
32759
32300
32218
32126
32080
31970
32214
32423
32549
32847
33247
33542
33700
33972
34014
33799
33643
33388
32822
32501
32170
31716
31590
31461
31263
31383
31435
31569
31892
32052
32467
32797
32845
33114
33175
32980
32846
32577
32016
31670
31397
31063
30784
30677
30470
30635
30751
30765
31172
31506
31692
32121
32463
32517
32717
32734
32394
32220
31873
31284
31028
30827
30513
30343
30373
30391
30567
30855
30972
31420
31879
32128
32535
32828
32772
32852
32716
32282
32003
31620
31110
30928
30785
30476
30499
30705
30868
30957
31394
31804
32088
32555
33029
33264
33287
33301
33172
32722
32471
31886
31556
31322
30918
30937
30924
30825
31105
31367
31596
32133
32628
33035
33307
33636
33827
33693
33570
33279
32697
32357
31900
31513
31420
31201
31148
31288
31340
31727
32132
32386
32938
33415
33676
34044
34236
34063
33943
33662
33075
32694
32282
31831
31710
31575
31404
31596
31732
31903
32352
32828
33135
33677
34052
34228
34410
34422
34077
33815
33412
32919
32407
32142
31715
31677
31687
31732
31761
32124
32495
32795
33303
33743
34088
34221
34454
34456
34084
33815
33412
32770
32426
32153
31734
31743
31683
31583
31780
32082
32469
32828
33126
33610
34036
34306
34372
34271
34028
33773
33150
32805
32375
31895
31716
31629
31353
31516
31767
31887
32340
32822
33183
33716
34188
34492
34548
34631
34498
34166
33685
33293
32844
32397
32258
32201
31975
32119
32293
32483
32804
33230
33708
33960
34400
34652
34756
34631
34437
34087
33697
33204
32610
32388
32167
31847
31815
31926
32032
32120
32494
32860
33155
33570
33891
34171
34222
34146
34017
33653
33084
32689
32332
31809
31655
31522
31398
31332
31556
31822
31986
32456
32870
33092
33519
33795
33873
33717
33615
33319
32767
32398
32055
31676
31301
31276
31278
31135
31428
31691
31825
32263
32724
33085
33338
33647
33869
33775
33558
33215
32935
32516
32124
31751
31647
31524
31311
31471
31642
31828
32030
32484
32909
33175
33575
33781
33807
33620
33384
32999
32250
31811
31239
30653
30435
30180
29905
30012
29998
30000
30357
30698
31100
31601
32276
33020
33740
34229
34705
35276
35996
36894
38063
39336
40804
42276
43724
45393
47078
48740
50349
51667
52848
53620
53726
53335
52799
51793
50588
49151
47419
45586
43621
41869
39815
37733
35492
33848
32580
31935
31818
31844
31984
32297
32373
32658
32825
32700
32652
32228
31887
31474
30879
30606
30311
29833
29742
29657
29534
29837
30068
30244
30773
31178
31461
31584
31806
31812
31683
31386
30937
30632
30215
29765
29716
29551
29420
29380
29630
29824
29942
30386
30823
31195
31381
31726
31929
31812
31788
31565
31183
30653
30401
30151
29794
29780
29773
29764
29732
30047
30386
30534
31059
31474
31671
32004
32205
32100
32013
31830
31394
31036
30753
30438
30100
30109
30066
29932
30233
30390
30692
31052
31296
31663
32068
32351
32362
32456
32359
31971
31708
31375
30989
30651
30550
30287
30225
30346
30553
30566
30983
31340
31639
32050
32471
32671
32735
32827
32735
32341
32159
31815
31333
31098
31006
30892
30753
30784
30981
31135
31404
31761
31972
32391
32764
32847
33119
33121
32891
32719
32493
32159
31671
31532
31364
31038
31028
31143
31215
31351
31657
31967
32132
32561
32923
32993
33216
33282
32991
32813
32528
32001
31773
31495
31179
31127
31004
30938
31126
31284
31356
31693
32044
32244
32625
32884
32855
32929
32799
32420
32216
31803
31322
31103
30940
30580
30556
30639
30694
30772
31070
31318
31443
31902
32143
32258
32462
32316
32286
32070
31551
31277
30986
30564
30504
30293
30063
30135
30268
30476
30685
30958
31260
31582
31849
31928
32127
32174
32129
31748
31565
31293
30901
30655
30540
30446
30251
30367
30565
30751
30968
31271
31592
31870
32116
32479
32613
32583
32550
32395
32021
31783
31535
31111
31050
30982
30935
30816
31031
31284
31519
31685
32062
32460
32668
32888
33125
33191
33059
32892
32671
32327
31927
31743
31584
31357
31292
31388
31553
31557
31919
32213
32424
32875
33188
33284
33505
33566
33332
33204
32967
32647
32207
32036
31880
31657
31637
31710
31773
31895
32177
32437
32636
33012
33342
33471
33658
33716
33468
33385
33152
32703
32480
32198
31989
31931
31751
31895
31837
32064
32319
32455
32843
33187
33295
33615
33807
33759
33705
33543
33119
32866
32632
32247
32106
32006
31791
31901
32034
32215
32309
32665
33015
33223
33573
33836
33950
33948
33926
33717
33351
33070
32798
32404
32297
32234
32128
32014
32167
32386
32585
32768
33151
33509
33639
33939
34055
34154
33932
33860
33586
33127
32825
32577
32439
32245
32106
32214
32296
32318
32601
32911
33115
33540
33869
34044
34276
34399
34311
34177
33992
33719
33431
33079
32984
32924
32695
32820
32942
33014
33287
33639
33809
34177
34471
34615
34835
34908
34676
34558
34278
33814
33530
33250
32847
32740
32694
32694
32609
32834
32999
33238
33444
33830
34091
34250
34363
34407
34219
34087
33830
33309
33001
32758
32399
32290
32228
32036
32173
32344
32373
32716
33041
33308
33586
33751
33983
33904
33820
33655
33263
32991
32721
32289
32209
32070
31855
31892
32022
32004
32303
32610
32756
33119
33351
33634
33815
33749
33761
33679
33414
33031
32807
32581
32279
32220
32039
32047
32204
32263
32430
32702
32815
33191
33510
33547
33742
33781
33539
33320
33031
32601
31947
31556
31196
30817
30433
30396
30328
30169
30272
30419
30383
30621
30971
31406
31791
32320
32903
33466
33964
34799
35847
37261
39028
40617
42543
44399
46372
48444
50642
52832
54757
56536
57960
58630
58722
58444
57804
56742
55527
54140
52438
50437
48487
46528
44422
42062
39276
36661
34884
33627
33130
32871
32725
32492
32539
32516
32439
32141
31950
31697
31393
30951
30748
30516
30186
29902
29824
29759
29586
29737
29967
30191
30255
30557
30743
30661
30629
30603
30405
30028
29850
29716
29394
29348
29364
29269
29140
29316
29527
29556
29827
30118
30311
30340
30548
30672
30674
30423
30383
30241
29942
29874
29794
29689
29492
29605
29709
29820
29891
30000
30254
30532
30572
30748
30935
30962
30790
30757
30689
30437
30278
30198
30019
29879
29907
29933
29900
30141
30241
30285
30528
30855
30940
31227
31424
31461
31343
31284
31119
30993
30762
30476
30396
30359
30065
30148
30238
30215
30379
30727
30927
31044
31398
31654
31810
31843
31893
31798
31513
31332
31178
30783
30701
30629
30471
30445
30535
30702
30706
31017
31252
31605
31705
32016
32197
32307
32130
32113
31976
31757
31390
31177
31094
30777
30812
30828
30876
30892
31073
31335
31441
31794
32089
32301
32326
32473
32479
32372
32006
31803
31544
31115
30967
30894
30647
30716
30799
30857
31008
31204
31464
31633
31890
32173
32164
32316
32228
32046
31750
31452
31197
30773
30611
30548
30281
30302
30367
30332
30516
30772
30829
31199
31446
31694
31668
31750
31716
31517
31343
30860
30635
30409
30048
30004
29971
29947
29919
29908
30108
30372
30599
30686
31042
31309
31479
31388
31438
31376
31083
30885
30667
30444
30097
30077
30043
30015
29935
30127
30323
30605
30847
31042
31370
31655
31864
31889
31853
31740
31652
31325
31071
30837
30746
30532
30441
30498
30619
30769
30891
31066
31383
31708
32031
32196
32358
32491
32524
32353
32230
31942
31737
31335
31284
31137
31139
31120
31055
31316
31458
31683
31996
32119
32439
32673
32890
32939
32935
32793
32468
32318
32043
31879
31549
31407
31405
31391
31462
31462
31660
31920
32119
32448
32727
32897
33087
33165
33153
33086
32820
32583
32347
32109
31919
31740
31670
31695
31623
31793
31999
32207
32444
32687
32969
33236
33322
33470
33415
33348
33111
32879
32548
32382
32100
32070
31929
31945
31991
32076
32263
32445
32711
32950
33223
33450
33635
33764
33658
33530
33330
33097
32746
32586
32366
32167
32121
32019
32125
32279
32391
32636
32839
33137
33399
33559
33797
33902
33775
33655
33485
33262
32886
32683
32487
32303
32288
32207
32260
32407
32532
32721
32900
33236
33479
33687
33788
33905
33903
33767
33450
33196
32903
32716
32525
32374
32328
32276
32272
32404
32609
32895
33200
33471
33807
34065
34276
34375
34389
34263
34119
33849
33513
33348
33193
32988
32946
32949
32869
33031
33220
33359
33637
33951
34202
34372
34454
34439
34464
34307
33901
33719
33490
33051
32901
32738
32582
32575
32589
32564
32742
32931
33167
33342
33634
33911
33924
33993
33983
33754
33511
33252
32943
32580
32391
32258
32072
32111
32152
32187
32359
32527
32745
33050
33327
33439
33638
33771
33583
33537
33391
32954
32727
32444
32174
32066
32014
31846
31928
32047
32221
32447
32774
33031
33198
33511
33710
33703
33748
33692
33353
33062
32815
32555
32316
32159
32090
32009
32064
32171
32325
32423
32702
32989
33047
33165
33201
33062
32751
32490
32116
31532
31119
30684
30329
30118
29850
29713
29674
29626
29812
29999
30403
30956
31717
32556
33471
34633
35973
37445
39112
40794
42693
44498
46343
48536
50356
52558
54404
55760
57126
57846
57886
57748
57422
56490
55732
54556
52884
50877
48901
46634
43926
41016
38142
35674
34122
33070
32487
32275
32199
32039
32165
32338
32352
32524
32631
32687
32487
32349
32064
31707
31213
30812
30405
29959
29749
29422
29404
29423
29505
29683
29958
30160
30381
30671
30788
30841
30783
30695
30449
30182
29927
29687
29399
29250
29157
29079
29111
29300
29404
29652
29879
30140
30471
30725
30818
30928
30927
30837
30684
30391
30110
29823
29626
29540
29378
29316
29350
29488
29660
29851
30199
30519
30691
30994
31235
31279
31362
31239
31065
30709
30397
30189
29969
29867
29742
29719
29741
29799
30023
30263
30620
30852
31164
31487
31807
31802
31831
31777
31604
31215
30948
30687
30485
30260
30199
30100
30303
30380
30618
30900
31068
31408
31735
32037
32179
32350
32411
32228
31977
31761
31511
31255
31113
30869
30727
30781
30853
30873
31078
31358
31607
31826
32108
32433
32662
32675
32711
32655
32453
32074
31847
31646
31337
31177
31119
31034
31061
31237
31348
31484
31748
32103
32300
32614
32817
32824
32882
32740
32487
32225
31905
31495
31285
31111
31023
30879
30959
31059
31151
31230
31497
31803
32111
32239
32447
32532
32426
32319
32103
31761
31488
31121
30909
30766
30516
30447
30440
30527
30579
30814
30961
31220
31514
31650
31842
32025
31924
31815
31653
31301
31031
30799
30433
30319
30183
30041
30151
30287
30290
30498
30772
30944
31322
31599
31705
31825
31814
31774
31725
31379
31111
30900
30621
30567
30505
30394
30400
30558
30676
30863
31182
31393
31702
32036
32138
32286
32367
32284
32135
32007
31703
31455
31285
31054
31025
31000
30909
31055
31271
31403
31727
32081
32313
32508
32758
32977
33052
32980
32807
32533
32310
31977
31786
31684
31514
31536
31560
31634
31847
31975
32303
32622
32916
33165
33388
33524
33559
33435
33247
32999
32710
32387
32199
32054
31875
31894
31898
31947
32145
32319
32615
32868
33159
33375
33631
33756
33778
33695
33489
33264
32919
32693
32447
32239
32143
32070
32131
32151
32294
32503
32740
33018
33332
33588
33748
33854
33823
33826
33691
33380
33092
32770
32565
32346
32231
32151
32135
32231
32420
32636
32868
33191
33479
33709
33949
34061
34012
33978
33831
33484
33175
32885
32700
32533
32414
32354
32372
32439
32558
32742
32983
33220
33567
33761
33990
34138
34108
34089
33831
33559
33355
33048
32794
32616
32465
32389
32382
32397
32556
32759
32967
33196
33518
33797
33940
34096
34172
34026
33831
33642
33282
32894
32693
32571
32373
32295
32258
32318
32463
32625
32843
33123
33439
33616
33843
34052
34054
34033
33921
33535
33285
32947
32746
32639
32540
32497
32586
32722
32837
33030
33319
33532
33869
34157
34389
34490
34663
34667
34428
34167
33962
33588
33326
33151
32977
32870
32895
32910
32970
33150
33406
33578
33782
34175
34311
34332
34359
34336
34004
33743
33431
33050
32743
32611
32436
32326
32359
32389
32420
32595
32838
33076
33267
33543
33757
33873
33895
33924
33706
33389
33164
32789
32482
32231
32047
31983
31992
32027
32110
32316
32519
32775
33124
33445
33596
33750
33875
33737
33455
33316
32949
32606
32406
32221
31985
31946
31940
31964
32103
32335
32509
32837
33159
33336
33501
33766
33741
33767
33565
33220
33007
32677
32334
32103
31884
31655
31512
31391
31343
31393
31382
31532
31744
31875
32028
32199
32158
32103
31750
31367
31014
30663
30418
30222
30239
30486
30995
31631
32678
34071
35500
37365
39266
41351
43612
45518
47619
49201
50682
51814
52343
52540
52198
51518
51151
50465
49415
48700
47622
46042
44615
43185
41375
39654
37562
35676
34756
34274
33829
33428
33169
32754
32309
32034
31803
31493
31389
31412
31381
31489
31791
32011
32254
32613
32746
32762
32858
32621
32228
31949
31439
30954
30628
30430
30188
30039
29995
30028
30193
30374
30518
30871
31175
31372
31620
31700
31676
31732
31469
31227
30997
30638
30388
30215
30040
29950
29959
29953
30140
30381
30549
30832
31205
31375
31708
31794
31839
31869
31628
31491
31196
30863
30703
30479
30362
30326
30295
30414
30478
30704
30924
31215
31635
31818
32182
32320
32316
32396
32239
31897
31590
31347
31038
30908
30788
30684
30722
30775
30863
31161
31414
31636
32041
32319
32484
32769
32725
32606
32562
32205
31940
31852
31557
31323
31279
31119
31180
31300
31322
31526
31845
32015
32298
32668
33054
33178
33126
33220
33079
32762
32480
32333
31979
31807
31788
31660
31555
31708
31852
31973
32373
32612
32775
33086
33332
33425
33644
33417
33295
33223
32845
32502
32427
32097
31911
31909
31786
31902
32182
32210
32494
32761
32937
33179
33516
33559
33532
33519
33466
33103
32737
32527
32196
31889
31724
31682
31585
31590
31651
31839
32116
32253
32466
32862
33062
33057
33041
32994
32836
32604
32133
31749
31505
31303
31036
30936
30903
30831
30959
31127
31278
31615
31735
32089
32263
32325
32497
32372
32180
31974
31505
31357
30956
30794
30689
30575
30668
30629
30806
31017
31133
31575
31780
32087
32381
32436
32569
32535
32227
31999
31959
31575
31279
31191
30944
30845
30902
30845
31092
31239
31434
31676
32081
32389
32503
32589
32695
32697
32493
32229
32033
31605
31459
31164
31109
30994
30996
31039
31086
31411
31507
31867
32085
32383
32708
32751
32900
33039
32687
32522
32134
31834
31638
31324
31265
31156
31029
31239
31276
31420
31820
32092
32271
32653
32998
32994
33198
33278
32983
32854
32527
32156
32085
31772
31711
31542
31527
31647
31669
31941
32217
32415
32891
33113
33255
33612
33530
33468
33517
33167
32877
32696
32329
32143
32087
31905
32015
32007
32032
32377
32531
32748
33183
33327
33704
33897
33847
33999
33716
33644
33226
32837
32766
32362
32236
32228
32070
32047
32309
32345
32725
32983
33216
33621
33709
34015
33904
33945
33814
33470
33303
32844
32620
32399
32095
32161
31974
32141
32185
32309
32668
32759
33078
33470
33562
33833
33823
33727
33678
33335
33135
32679
32500
32119
32079
31934
31785
31910
31919
32250
32406
32628
33014
33156
33515
33575
33788
33591
33383
33287
32854
32519
32354
32047
31845
31756
31581
31731
31802
31924
32350
32633
32887
33397
33583
33707
33951
33788
33716
33571
33154
32961
32583
32319
32399
32279
32163
32431
32453
32575
32959
33122
33476
33849
33857
34086
34322
34116
33991
33912
33447
33140
32798
32423
32357
32231
32040
32110
32295
32359
32655
32871
32990
33357
33604
33709
33870
33660
33603
33239
32927
32752
32236
32079
31951
31780
31879
31716
31830
32119
32205
32391
32786
32964
33407
33395
33526
33535
33238
33165
32683
32317
32199
31922
31716
31703
31586
31545
31708
31924
32038
32364
32748
32914
33249
33530
33543
33403
33268
33191
32871
32472
32271
32004
31759
31814
31652
31607
31878
31880
32135
32450
32583
32930
33079
33148
33277
32959
32743
32421
31863
31554
31053
30820
30675
30471
30580
30422
30574
30652
30823
31027
31250
31710
31951
32500
32911
33541
34268
34763
35679
36403
37447
38919
40200
42232
43671
45022
46598
47618
48535
49025
48884
49159
48863
48134
47764
46912
45478
43984
42279
39977
38330
36004
33848
32302
31265
31087
31228
31473
31867
32038
32228
32639
32656
32797
32919
32677
32455
32343
31987
31521
31207
31087
30782
30714
30756
30615
30661
30829
30819
31007
31393
31501
31635
31836
32005
31859
31736
31652
31204
30878
30671
30253
30095
30169
29994
30004
30215
30252
30407
30844
31169
31367
31637
31838
31959
31924
31799
31581
31436
31015
30699
30623
30348
30271
30338
30260
30311
30671
30775
31123
31450
31667
32069
32293
32340
32423
32367
32037
31787
31516
31135
30911
30880
30684
30623
30743
30890
30954
31214
31591
31933
32244
32548
32897
32874
32857
32845
32618
32238
32000
31735
31433
31375
31237
31058
31188
31334
31479
31739
32159
32397
32652
33118
33187
33319
33504
33181
33078
32900
32378
32021
31822
31697
31767
31672
31660
31919
31992
32175
32590
32790
33071
33536
33549
33812
33940
33652
33543
33355
32880
32565
32327
32039
32125
32097
32074
32294
32295
32686
32852
33113
33602
33690
34023
34225
34100
34036
33935
33415
33162
32887
32511
32476
32243
32059
32174
32178
32391
32636
32758
33265
33442
33676
34036
34119
33909
33972
33601
33222
32948
32350
32103
31999
31668
31585
31668
31652
31679
31928
32195
32389
32826
33068
33042
33220
33206
32999
32879
32434
31932
31692
31309
31042
31017
30796
30714
30969
30976
31167
31527
31663
31964
32388
32467
32572
32661
32413
32284
31989
31588
31426
30973
30787
30799
30631
30580
30812
30885
31058
31396
31631
31943
32296
32362
32620
32604
32494
32390
32050
31636
31340
31160
30838
30735
30628
30574
30780
30895
31041
31391
31706
31981
32373
32602
32647
32746
32680
32278
32015
31740
31252
30940
30830
30681
30692
30741
30680
30812
31230
31407
31709
32194
32419
32582
32911
32837
32775
32631
32238
31815
31615
31348
31143
31116
30974
30992
31135
31402
31640
31759
32212
32591
32813
33201
33343
33263
33303
33135
32731
32468
32239
31868
31706
31742
31517
31571
31807
31807
32172
32532
32727
33121
33534
33703
33831
34055
33879
33651
33411
33076
32677
32428
32346
32076
31991
32197
32212
32336
32692
32796
33196
33635
33724
34151
34289
34255
34322
33991
33690
33437
33079
32639
32551
32367
32129
32180
32378
32391
32716
33019
33140
33592
33901
33933
34274
34375
34147
34075
33665
33167
32930
32499
32421
32301
32047
32100
32255
32236
32569
32839
33007
33414
33767
33791
34092
34111
33845
33749
33471
32927
32647
32362
32263
32038
31957
31996
32236
32243
32591
32951
33193
33660
34112
34277
34365
34584
34439
34118
33895
33511
33111
32971
32871
32616
32511
32615
32654
32709
32871
33127
33351
33772
34149
34352
34336
34615
34335
34080
33859
33343
32952
32750
32373
32135
32155
31955
32024
32294
32431
32615
33065
33358
33526
33876
33960
33820
33846
33669
33189
32846
32582
32074
31940
31775
31612
31634
31871
31903
32095
32393
32507
32960
33235
33402
33727
33722
33555
33458
33063
32678
32390
32055
31700
31621
31596
31430
31612
31751
31839
32217
32623
32863
33318
33433
33639
33813
33503
33503
33079
32714
32467
31983
31751
31735
31548
31598
31625
31773
31910
32074
32213
32311
32636
32675
32702
32715
32364
32254
31893
31422
31095
30711
30367
30199
29907
29944
30044
30154
30604
30996
31996
33027
33897
35246
36444
37646
39244
40608
41735
43517
44735
45844
47093
47856
48559
48815
48638
48479
48174
47692
47225
46635
45550
44743
43189
41766
39975
37918
35836
33678
32685
31950
31594
31434
31169
31231
31255
31261
31317
31553
31826
31910
32317
32583
32705
32908
32610
32631
32224
31820
31517
31028
30781
30560
30302
30244
30118
30175
30425
30562
30980
31380
31518
31874
32137
32138
31997
31912
31512
31146
30911
30503
30204
30150
29941
29978
30119
30185
30415
30725
30886
31292
31703
31868
32007
32303
32215
31911
31727
31374
30920
30758
30575
30277
30222
30318
30255
30542
30756
30988
31374
31605
31952
32346
32382
32669
32543
32330
32157
31670
31324
31068
30911
30757
30590
30606
30808
30879
31151
31473
31663
32127
32458
32567
32895
32871
32879
32845
32417
32251
31891
31540
31476
31199
31154
31223
31219
31399
31663
31790
32268
32519
32833
33200
33263
33391
33393
33079
32997
32686
32326
32131
31817
31676
31650
31484
31639
31847
31910
32367
32562
32865
33212
33329
33711
33666
33725
33572
33189
33084
32679
32460
32263
32050
32098
32038
31962
32199
32455
32511
32967
33218
33429
33751
33809
33976
33957
33588
33492
33148
32763
32623
32346
32028
32061
32028
31975
32223
32278
32519
32847
32898
33287
33514
33471
33735
33595
33266
33175
32820
32455
32231
31852
31655
31596
31434
31495
31591
31679
31813
32074
32420
32573
32768
32908
32885
32721
32718
32455
32097
31847
31360
31228
31066
30869
30891
30797
30982
31111
31186
31508
31714
31919
32287
32298
32371
32404
32202
31974
31742
31335
31033
30893
30600
30622
30492
30521
30710
30711
30993
31353
31530
31817
32078
32159
32247
32296
32039
31812
31594
31197
30983
30845
30586
30540
30572
30578
30566
30774
31043
31204
31623
31826
32029
32367
32423
32213
32239
32004
31609
31420
31249
30972
30772
30750
30666
30679
30863
31026
31112
31511
31767
32005
32287
32581
32615
32513
32428
32294
31922
31508
31386
31239
31044
30804
30863
30997
31019
31252
31565
31764
32079
32466
32623
32685
32868
32967
32748
32564
32371
32026
31743
31530
31399
31396
31316
31239
31503
31663
31874
32255
32480
32742
33058
33095
33404
33328
33178
32959
32671
32444
32082
31745
31822
31716
31580
31751
31828
31839
32246
32412
32614
33179
33343
33517
33614
33535
33439
33254
32827
32674
32391
32087
32084
31775
31879
31836
31864
32132
32420
32494
32995
33179
33287
33650
33644
33482
33511
33210
32853
32723
32342
32100
31988
31772
31727
31796
31718
32066
32226
32364
32831
33055
33140
33511
33473
33449
33313
32951
32852
32448
32117
32038
31791
31615
31735
31743
31860
32189
32413
32634
33047
33382
33621
33983
33926
33967
33832
33638
33377
32897
32849
32500
32423
32323
32157
32324
32321
32577
32718
32892
33299
33445
33724
33857
33903
33925
33701
33436
33167
32829
32410
32283
32013
31762
31839
31860
31908
31980
32311
32464
32626
32995
33270
33308
33412
33413
33184
32972
32679
32246
31893
31818
31563
31437
31454
31451
31518
31698
31785
32076
32418
32581
32823
32960
33028
32948
32993
32739
32404
32095
31898
31545
31263
31280
31267
31156
31422
31526
31666
32054
32357
32526
32991
33092
33092
33268
33092
32775
32624
32206
31946
31747
31637
31429
31388
31411
31406
31530
31735
31836
31897
32167
32149
32140
32210
32039
31679
31480
31143
30684
30359
30086
29790
29526
29529
29619
29852
30402
30977
31783
32645
33758
35140
36413
37988
39683
41240
42636
44096
45740
47056
48464
49752
50740
51633
52224
52173
51983
51631
51068
50487
49560
48398
47103
45628
43796
42004
39716
37321
35008
33343
32052
31208
30850
30633
30452
30436
30596
30685
30846
31286
31568
31734
31865
31968
32007
31685
31444
31079
30686
30090
29807
29479
29231
29252
29159
29310
29396
29636
30014
30305
30534
30905
31001
31017
31102
30967
30737
30416
30188
29887
29625
29447
29398
29294
29264
29407
29607
29703
30032
30376
30740
30988
31060
31316
31237
31167
31013
30816
30396
30135
29972
29679
29613
29593
29672
29762
29925
30189
30350
30671
30959
31166
31564
31614
31649
31612
31375
31067
30743
30420
30252
30151
29964
29957
29982
29996
30308
30446
30725
30956
31255
31724
31839
31975
32055
31861
31681
31529
31183
30826
30754
30505
30381
30404
30479
30565
30644
31007
31150
31420
31868
32097
32281
32384
32415
32372
32186
31894
31679
31324
31162
31034
30847
30866
30840
30979
31196
31436
31663
31890
32318
32480
32652
32959
32900
32720
32709
32308
31983
31895
31619
31380
31357
31221
31263
31447
31537
31631
32024
32231
32535
32876
32970
33211
33146
33021
32961
32474
32175
31951
31623
31397
31417
31260
31177
31394
31432
31570
31943
32148
32324
32742
32831
32917
33035
32748
32613
32167
31825
31684
31364
31108
31076
30903
30844
30979
30996
31182
31295
31534
31951
32190
32331
32381
32319
32251
31935
31695
31396
31063
30794
30711
30551
30440
30499
30511
30596
30761
30976
31205
31576
31844
32072
32046
32038
32159
31880
31629
31363
30975
30759
30518
30335
30369
30337
30325
30599
30719
30964
31123
31440
31895
31951
32151
32076
32067
31959
31653
31257
31166
30858
30641
30647
30537
30506
30677
30758
30949
31277
31430
31751
32161
32289
32346
32601
32397
32316
32100
31742
31550
31319
31135
30970
30969
30899
31051
31073
31356
31604
31798
