ECG
32437
32397
32484
32495
32397
32101
31727
31316
30942
30612
30435
30437
30340
30383
30631
30790
31183
31785
32156
32495
32693
32697
32618
32639
32471
32197
31537
30796
30809
30971
30847
30727
30692
31064
31475
31887
32276
32700
33089
33372
33513
33537
33405
33219
32970
32896
32618
32127
31690
31439
31694
31887
32309
33008
33903
34911
36022
36819
37413
38096
38721
39222
39126
38892
39423
39760
40190
40671
41109
41490
42196
43167
44039
45056
46245
47652
49068
50339
51406
52628
53968
55008
55753
56116
56792
57516
58000
58247
58255
58063
57775
57380
57143
56996
56980
57095
57036
56748
56180
55375
54524
53620
52517
51133
49366
47879
46471
44935
43449
42055
40630
39488
38820
38278
37542
36903
36556
36180
35545
35130
34669
34159
33506
32813
32143
31344
30476
29742
29035
28230
27719
27562
27669
27743
28000
28583
29073
29539
29941
30205
30278
30215
30282
30193
29951
29673
29285
28763
28304
27755
27087
26436
26033
26071
25941
25926
25823
25359
24839
25163
25391
25375
25041
24497
24035
23689
23390
22940
22290
22096
21931
21905
22033
22273
22490
22888
23359
23716
24055
24318
24428
24414
24482
24111
23186
23545
23536
23156
22871
22540
22205
22018
21962
22239
22526
23035
23951
24472
24669
24801
24830
24917
24983
24757
24599
24490
24191
23652
23218
23090
23002
22956
22518
23203
24145
24652
25027
25374
25735
26009
26069
25892
26210
26415
26360
26027
25380
24727
24141
23932
23633
23470
23241
23377
23270
23815
24940
25636
25650
25216
25721
26304
26492
26317
26554
26516
26151
25567
25200
25007
24714
24581
24616
24822
25199
25658
26085
26559
26979
27191
27281
27301
27394
27119
26982
26594
26172
25837
25705
25554
25172
25055
25324
25695
25625
26290
26974
27617
27952
27804
27942
28447
28567
28443
28260
27824
27308
27157
26743
26212
26148
25835
25588
26192
26877
27628
28465
28979
29261
29601
29982
29999
30087
30121
30057
29742
29130
28800
28437
28363
28003
27807
28295
28775
28911
29378
30211
30552
31417
32062
32145
31946
31998
32324
32589
32545
32215
31764
31294
31326
31151
31231
31334
31460
32105
32887
33591
34360
34863
35085
35533
35847
35912
35847
35509
34792
34926
35079
34748
34583
34655
34671
34813
34996
35591
36215
36889
37179
37228
36852
37034
37588
37784
37657
37596
37364
36999
36519
35958
35519
35160
35184
35191
34951
35031
35111
35425
36375
36743
36725
36455
36858
37252
36710
36251
36311
36220
35934
35697
35319
35158
35168
35060
35087
35475
35911
35879
35710
36119
36501
36853
36987
36772
36558
36470
36088
35513
34975
34703
34597
34345
34279
34086
34066
34228
34556
35066
35558
35718
35669
35647
35703
35514
35170
34891
34674
34300
33917
33464
32812
32727
32730
32709
32628
32975
33428
33839
33826
34011
34126
34188
34276
34351
34309
33822
33551
33402
32902
32603
32231
31968
32004
31886
32193
32708
32736
33170
33282
34053
34506
34470
34418
34543
34424
34143
33787
33380
32807
32389
32195
32110
32028
32175
31766
31914
32941
33708
33913
34372
34993
35199
35076
34815
34675
34421
33831
33709
33598
33286
32948
32629
31924
31777
32076
32562
33198
33444
33652
34054
34516
34729
34847
34703
34470
34285
33751
33693
33367
32991
32969
32857
32614
32547
32455
32647
33127
33287
33757
34119
34296
34407
34490
34516
34479
34407
34202
33935
33632
33237
32775
32490
32350
32386
32518
32748
33137
33625
33973
34114
34218
34437
34396
34301
34201
34138
33954
33676
33119
32660
32316
32095
32014
32108
32319
32546
32902
33420
33638
33911
34172
34377
34493
34516
34391
34330
34246
33791
33278
32722
32548
32213
31925
31879
32031
32185
32675
33279
33795
34125
34247
34462
34651
34655
34534
34342
34079
33763
33317
32758
32359
32039
31975
32026
32243
32602
32940
33277
33663
34110
34437
34618
34638
34567
34380
34185
33959
33617
33237
32801
32503
32279
32053
31980
32135
32551
32991
33335
33743
34023
34290
34492
34556
34559
34428
34100
33823
33450
33095
32775
32482
32234
32013
31909
31952
32167
32511
33085
33489
33779
34019
34022
34092
34212
34215
34012
33604
33150
32684
32275
32007
31847
31878
32007
32199
32404
32727
33081
33393
33578
33595
33657
33719
33928
34132
34054
33794
33506
33172
32807
32543
32359
32263
32178
32223
32421
32820
33272
33698
34081
34372
34517
34516
34501
34368
34167
33911
33556
33079
32826
32597
32372
32241
32262
32532
32879
33250
33667
33998
34349
34620
34855
35121
35199
35105
34770
34487
34142
33783
33431
33251
33015
32887
32924
33110
33366
33701
34222
34732
35143
35458
35796
35989
35841
35527
35255
35023
34741
34388
33974
33599
33352
33151
33052
33159
33339
33660
34055
34480
34932
35375
35558
35527
35335
35046
34787
34584
34247
33818
33336
32868
32557
32323
32280
32374
32631
32902
33383
33745
34078
34364
34556
34663
34646
34607
34439
34166
33826
33287
32741
32408
32229
32183
32239
32420
32652
33007
33397
33767
34049
34239
34373
34470
34462
34334
34215
34073
33733
33315
32876
32462
32111
31860
31818
31967
32302
32751
33287
33799
34166
34402
34596
34677
34600
34343
33954
33574
33244
32881
32335
32085
31903
31716
31623
31726
32015
32397
32923
33310
33639
33878
34100
34160
34212
34127
33922
33611
33167
32703
32287
31888
31591
31398
31372
31518
31863
32247
32727
33155
33436
33671
33791
33823
33809
33684
33471
33311
33004
32584
32066
31660
31311
31150
31142
31228
31476
31806
32303
32813
33262
33555
33590
33580
33623
33528
33364
33230
32926
32533
32083
31707
31427
31196
31169
31303
31659
31985
32387
32750
33095
33366
33594
33759
33799
33679
33375
32966
32567
32178
31786
31415
31162
31055
31105
31335
31704
32094
32437
32828
33119
33397
33589
33682
33747
33573
33151
32841
32558
32147
31740
31431
31176
30993
30973
31076
31337
31708
32213
32706
33125
33425
33620
33663
33527
33396
33196
32930
32602
32204
31792
31444
31151
30958
30892
30943
31181
31602
32145
32694
33180
33612
33919
34100
34081
33900
33639
33381
33039
32612
32180
31796
31524
31382
31365
31452
31670
32103
32670
33263
33747
34023
34169
34331
34379
34250
33992
33743
33437
33043
32687
32423
32228
32060
32134
32391
32814
33202
33607
33972
34247
34503
34713
34889
34940
34812
34567
34222
33756
33348
32916
32553
32260
32063
31978
32003
32185
32540
33012
33538
33895
34008
34183
34307
34365
34327
34151
33756
33378
32962
32556
32146
31728
31423
31285
31372
31636
32062
32583
33046
33300
33474
33583
33665
33663
33543
33324
33064
32782
32612
32383
32059
31711
31430
31263
31327
31511
31859
32292
32738
33131
33476
33672
33722
33685
33619
33397
33146
32812
32410
31971
31583
31326
31156
31177
31331
31655
32039
32447
32852
33196
33465
33839
33901
33814
33733
33558
33399
33135
32796
32428
32037
31647
31385
31319
31421
31636
31928
32302
32725
33119
33407
33587
33632
33642
33587
33326
32921
32432
31860
31221
30548
30080
29804
29618
29630
29808
30145
30599
31207
31926
32594
33116
33612
34170
34655
35037
35452
35895
36390
36823
37383
38117
39084
40227
41573
43116
44737
46573
48468
50175
51572
52695
53443
53687
53414
52724
51742
50455
48764
46812
44657
42589
40516
38655
37242
35932
34727
33721
32926
32141
31092
30063
29223
28679
28324
28020
27821
27639
27383
27086
26816
26571
26357
26257
26357
26617
26970
27369
27825
28330
28836
29226
29518
29767
29932
29972
29931
29746
29593
29335
29027
28725
28556
28492
28610
28872
29170
29631
30083
30509
30884
31220
31434
31460
31391
31179
30922
30632
30266
29887
29588
29325
29141
29079
29190
29471
29854
30343
30889
31361
31676
31800
31896
31882
31774
31520
31228
30937
30639
30323
29981
29740
29557
29495
29581
29875
30292
30815
31360
31822
32138
32401
32579
32633
32559
32382
32141
31796
31445
31004
30644
30311
30092
29999
30088
30351
30667
31087
31541
32001
32351
32590
32700
32724
32637
32397
32085
31751
31424
30983
30601
30254
30084
30041
30125
30381
30791
31265
31729
32100
32420
32706
32835
32828
32731
32492
32102
31665
31236
30870
30541
30279
30116
30065
30170
30508
30959
31407
31791
32041
32239
32417
32503
32495
32383
32180
31981
31743
31481
31185
30815
30447
30183
30017
29999
30143
30454
30926
31431
31922
32380
32732
32997
33070
33018
32807
32615
32280
31957
31476
30985
30620
30455
30417
30540
30847
31266
31727
32197
32510
32830
33152
33375
33429
33345
33110
32881
32626
32318
31974
31572
31232
31066
31043
31159
31469
31934
32422
32847
33226
33596
33894
34180
34191
34102
34022
33903
33666
33279
32822
32485
32253
32188
32173
32199
32460
32818
33324
33913
34347
34591
34759
34915
35001
35051
34975
34725
34348
33942
33574
33221
33026
32897
32835
32855
33060
33347
33828
34385
34932
35319
35543
35694
35736
35637
35438
35131
34823
34487
34039
33643
33327
33103
32989
33028
33287
33613
33991
34357
34598
34758
34883
34951
34904
34725
34447
34135
33787
33345
32847
32364
31943
31638
31495
31490
31654
31912
32298
32708
33039
33308
33486
33598
33540
33415
33177
32895
32555
32103
31641
31236
30915
30701
30580
30599
30793
31095
31485
31975
32366
32679
32876
32995
32964
32888
32630
32343
32027
31680
31359
31034
30743
30481
30373
30447
30687
31019
31390
31826
32210
32479
32725
32884
32948
32899
32693
32382
31998
31607
31181
30801
30441
30255
30208
30332
30632
30998
31438
31930
32391
32722
32959
33100
33084
32961
32660
32379
32102
31789
31423
31066
30685
30403
30308
30324
30562
30887
31309
31751
32060
32284
32519
32679
32802
32788
32580
32282
31918
31518
31074
30702
30407
30215
30183
30299
30510
30767
31108
31532
31922
32279
32596
32791
32858
32814
32647
32423
32145
31780
31357
30952
30609
30391
30292
30342
30609
30975
31418
31916
32314
32639
32879
33038
33012
32939
32783
32538
32244
31887
31508
31161
30839
30645
30579
30712
30994
31343
31792
32230
32622
32949
33191
33335
33395
33335
33149
32892
32627
32285
31913
31561
31245
31055
31007
31084
31324
31611
32042
32508
32924
33143
33399
33548
33632
33627
33474
33237
32919
32593
32231
31890
31605
31482
31423
31487
31742
32062
32480
32921
33297
33578
33810
33948
33984
33925
33796
33662
33474
33150
32731
32299
31946
31713
31655
31791
32052
32422
32987
33578
34078
34330
34457
34559
34555
34510
34343
34136
33877
33541
33159
32878
32591
32381
32326
32388
32645
32964
33363
33734
34151
34471
34701
34844
34939
34893
34717
34500
34290
33959
33556
33114
32788
32527
32311
32327
32582
32755
33154
33596
34010
34402
34678
34845
34872
34870
34702
34461
34159
33743
33277
32804
32391
32140
32117
32208
32493
32805
33208
33647
34076
34423
34663
34844
34951
34977
34916
34853
34602
34223
33815
33436
33066
32764
32594
32580
32671
32982
33447
33958
34403
34747
34997
35207
35292
35252
35159
34945
34669
34387
33990
33620
33243
32900
32725
32654
32809
33058
33420
33863
34242
34611
34907
35108
35207
35207
35085
34982
34727
34231
33764
33327
32911
32622
32501
32518
32679
32999
33360
33755
34110
34414
34599
34703
34709
34577
34343
34055
33732
33327
32918
32519
32183
31905
31723
31676
31846
32119
32474
32903
33287
33614
33838
34019
34130
34084
33923
33671
33317
32955
32598
32245
31991
31799
31751
31813
32001
32308
32685
33026
33346
33638
33853
33989
34094
34079
33957
33618
33285
32893
32572
32261
31974
31769
31647
31708
31951
32253
32660
33132
33523
33780
33947
34027
34068
34031
33905
33721
33509
33199
32830
32444
32103
31825
31613
31514
31562
31658
31850
32023
32118
32096
32037
31994
31884
31678
31399
31108
30788
30469
30292
30308
30465
30694
31068
31650
32452
33445
34662
35908
37105
38396
39705
41053
42369
43972
45710
47310
48903
50479
51999
53292
54396
55262
55723
55783
55550
55055
54623
53887
52766
51301
49425
47207
44900
42716
40647
38852
36975
35183
33438
31625
29775
28196
27156
26671
26651
26924
27354
27833
28210
28485
28668
28756
28756
28712
28638
28497
28390
28270
28120
27965
27855
27865
27956
28146
28476
28902
29391
29910
30395
30767
31072
31271
31380
31369
31208
30984
30756
30468
30138
29831
29594
29431
29380
29447
29642
29968
30350
30780
31230
31583
31779
31942
32069
32108
31986
31813
31562
31261
30906
30549
30242
29997
29904
29930
30145
30439
30821
31255
31668
32031
32284
32440
32591
32539
32346
32079
31728
31381
31024
30652
30310
30063
29935
29986
30151
30457
30827
31215
31631
31955
32176
32349
32439
32455
32351
32135
31862
31550
31131
30719
30353
30145
30055
30119
30348
30677
31154
31772
32356
32733
32934
33069
33111
33076
32942
32714
32405
31976
31535
31161
30882
30690
30648
30703
30884
31167
31604
32125
32525
32823
32967
33079
33045
33021
32900
32743
32551
32286
31931
31520
31199
30951
30839
30808
30964
31231
31592
32020
32422
32719
32992
33244
33364
33447
33318
33151
32978
32701
32340
31917
31569
31306
31173
31175
31317
31591
32002
32515
32996
33393
33686
33898
34044
34068
33942
33761
33511
33156
32724
32321
32023
31825
31734
31743
31924
32258
32696
33270
33719
34085
34414
34628
34733
34911
34893
34738
34513
34326
34026
33716
33390
33094
32943
32980
33218
33607
34047
34611
35160
35571
35831
36007
36095
36063
35964
35786
35537
35232
34865
34486
34140
33871
33818
33884
34087
34427
34863
35367
35885
36300
36583
36743
36725
36637
36471
36287
36185
35946
35641
35327
35001
34708
34615
34624
34740
35022
35370
35748
36095
36359
36524
36604
36578
36485
36150
35765
35391
34957
34484
34012
33559
33199
32935
32817
32855
33020
33300
33621
33924
34237
34341
34375
34360
34266
34044
33735
33404
32992
32550
32125
31716
31367
31161
31109
31237
31527
31884
32291
32654
32927
33144
33215
33223
33159
33062
32903
32608
32263
31886
31421
30983
30708
30486
30443
30540
30802
31169
31606
32028
32380
32635
32831
32919
32915
32788
32548
32230
31812
31356
30886
30471
30192
30055
30037
30215
30563
30983
31495
31932
32261
32538
32733
32923
32966
32877
32647
32306
31832
31285
30795
30423
30132
29996
29974
30103
30409
30845
31396
31919
32321
32599
32741
32800
32772
32607
32331
32041
31686
31309
30905
30484
30151
29968
29959
30119
30413
30865
31396
31842
32191
32516
32772
32903
32856
32698
32458
32163
31795
31401
30944
30560
30236
30069
30033
30187
30526
30958
31422
31813
32201
32551
32823
32999
33026
32878
32591
32255
31884
31461
31018
30623
30324
30150
30134
30276
30548
30981
31450
31857
32250
32494
32723
32847
32830
32709
32479
32207
31852
31437
30999
30618
30301
30127
30094
30172
30484
30927
31405
31813
32179
32459
32718
32799
32800
32692
32384
31960
31591
31199
30780
30438
30151
30035
30056
30261
30617
31029
31477
31892
32241
32547
32743
32860
32922
32863
32630
32309
31895
31463
31008
30622
30327
30135
30069
30242
30505
30822
31225
31658
32047
32345
32596
32801
32903
32945
32852
32655
32302
31812
31239
30785
30428
30238
30238
30415
30727
31119
31610
32068
32420
32737
32917
33031
33036
32941
32803
32564
32245
31817
31341
30944
30641
30503
30487
30573
30838
31173
31625
32103
32564
32946
33217
33341
33305
33176
32930
32631
32322
31991
31612
31247
30993
30757
30743
30944
31303
31582
32007
32518
32950
33119
33350
33487
33591
33487
33220
32943
32652
32303
31796
31445
31179
31021
30939
31076
31364
31712
32164
32608
32973
33286
33554
33738
33815
33791
33720
33606
33519
33287
32911
32495
32116
31823
31735
31803
32089
32438
32895
33379
33859
34199
34405
34531
34527
34431
34193
33857
33561
33199
32809
32459
32130
31940
31868
31956
32215
32557
32972
33398
33725
33981
34167
34294
34322
34222
34046
33783
33567
33210
32632
32228
32032
31751
31639
31786
32074
32440
32897
33323
33695
33902
34029
34148
34178
34122
33799
33465
33113
32730
32263
31852
31551
31451
31510
31764
32141
32492
32835
33155
33430
33698
33895
34037
34077
34069
33890
33660
33335
32917
32494
32095
31738
31484
31415
31520
31815
32190
32633
33077
33540
33646
33809
33940
33980
33909
33751
33487
33191
32807
32390
32021
31732
31622
31591
31737
32029
32405
32767
33093
33414
33624
33799
33957
33999
34034
33889
33647
33327
33005
32629
32228
31837
31556
31425
31469
31619
31815
32061
32139
32095
31970
31860
31751
31567
31287
31042
30794
30561
30262
30056
30010
30151
30403
30914
31604
32496
33460
34596
35811
36989
38262
39738
41245
42980
45047
47017
49022
50984
52878
54354
56088
57418
58465
59348
59643
59551
59332
58535
57719
56278
54535
52568
50175
47612
45529
43159
40740
38380
36180
34169
32168
30201
28573
27519
27045
27066
27335
27772
28187
28523
28723
28722
28642
28541
28385
28174
27921
27647
27444
27292
27191
27107
27026
27015
27116
27425
27834
28322
28826
29252
29544
29729
29831
29845
29774
29615
29417
29191
28935
28593
28260
27988
27815
27795
27921
28209
28550
28983
29407
29781
30098
30370
30581
30697
30684
30548
30385
30139
29820
29417
29046
28764
28601
28602
28773
29092
29477
29989
30492
30912
31223
31444
31575
31719
31664
31406
31249
30951
30559
30238
29852
29632
29452
29427
29583
29863
30277
30783
31279
31713
32033
32242
32357
32377
32332
32195
32038
31814
31442
30994
30623
30334
30080
29959
30043
30383
30802
31327
31915
32391
32667
32894
33055
32927
32971
32668
32339
32170
31723
31318
30942
30572
30444
30278
30359
30547
30876
31466
31868
32209
32671
32863
33071
33222
33023
32948
32663
32229
31887
31428
30957
30668
30511
30415
30551
30818
31068
31562
32099
32388
32827
32887
33079
33219
33039
32869
32682
32237
31922
31502
31005
30727
30489
30461
30692
31011
31471
32058
32450
32931
33124
33185
33405
33361
33199
33122
32775
32314
31957
31559
31055
30735
30676
30790
31082
31511
31940
32421
32793
33172
33468
33719
33853
33903
33845
33670
33415
33060
32638
32190
31772
31448
31223
31204
31332
31677
32108
32679
33260
33705
34090
34388
34623
34570
34743
34428
34175
33991
33417
33089
32600
32284
32201
32037
32225
32433
32847
33588
34069
34695
35029
35132
35468
35373
35439
35250
34799
34554
33861
33460
32882
32519
32314
32164
32442
32807
33191
33919
34427
34962
35468
35653
35923
35692
35652
35183
34656
34370
33715
33047
32596
31953
31548
31494
31479
31843
32215
32689
33368
33637
34045
34231
34183
34324
34031
33707
33423
32820
32391
31637
31104
30706
30383
30343
30435
30780
31340
31844
32464
32827
32988
33327
33350
33393
33467
33110
32847
32561
32033
31569
31007
30516
30301
30160
30327
30687
31100
31814
32325
32767
33280
33415
33623
33705
33462
33396
32960
32493
32020
31338
30847
30386
30071
30079
30250
30533
30983
31586
32079
32732
33007
33335
33692
33807
33775
33497
33095
32567
31911
31285
30828
30444
30209
30203
30409
30831
31350
31957
32589
33092
33434
33703
33839
33874
33564
33287
32964
32511
32007
31486
31012
30584
30278
30148
30231
30563
31017
31582
32175
32663
33245
33514
33719
33890
33703
33588
33223
32703
32263
31572
31127
30623
30388
30365
30462
30904
31349
31951
32668
33135
33457
33824
33938
33811
33494
33167
32962
32493
31915
31470
30834
30479
30173
30153
30268
30601
31253
31905
32564
33263
33534
33925
33789
33777
33565
33159
32938
32447
31975
31489
30891
30461
30247
30138
30288
30687
31115
31770
32388
32772
33082
33530
33719
33758
33620
33363
33015
32573
32058
31501
31006
30569
30279
30207
30383
30735
31212
31877
32386
32820
33325
33476
33809
33874
33675
33581
33279
32798
32428
31813
31210
30897
30635
30652
30831
31050
31564
32052
32665
33287
33589
33958
34243
34236
34368
33965
33554
33125
32407
31859
31399
31055
30886
30885
31124
31580
32147
32774
33304
33649
33918
34092
34260
34287
34289
33967
33670
33375
32756
32218
31751
31311
31111
30935
31169
31530
32019
32771
33241
33799
34212
34334
34522
34647
34333
34215
33724
33255
32837
32180
31679
31321
30973
30909
31148
31450
31959
32529
33048
33509
33855
34215
34467
34483
34292
33815
33391
32991
32520
31975
31463
31210
30941
30887
31046
31313
31932
32471
33029
33671
34197
34438
34558
34709
34439
33924
33630
33045
32436
31901
31337
30791
30604
30556
30791
31357
31885
32612
33399
33855
34326
34758
34812
34887
34868
34463
33933
33605
32911
32332
31879
31356
31135
31119
31257
31772
32341
32970
33562
34050
34445
34693
34811
34764
34562
34224
33764
33207
32481
31782
31194
30766
30551
30654
31060
31704
32495
33234
33679
34052
34407
34734
34882
34823
34604
34172
33759
33189
32519
31876
31302
30844
30567
30548
30840
31385
32056
32769
33402
33946
34388
34668
34806
34754
34520
34126
33700
33252
32708
32154
31559
31093
30879
30831
31020
31439
32053
32745
33439
34007
34413
34665
34757
34781
34626
34306
33821
33207
32588
31951
31374
30978
30823
30863
31104
31569
32148
32885
33588
34084
34494
34759
34869
34807
34489
34055
33653
33207
32734
32183
31619
31121
30828
30799
31055
31461
32017
32713
33434
34005
34428
34742
34966
34988
34794
34389
33746
32939
31940
30895
29932
29231
28825
28663
28754
29098
29609
30284
31056
31860
32684
33439
34048
34578
35039
35450
35791
36094
36308
36590
37002
37766
38901
40550
42589
45007
47623
50464
53213
55652
57916
59821
61144
61703
61526
60741
59561
57837
55647
53148
50557
47804
45105
42736
40643
38870
37476
36437
35543
34559
33460
32423
31619
31059
30528
30027
29567
29063
28397
27695
27006
26396
25930
25746
25869
26245
26780
27459
28113
28790
29396
29935
30328
30543
30545
30325
29951
29518
28964
28375
27800
27365
27103
27051
27200
27607
28134
28851
29516
30084
30615
30936
31124
31167
31061
30778
30471
30074
29543
28943
28394
27977
27727
27676
27905
28337
28933
29670
30397
31004
31463
31819
31995
32017
31889
31607
31309
30927
30375
29727
29070
28500
28167
28135
28395
28960
29681
30402
30983
31418
31783
32119
32332
32420
32382
32186
31895
31448
30846
30234
29683
29286
29049
28957
29090
29420
29914
30567
31206
31764
32215
32600
32812
32838
32772
32604
32355
32077
31553
30937
30347
29868
29607
29511
29690
30055
30607
31237
31876
32532
32860
33160
33356
33470
33476
33300
32973
32519
32006
31439
30837
30300
29928
29775
29871
30282
30821
31428
32041
32647
33157
33550
33881
34015
33909
33583
33157
32668
32082
31429
30887
30433
30108
29940
30071
30447
30989
31721
32425
33038
33559
33766
33934
34002
33884
33609
33257
32810
32242
31655
31173
30757
30511
30415
30588
30950
31460
32119
32764
33318
33765
34064
34268
34383
34391
34078
33700
33366
32885
32295
31724
31212
30909
30831
31019
31506
32116
32866
33583
34180
34626
34941
35144
35239
35159
34925
34593
34199
33596
32917
32214
31648
31305
31212
31460
32044
32719
33575
34317
34846
35185
35423
35618
35732
35687
35485
35053
34576
33941
33317
32732
32238
31965
31949
32174
32733
33425
34172
34900
35542
35938
36245
36432
36450
36191
35887
35530
35106
34537
33839
33111
32476
32039
31839
31856
32183
32616
33188
33775
34279
34822
34975
35052
35162
34773
34538
33872
33197
32536
31663
31076
30436
30182
30026
30180
30505
30980
31751
32343
32959
33284
33567
33625
33484
33433
32998
32718
32122
31526
30959
30223
29748
29378
29153
29180
29480
29951
30543
31135
31672
32149
32558
32882
33071
33015
32805
32577
32248
31663
30937
30322
29787
29419
29268
29388
29820
30399
31185
31892
32579
33102
33484
33735
33666
33664
33241
32824
32364
31738
30979
30278
29863
29596
29470
29672
30023
30502
31333
32007
32647
33269
33542
33595
33639
33610
33169
32871
32327
31639
31047
30326
29797
29525
29420
29636
30113
30792
31538
32103
32791
33123
33596
33655
33868
33679
33372
32962
32280
31751
30917
30397
29834
29500
29308
29359
29805
30356
31254
31977
32751
33237
33511
33873
33904
33949
33561
33407
32795
32263
31647
30935
30473
30045
29889
30013
30407
30999
31565
32325
32711
33237
33391
33518
33574
33382
33104
32471
32195
31638
31157
30718
30191
29828
29630
29830
30392
31048
31759
32623
33127
33782
33933
34201
34191
33948
33765
33190
32745
32150
31364
30806
30234
30076
30023
30260
30798
31415
32106
32981
33449
33911
34327
34419
34639
34407
34215
33891
33263
32866
32103
31573
31140
30811
30805
30980
31340
32065
32663
33405
34152
34415
34597
34933
34831
34749
34611
34197
33511
32876
32292
31584
31030
30801
30636
30750
31310
31829
32451
33180
33767
34247
34596
34709
34636
34431
34180
33871
33495
32990
32399
31797
31279
30917
30783
30937
31423
32124
32797
33375
33898
34311
34560
34677
34588
34325
34023
33606
33095
32450
31783
31238
30827
30596
30575
30848
31398
32075
32826
33533
34129
34558
34820
34967
35047
34984
34773
34343
33775
33085
32356
31659
31110
30799
30725
30908
31279
31847
32495
33140
33628
33995
34247
34427
34476
34366
34190
33811
33323
32673
31943
31273
30721
30359
30181
30366
30871
31569
32393
33158
33757
34245
34629
34862
34935
34847
34615
34261
33739
33094
32308
31617
31073
30669
30513
30692
31123
31696
32439
33133
33701
34161
34521
34766
34819
34630
34311
33862
33316
32686
31967
31215
30561
30154
30060
30244
30655
31229
31948
32637
33190
33607
34031
34360
34409
34218
33938
33621
33185
32667
32037
31458
30937
30567
30412
30580
31052
31765
32645
33419
33988
34351
34719
34877
34916
34739
34383
33924
33332
32652
31903
31236
30778
30521
30548
30905
31550
32199
32916
33663
34381
34839
35154
35307
35351
35221
34951
34623
34158
33521
32846
32231
31809
31559
31487
31622
31968
32509
33238
33948
34591
35089
35420
35613
35674
35519
35201
34823
34279
33647
32961
32231
31575
31132
30970
31142
31573
32156
32870
33553
34223
34732
34983
35180
35087
34795
34442
34021
33508
32918
32301
31743
31223
30909
30812
30993
31462
32118
32811
33511
34050
34440
34726
34903
34951
34853
34615
34154
33622
32896
32108
31455
30916
30566
30449
30615
31024
31604
32333
33055
33627
34050
34344
34503
34559
34467
34195
33845
33383
32857
32214
31580
31053
30661
30451
30566
31008
31607
32263
32909
33517
34030
34405
34652
34782
34686
34345
33883
33307
32684
32055
31502
31069
30727
30615
30756
31153
31763
32508
33197
33719
34123
34387
34485
34455
34268
33868
33306
32509
31528
30632
29820
29116
28607
28293
28254
28535
29087
30090
31214
32227
33065
33867
34595
35286
35906
36463
37127
37759
38356
39001
39703
40708
42244
43991
46015
48375
50964
53678
56308
58606
60436
61569
61959
61764
60911
59655
57924
55668
52998
50043
46994
44132
41577
39263
37351
35879
34788
33924
33075
32188
31447
30973
30708
30548
30383
30068
29627
29078
28410
27666
26882
26215
25734
25502
25575
25948
26597
27398
28220
28940
29600
30188
30554
30799
30855
30694
30441
30030
29434
28695
28000
27467
27087
26949
27063
27456
28092
28917
29743
30365
30897
31426
31631
31833
31786
31503
31239
30725
30058
29372
28615
28030
27702
27598
27718
28188
28778
29519
30308
30947
31463
31784
32054
32182
31923
31743
31333
30821
30246
29635
28991
28486
28167
28103
28351
28828
29431
30263
30965
31692
32185
32532
32607
32756
32769
32388
32117
31538
30823
30117
29469
28959
28679
28589
28743
29167
29769
30529
31342
32031
32673
33153
33404
33514
33375
33074
32669
32106
31458
30716
30004
29405
28993
28861
29031
29433
30013
30790
31622
32341
32930
33323
33602
33676
33572
33270
32815
32335
31807
31210
30627
30086
29703
29548
29665
30079
30711
31463
32118
32671
33061
33323
33389
33400
33325
33081
32758
32222
31589
30916
30214
29638
29325
29263
29465
30015
30765
31634
32482
33204
33829
34119
34274
34364
34293
34022
33594
33055
32359
31541
30839
30263
29838
29652
29781
30210
30883
31735
32606
33342
33908
34347
34647
34775
34690
34435
34054
33552
32855
32076
31351
30787
30433
30341
30532
31034
31731
32655
33458
33983
34424
34823
35155
35281
35292
35077
34746
34318
33726
33005
32316
31724
31325
31189
31270
31740
32452
33324
34191
34948
35510
35847
36103
36191
35977
35591
35110
34593
34006
33308
32663
32092
31799
31698
31866
32358
33016
33779
34594
35281
35794
36103
36265
36359
36271
36036
35689
35170
34409
33575
32807
32138
31652
31396
31479
31889
32439
33143
33844
34449
34887
35127
35143
35076
34873
34416
33921
33311
32605
31847
31162
30575
30049
29753
29748
30140
30756
31559
32391
33063
33543
33911
34035
34021
33799
33423
32948
32391
31762
31057
30405
29794
29380
29188
29279
29673
30228
30999
31796
32479
33030
33521
33872
33939
33757
33453
32938
32291
31622
30800
30057
29477
29027
28772
28893
29249
29763
30492
31281
32070
32676
33171
33580
33819
33876
33756
33532
33076
32375
31528
30696
30048
29620
29479
29605
29996
30566
31303
32085
32765
33357
33799
34162
34269
34140
33793
33325
32711
32122
31265
30599
29853
29277
29050
29145
29559
30228
31049
31839
32710
33175
33794
33967
34155
34209
33863
33658
32967
32348
31584
30775
30236
29768
29586
29727
30085
30775
31467
32327
32919
33319
33767
33663
33710
33411
33229
32845
32327
31964
31348
30655
30263
29900
29855
30007
30406
31049
31751
32606
33353
33743
34114
34350
34268
34303
33856
33639
32934
32393
31527
30759
30272
29805
29628
29566
30164
30753
31568
32161
32833
33502
33965
34410
34439
34580
34207
33974
33572
32871
32278
31483
30895
30553
30320
30380
30830
31324
32077
32981
33469
34055
34391
34530
34819
34615
34239
33964
33348
32583
31945
31114
30660
30233
30134
30391
30713
31429
32103
32931
33593
33935
34395
34579
34468
34511
33986
33524
33042
32177
31587
30847
30391
30055
29923
30199
30666
31359
32388
33118
33839
34439
34703
35056
35111
34749
34390
34087
33470
32965
32128
31414
30976
30521
30316
30526
30991
31525
32455
33143
33776
34404
34628
34977
35093
34791
34631
34020
33581
32872
32012
31428
30755
30373
30269
30374
30933
31445
32311
33111
33682
34350
34511
34819
34564
34273
34055
33459
32834
32258
31469
30886
30608
30335
30268
30366
30695
31348
32020
32754
33628
33919
34216
34463
34473
34613
34521
34151
33860
33135
32252
31652
30911
30506
30395
30471
31015
31559
32443
33356
33948
34649
34893
35180
35203
34845
34639
33985
33402
32767
31916
31294
30700
30256
30275
30471
30940
31685
32430
33354
33991
34494
34935
34866
34989
34713
34247
33966
33236
32601
31847
31074
30607
30182
30158
30418
30939
31770
32602
33389
33983
34411
34634
34818
34865
34689
34283
33785
33222
32551
31844
31214
30701
30414
30313
30468
30869
31446
32202
32996
33665
34151
34562
34854
34997
34981
34770
34300
33618
32910
32047
31305
30684
30351
30310
30587
31185
31909
32758
33699
34299
34664
35014
35327
35287
34844
34661
34164
33641
33013
32039
31396
30727
30342
30249
30408
31015
31573
32538
33199
33993
34288
34812
34859
34963
34745
34549
34071
33732
32906
32287
31428
30908
30524
30511
30647
31201
31751
32668
33303
34073
34471
34919
35076
35219
34941
34814
34196
33791
32974
32445
31644
31173
30798
30788
30954
31511
32095
33071
33678
34346
34728
34990
35230
35124
35111
34572
34260
33484
32868
31976
31315
30767
30398
30297
30519
30975
31862
32680
33719
34151
34781
34943
35319
35127
34943
34615
33975
33459
32650
32034
31322
30871
30442
30409
30518
31134
31740
32767
33474
34292
34626
35055
35156
35092
34927
34604
34148
33623
32916
32324
31531
30916
30662
30550
30753
31249
31968
32814
33598
34260
34733
35068
35270
35297
35106
34735
34242
33636
32918
32110
31442
30956
30655
30550
30719
31175
31884
32704
33460
34102
34552
34924
35174
35253
34839
34626
34039
33350
32813
31889
31210
30599
30209
30108
30231
30756
31436
32431
33190
33890
34258
34415
34810
34874
34933
34726
34215
33529
32985
32118
31440
30713
30207
29893
29798
29999
30364
30982
31556
32084
32527
32801
32868
32884
32866
32887
32948
32866
32636
32518
32540
32828
33159
34053
35196
36695
38683
40537
43143
45495
48080
50516
52852
55214
57025
58628
59964
60711
60935
60183
59204
57823
56455
54918
53229
51756
49908
48439
46797
44963
43430
41727
40034
38426
36772
34934
32935
30956
29270
27957
27012
26336
25927
25758
25921
26278
26856
27559
28262
28858
29287
29604
29833
29917
29820
29574
29300
28909
28333
27699
27106
26600
26324
26305
26596
27127
27834
28623
29399
30069
30668
31143
31412
31393
31129
30709
30251
29727
29061
28333
27719
27181
26892
26823
27117
27654
28361
29205
29989
30712
31296
31716
32022
32124
31975
31636
31162
30611
30002
29322
28691
28154
27846
27767
28023
28503
29175
30022
30873
31572
32101
32404
32729
32788
32509
32295
31710
31065
30148
29340
28652
28137
27911
27950
28321
28975
29881
30781
31508
32279
32635
32943
33246
33104
33047
32625
32305
31740
30915
30143
29335
28879
28615
28674
28967
29522
30167
31050
31780
32322
32999
33266
33578
33645
33371
33207
32574
32017
31200
30463
29783
29220
28947
28823
29121
29703
30409
31373
32090
32629
33268
33574
33658
33797
33468
33295
32743
32479
31714
30959
30215
29622
29375
29327
29719
30197
30926
31751
32423
33254
33614
34090
34037
33967
33693
33257
32923
32290
31818
31041
30463
29884
29562
29545
29716
30239
30959
31775
32774
33403
34055
34516
34583
34695
34272
33916
33446
32663
32117
31310
30741
30382
30209
30199
30655
31147
31804
32737
33367
34178
34535
35029
35198
35045
34988
34663
34269
33716
33068
32403
31785
31294
31015
30980
31284
31860
32671
33628
34440
35073
35548
35881
36036
36033
35815
35413
34935
34331
33602
32883
32227
31746
31520
31534
31877
32442
33103
33958
34821
35408
35880
36324
36524
36797
36391
36255
35667
35147
34429
33504
32966
32286
31967
31983
32197
32805
33385
34076
34925
35288
35831
35742
35875
35546
35231
34857
34191
33749
32903
32140
31562
30855
30527
30326
30526
31002
31347
32024
32620
33055
33620
33813
34119
33935
33911
33530
32969
32452
31508
30751
29945
29359
29095
28997
29330
30003
30782
31742
32764
33399
33845
34106
34163
34112
33804
33333
32764
32132
31379
30628
29974
29469
29184
29206
29500
30007
30725
31535
32257
32903
33455
33783
33917
33844
33532
33095
32577
31941
31228
30548
29940
29468
29225
29231
29549
30129
30917
31772
32457
32941
33268
33530
33645
33604
33359
33019
32551
31970
31281
30596
30007
29554
29299
29257
29604
30161
30829
31533
32133
32655
33151
33519
33776
33976
33868
33588
33052
32378
31528
30685
30005
29519
29267
29199
29521
30166
31029
32119
32823
33479
33975
34140
34400
34194
33995
33671
33085
32589
31706
30911
30277
29735
29656
29689
30049
30696
31397
32214
33107
33541
34037
34301
34267
34357
34095
33537
33191
32578
31748
31053
30300
29767
29574
29542
29892
30564
31215
32071
32850
33287
33817
34241
34373
34257
33994
33586
33052
32405
31588
30790
30071
29527
29238
29236
29639
30351
31372
32452
33414
34113
34524
34754
34791
34695
34439
34045
33535
32904
32094
31324
30670
30175
29879
29831
30108
30671
31351
32351
33050
33626
34221
34330
34613
34630
34348
34164
33495
32849
32135
31312
30721
30156
29821
29799
30212
30906
31735
32932
33671
34399
34887
35125
35444
35156
34847
34560
33849
33212
32452
31592
31058
30484
30246
30331
30591
31231
32023
32823
33758
34241
34646
35046
34932
34924
34631
34111
33767
33045
32236
31604
30820
30375
30073
30047
30488
31007
31941
32901
33652
34507
34823
34905
35068
34927
34503
34149
33639
32806
32012
31327
30546
30142
29889
29933
30516
31135
32022
33098
33848
34311
34925
35053
35308
35188
34799
34549
33956
33135
32414
31547
30822
30256
30032
30095
30484
31061
31876
32781
33540
34114
34529
34879
34989
34951
34754
34255
33897
33108
32327
31502
30743
30338
30055
30212
30492
31141
31956
32761
33681
34140
34753
34941
34941
35036
34623
34260
33951
33220
32533
31751
30962
30562
30295
30343
30855
31465
32158
32988
33479
34184
34444
34895
34986
34848
34761
34287
34050
33346
32499
31727
30869
30471
30279
30326
30692
31345
32039
32949
33769
34245
34859
35106
35500
35299
35013
34655
33901
33227
32541
31740
31239
30673
30429
30509
30856
31550
32255
33141
33968
34396
34932
34996
35124
35191
34981
34567
33953
33167
32464
31597
30869
30525
30294
30460
30884
31507
32435
33095
33959
34292
34653
34809
34840
34879
34524
34335
33671
33159
32295
31716
30971
30610
30469
30622
31311
31989
32940
33857
34343
34892
35236
35181
35254
35169
34677
34224
33799
33052
32145
31588
31069
30694
30468
30524
30922
31608
32539
33498
34233
34807
35169
35351
35367
35222
34927
34551
33999
33287
32495
31751
31109
30668
30479
30586
30999
31640
32487
33397
34143
34668
35061
35316
35383
35223
34874
34503
33975
33284
32438
31597
30917
30457
30285
30388
30863
31579
32455
33402
34192
34692
35085
35334
35455
35398
35060
34623
34006
33271
32396
31536
30793
30297
30087
30215
30706
31335
32196
33133
33922
34463
34855
35016
35057
34892
34676
34484
34136
33535
32761
32098
31562
31155
30983
31090
31465
32052
32847
33636
34326
34850
35173
35375
35485
35455
35127
34673
34097
33407
32602
31815
31150
30726
30626
30720
31108
31662
32455
33303
34047
34596
34951
35118
35183
35121
34814
34439
33938
33372
32727
32142
31701
31425
31370
31511
31932
32400
32837
33330
33772
34161
34471
34613
34583
34460
34166
33815
33383
32860
32303
31815
31407
31103
30995
31079
31394
31843
32418
33023
33553
33973
34247
34434
34463
34285
33986
33613
33231
32815
32278
31773
31366
31105
30961
30989
31282
31721
32314
32975
33486
33903
34244
34492
34567
34388
34093
33738
33336
32897
32393
31812
31279
31015
31029
31150
31516
31943
32493
33078
33596
33981
34237
34409
34455
34320
34012
33637
33204
32757
32274
31824
31382
31087
30883
30813
30828
30789
30841
31062
31327
31539
31670
31780
31725
31587
31430
31387
31397
31361
31264
31290
31546
31983
32595
33527
34695
36018
37692
39567
41548
43822
46213
48524
50948
53140
55100
56868
58364
59575
60412
60660
60311
59519
58478
57204
56095
54652
53124
51335
49373
47386
45372
43320
41268
39278
37415
35656
33748
31702
29772
28333
27365
26824
26671
26727
27013
27305
27635
27927
28184
28394
28613
28761
28799
28828
28822
28730
28533
28225
27855
27500
27254
27102
27086
27239
27622
28052
28574
29107
29598
29954
30145
30257
30244
30085
29766
29434
29124
28782
28430
28148
27916
27831
27844
27972
28217
28553
29038
29612
30195
30663
31068
31359
31475
31452
31236
30970
30607
30208
29717
29255
28837
28584
28527
28597
28818
29191
29695
30252
30703
31062
31333
31579
31778
31779
31584
31393
31106
30692
30168
29750
29387
29105
28926
28934
29187
29572
30111
30630
31127
31540
31821
31944
31861
31719
31518
31270
30977
30684
30309
29966
29788
29671
29567
29614
29895
30313
30835
31306
31642
31953
32227
32455
32530
32558
32463
32270
32055
31743
31262
30692
30231
29950
29868
29972
30266
30665
31207
31745
32182
32487
32757
32922
32977
32950
32724
32445
32079
31627
31135
30695
30328
30077
29974
30091
30430
30871
31419
31959
32519
32799
33217
33226
33253
33318
33048
32859
32532
31961
31527
30986
30462
30173
30046
30164
30490
30920
31453
32081
32669
33086
33373
33535
33607
33517
33328
33031
32612
32180
31587
31189
30753
30559
30410
30406
30660
31036
31653
32159
32881
33287
33671
34162
34275
34491
34229
34230
33742
33442
32788
32279
31826
31463
31450
31599
31917
32565
33218
33718
34350
34532
34808
35029
34895
34982
34619
34496
34044
33629
33271
32710
32409
32197
32077
32286
32684
33055
33772
34247
34973
35204
35461
35717
35563
35644
35297
35003
34754
34168
33833
33276
32916
32857
32679
32865
32959
33450
33759
34260
34615
35051
35183
35424
35327
35143
34861
34288
33871
33244
32416
31944
31415
31025
31034
31086
31480
31987
32481
33044
33494
33607
33860
33882
33765
33601
33399
33191
32833
32312
31621
31050
30639
30390
30263
30319
30530
30820
31300
31836
32330
32531
32837
32732
32802
32533
32333
32091
31643
31348
30893
30530
30189
29951
29932
29967
30346
30705
31223
31822
32140
32551
32829
32863
33068
33036
32705
32556
32078
31556
31082
30527
30119
29876
29703
29788
30139
30628
31325
31948
32359
32857
32927
32978
33098
32892
32640
32431
31951
31546
31218
30823
30527
30394
30340
30495
30823
31178
31800
32236
32710
33049
33301
33421
33329
33166
32885
32575
32193
31743
31277
30870
30503
30227
30132
30311
30726
31319
31948
32500
32964
33287
33501
33597
33505
33321
33106
32816
32463
32007
31475
30913
30455
30117
30089
30199
30575
31037
31556
32227
32685
32953
33379
33521
33515
33512
33444
33245
32760
32201
31636
31175
30859
30701
30633
30737
31135
31630
32229
32836
33333
33662
33823
33903
33797
33719
33505
33060
32731
32151
31719
31332
30938
30780
30697
30946
31181
31665
32084
32624
33065
33325
33724
33671
33797
33671
33317
33041
32452
32083
31485
31103
30797
30605
30742
30979
31367
31898
32221
32820
33193
33463
33646
33767
33927
33724
33623
33119
32852
32274
31940
31455
31183
30815
30661
30746
30942
31382
31915
32407
33031
33314
33799
33849
34034
33924
33831
33575
33173
32710
32045
31603
31196
30917
30795
30954
31299
31921
32517
33006
33642
33845
34193
34295
34433
34311
33971
33756
33159
32783
32126
31796
31347
31153
31167
31223
31695
32095
32730
33257
33647
34087
34144
34391
34199
34082
33780
33383
33095
32447
32076
31506
31191
30983
30996
31278
31600
32200
32636
33271
33564
33644
33887
33860
34078
33836
33791
33503
33199
32848
32226
31775
31220
30954
30852
31014
31415
31799
32458
32933
33560
33917
34336
34639
34759
34524
34390
33775
33374
32852
32295
31921
31476
31423
31419
31580
31998
32288
32943
33323
33884
34214
34294
34532
34363
34235
34082
33603
33302
32721
32176
31807
31338
31189
31010
31215
31524
31944
32663
33066
33731
33982
34439
34534
34389
34311
33773
33516
33022
32591
32038
31551
31194
30925
30977
31159
31583
31972
32692
33206
33634
34076
34182
34564
34468
34387
33900
33508
33153
32512
31981
31532
31119
31031
30947
31034
31455
31879
32623
33067
33567
34103
34277
34565
34509
34373
34199
33639
33372
32940
32423
32079
31735
31481
31605
31708
31999
32557
33013
33527
34023
34199
34399
34670
34567
34300
34156
33740
33211
32712
32231
31631
31215
31132
31172
31388
31751
32249
32857
33433
33952
34332
34636
34785
34750
34516
34151
33695
33177
32601
32089
31625
31221
31008
31031
31298
31723
32175
32692
33146
33550
33830
34086
34223
34175
33974
33708
33287
32943
32554
32100
31703
31353
31119
31101
31215
31534
32017
32593
33108
33551
33943
34299
34502
34519
34355
34111
33774
33271
32749
32254
31852
31526
31286
31239
31409
31959
32434
33094
33677
33963
34172
34324
34516
34375
34260
34126
33812
33391
32903
32322
31999
31644
31388
31381
31586
31784
32250
32763
33144
33692
33932
34161
34423
34311
34389
33985
33643
32948
32287
31698
31122
30903
30791
30957
31262
31686
32460
33073
33669
34268
34516
34902
34870
34733
34469
34087
33670
33226
32678
32190
31790
31442
31263
31234
31447
31894
32433
33055
33652
34060
34404
34675
34876
34887
34751
34441
33996
33475
32828
32233
31751
31449
31300
31417
31593
32145
32581
33276
33742
34199
34583
34519
34677
34421
34429
34055
33855
33340
32871
32495
32095
31975
31716
31769
31863
32103
32497
32788
33321
33604
34088
34096
34364
34307
34172
33863
33236
32903
32357
32014
31607
31286
31271
31263
31572
32015
32399
32940
33524
33757
34159
34381
34337
34465
34172
34047
33504
33021
32323
31687
31308
30929
30919
30938
31313
31706
32398
32887
33588
33885
34273
34386
34495
34591
34183
34047
33525
33207
32694
32071
31676
31378
31239
31298
31388
31834
32194
32883
33230
33753
33927
34255
34430
34378
34351
33849
33563
32871
32263
31796
31322
31128
30938
31087
31258
31736
32172
32791
33201
33373
33459
33244
32894
32431
32036
31540
31175
30663
30203
29699
29361
29277
29515
29967
30588
31511
32564
33903
34892
36184
37143
38449
39429
40885
41847
43594
45132
46928
48551
50384
52141
53993
55736
57312
58926
59831
60530
60510
60335
59543
58499
57071
55100
53087
50450
47828
45394
42669
40054
37500
35188
33262
31338
29734
28512
27781
27698
27974
28512
28988
29116
29277
29423
29459
29156
28687
28186
27608
27076
26574
26260
26140
26330
26725
27265
27791
28268
28820
29330
29743
30151
30426
30527
30559
30343
30106
29746
29314
28823
28332
27838
27570
27450
27524
27810
28167
28708
29326
29878
30279
30641
30828
30887
30979
30807
30628
30292
29939
29382
28874
28436
28196
28128
28197
28441
28807
29308
29903
30483
31023
31267
31556
31507
31462
31284
30980
30663
30261
29735
29295
28973
28775
28738
28889
29207
29615
30178
30685
31231
31732
31976
32293
32270
32290
32116
31646
31286
30751
30275
29831
29440
29215
29214
29365
29804
30364
30836
31367
31860
32019
32287
32386
32309
32322
32091
31740
31599
31213
30903
30455
30032
29734
29590
29692
29917
30287
30900
31387
31894
32284
32481
32815
32763
32731
32611
32252
32001
31462
30980
30412
29995
29742
29724
29885
30263
30831
31420
32107
32445
32947
33125
33092
33214
33025
32866
32674
32207
31860
31466
30998
30631
30374
30295
30427
30695
31083
31581
32031
32558
32819
33089
33238
33335
33253
33047
32762
32392
32032
31589
31095
30607
30426
30471
30645
31031
31554
32221
32877
33447
33833
34004
34068
33997
33845
33538
33183
32716
32243
31740
31239
30903
30751
30772
30901
31316
31876
32599
33317
33841
34245
34637
34910
35111
35115
34942
34692
34329
33916
33439
32988
32620
32286
32127
32186
32519
33004
33591
34082
34599
35045
35463
35659
35685
35564
35367
35076
34696
34309
33767
33335
32901
32626
32538
32642
33010
33477
34109
34684
35127
35332
35543
35684
35697
35591
35335
35042
34648
34205
33639
33061
32629
32294
32135
32113
32248
32577
33012
33381
33646
33908
34205
34347
34356
34243
33911
33524
33042
32502
31895
31158
30528
30095
29911
29981
30268
30743
31425
32221
32991
33511
33711
33692
33583
33410
33193
32939
32418
31825
31311
30835
30453
30175
30058
30107
30351
30751
31329
31898
32361
32695
32940
33066
33085
33007
32763
32414
31983
31535
31069
30620
30192
29903
29791
29828
30102
30507
31020
31546
32040
32412
32628
32785
32895
32863
32658
32351
31959
31508
30988
30483
30077
29794
29727
29913
30343
30786
31337
31956
32496
32800
33015
33149
33190
33076
32757
32471
32084
31542
30933
30428
30062
29900
29931
30119
30485
30966
31591
32172
32748
33182
33463
33610
33566
33479
33101
32980
32629
32396
31810
31284
31034
30740
30647
30642
30770
31162
31609
32195
32760
33103
33440
33632
33679
33644
33412
33027
32588
32181
31685
31206
30770
30431
30341
30390
30621
30982
31581
32234
32679
33020
33319
33608
33480
33383
33167
32791
32508
31898
31382
30759
30382
30214
30215
30336
30620
31033
31541
32081
32615
33092
33460
33735
33927
33977
33847
33527
33013
32469
31903
31407
30949
30619
30438
30487
30792
31198
31700
32148
32439
32718
32968
33173
33247
33335
33274
33134
32924
32601
32199
31793
31409
31084
30863
30791
30994
31315
31813
32371
32932
33334
33654
33878
34100
34103
33859
33536
33180
32751
32234
31740
31263
30930
30829
30855
31125
31532
32084
32658
33183
33641
33974
34194
34311
34287
34031
33681
33225
32694
32079
31527
31071
30694
30527
30623
31054
31606
32303
32996
33530
33947
34275
34518
34623
34511
34212
33767
33284
32739
32140
31594
31126
30844
30823
30924
31218
31607
32091
32669
33196
33564
33892
34177
34308
34237
34016
33719
33404
32959
32413
31782
31324
30983
30847
30930
31239
31674
32263
32886
33469
33938
34383
34668
34770
34703
34420
33962
33471
32979
32405
31751
31199
30860
30685
30753
31208
31677
32404
33055
33543
34194
34495
34644
34839
34583
34399
34113
33543
33181
32488
31924
31341
31055
30869
30826
31141
31602
32165
32893
33620
34051
34284
34694
34633
34727
34446
33980
33357
32693
31959
31316
30874
30648
30543
30689
31150
31731
32390
32960
33406
33855
34309
34652
34809
34820
34661
34374
33836
33133
32532
31993
31452
31060
30876
30919
31327
31834
32383
32903
33353
33711
34043
34310
34473
34499
34427
34319
33969
33532
32940
32294
31707
31240
31015
31007
31300
31787
32460
33189
33855
34349
34687
34871
34919
34823
34580
34255
33847
33372
32751
32076
31487
31072
30894
30898
31076
31437
32055
32804
33511
33990
34339
34632
34775
34818
34643
34358
34010
33470
32696
31886
31195
30654
30359
30300
30596
31087
31764
32684
33423
33991
34515
34906
35027
34919
34613
34159
33645
33064
32460
31949
31489
31079
30913
30982
31377
31902
32573
33140
33667
34085
34337
34548
34711
34695
34554
34327
33915
33457
32646
32103
31418
30988
30768
30681
30998
31455
32255
33044
33515
34067
34395
34503
34775
34714
34539
34228
33870
33396
32831
32217
31646
31201
30892
30865
31143
31689
32472
33140
33662
34099
34469
34567
34567
34518
34396
34132
33799
33255
32639
32004
31415
30932
30711
30743
31093
31605
32252
33025
33677
34143
34471
34694
34807
34761
34524
34151
33696
33151
32510
31884
31327
30964
30809
30847
31167
31667
32303
32964
33543
34047
34446
34668
34676
34591
34383
34055
33555
32917
32327
31783
31335
30959
30786
30786
31077
31600
32247
33002
33716
34311
34764
35090
35335
35207
35211
34773
34340
33916
33108
32511
31780
31237
31031
31003
31134
31514
32138
32742
33493
34212
34550
35095
35180
35471
35115
34839
34262
33535
32909
32068
31570
31074
30740
30795
31097
31764
32456
33132
33886
34215
34613
34796
34734
34763
34446
34019
33670
32975
32477
31759
31188
30817
30572
30657
30978
31400
32004
32821
33322
33771
34222
34306
34484
34518
34207
34043
33571
32974
32519
31819
31423
31062
30844
30923
31305
31776
32358
32972
33456
34021
34244
34532
34792
34703
34693
34271
33998
33312
32488
31835
31103
30644
30502
30507
30903
31319
31963
32738
33359
34153
34510
34831
35021
34843
34516
34311
33655
33179
32303
31676
31059
30708
30615
30673
31054
31538
32235
32958
33580
34110
34470
34609
34534
34231
33620
32842
31990
31036
30225
29524
28903
28406
28075
28042
28527
29375
30615
31883
32930
34156
35053
35926
36892
37582
38167
38910
39687
40455
41247
42287
43632
45437
47451
49719
52161
54604
57152
59500
61356
62418
62772
62637
61871
60501
58460
56263
53767
50920
47888
44888
42070
39447
37125
35134
33585
32292
31279
30431
29891
29710
29789
29997
30186
30212
30044
29724
29205
28493
27644
26833
26119
25593
25328
25334
25765
26451
27335
28297
29180
29873
30431
30823
30991
30950
30751
30383
29874
29278
28566
27870
27263
26823
26604
26650
26990
27508
28280
29151
30010
30719
31239
31631
31801
31772
31480
31060
30527
29940
29221
28510
27907
27449
27211
27305
27802
28418
29210
30064
30815
31367
31847
32164
32294
32174
31831
31430
31015
30495
29846
29143
28540
28114
27913
27943
28295
28874
29589
30470
31187
31804
32399
32595
32740
32709
32357
32042
31367
30719
29820
29004
28348
27886
27691
27826
28340
29023
29851
30854
31652
32388
33020
33276
33620
33421
33124
32694
32087
31382
30577
29794
29143
28724
28543
28640
29102
29743
30593
31484
32292
32895
33331
33466
33732
33476
33263
32789
32172
31599
30770
30079
29458
29026
28887
29084
29703
30364
31176
32023
32735
33415
33674
34076
33958
33992
33595
33316
32767
31952
31206
30312
29703
29316
29140
29205
29573
30255
31119
32077
32980
33449
34082
34207
34490
34197
34014
33420
32970
32159
31396
30583
29967
29558
29414
29566
30054
30799
31579
32455
32954
33549
33996
34215
34452
34311
34324
33846
33502
32885
32053
31463
30718
30325
30096
30262
30653
31382
32135
33176
33791
34610
34935
35389
35303
35238
35004
34425
33996
33167
32615
31895
31564
31226
31215
31268
31820
32318
33211
33844
34647
35025
35583
35767
36119
35935
35886
35359
35061
34399
33571
32967
32200
31873
31639
31884
32334
32898
33863
34575
35498
35883
36314
36615
36602
36689
36241
35948
35146
34533
33447
32739
31929
31522
31143
31270
31703
32210
33113
33799
34565
35052
35284
35508
35582
35196
34893
34457
33797
33113
32414
31501
30772
30362
30079
30143
30421
31004
31716
32407
33061
33527
34055
34133
34352
34047
33772
33414
32695
32091
31213
30391
29775
29348
29255
29382
29767
30390
31183
31858
32572
33121
33493
33771
33697
33649
33085
32759
32069
31462
30664
29974
29447
29058
29013
29204
29652
30367
31206
31997
32773
33190
33554
33884
33867
33704
33468
33055
32460
31751
30963
30212
29591
29111
28863
28892
29264
29879
30735
31644
32480
33160
33705
34059
34163
33985
33655
33126
32507
31811
30972
30167
29554
29156
28966
29060
29529
30194
31222
32068
32770
33607
34072
34662
34604
34526
34111
33471
32950
32223
31348
30692
30018
29576
29510
29638
30148
30761
31504
32340
32956
33698
33953
34199
34431
34229
34083
33639
33071
32311
31502
30697
30004
29561
29447
29686
30164
30852
31736
32621
33356
33914
34462
34455
34485
34416
33927
33556
32930
32042
31332
30617
29990
29601
29372
29478
29898
30457
31335
32193
32836
33604
33997
34343
34462
34215
34084
33486
32858
32191
31292
30659
30172
29990
29894
30055
30533
31188
31925
32750
33497
34034
34439
34687
34780
34679
34459
34074
33540
32797
31954
31172
30495
30071
29899
30042
30469
31135
31973
32847
33560
34175
34615
34820
34855
34678
34317
33812
33151
32372
31597
30844
30249
29911
29793
29989
30504
31221
32093
32911
33620
34183
34625
34847
34812
34574
34181
33663
33063
32298
31471
30738
30138
29772
29652
29927
30556
31374
32382
33382
34244
34818
35108
35133
34991
34738
34353
33861
33270
32463
31541
30748
30124
29749
29686
29921
30451
31166
32095
33052
33854
34401
34766
34959
35070
34959
34607
34109
33447
32674
31845
30991
30245
29788
29639
29876
30404
31199
32184
33210
34036
34705
35182
35443
35439
35189
34692
34140
33515
32750
31874
31082
30399
29957
29775
29959
30484
31263
32220
33101
33836
34420
34887
35159
35199
35005
34695
34223
33566
32847
31987
31135
30354
29900
29743
29914
30442
31212
32206
33174
33945
34575
35036
35329
35407
35316
35012
34494
33799
32979
32069
31211
30530
30126
29972
30191
30751
31516
32477
33499
34318
34855
35247
35429
35423
35183
34687
34077
33383
32618
31819
31050
30376
30036
30044
30316
30919
31693
32617
33531
34207
34759
35223
35398
35344
35099
34662
34189
33621
32863
32045
31269
30699
30314
30167
30340
30869
31620
32591
33513
34244
34870
35359
35644
35733
35583
35143
34593
33772
32922
32007
31207
30592
30159
30050
30226
30806
31591
32534
33465
34248
34804
35164
35348
35254
35041
34695
34210
33764
32894
32089
31526
30854
30502
30383
30362
30646
31391
32261
33126
34065
34553
34836
35199
35399
35107
34804
34502
33799
33031
32300
31441
30622
30177
29964
30097
30625
31369
32207
33166
34132
34652
34988
35175
35236
35156
34874
34463
33868
33164
32346
31564
30933
30549
30367
30490
30879
31612
32303
33347
33900
34537
34957
35068
35306
35099
34652
34332
33540
32864
32006
31223
30747
30255
30142
30342
30853
31646
32743
33581
34466
35036
35586
35748
35517
35307
34652
34278
33519
32858
31965
31020
30456
30044
29902
30190
30680
31593
32519
33543
34257
34785
35137
35381
35484
35327
34945
34419
33726
32904
32020
31282
30690
30311
30230
30542
31159
31911
32804
33603
34257
34763
35142
35405
35508
35384
34999
34446
33774
33004
32108
31308
30636
30234
30188
30468
31019
31749
32682
33572
34281
34921
35314
35493
35457
35237
34788
34231
33646
32983
32303
31660
31105
30799
30839
31105
31555
32042
32644
33150
33587
33878
34039
34097
34003
33865
33629
33317
32977
32663
32364
32053
31751
31492
31295
31313
31574
32076
32704
33338
33979
34540
34735
35118
35119
34911
34823
34310
33799
33330
32583
32084
31745
31422
31471
31553
31979
32526
32994
33668
34164
34483
34712
34665
34747
34439
34068
33828
33176
32761
32125
31533
31271
31033
31159
31446
31828
32495
32965
33637
34084
34259
34619
34503
34599
34404
33884
33471
32994
32453
31903
31415
30991
30715
30637
30807
31218
31806
32561
33147
33620
33959
34372
34343
34447
34112
33935
33543
32941
32559
31964
31516
31303
30998
31012
31052
31487
31884
32430
32844
33409
33740
33972
34279
34130
34037
33639
33300
33055
32493
32132
31636
31159
31059
30895
30999
31392
31861
32672
33489
34047
34794
35035
35258
35316
34954
34735
34111
33513
32884
31944
31279
30791
30348
30289
30466
30908
31687
32471
33113
33799
33904
33873
33709
33172
32652
32017
31336
30655
29895
29122
28510
28263
28413
28850
29550
30588
32004
33644
35196
36622
37914
39116
40342
41618
42830
44194
45748
47036
48494
49996
51451
53086
54654
56302
57862
59065
60054
60674
60839
60423
59366
57938
56118
53830
51056
48396
45700
43042
40255
37516
34972
32686
30629
28896
27751
27353
27582
28263
29059
29758
30171
30468
30639
30591
30198
29711
29151
28502
27711
26895
26213
25671
25407
25434
25775
26383
27229
28210
29185
29969
30621
31140
31434
31451
31172
30813
30340
29732
28924
28186
27495
26914
26564
26543
26852
27466
28268
29166
29983
30650
31125
31482
31714
31732
31543
31261
30777
30126
29383
28601
27891
27354
27012
26924
27207
27840
28711
29732
30700
31380
31935
32343
32519
32535
32369
32077
31647
31037
30292
29529
28836
28254
27916
27864
28091
28590
29327
30194
31028
31719
32215
32537
32695
32726
32567
32191
31652
31015
30343
29691
29055
28543
28266
28212
28479
29047
29822
30756
31588
32312
32802
33176
33380
33396
33213
32874
32428
31869
31170
30370
29661
29071
28705
28601
28774
29182
29863
30765
31634
32361
32912
33340
33671
33827
33717
33285
32663
31942
31167
30413
29794
29308
29031
28985
29225
29738
30414
31188
31969
32647
33132
33510
33724
33863
33881
33636
33125
32428
31548
30727
30108
29660
29343
29168
29300
29748
30453
31393
32333
33105
33589
34036
34311
34410
34326
33966
33640
33100
32442
31687
30955
30325
29919
29778
29942
30398
31063
31942
32836
33553
34064
34478
34674
34671
34516
34150
33705
33267
32584
31808
31162
30662
30316
30207
30535
31100
31832
32717
33509
34370
34755
35279
35599
35609
35527
34951
34474
34003
33155
32567
31950
31407
31263
31210
31663
32046
32732
33331
34087
34683
35174
35701
35876
36087
35923
35828
35276
34933
34031
33273
32690
32063
31851
31676
31893
32536
33119
34151
34881
35657
36231
36583
36893
36725
36636
36183
35629
35181
34247
33519
32632
31967
31663
31400
31645
31951
32572
33202
33845
34442
34671
35079
35115
34973
34941
34459
33940
33490
32586
31828
30981
30396
29900
29635
29780
30091
30805
31494
32327
32911
33268
33652
33771
33895
33613
33388
32903
32418
31635
30962
30181
29659
29222
29087
29161
29567
30075
30774
31562
32175
32860
33185
33572
33486
33361
33223
32740
32095
31488
30765
30244
29671
29429
29346
29516
29914
30370
31064
31583
32322
32674
33159
33301
33391
33318
32958
32771
32175
31617
30997
30382
30092
29838
29831
30023
30367
31004
31535
32247
32819
33154
33519
33655
33471
33417
32988
32675
32328
31665
31212
30564
30121
29867
29702
29967
30259
30929
31532
32206
32799
33143
33572
33669
33799
33708
33258
32978
32313
31778
31060
30485
30130
29876
29869
30156
30612
31391
31972
32654
32890
33308
33431
33623
33615
33349
33186
32679
32321
31838
31236
30807
30263
30009
29767
29850
30229
30828
31707
32242
32943
33210
33583
33657
33527
33547
33227
32833
32430
31687
31239
30687
30430
30194
30268
30534
30852
31432
31857
32507
32775
33151
33427
33518
33759
33562
33303
33041
32439
31934
31327
30684
30436
30272
30327
30630
31069
31804
32429
33095
33405
33879
33895
33969
34010
33671
33512
32946
32527
31983
31386
31097
30638
30485
30447
30798
31425
32050
32659
33329
33564
33634
33879
33713
33701
33615
33231
33049
32534
31974
31492
31016
30886
30710
30737
31103
31424
32059
32473
33095
33448
33717
34095
33993
33990
33724
33348
33038
32488
32176
31565
31250
30846
30711
30815
30983
31604
32132
32991
33444
33860
34084
34098
34263
33946
33707
33375
32949
32702
32102
31686
31495
31186
31132
31394
31607
32018
32717
33110
33543
33991
34170
34199
34190
34082
33781
33431
33027
32569
32114
31710
31394
31133
30967
31063
31436
31865
32333
32843
33302
33660
34007
34126
34196
34066
33886
33678
33370
33003
32454
31829
31328
30985
30834
30903
31169
31583
32100
32671
33239
33695
34054
34293
34329
34212
33927
33607
33214
32679
32175
31641
31227
31007
30959
31177
31592
32068
32676
33287
33734
33999
34207
34388
34389
34234
33873
33575
33158
32572
32198
31611
31422
31056
31052
31092
31452
31981
32463
33260
33647
34207
34415
34839
34712
34785
34487
34351
33853
33323
32732
32047
31719
31301
31207
31167
31378
31859
32437
32919
33655
34119
34405
34797
34776
34906
34477
34103
33823
33130
32643
31879
31479
31020
30791
30853
31025
31519
32029
32950
33502
34151
34415
34777
34980
34943
34932
34487
34199
33559
32823
32082
31351
30805
30564
30549
30816
31328
32054
32907
33657
34256
34823
35156
35276
35191
34883
34479
33958
33410
32732
32013
31407
30997
30799
30805
31077
31477
32085
32796
33450
34005
34360
34641
34764
34807
34614
34214
33637
33025
32308
31638
31023
30529
30336
30396
30859
31332
32214
32898
33757
34276
34455
34794
34732
34713
34596
34117
33765
33255
32496
31855
31389
30876
30751
30799
31116
31751
32335
33158
33717
34055
34506
34526
34767
34565
34396
34159
33647
33188
32586
31831
31314
30926
30748
30865
31096
31734
32279
33059
33667
34037
34470
34545
34833
34687
34659
34254
33732
33255
32566
31775
31263
30814
30547
30658
30932
31653
32385
33142
33980
34311
34853
34921
35135
34843
34695
34304
33715
33246
32395
31660
31047
30458
30174
30226
30527
31149
31871
32694
33594
34054
34648
34895
35071
35206
34852
34495
33831
32897
32231
31463
31027
30718
30600
30879
31326
32130
32828
33423
33889
34324
34725
35167
35276
35279
34983
34578
33975
33278
32519
31778
31135
30737
30605
30696
31093
31709
32461
33252
33908
34609
34799
35167
35284
35206
35164
34655
34193
33617
32783
32217
31534
31111
31039
31029
31492
32055
32739
33377
33937
34303
34599
34749
34790
34719
34567
34244
33829
33193
32559
32026
31609
31259
31108
31132
31409
31911
32644
33287
33716
34054
34212
34327
34340
34240
33982
33775
33341
32920
32527
31894
31239
30903
30628
30772
31146
31716
32594
33287
34153
34563
34802
35165
35055
35111
34671
34138
33732
33022
32213
31541
31054
30581
30408
30483
30753
31300
32164
32775
33626
33992
34558
34660
34753
34743
34311
34109
33546
32956
32380
31637
31059
30778
30551
30637
31054
31622
32405
33199
33943
34470
34899
35151
35145
35010
34700
34273
33723
33057
32239
31476
30927
30573
30456
30593
31085
31731
32459
33228
33823
34277
34651
34822
34791
34591
34161
33574
32775
31808
30695
29639
28717
27957
27596
27611
28045
28727
29812
31172
32548
33647
34540
35281
35959
36503
37001
37500
37839
38233
38720
39357
40327
41805
43593
45751
48263
50926
53660
56264
58676
60756
62207
62939
62879
62215
60891
59095
57028
54468
51692
48807
45943
43292
40902
38868
37127
35652
34623
33765
32831
31833
31041
30567
30274
30031
29754
29383
28887
28327
27639
26935
26280
25789
25520
25468
25798
26362
27232
28207
29108
29823
30340
30615
30688
30668
30485
30173
29703
29068
28365
27689
27103
26723
26596
26732
27100
27612
28289
28972
29703
30199
30727
31052
31253
31380
31111
30727
30319
29676
29023
28403
27809
27453
27303
27452
27863
28453
29299
30111
30754
31306
31484
31766
31652
31655
31239
30932
30510
29965
29492
28940
28455
28106
28047
28183
28607
29187
29903
30773
31474
31942
32476
32705
32815
32836
32377
31999
31364
30538
29836
29063
28519
28197
28134
28390
28845
29463
30404
31174
31905
32655
32997
33144
33156
33060
32734
32283
31814
31211
30526
29861
29268
28835
28667
28785
29159
29743
30536
31316
31917
32396
32802
33108
33187
33071
32770
32360
31887
31239
30597
29983
29443
29030
28919
29055
29506
30164
31037
31879
32567
33102
33481
33684
33793
33692
33409
33117
32582
31871
31050
30161
29439
29013
28831
28967
29435
30152
31034
31967
32823
33462
33908
34269
34346
34129
33712
33240
32647
31954
31143
30469
29924
29554
29349
29436
29867
30528
31505
32519
33428
34116
34543
34756
34762
34559
34186
33785
33231
32535
31812
31132
30544
30180
30068
30232
30764
31485
32420
33357
34083
34615
35029
35319
35421
35274
35031
34644
34077
33287
32457
31717
31117
30743
30671
30838
31431
32238
33201
34146
34881
35436
35887
36191
36317
36223
35869
35460
34969
34350
33578
32839
32203
31774
31630
31716
32084
32676
33486
34398
35177
35780
36319
36484
36828
36627
36428
36071
35404
34907
33999
33383
32508
32145
31830
31868
32250
32729
33599
34204
34927
35106
35564
35503
35668
35257
35039
34503
33982
33447
32467
31613
30727
30337
30086
30268
30590
31149
31900
32602
33369
33786
34375
34391
34551
34229
33893
33303
32739
32060
31156
30434
29671
29325
29122
29303
29682
30215
30912
31486
32262
32642
33166
33383
33447
33543
33282
33167
32519
31852
31053
30191
29559
28974
28798
28919
29375
30151
30962
31879
32705
33268
33855
33948
34121
33777
33479
33047
32345
31703
30671
29838
28992
28496
28296
28480
29017
29879
31081
32041
32998
33421
34055
34213
34471
34148
33901
33255
32652
31866
31007
30222
29521
29191
29063
29247
29799
30516
31471
32207
32859
33594
33886
34119
34270
33919
33654
33031
32407
31652
30856
30134
29571
29275
29263
29511
30020
30684
31487
32375
33183
33884
34362
34356
34460
34126
33974
33567
32847
32204
31135
30306
29703
29341
29340
29519
30055
30819
31680
32654
33230
33938
34196
34567
34506
34092
33765
33028
32391
31794
31013
30444
29895
29770
29759
30100
30641
31239
32171
32840
33685
34173
34477
34815
34731
34380
34052
33636
32852
32119
31374
30674
29997
29663
29513
29723
30343
30983
31895
32646
33464
34102
34417
34775
34662
34663
34151
33866
33132
32407
31739
30897
30378
29969
29914
30079
30484
31277
31983
32639
33319
33639
33863
33998
33829
33717
33257
33053
32515
31976
31493
30977
30668
30356
30325
30524
30757
31380
31948
32751
33271
33790
34139
34175
34308
33947
33681
33479
32895
32439
31924
31342
31027
30827
31043
31317
31678
32420
32876
33429
33607
33819
34054
33942
34052
33781
33456
33300
33031
32399
31949
31453
30974
31005
30983
31188
31710
32167
32704
33399
33863
34052
34467
34316
34377
34149
33744
33564
33009
32667
32109
31684
31463
31165
31021
31298
31572
32024
32596
33093
33540
33864
34068
34146
34119
33935
33681
33388
33060
32607
32164
31640
31180
30902
30861
31032
31525
31924
32590
32954
33509
33666
33964
34183
34081
33852
33804
33347
33001
32351
31815
31476
31153
31092
31095
31508
31783
32424
32810
33216
33572
33829
34263
34207
34397
34231
34080
33734
33316
32850
32412
31998
31677
31533
31519
31670
32012
32455
33036
33581
33978
34273
34414
34479
34428
34251
33998
33609
33150
32620
32146
31694
31370
31178
31228
31529
32042
32509
33231
33732
34054
34269
34464
34510
34458
34286
33972
33636
33148
32581
31994
31551
31271
31054
31133
31264
31685
32199
32735
33493
33804
34207
34479
34447
34567
34205
34052
33508
33057
32646
32004
31679
31218
31226
31196
31442
31951
32371
33107
33429
33941
34092
34285
34518
34344
34116
33988
33479
33138
32462
31814
31514
31130
31143
31162
31545
32007
32500
33172
33466
33939
34049
34217
34351
34140
34092
33661
33519
33102
32506
32189
31733
31629
31382
31459
31535
31898
32347
32948
33385
33671
33991
33936
34155
33946
33861
33671
33325
33047
32463
32155
31770
31429
31523
31577
31751
32215
32564
33015
33543
33738
34118
34108
34311
34119
34085
33654
33470
32990
32673
32258
31820
31652
31345
31516
31699
32269
32674
33380
33687
34220
34394
34661
34663
34431
34295
33781
33455
32927
32410
32103
31623
31348
31396
31358
31617
32074
32415
32986
33436
33726
34254
34435
34462
34629
34399
34095
33959
33481
32791
32460
31888
31676
31430
31458
31751
32164
32743
33305
33855
34245
34498
34671
34625
34517
34215
33875
33482
33025
32462
32007
31604
31343
31235
31310
31551
31944
32431
32918
33367
33831
34204
34351
34437
34405
34063
33908
33501
32919
32443
31927
31653
31407
31452
31551
31980
32436
33175
33543
34143
34276
34695
34655
34771
34663
34333
34215
33653
33350
32684
32287
31751
31413
31383
31313
31672
31999
32500
33319
33732
34120
34471
34460
34661
34514
34335
34215
33671
33325
32652
32055
31620
31260
31140
31172
31425
31815
32294
32798
33210
33447
33611
33751
33966
33988
33845
33602
33279
32858
32355
31884
31495
31135
31010
31062
31422
31843
32378
32987
33473
33832
34151
34369
34631
34415
34304
33850
33476
33038
32408
32077
31509
31239
30983
31049
31295
31674
32285
32719
33380
33710
34026
34173
34239
34121
33734
33629
33251
33062
32489
32183
31695
31553
31303
31414
31580
31978
32426
32756
33274
33388
33807
33856
34077
33927
33777
33687
33260
32998
32295
31812
31188
30675
30400
30013
30039
30132
30459
30991
31303
31689
31795
32060
32383
32590
32925
32773
32922
32932
33151
33473
33791
34620
35256
36529
38012
39850
41888
44188
46664
48794
51207
53873
55879
57852
59359
60484
61072
60655
60025
58858
57423
55788
53625
51909
49866
47872
45940
44226
42574
40941
39384
37895
36439
34871
33143
31492
30132
29012
28001
27184
26494
25996
25721
25762
26028
26487
27133
27895
28586
29191
29599
29887
29895
29860
29680
29334
28955
28376
27751
27263
26881
26623
26545
26707
27108
27751
28615
29500
30286
30791
31271
31462
31439
31345
30932
30511
29866
29276
28572
27901
27339
27045
27055
27295
27828
28503
29246
30133
30786
31325
31875
32062
32354
32171
32023
31570
31161
30457
29837
29178
28637
28215
28017
28018
28375
28879
29688
30449
31259
31743
32098
32403
32360
32494
32149
31978
31428
30943
30115
29420
28891
28582
28517
28638
29086
29582
30327
30984
31783
32199
32727
32791
32964
32989
32710
32446
31871
31392
30529
29895
29269
28953
28734
28791
29177
29704
30617
31341
32029
32643
32903
33311
33203
33121
32839
32327
31957
31268
30724
30068
29648
29276
29205
29266
29616
30166
30751
31556
32102
32741
33127
33303
33511
33311
33208
32738
32373
31964
31321
30801
30310
30119
30023
30263
30576
31221
31700
32445
32868
33429
33635
33695
33766
33450
33276
32823
32418
31932
31364
31106
30780
30631
30663
30815
31045
31339
31892
32588
32910
33423
33478
33591
33780
33531
33254
33185
32711
32229
31879
31349
31095
30877
30751
30943
31162
31771
32490
33079
33892
34213
34695
34658
34705
34580
34226
34034
33383
32902
32391
31849
31655
31348
31332
31618
31989
32708
33265
33956
34564
34786
35137
35582
35569
35351
35262
34882
34389
34115
33447
32930
32497
32231
32146
32334
32788
33365
33986
34591
35085
35615
35820
36039
36124
36029
35834
35399
34910
34271
33755
33121
32883
32487
32551
32583
33087
33541
34067
34607
34919
35364
35335
35520
35306
35247
34917
34399
33974
33281
32863
32220
31887
31511
31359
31548
31746
32124
32663
33011
33575
33708
33911
33977
33812
33599
33103
32811
32263
31668
31145
30532
30196
29905
29944
30181
30510
31052
31525
32132
32567
32849
33203
33116
33172
32975
32597
32406
31822
31337
30830
30300
29972
29688
29684
29943
30246
30748
31425
31886
32413
32548
32679
32915
32805
32774
32453
32063
31780
31114
30579
30047
29727
29621
29625
29972
30384
31106
31815
32452
32890
33070
33405
33322
33388
33166
32794
32497
32100
31495
30983
30561
30165
30016
30035
30190
30653
31156
31751
32263
32694
32998
33254
33326
33351
33247
32959
32626
32233
31703
31141
30635
30202
29926
29831
29950
30265
30756
31411
32070
32601
32993
33305
33519
33639
33572
33309
32891
32350
31777
31182
30661
30215
29919
29746
29917
30305
30844
31572
32239
32854
33410
33840
33887
33916
33564
33371
32756
32366
31719
31310
30736
30427
30105
29989
30186
30495
31168
31819
32485
33159
33496
34029
34055
34016
33869
33339
32967
32327
31553
31012
30434
29976
29863
29871
30172
30647
31252
31988
32708
33308
33817
34118
34284
34332
34104
33827
33460
32904
32153
31430
30802
30321
30052
30038
30306
30777
31415
32165
32845
33349
33724
33962
34022
33947
33799
33579
33351
32988
32479
31874
31266
30724
30325
30149
30325
30756
31398
32224
32996
33628
34111
34412
34540
34489
34245
33930
33485
32982
32304
31642
31102
30658
30415
30348
30630
31162
31868
32623
33350
33871
34167
34377
34435
34371
34173
33898
33534
33059
32486
31751
31124
30692
30438
30396
30582
30950
31478
32198
32930
33551
34129
34499
34707
34793
34557
34121
33596
33012
32351
31652
31011
30484
30207
30209
30445
30925
31524
32161
32770
33269
33676
34020
34255
34384
34434
34311
34020
33569
32927
32239
31555
30967
30671
30634
30867
31289
31919
32697
33372
33763
34199
34621
34660
34780
34850
34446
34023
33535
32650
32087
31322
30900
30586
30553
30708
31087
31735
32349
33167
33607
34083
34455
34529
34818
34525
34215
33943
33296
32788
31999
31275
30876
30529
30436
30752
31074
31781
32393
33189
33815
34184
34684
34803
34736
34749
34278
33820
33409
32623
32069
31397
30767
30426
30118
30238
30518
31078
31821
32578
33370
33943
34636
35007
35485
35190
34848
34328
33615
33127
32436
31677
31202
30848
30663
30921
31412
31879
32668
33449
33913
34567
34735
35045
35184
34913
34676
34292
33543
33003
32180
31559
31208
30829
30746
30974
31393
32014
32740
33393
33993
34429
34796
34919
35004
34845
34510
34055
33500
32724
32203
31495
31119
30741
30714
30877
31262
31885
32527
33414
33886
34446
34863
34848
34927
34490
34257
33836
33159
32676
32022
31388
31020
30753
30879
30963
31349
31845
32373
33063
33415
33972
34275
34426
34796
34641
34631
34306
33671
33092
32375
31701
31382
31026
31069
31261
31644
32396
32959
33756
34178
34614
35040
34966
35078
34695
34311
33913
33201
32704
31955
31511
31021
30807
30862
30987
31508
32054
32679
33423
33799
34380
34534
34757
34660
34295
33935
33685
33270
32679
32016
31407
30972
30804
30813
31018
31399
32019
32801
33513
34036
34432
34687
34684
34841
34420
34269
33724
33247
32581
31964
31388
30895
30824
30773
31201
31524
32322
32937
33799
34246
34727
34991
35047
35067
34743
34495
33925
33523
32727
32197
31409
30876
30612
30508
30930
31362
32125
33002
33663
34456
34773
35302
35335
35214
35145
34628
34375
33751
33141
32631
31909
31549
31319
31239
31695
32074
32845
33338
34018
34300
34764
34799
35057
34820
34751
34449
33959
33745
33088
32469
31943
31197
30971
30760
30975
31443
31958
32831
33370
33874
34399
34577
34884
34757
34439
34292
33780
33328
32407
31725
31004
30434
30269
30215
30588
30988
31691
32601
33230
34027
34455
34967
35015
34956
34673
34131
33814
33089
32506
31853
31149
30843
30539
30524
30905
31349
32231
32855
33543
34111
34327
34733
34605
34655
34484
34003
33683
32999
32311
31784
31079
30749
30496
30465
30921
31359
31976
32851
33335
33965
34241
34437
34600
34335
34255
33882
33405
33084
32400
31983
31389
31091
30866
30839
31215
31581
32189
32930
33225
33735
33767
33788
33791
33399
33023
32291
31535
30654
29831
29141
28524
28301
28442
29001
29916
30906
32278
33517
34862
36084
36983
38228
39078
40164
41223
42205
43718
45028
46424
47956
49390
51412
53188
55175
57095
58856
60383
61191
61599
61396
60551
59444
57550
55695
53212
50472
47671
44540
41847
39083
36398
34368
32409
30784
29562
28601
28359
28594
28994
29439
29717
29999
29959
29830
29391
28855
28369
27841
27201
26509
25950
25588
25567
25820
26310
26954
27805
28658
29524
30322
30817
31288
31220
31148
30773
30351
29965
29295
28582
27904
27302
26932
26807
26931
27364
27988
28767
29599
30319
30873
31308
31513
31593
31545
31301
30885
30388
29799
29134
28498
27992
27682
27577
27718
28166
28740
29543
30369
31068
31614
32042
32303
32369
32247
31901
31505
30988
30391
29730
29109
28568
28230
28085
28177
28628
29220
29934
30666
31325
31868
32276
32550
32669
32617
32361
32040
31618
31092
30461
29807
29248
28825
28619
28676
29039
29583
30327
31050
31677
32214
32631
32772
32749
32584
32227
31840
31394
30903
30420
29974
29485
29155
28916
28935
29266
29879
30834
31614
32461
33007
33220
33586
33479
33375
33190
32740
32260
31684
30955
30257
29688
29289
29136
29275
29799
30464
31268
32045
32692
33199
33535
33934
34041
33806
33681
33239
32612
32065
31149
30411
29827
29300
29182
29237
29655
30340
31134
32033
32873
33521
33999
34260
34334
34150
33824
33391
32849
32215
31569
30903
30280
29806
29562
29663
30145
30692
31426
32247
33071
33732
34271
34645
34720
34635
34340
33999
33500
32903
32180
31455
30831
30407
30184
30180
30518
31101
31964
32946
33798
34517
35145
35538
35690
35676
35364
34928
34358
33761
33012
32290
31653
31167
30919
31043
31418
32026
32847
33757
34503
35237
35755
36110
36291
36285
36062
35671
35095
34428
33689
32991
32420
32019
31889
32007
32481
33148
33972
34702
35307
35847
36373
36663
36740
36527
36122
35639
35140
34501
33743
32978
32276
31767
31560
31663
32023
32467
33038
33659
34230
34671
35044
35314
35389
35271
34917
34442
33825
33096
32381
31599
30836
30280
29966
29912
30215
30768
31514
32319
33055
33610
33999
34180
34129
33829
33317
32805
32292
31709
30950
30270
29740
29373
29297
29476
29909
30487
31214
31955
32584
33095
33463
33592
33670
33623
33399
33013
32454
31813
31052
30305
29698
29319
29166
29276
29663
30362
31089
31839
32701
33100
33514
33913
33847
33717
33529
32948
32564
31823
31003
30362
29702
29422
29212
29294
29726
30245
31117
31807
32607
33141
33565
33973
33988
34095
33637
33356
32679
31890
31156
30351
29743
29352
29153
29276
29823
30440
31466
32257
32802
33439
33642
34068
33967
33822
33679
33210
32558
32007
31052
30479
29827
29487
29287
29385
29943
30497
31335
32079
32751
33268
33592
33911
33780
33794
33256
32953
32460
31727
31219
30679
30147
29967
29990
30199
30719
31378
32144
32844
33420
33844
34188
34365
34378
34255
33957
33569
33048
32365
31604
30916
30301
29935
29847
30017
30483
31093
31863
32639
33383
34009
34405
34587
34574
34418
34055
33555
32911
32199
31429
30706
30187
29895
29850
30106
30655
31238
31898
32643
33285
33784
34117
34294
34391
34300
34019
33637
33167
32591
31844
31111
30471
29979
29749
29874
30287
30875
31660
32487
33183
33724
34079
34269
34292
34071
33655
33196
32628
32066
31457
30906
30418
30143
29999
30148
30615
31278
32200
33148
33953
34470
34894
35115
35100
34924
34601
34183
33641
32974
32202
31460
30866
30468
30300
30420
30816
31391
32170
32999
33775
34327
34695
34765
34823
34679
34369
34046
33508
32940
32160
31359
30684
30281
30124
30236
30630
31231
32007
32828
33543
34044
34418
34641
34711
34609
34345
33738
33165
32565
31808
31055
30474
30106
30006
30179
30679
31332
32170
32990
33630
34124
34449
34695
34789
34634
34295
33839
33383
32788
32068
31411
30895
30519
30356
30492
30876
31434
32137
32856
33390
33846
34236
34503
34604
34551
34451
33979
33463
32775
31951
31451
30871
30677
30519
30919
31314
32046
32700
33652
34044
34674
34805
35152
35087
35100
34603
34119
33679
32964
32124
31433
30962
30466
30278
30495
30756
31481
32173
33071
33715
34237
34668
34874
35096
34914
34771
34183
33756
32879
32100
31415
30796
30599
30343
30494
31007
31546
32519
33161
33986
34415
34772
35051
34954
34973
34356
33927
33361
32407
31708
30881
30208
29829
29772
30025
30709
31674
32591
33632
34117
34709
35153
35323
35259
35018
34612
33988
33337
32675
31909
31223
30662
30317
30226
30424
30951
31540
32351
33239
34024
34585
34989
35182
35223
35155
34914
34476
33903
33236
32454
31748
31114
30719
30567
30740
31220
31860
32649
33454
34142
34650
35025
35273
35399
35247
34895
34407
33788
33135
32386
31615
30995
30609
30466
30582
30980
31588
32363
33204
33903
34447
34812
35092
35142
34972
34439
34045
33628
32842
32294
31566
30967
30793
30599
30743
31080
31532
32372
32998
33826
34180
34727
34959
35079
35133
34823
34436
33707
33162
32311
31826
31127
30887
30715
30825
31440
31934
32901
33500
34217
34483
34855
35048
35042
34993
34492
34127
33348
32759
31812
31168
30684
30277
30340
30410
30893
31775
32537
33415
33927
34473
34885
35007
35269
35055
34700
34413
33734
33247
32369
31747
31109
30654
30618
30684
31196
31838
32539
33439
33940
34561
34922
35063
35142
34948
34606
34209
33591
32802
32028
31324
30687
30265
30105
30356
30964
31804
32860
33902
34808
35540
35971
36108
36020
35710
35326
34839
34142
33383
32595
31863
31223
30855
30751
31076
31474
32049
32986
33516
34302
34774
35124
35398
35327
35319
34785
34502
33756
33159
32341
31544
31076
30508
30417
30447
30989
31524
32549
33269
34110
34596
34893
35292
35180
35164
34789
34275
33591
32748
31898
31160
30583
30237
30164
30399
30950
31678
32598
33535
34260
34798
35223
35444
35427
35158
34791
34252
33660
32903
31958
31392
30713
30375
30388
30450
30999
31464
32263
32916
33639
34093
34382
34783
34665
34764
34524
34212
34093
33478
32928
32304
31542
31207
30858
31119
31450
32068
32847
33516
34308
34660
34948
35286
35207
35110
34738
34135
33671
32885
31973
31238
30591
30104
29972
29870
30090
30336
30988
31476
32023
32332
32458
32604
32406
32399
32127
32215
31959
31824
31494
31655
31726
32300
32885
34180
35431
37383
39156
41519
43726
46165
48644
50812
53344
55228
57001
58536
59572
60263
60106
59655
58575
57422
56063
54847
53422
52093
50758
49108
47520
45700
43841
42058
39964
38170
36078
34145
31821
29861
28082
26877
26053
25687
25701
26087
26628
27332
28120
28800
29344
29622
29929
29991
30105
29829
29660
29242
28846
28252
27722
27217
26799
26599
26599
26903
27385
28039
28866
29559
30153
30742
31004
31332
31271
31076
30668
30175
29610
28871
28184
27478
26946
26689
26676
27031
27702
28497
29351
30342
31001
31471
31940
31856
31750
31550
31082
30717
30038
29382
28679
28030
27621
27367
27396
27706
28340
29103
29950
30855
31322
31823
31882
32015
31910
31698
31410
30949
30615
30031
29658
29038
28647
28323
28359
28636
29159
29803
30593
31396
31997
32629
32766
33092
32974
32951
32415
32031
31278
30471
29839
29153
28829
28583
28617
29003
29462
30335
31087
31974
32573
32900
33371
33383
33471
33052
32797
32134
31710
30889
30145
29466
28973
28778
28766
29247
29743
30635
31426
32116
32807
33153
33580
33582
33581
33377
32889
32596
31863
31220
30455
29703
29364
29071
29159
29421
29900
30629
31492
32454
32879
33534
33751
33972
34139
33774
33556
33168
32333
31609
30669
29862
29442
29161
29364
29798
30515
31516
32371
33255
33575
34071
34164
34193
34132
33796
33599
33065
32644
31846
31063
30528
30037
30055
30001
30529
30983
31871
32753
33491
34308
34612
35127
35197
35136
34981
34403
34021
33213
32634
31804
31247
30866
30645
30788
31048
31719
32532
33476
34289
34788
35427
35575
35900
35843
35447
35249
34551
34108
33338
32480
31996
31398
31329
31270
31684
32382
33015
33938
34855
35313
35990
36429
36500
36628
36252
35817
35357
34695
33918
33239
32606
32199
32007
32039
32367
32988
33875
34815
35545
36019
36375
36614
36692
36673
36594
35907
35274
34463
33429
32725
31850
31228
30942
30639
30967
31356
32044
32952
33479
34167
34519
34832
35036
34727
34519
33938
33188
32591
31602
30774
30129
29546
29407
29323
29748
30319
30949
31863
32359
32901
33351
33453
33695
33653
33261
33010
32334
31834
30935
30180
29699
29123
28837
28839
29036
29547
30361
30983
31783
32305
32722
33227
33221
33229
33074
32584
32197
31565
30893
30496
30012
29972
29914
30129
30575
31095
31958
32364
32861
33044
33109
33398
33251
33195
33090
32610
32201
31934
31300
30925
30532
30150
30042
29864
30110
30527
31067
31684
32364
32967
33374
33600
33671
33543
33258
32886
32365
31749
31146
30701
30263
29983
30086
30112
30579
31044
31583
32251
32591
33134
33248
33536
33340
33351
33015
32542
32255
31597
31182
30647
30193
30036
29935
30198
30716
31172
31895
32270
32868
33135
33620
33671
33540
33530
33109
32949
32407
32141
31503
31099
30572
30279
30341
30343
30727
31079
31623
32217
32582
33081
33151
33438
33453
33512
33430
33151
32711
32004
31526
30920
30608
30500
30365
30715
31010
31647
31993
32549
32918
33204
33691
33759
33927
33691
33316
32979
32391
31901
31484
30911
30727
30445
30485
30590
30866
31382
31871
32594
33069
33454
33919
33973
34127
34017
33634
33408
32812
32316
31868
31272
31030
30662
30666
30765
31067
31705
32191
32951
33318
33605
33897
33834
33919
33716
33423
33191
32919
32316
31845
31474
31011
30910
30846
30929
31441
31832
32581
32918
33487
33633
33943
33993
33842
33927
33626
33525
33030
32423
31943
31338
30994
30772
30644
30741
31148
31727
32406
33013
33428
33847
34134
34271
34284
34191
33978
33613
33084
32503
31905
31495
31159
31004
31021
31164
31517
31983
32572
33199
33662
33941
34155
34278
34311
34182
33858
33534
33079
32701
32162
31655
31139
30842
30727
30883
31226
31687
32190
32696
33143
33605
34029
34287
34483
34439
34162
33811
33367
32887
32273
31773
31358
31078
31042
31187
31479
31942
32546
33143
33631
34005
34263
34433
34329
34031
33663
33265
32816
32340
31878
31495
31267
31139
31188
31274
31576
32070
32754
33431
33895
34177
34375
34421
34356
34236
33999
33639
33228
32771
32287
31931
31575
31287
31199
31257
31538
31987
32635
33223
33740
34087
34359
34449
34414
34282
34129
33898
33515
33016
32438
31839
31310
30990
30946
31111
31544
31923
32539
33201
33647
34167
34383
34675
34590
34615
34267
34055
33452
32997
32143
31668
31006
30766
30561
30603
31102
31396
32103
32525
33213
33553
34039
34311
34383
34541
34250
34186
33583
33109
32389
31612
31121
30552
30423
30498
30851
31564
32263
33242
33816
34191
34574
34595
34735
34506
34351
33959
33671
32943
32381
31476
30937
30358
30333
30352
30940
31495
32567
33300
34223
34618
35240
35231
35394
35009
34605
34228
33556
33018
32067
31525
30886
30657
30495
30683
31228
31749
32646
33183
33927
34292
34918
34956
35108
34623
34463
33859
33493
32855
32115
31595
31013
30767
30610
30755
31370
31793
32606
32973
33493
33870
34092
34531
34420
34603
34423
34214
33841
33236
32519
31696
31006
30764
30495
30625
31083
31474
32367
32959
33790
34175
34809
34871
35027
35079
34756
34226
33863
33237
32511
32037
31371
31052
31076
31105
31559
32285
33011
33871
34331
34653
35133
35065
35234
35158
34741
34447
33959
33263
32394
31762
31319
30895
30945
31047
31546
32321
33063
33789
34286
34787
34904
35263
35019
34878
34399
33749
33278
32477
31981
31291
30958
30590
30519
30965
31355
32097
32766
33392
34118
34321
34856
34938
34875
34847
34421
34143
33460
33014
32102
31452
30909
30462
30462
30517
31078
31543
32406
33033
33583
34311
34584
34807
34795
34388
33989
33300
32937
32172
31661
30900
30518
30215
30316
30585
31331
32005
32956
33491
34220
34468
34785
34916
34951
34663
34519
33893
33516
32839
32087
31503
30999
30714
30663
30855
31281
31936
32642
33299
33791
34227
34462
34550
34503
34219
33935
33726
33201
32439
31683
30585
29883
29189
28889
28857
29036
29583
30277
30788
31440
31735
32316
33039
33437
33887
34086
34452
34791
34911
35279
35321
36071
36977
38246
40060
41943
44766
47439
50013
52645
55221
57451
59309
60916
61988
62286
61830
60910
59530
57770
55636
53324
51053
48692
46456
44446
42718
41005
39552
38210
37010
35740
34340
32831
31449
30407
29650
28946
28279
27697
27172
26677
26342
26141
26180
26436
26871
27417
28033
28548
29020
29382
29600
29692
29658
29499
29259
28925
28412
27839
27398
27103
26925
26881
27137
27533
28064
28805
29502
29995
30295
30499
30535
30438
30223
29943
29699
29507
29223
28872
28469
28085
27841
27674
27898
28334
28876
29527
30098
30516
30847
31186
31411
31484
31356
31079
30695
30215
29646
29084
28663
28435
28220
28357
28570
29037
29503
30017
30727
31077
31563
31657
31765
31876
31649
31540
31015
30708
30103
29677
29295
28934
28919
28891
29193
29593
30093
30799
31164
31719
31924
32252
32329
32215
32249
31827
31455
31135
30506
30058
29734
29445
29508
29527
29921
30333
30687
31348
31772
32373
32609
33007
32993
32871
32748
32217
31861
31222
30812
30462
30039
29932
29730
29848
30151
30519
31196
31642
32355
32660
33199
33249
33383
33433
33056
32946
32484
32207
31538
31033
30638
30239
30198
30146
30455
30956
31392
32116
32477
32938
33349
33407
33598
33388
33269
32966
32541
32181
31589
31220
30677
30471
30246
30127
30453
30805
31503
32001
32724
33061
33383
33645
33772
33831
33499
33301
32751
32500
31933
31536
31131
30782
30749
30787
31333
31705
32404
32816
33391
33894
34084
34421
34431
34561
34183
34016
33453
33260
32767
32276
32061
31733
31783
31799
32255
32572
33275
33767
34543
34906
35200
35567
35618
35814
35415
35246
34807
34181
33774
33095
32735
32247
32116
32233
32439
33093
33601
34437
34844
35536
35677
36045
35808
36053
35731
35361
35165
34577
34076
33769
33400
33004
32633
32444
32660
32967
33572
33889
34447
34790
34869
35239
35253
35154
35071
34679
34164
33695
32836
32333
31891
31484
31387
31229
31449
31559
32087
32503
32932
33439
33575
33847
33701
33883
33496
33277
32682
32228
31567
31123
30534
30283
29941
30039
30188
30578
31196
31784
32478
32797
33359
33414
33601
33382
33063
32807
32311
31826
31100
30660
30023
29729
29530
29514
29855
30214
30780
31452
32102
32519
32686
33139
33059
33138
32898
32535
32252
31654
31119
30669
30089
29828
29512
29533
29863
30178
30916
31524
32239
32828
33239
33605
33467
33629
33201
32965
32399
31751
31159
30461
30112
29599
29499
29538
30079
30542
31247
32036
32583
33195
33338
33637
33550
33245
33077
32682
32204
31708
31143
30626
30148
29863
29763
29839
30241
30824
31551
32180
32706
33187
33556
33735
33845
33853
33585
33124
32487
31889
31237
30645
30183
29910
29818
29914
30124
30600
31164
31839
32399
32821
33271
33573
33863
33917
33671
33222
32743
32129
31523
30970
30519
30238
30114
30133
30436
30841
31409
32092
32775
33329
33782
34135
34261
34199
33924
33505
33022
32485
31911
31291
30668
30189
29935
29933
30191
30716
31396
32188
32943
33543
34005
34215
34293
34164
33815
33346
32807
32252
31565
31013
30563
30241
30117
30236
30575
30959
31592
32317
32972
33541
34073
34213
34439
34221
34143
33631
33323
32663
31924
31469
30839
30580
30423
30538
31162
31629
32436
32827
33439
33632
34063
34247
34183
34340
34055
33751
33521
32886
32154
31614
30861
30562
30294
30372
30764
31182
32031
32678
33444
33782
34342
34425
34708
34391
34247
33829
33287
32841
32079
31575
30855
30543
30517
30585
31047
31549
32184
32868
33348
34051
34165
34455
34639
34389
34119
33787
33319
32695
31945
31250
30669
30260
29994
30031
30406
31033
31847
32698
33406
33996
34471
34757
34817
34797
34476
34033
33478
32903
32293
31824
31332
30863
30655
30661
30978
31472
32135
32879
33543
34079
34580
35007
35183
35048
34697
34220
33655
33030
32330
31588
30983
30593
30425
30572
31001
31610
32350
33131
33769
34335
34683
34871
34876
34822
34552
34117
33745
33059
32532
31706
31320
30818
30743
30698
30906
31444
32026
32882
33345
34053
34268
34711
34559
34619
34333
33908
33519
32807
32271
31530
30999
30737
30585
30816
31132
31884
32431
33314
33860
34279
34758
34769
34965
34785
34399
34150
33500
32988
32253
31816
31143
30886
30620
30727
31188
31558
32415
32935
33638
33887
34166
34305
34220
34393
34183
33797
33590
33069
32580
31980
31268
30846
30726
30835
31215
31685
32320
32952
33502
33972
34349
34644
34806
34887
34821
34515
33958
33134
32366
31676
31079
30667
30518
30643
31013
31468
32118
32775
33332
33783
34205
34523
34580
34512
34157
33628
33093
32472
31865
31361
30915
30656
30615
30767
31235
31863
32636
33396
33930
34426
34846
35141
35187
35015
34628
34257
33798
33181
32290
31654
31031
30723
30514
30687
31047
31597
32237
32920
33594
34155
34540
34759
34823
34655
34333
33973
33520
33043
32407
31775
31207
30774
30528
30524
30887
31439
32215
32951
33599
34014
34339
34583
34951
35098
34868
34479
33972
33343
32566
31727
31102
30726
30588
30714
31132
31679
32303
32935
33478
33907
34253
34567
34662
34661
34522
34239
33820
33234
32514
31848
31296
30876
30726
30811
31236
31784
32563
33321
33933
34397
34725
34895
34894
34783
34567
34171
33716
33094
32495
32075
31502
31292
31140
31236
31789
32218
32874
33751
34140
34713
34823
35198
35046
35144
34751
34294
33812
33134
32642
31872
31307
31047
30727
30918
31143
31652
32484
33001
33606
34180
34335
34543
34598
34695
34575
34373
34047
33465
32740
32041
31390
30821
30531
30564
30983
31611
32415
33253
33966
34453
34769
34950
35113
35028
34620
34167
33578
33005
32375
31732
31143
30695
30471
30628
31093
31711
32447
33213
33900
34370
34735
34969
35103
34994
34641
34191
33647
33023
32423
31762
31143
30740
30583
30687
31129
31676
32349
33146
33783
34183
34494
34724
34796
34759
34537
34121
33678
33179
32487
31743
31046
30511
30280
30374
30806
31375
32187
33087
33823
34344
34729
34998
35020
34924
34543
34053
33415
32698
31709
30825
29942
29230
28734
28583
28748
29135
29767
30413
30978
31520
32135
32804
33431
33820
34072
34327
34439
34452
34495
34751
35385
36133
37234
38590
40484
43127
45992
48952
51770
54412
56817
58956
60807
62108
62644
62742
62112
60900
59188
57095
54724
52244
49700
47204
44988
42867
41108
39686
38273
36850
35463
33949
32342
30869
29895
29101
28677
28183
27838
27308
26949
26595
26457
26543
26695
27002
27544
28055
28531
29004
29420
29663
29812
29767
29636
29422
29127
28780
28378
27943
27516
27244
27190
27356
27678
28148
28677
29279
29767
30084
30338
30449
30502
30454
30228
29916
29511
29013
28447
28002
27676
27535
27606
27831
28287
28846
29551
30146
30633
30975
31234
31341
31335
31167
30871
30582
30276
29877
29398
29051
28784
28601
28665
28811
29129
29536
29975
30503
30983
31387
31633
31826
31863
31854
31647
31404
31075
30657
30103
29583
29125
28775
28689
28807
29112
29607
30254
31047
31671
32253
32635
32820
32788
32647
32344
32023
31583
31145
30615
30109
29615
29338
29242
29341
29685
30095
30605
31172
31737
32165
32548
32795
32847
32740
32508
32220
31837
31396
30885
30391
29954
29620
29530
29642
29987
30484
31076
31681
32244
32775
33119
33223
33167
33095
32858
32475
31980
31390
30799
30327
30080
29934
29955
30185
30599
31076
31636
32214
32653
32983
33380
33595
33594
33425
33078
32725
32246
31759
31223
30717
30367
30266
30332
30541
30974
31510
32253
32964
33516
33798
33966
34026
34004
33850
33591
33343
33119
32746
32239
31700
31220
30884
30735
30811
31228
31698
32354
33062
33567
33958
34254
34476
34567
34583
34329
34013
33609
33079
32516
32053
31620
31359
31357
31533
32025
32595
33258
33867
34340
34662
34887
35050
35123
35113
34935
34647
34263
33862
33450
33061
32737
32517
32471
32573
32808
33129
33567
34071
34601
35023
35462
35746
35911
35990
35935
35719
35364
34839
34278
33756
33287
33015
32807
32775
32903
33159
33559
34055
34594
35039
35295
35518
35663
35599
35327
34978
34465
33725
33019
32359
31880
31543
31338
31356
31610
31974
32469
32902
33269
33569
33717
33723
33719
33557
33266
32930
32491
31999
31462
30975
30572
30236
30035
30071
30343
30746
31271
31815
32336
32711
32988
33151
33151
33151
32988
32719
32301
31802
31233
30744
30283
29905
29754
29760
30024
30471
30999
31546
32065
32445
32723
32935
33019
32967
32751
32476
32072
31630
31108
30654
30297
29987
29829
29821
29999
30350
30886
31446
32033
32447
32911
33040
33167
33111
32847
32583
32140
31623
31141
30690
30301
30068
30054
30249
30754
31159
31575
32047
32532
32980
33287
33497
33531
33449
33282
32954
32608
32132
31563
31030
30602
30321
30293
30410
30677
31151
31726
32306
32807
33140
33431
33610
33655
33541
33328
33046
32606
32074
31471
30964
30688
30439
30343
30359
30527
30782
31332
31914
32425
32855
33109
33285
33414
33422
33246
33063
32770
32358
31780
31286
30863
30502
30379
30423
30679
31092
31697
32311
32759
33079
33460
33680
33729
33716
33476
33167
32871
32391
31844
31348
30899
30564
30476
30453
30727
31215
31802
32419
32979
33471
33762
33911
33818
33695
33441
33148
32653
32215
31764
31254
30861
30563
30393
30421
30750
31188
31743
32325
32831
33284
33683
34046
34252
34277
33999
33642
33267
32646
32062
31485
31073
30769
30727
30852
31169
31639
32237
32791
33244
33572
33764
33799
33770
33667
33421
33188
32831
32386
31918
31519
31174
30909
30817
30857
31102
31457
31971
32516
32958
33382
33758
34022
34130
34083
33907
33680
33236
32767
32279
31862
31366
31042
30926
30960
31285
31772
32309
32877
33287
33607
33807
33919
33925
33847
33613
33317
32949
32484
31950
31499
31182
31031
30823
30802
31193
31607
32362
32882
33492
33789
34132
34396
34484
34386
34039
33652
33378
32887
32260
31659
31183
30790
30679
30743
30959
31279
31860
32580
33279
33796
34140
34391
34469
34412
34272
33992
33591
33119
32628
32112
31679
31388
31229
31237
31471
31814
32330
32857
33295
33731
34167
34391
34439
34366
34108
33788
33399
32939
32407
31963
31591
31236
31019
31019
31251
31623
32174
32828
33413
33812
34115
34348
34463
34413
34255
33935
33532
33079
32504
31934
31510
31220
31081
31071
31343
31769
32311
32916
33500
33908
34214
34380
34462
34380
34140
33799
33257
32695
32091
31658
31412
31183
30940
30745
30821
31119
31703
32303
32903
33494
34011
34367
34566
34476
34311
33969
33646
33317
32868
32404
31975
31580
31412
31394
31787
32263
32959
33543
33970
34199
34415
34599
34683
34612
34404
34064
33613
33123
32585
32030
31607
31268
31084
31167
31535
31964
32506
33092
33606
33957
34207
34356
34362
34255
34050
33783
33414
32967
32460
32023
31581
31272
31108
31017
31191
31607
32119
32698
33246
33677
34015
34267
34455
34523
34335
33828
33623
32956
32519
32007
31444
31178
30897
31116
31303
31822
32167
32893
33225
33749
33921
34213
34360
34180
33975
33630
33167
32919
32485
31914
31767
31294
31117
31055
31371
31593
32277
32788
33185
33370
33447
33570
33679
33756
33668
33572
33433
33235
32945
32566
32223
31921
31801
31822
32015
32383
32903
33436
33820
34155
34346
34407
34386
34324
34107
33872
33588
33208
32681
32196
31776
31446
31236
31268
31598
31988
32427
32940
33487
33937
34311
34519
34567
34567
34383
34181
33827
33295
32637
32038
31603
31351
31188
31217
31588
32076
32648
33265
33813
34127
34370
34572
34672
34535
34249
33960
33567
33053
32463
31901
31522
31239
31074
31085
31359
31844
32452
33077
33607
34145
34519
34677
34792
34740
34503
34322
34101
33740
33178
32583
32081
31751
31572
31538
31748
32143
32644
33173
33742
34171
34410
34494
34435
34231
34081
33869
33323
32915
32726
32263
32124
31658
31476
31661
31739
32167
32661
33193
33718
33967
34295
34220
34311
34350
34002
33829
33416
32885
32567
31911
31575
31328
31185
31386
31569
32042
32306
33004
33286
33758
34111
34155
34437
34212
34206
34014
33524
33103
32701
32052
31751
31315
31195
31236
31399
31907
32314
32856
33506
33799
34081
34370
34273
34383
34099
33780
33532
32963
32484
31903
31340
30956
30798
30796
31012
31510
32141
32775
33380
33799
34087
34172
34088
33820
33670
33366
33167
32687
32317
31720
31294
30855
30785
30899
31142
31571
32156
32839
33372
33750
33951
33937
33727
33311
32648
31962
31267
30591
29959
29266
28721
28369
28352
28751
29531
30508
31512
32614
33903
35052
36098
37084
37999
38857
39783
40792
41838
43159
44719
46356
48144
50039
52116
54244
56311
58348
60158
61466
62143
62282
61887
60975
59527
57581
55303
52774
49975
46924
44118
41440
38856
36493
34415
32737
31324
30025
29143
28835
28861
29063
29367
29640
29759
29676
29380
28932
28458
27996
27442
26918
26495
26203
26101
26206
26524
26985
27623
28326
28995
29498
29866
30063
30127
30135
29980
29799
29434
28923
28475
28023
27642
27389
27325
27405
27638
28009
28548
29198
29836
30413
30820
31042
31054
30948
30707
30351
29829
29239
28685
28157
27757
27587
27624
27803
28235
28828
29583
30353
30983
31442
31744
31943
31948
31878
31598
31239
30818
30335
29740
29215
28814
28570
28589
28750
29012
29356
29846
30452
30999
31485
31809
32003
32107
32147
32060
31861
31550
31167
30598
30132
29744
29422
29307
29350
29607
30062
30623
31198
31719
32119
32355
32472
32486
32378
32196
31958
31632
31309
30898
30385
29959
29673
29593
29559
29746
30110
30553
31068
31589
31983
32287
32390
32510
32396
32217
31863
31604
31253
30922
30507
30032
29684
29556
29631
30016
30579
31284
31989
32557
33086
33399
33491
33391
33183
32948
32741
32391
31831
31076
30575
30183
29975
29998
30140
30532
31044
31670
32198
32674
33010
33228
33332
33372
33302
33121
32815
32481
32047
31508
30924
30462
30145
29969
30044
30404
30893
31433
32031
32585
33047
33376
33625
33810
33899
33759
33457
33100
32701
32231
31725
31301
30981
30845
30884
31152
31572
32109
32685
33159
33494
33779
34085
34263
34303
34209
34010
33671
33246
32775
32343
31966
31743
31811
32006
32355
32757
33229
33796
34385
34861
35223
35431
35495
35429
35135
34705
34283
33839
33410
32883
32535
32290
32350
32564
32878
33276
33822
34420
34989
35435
35815
36064
36245
36277
36166
35807
35503
35028
34381
33644
33063
32671
32470
32500
32756
33148
33651
34172
34549
34764
34948
35064
35052
34823
34518
34100
33620
33141
32638
31974
31295
31034
30671
30668
30887
31139
31773
32101
32609
32756
33075
33219
33242
33352
33013
32909
32498
31994
31611
30875
30396
29903
29710
29700
29911
30362
30852
31676
32120
32708
32837
33087
33021
32861
32788
32426
32231
31683
31157
30759
30182
29943
29794
29782
30195
30580
31105
31562
31934
32154
32407
32540
32715
32689
32642
32519
32404
32135
31671
31091
30580
30196
30013
30054
30307
30701
31317
31943
32516
32962
33352
33606
33708
33706
33511
33150
32700
32167
31614
31152
30743
30408
30223
30238
30495
30889
31493
32084
32530
32893
33205
33365
33471
33486
33287
32782
32307
31820
31299
30820
30407
30113
30086
30244
30607
31078
31559
32071
32554
32970
33287
33489
33549
33511
33324
33067
32775
32293
31676
31100
30557
30202
30079
30134
30463
30950
31495
32063
32655
33082
33379
33542
33543
33439
33151
32785
32391
31964
31430
30880
30421
30178
30178
30252
30580
31135
31791
32375
32903
33310
33622
33892
34021
33927
33631
33229
32796
32320
31796
31300
30834
30449
30199
30113
30330
30687
31154
31732
32287
32733
33088
33351
33548
33554
33362
33104
32765
32449
32111
31654
31205
30844
30723
30788
31126
31476
31893
32471
32965
33298
33543
33683
33791
33848
33684
33418
33143
32823
32343
31847
31388
31053
30886
30867
31023
31448
31966
32554
33092
33519
33889
34089
34180
34103
33853
33572
33172
32651
32036
31524
31143
30930
30833
30836
31038
31356
31815
32406
32948
33381
33772
34036
34169
34236
34109
33855
33498
33013
32420
31826
31351
30964
30727
30706
30943
31364
31956
32582
33052
33460
33706
34019
34212
34238
34055
33791
33441
32983
32419
31789
31134
30687
30492
30541
30908
31410
32007
32676
33127
33515
33852
34114
34263
34296
34084
33819
33436
32978
32475
31973
31703
31303
31331
31234
31645
32106
32487
32987
33506
34076
34255
34326
34396
34407
34127
33927
33479
32919
32336
31733
31215
30842
30703
30823
31181
31671
32259
32857
33364
33858
34172
34391
34461
34409
34284
33971
33576
33117
32677
32194
31671
31327
31163
31153
31434
31930
32399
33055
33437
33943
34054
34351
34245
34356
34055
34055
33595
33372
32693
32188
31719
31356
31223
31148
31562
31845
32444
32990
33437
34020
34278
34727
34484
34370
33927
33465
33240
32671
32408
31951
31609
31492
31231
31404
31548
32116
32490
33158
33437
33862
34110
34234
34449
34191
34094
33642
33236
32839
32331
31895
31423
31229
31054
31183
31396
32005
32487
33223
33495
33811
34183
34182
34453
34423
34141
33991
33556
33268
32759
32412
31820
31473
31129
31263
31516
31878
32615
33007
33645
34012
34256
34627
34548
34657
34391
34106
33719
33043
32615
31951
31654
31252
31310
31351
31647
32239
32651
33261
33727
33944
34215
34223
34407
34167
34026
33884
33487
33266
32703
32311
31623
31326
31065
30983
31429
31726
32402
33072
33575
34196
34404
34491
34505
34436
34214
33901
33653
33147
32567
32046
31639
31317
31136
31126
31372
31839
32389
33029
33625
34130
34391
34491
34505
34399
34063
33604
33068
32447
31748
31213
30903
30538
30375
30468
30831
31391
32007
32655
33255
33765
34199
34495
34668
34631
34407
34039
33691
33352
32842
32268
31734
31422
31354
31553
31879
32233
32655
33044
33439
33735
34044
34392
34550
34522
34368
34134
33797
33282
32638
32027
31659
31398
31303
31355
31628
31998
32492
33062
33614
34096
34366
34509
34529
34385
34207
33927
33626
33217
32756
32292
31876
31585
31489
31620
31983
32375
32852
33508
34119
34645
34919
35021
35047
34967
34644
34300
33919
33441
32836
32311
31814
31486
31291
31300
31640
32118
32713
33375
33947
34372
34622
34739
34721
34633
34354
33884
33313
32861
32348
31946
31471
31213
31269
31495
31959
32423
33031
33529
33909
34183
34415
34681
34815
34806
34631
34285
33821
33216
32637
32112
31719
31413
31117
31063
31356
31879
32580
33191
33839
34052
34396
34567
34447
34595
34285
33838
33572
32900
32420
31897
31295
31090
30844
30970
31361
31829
32396
32978
33474
33886
34197
34374
34459
34394
34175
33855
33407
32924
32357
31881
31374
31060
30854
30910
31207
31586
32175
32803
33340
33743
34087
34282
34426
34244
33966
33631
33218
32763
32106
31420
30838
30342
29930
29636
29556
29738
30167
30703
31164
31469
31647
31689
31686
31759
31878
32091
32097
32070
32100
32215
32474
32943
33730
34765
36295
38195
40161
42550
45253
47796
50294
52716
54986
57070
58908
60456
61557
61975
61679
60807
59580
58119
56533
54791
53179
51396
49526
47652
45731
43796
41884
40060
38383
36715
34889
32958
31111
29557
28367
27477
26837
26436
26208
26121
26363
26708
27179
27692
28185
28579
28901
29167
29286
29331
29205
29045
28796
28470
28052
27631
27313
27079
26977
27013
27287
27695
28213
28807
29346
29740
30061
30303
30406
30387
30092
29742
29303
28837
28309
27809
27399
27152
27079
27303
27727
28223
28824
29510
30228
30693
31231
31436
31716
31538
31488
31054
30738
30189
29688
29249
28740
28434
28223
28359
28597
29132
29754
30279
30926
31200
31534
31852
31741
31651
31456
31220
30869
30399
29885
29428
29047
28804
28743
28839
29133
29556
30183
30855
31460
31838
32119
32314
32407
32363
32140
31878
31503
31025
30457
29911
29486
29214
29113
29164
29446
29933
30630
31278
31841
32334
32649
32835
32798
32767
32479
32247
31705
31303
30688
30180
29670
29279
29145
29247
29637
30165
30823
31629
32244
32649
32890
33077
33125
33089
32866
32490
32007
31503
30920
30418
30020
29812
29768
29797
30050
30492
31156
31869
32474
32903
33195
33391
33450
33380
33151
32846
32439
32006
31524
30974
30430
29976
29786
29863
30171
30695
31365
32070
32647
33159
33525
33757
33799
33711
33543
33360
33053
32583
32027
31554
31099
30726
30559
30674
31039
31530
32132
32760
33252
33669
33997
34215
34302
34311
34158
34019
33684
33254
32677
32029
31545
31172
31082
31183
31445
31900
32519
33204
33834
34351
34679
34895
34972
34903
34668
34383
33981
33525
32972
32468
32092
31905
31998
32220
32561
32948
33415
34025
34516
35007
35399
35694
35812
35765
35520
35300
34943
34441
33852
33198
32713
32462
32498
32653
33083
33479
33813
34477
34727
35218
35515
35583
35756
35439
35316
34903
34444
33965
33249
32736
32052
31807
31524
31732
31855
32335
32720
33345
33847
34118
34567
34469
34459
34230
33791
33607
33059
32535
31983
31330
30982
30606
30583
30479
30760
31071
31437
32164
32551
33151
33295
33484
33502
33369
33161
32654
32412
31893
31294
30926
30375
29984
29829
29668
29919
30380
31045
31796
32257
32755
32986
33276
33247
33243
32994
32765
32431
31937
31333
30748
30229
29885
29734
29796
30092
30498
31020
31670
32216
32591
32945
33222
33436
33485
33211
32807
32348
31788
31108
30537
30084
29812
29690
29764
30132
30641
31297
31973
32503
32953
33229
33302
33309
33249
33079
32775
32383
32028
31324
30886
30425
30075
30054
29948
30272
30767
31298
32111
32477
33004
33269
33358
33393
33327
33077
32677
32171
31643
31079
30646
30255
30063
30092
30311
30722
31319
32041
32689
33169
33501
33741
33847
33830
33706
33525
33311
33023
32567
31996
31348
30807
30479
30359
30416
30695
31092
31654
32231
32695
33031
33303
33411
33487
33511
33385
33132
32767
32373
31857
31276
30806
30495
30321
30351
30631
31102
31672
32319
32935
33359
33603
33798
33868
33893
33735
33493
33143
32653
31908
31213
30790
30538
30485
30527
30838
31252
31751
32326
32876
33359
33535
33772
33927
33895
33652
33398
33055
32660
32165
31633
31180
30865
30716
30684
30823
31167
31770
32180
32885
33184
33767
33952
34278
34204
34246
33948
33347
32863
31986
31429
30759
30478
30292
30373
30771
31233
32018
32637
33446
33699
34115
34221
34346
34311
33909
33700
33109
32660
31901
31527
31101
30773
30741
30738
31130
31551
32246
32823
33393
33740
33947
34295
34147
34090
34071
33551
33241
32647
31973
31530
30918
30771
30727
30812
31341
31636
32215
32872
33406
34156
34428
34815
34692
34553
34342
33830
33501
32863
32429
31777
31365
31129
30944
31198
31381
31914
32499
33159
33617
33977
34409
34548
34791
34574
34518
34182
33647
33001
32215
31599
31021
30700
30654
30831
31303
31906
32639
33235
33735
34077
34276
34407
34378
34220
34031
33632
33471
32898
32529
32040
31527
31390
31087
31135
31596
31959
32719
33203
33775
34292
34480
34671
34692
34622
34414
34172
33764
33187
32492
31847
31342
31023
30911
30997
31358
31861
32524
33150
33657
34061
34343
34494
34548
34495
34271
33997
33611
33089
32500
31943
31481
31173
30982
30988
31349
31820
32428
33063
33655
34181
34583
34763
34775
34601
34268
33935
33543
33062
32426
31791
31351
31062
30937
31009
31348
31823
32451
33052
33533
34005
34386
34625
34764
34639
34245
33867
33380
32937
32377
31762
31154
30762
30708
30892
31271
31804
32436
33047
33439
33676
33855
34087
34207
34174
34071
33819
33415
33055
32687
32199
31725
31331
31098
31078
31364
31795
32383
33018
33666
34172
34475
34612
34631
34544
34338
33996
33535
32991
32359
31793
31173
30903
30674
30823
31097
31685
32263
32939
33517
33974
34269
34420
34533
34479
34311
34125
33524
32985
32471
31863
31396
31033
30920
30989
31276
31681
32307
32974
33543
34023
34383
34654
34687
34705
34221
33886
33415
32831
32309
31517
31172
30748
30632
30807
31309
31726
32589
33245
33815
34208
34418
34620
34692
34614
34379
34018
33574
33012
32375
31718
31167
30812
30738
30855
31171
31650
32305
32981
33639
34137
34471
34578
34567
34460
34253
33932
33439
32855
32215
31670
31223
30951
30952
31139
31541
32022
32694
33268
33719
34057
34332
34428
34399
34197
33943
33783
33403
32934
32381
31799
31389
31143
31078
31194
31516
31980
32580
33167
33647
33956
34177
34329
34381
34258
34022
33709
33340
32887
32463
32087
31744
31477
31517
31703
32060
32535
33087
33620
34076
34428
34720
34959
35018
34941
34639
34225
33767
33332
32787
32347
31961
31623
31486
31505
31750
32082
32597
33218
33777
34207
34503
34723
34892
34870
34567
34176
33731
33166
32503
31837
31355
31044
31008
31180
31684
32272
32876
33503
33996
34407
34618
34798
34785
34703
34415
34030
33641
33140
32602
32121
31695
31330
31173
31141
31366
31804
32467
33162
33754
34182
34484
34663
34690
34622
34295
34010
33600
33258
32695
32254
31613
31239
30863
30878
31159
31495
32034
32583
33083
33574
33900
34205
34371
34393
34271
34062
33721
33196
32660
32149
31642
31250
31111
31172
31476
31843
32340
32893
33335
33541
33735
33924
33988
34012
33910
33809
33393
32987
32543
32083
31632
31223
30901
30685
30622
30620
30768
31052
31418
31724
31948
32125
32179
32071
31780
31599
31509
31469
31420
31375
31540
31994
32612
33460
34657
35937
37436
39099
40895
42810
45017
47260
49532
51719
53848
55852
57567
58910
59937
60414
60350
59951
59279
58326
57269
55999
54645
53072
51044
49004
46951
44858
42769
40700
38597
36629
34610
32496
30422
28693
27476
26735
26382
26297
26479
26817
27285
27791
28209
28493
28719
28894
28969
28954
28828
28679
28482
28238
27895
27542
27270
27047
26985
27110
27483
27974
28596
29231
29716
30084
30351
30519
30583
30518
30211
29844
29469
29042
28483
28060
27765
27567
27495
27593
27908
28306
28766
29332
29891
30469
30914
31261
31427
31372
31127
30799
30415
30046
29582
29113
28732
28396
28209
28165
28402
28812
29411
30165
30876
31367
31661
31876
31940
31879
31639
31316
31033
30423
29951
29348
29000
28614
28478
28455
28729
29253
29792
30511
31123
31523
31952
32122
32159
32167
31823
31510
31023
30601
30087
29601
29260
29015
28962
29014
29223
29656
30246
30871
31407
31771
32071
32255
32324
32327
32222
32007
31694
31362
30975
30564
30260
29940
29665
29530
29721
30151
30783
31380
31989
32519
32925
33190
33346
33302
33149
32900
32509
31912
31179
30580
30127
29812
29703
29831
30254
30701
31282
31927
32482
32874
33193
33421
33543
33463
33217
32931
32566
32084
31487
30953
30471
30087
29918
29959
30278
30711
31291
31941
32495
32918
33260
33441
33513
33460
33278
33007
32620
32172
31650
31181
30768
30460
30376
30463
30829
31322
31892
32479
32951
33335
33628
33724
33765
33763
33611
33420
33088
32645
32128
31566
31109
30855
30705
30837
31335
32035
32833
33599
34172
34565
34918
35206
35335
35350
35140
34764
34292
33775
33303
32816
32318
31935
31789
31868
32181
32666
33351
34164
34870
35516
35948
36144
36159
36052
35732
35374
34834
34374
33875
33375
32990
32816
32810
32915
33253
33718
34277
34868
35351
35733
36026
36108
36199
36116
35844
35455
34973
34492
33838
33183
32557
32127
31855
31725
31887
32222
32647
33095
33548
33892
34148
34301
34335
34278
33980
33543
33102
32601
31999
31448
30964
30561
30346
30300
30469
30786
31221
31751
32239
32677
33007
33278
33340
33286
33069
32705
32258
31693
30954
30273
29758
29388
29250
29303
29603
30215
31047
31899
32533
32961
33262
33451
33478
33421
33195
32799
32233
31647
31032
30426
29959
29634
29542
29615
29971
30383
30951
31623
32225
32679
33031
33287
33423
33443
33247
32950
32597
32157
31573
30876
30287
29927
29798
29882
30230
30727
31383
32092
32671
33078
33327
33469
33501
33446
33318
33102
32809
32347
31756
31190
30700
30363
30183
30259
30511
30916
31417
32004
32486
32903
33193
33423
33497
33479
33335
33078
32701
32227
31655
31103
30631
30380
30298
30410
30740
31157
31626
32142
32612
33171
33343
33671
33534
33588
33332
32950
32751
32110
31681
30983
30533
30116
30023
29994
30285
30737
31321
31980
32617
33159
33543
33780
33879
33812
33518
33143
32719
32212
31638
31068
30538
30112
29940
29990
30306
30695
31215
31911
32566
33096
33442
33635
33748
33817
33699
33350
32977
32595
32095
31573
31095
30736
30564
30534
30727
31149
31769
32460
33051
33486
33812
34004
34077
34023
33799
33452
33015
32599
32037
31439
30965
30590
30300
30124
30260
30629
31198
31871
32519
33140
33854
34266
34511
34505
34293
33925
33375
32823
32204
31591
31099
30703
30519
30490
30831
31261
31915
32519
33148
33508
33748
33879
33982
33927
33740
33431
33028
32583
32063
31571
31167
30844
30709
30823
31105
31605
32171
32730
33179
33565
33807
34076
34119
34055
33923
33703
33348
32877
32358
31796
31339
30986
30812
30754
30908
31236
31767
32401
32968
33446
33783
34145
34334
34242
34092
33809
33460
32996
32327
31679
31135
30748
30579
30679
30941
31301
31750
32359
32838
33277
33633
33927
34206
34385
34327
34114
33732
33247
32659
32050
31527
31085
30791
30773
31036
31528
32147
32767
33304
33713
33975
34252
34391
34356
34223
33952
33552
33103
32580
32026
31476
30980
30740
30772
31127
31578
32230
32967
33583
34013
34436
34662
34797
34741
34483
34100
33717
33247
32704
32189
31726
31343
31124
31118
31408
31853
32385
33048
33663
34156
34515
34671
34628
34471
34197
33868
33462
32986
32503
31998
31530
31194
30939
30867
31038
31391
31975
32681
33350
33981
34535
34742
34754
34679
34408
34113
33746
33327
32865
32316
31759
31320
31117
31150
31477
31890
32385
33015
33490
33831
34071
34366
34527
34478
34245
34006
33693
33197
32644
32071
31543
31212
31135
31156
31425
31879
32526
33284
33897
34287
34557
34695
34687
34564
34318
33924
33454
32964
32457
31956
31638
31287
31269
31272
31566
31944
32606
33133
33697
34026
34247
34466
34532
34438
34133
33741
33287
32727
32132
31681
31379
31202
31206
31342
31743
32133
32514
32967
33479
33825
34174
34464
34644
34631
34511
34247
33852
33351
32695
31948
31382
30982
30833
30887
31268
31783
32371
33055
33702
34118
34413
34590
34671
34590
34311
34073
33635
33117
32572
32020
31647
31367
31228
31228
31508
31901
32375
33031
33692
34225
34591
34823
34864
34791
34498
34084
33613
32998
32368
31869
31407
31089
30999
31122
31373
31815
32415
33102
33776
34292
34634
34970
35114
35052
34803
34419
33903
33343
32719
32093
31554
31131
30970
30981
31284
31780
32439
33135
33708
34097
34326
34486
34484
34337
33978
33564
33159
32701
32257
31852
31559
31357
31366
31374
31580
32017
32601
33237
33807
34210
34540
34839
34959
34823
34566
34217
33807
33315
32756
32180
31651
31332
31169
31152
31391
31804
32319
32943
33541
34074
34429
34663
34773
34700
34503
34180
33751
33231
32690
32125
31604
31238
31086
30964
31068
31407
31910
32514
33084
33556
33949
34247
34423
34436
34222
33887
33525
33111
32660
32132
31655
31266
31012
30965
31231
31703
32252
32895
33481
33898
34297
34564
34591
34484
34276
33948
33625
33020
32538
31940
31516
30949
30790
30673
30932
31327
31964
32631
33383
34002
34339
34519
34583
34524
34325
33932
33458
32903
32347
31766
31252
30911
30780
30871
31215
31717
32338
33007
33620
34103
34436
34697
34837
34791
34567
34165
33658
33094
32452
31727
31075
30520
30070
29790
29702
29812
30127
30554
31012
31363
31647
31725
31675
31748
31986
32172
32335
32263
32209
32274
32519
32924
33655
34547
35759
37190
39054
41232
43759
46378
49016
51518
53892
56029
57876
59452
60800
61551
61596
61055
60060
58774
57318
55613
53815
51974
50042
48076
46220
44453
42682
40753
38863
37149
35428
33602
31785
30145
28876
27983
27350
26925
26663
26588
26757
27058
27457
27921
28372
28716
28997
29144
29215
29237
29151
28954
28729
28465
28195
27873
27586
27370
27236
27177
27347
27721
28226
28905
29593
30118
30549
30804
30895
30861
30636
30268
29868
29403
28880
28340
27890
27597
27420
27431
27722
28223
28847
29476
30063
30525
30868
31087
31189
31193
31132
30911
30556
30139
29618
29125
28742
28449
28322
28297
28500
28875
29359
29964
30556
31084
31540
31887
32037
32030
31893
31559
31111
30540
29942
29292
28807
28481
28308
28337
28650
29181
29822
30534
31148
31557
31903
32167
32370
32316
32188
31865
31668
31291
30837
30238
29751
29310
29102
29127
29416
29909
30434
31079
31655
32159
32486
32695
32828
32775
32624
32385
32044
31504
30897
30339
29865
29423
29124
29071
29279
29665
30220
30951
31711
32346
32791
33009
33047
32850
32580
32236
31935
31581
31219
30879
30591
30343
30227
30179
30357
30759
31268
31828
32380
32767
33103
33348
33550
33576
33496
33114
32687
32207
31700
31151
30642
30188
29893
29804
29973
30368
30973
31779
32426
32991
33471
33729
33863
33916
33797
33529
33135
32652
32030
31455
30955
30581
30438
30508
30789
31239
31826
32519
33134
33668
34055
34252
34343
34354
34234
33968
33567
33188
32737
32223
31685
31201
30937
30950
31247
31735
32332
33077
33844
34367
34724
34956
35164
35191
35147
34913
34591
34118
33479
32870
32226
31741
31398
31379
31626
32143
32873
33764
34567
35175
35599
35911
36014
36079
35964
35703
35439
35015
34453
33789
33231
32839
32658
32668
32886
33287
33783
34327
34857
35253
35574
35810
35959
35877
35627
35212
34700
34084
33403
32666
32037
31482
31193
31118
31247
31607
32135
32773
33367
33836
34179
34389
34420
34303
34055
33644
33135
32593
32020
31525
31058
30620
30317
30199
30352
30740
31197
31732
32284
32661
32978
33127
33287
33228
33087
32775
32390
31902
31346
30740
30215
29757
29463
29399
29566
29921
30401
31073
31721
32257
32675
33079
33206
33183
33079
32876
32502
31963
31256
30548
29828
29384
29227
29271
29502
29935
30604
31464
32218
32819
33249
33561
33740
33703
33471
33086
32660
32199
31652
31040
30486
30087
29865
29863
30063
30561
31079
31686
32252
32684
32967
33135
33287
33323
33220
32964
32690
32339
31850
31316
30778
30396
30188
30295
30356
30806
31349
31924
32576
33084
33340
33735
33841
33742
33713
33322
32788
32396
31794
31218
30772
30266
30178
30055
30300
30718
31238
32028
32535
33234
33508
33901
33926
33991
33845
33493
33031
32563
31950
31343
30772
30292
29948
29823
29929
30364
30951
31735
32497
33085
33490
33799
33932
33897
33799
33605
33255
32775
32296
31677
31127
30682
30439
30420
30584
30889
31304
31988
32543
32981
33413
33719
33948
34055
33980
33746
33383
32893
32292
31583
30996
30559
30253
30166
30351
30780
31351
32087
32768
33333
33700
33942
34108
34089
33884
33615
33236
32760
32251
31746
31319
30935
30684
30614
30785
31156
31658
32295
32908
33367
33703
33975
34183
34179
34007
33692
33276
32824
32286
31660
31111
30725
30554
30544
30740
31117
31630
32303
32871
33366
33807
34156
34346
34450
34364
34131
33727
33171
32517
31847
31271
30812
30630
30634
30919
31474
32116
32868
33527
34023
34366
34535
34597
34584
34324
33954
33591
33141
32631
32068
31531
31085
30884
30853
31071
31543
32089
32759
33406
33887
34183
34380
34516
34537
34300
34025
33653
33126
32565
31974
31404
30983
30753
30727
30907
31302
31871
32477
32930
33286
33653
33892
34022
34014
34015
33913
33599
33141
32527
31887
31335
30910
30650
30573
30773
31214
31717
32364
33004
33497
33889
34247
34508
34599
34471
34279
33856
33368
32641
31889
31367
30999
30745
30684
30847
31184
31550
32015
32662
33320
33844
34036
34340
34498
34453
34263
33938
33334
32657
32050
31561
31183
30981
31014
31227
31708
32275
32831
33314
33759
34127
34367
34500
34508
34485
34220
33830
33324
32754
32153
31573
31185
30971
30953
31111
31468
31989
32695
33325
33820
34161
34444
34624
34668
34537
34232
33855
33414
32854
32298
31860
31468
31223
31169
31317
31628
32047
32645
33287
33687
33919
34165
34255
34304
34200
33941
33522
32983
32503
32151
31862
31647
31550
31590
31724
31977
32359
32836
33415
33844
34253
34619
34813
34788
34564
34092
33608
33124
32647
32132
31702
31373
31204
31255
31508
31998
32471
33134
33643
34054
34300
34431
34557
34580
34443
34129
33695
33189
32673
32106
31577
31119
30847
30804
31007
31455
32039
32757
33364
33818
34154
34428
34506
34529
34403
34240
33923
33535
33031
32406
31843
31338
31081
31050
31231
31657
32217
32881
33524
34023
34370
34620
34735
34655
34442
34079
33521
32876
32284
31692
31298
31069
31015
31193
31605
32092
32519
33075
33686
34162
34490
34676
34847
34839
34651
34311
33898
33410
32801
32219
31751
31435
31229
31145
31283
31653
32191
32900
33475
33876
34221
34503
34711
34754
34641
34379
33940
33505
33027
32510
32007
31509
31207
31093
31223
31567
32044
32663
33311
33820
34151
34397
34525
34549
34463
34183
33902
33529
33063
32489
31925
31434
31165
30996
31039
31335
31809
32439
33140
33767
34238
34531
34695
34759
34727
34537
34282
33866
33303
32721
32167
31704
31434
31416
31578
31942
32330
32892
33421
33934
34345
34591
34724
34764
34733
34503
34095
33553
32964
32351
31801
31417
31220
31252
31478
31940
32527
33167
33724
34155
34482
34698
34775
34732
34551
34218
33796
33244
32684
32155
31685
31331
31143
31106
31226
31490
31887
32430
33060
33615
34067
34337
34399
34353
34289
34087
33709
33300
32694
32210
31536
31178
30887
30996
31169
31673
32247
32870
33561
34025
34325
34512
34545
34469
34199
33870
33494
33244
32934
32540
32100
31670
31313
31100
31085
31332
31809
32431
33076
33538
33903
34203
34404
34414
34294
34025
33654
33235
32743
32127
31511
31054
30791
30762
30917
31271
31749
32401
33053
33647
34055
34311
34459
34482
34276
33891
33343
32568
31695
30791
29938
29261
28831
28644
28712
28983
29375
29906
30559
31350
32127
32865
33535
34098
34599
34994
35291
35553
35821
36167
36760
37615
38812
40425
42528
45100
47800
50625
53464
56129
58503
60596
62284
63262
63589
63127
62030
60516
58588
56220
53708
51105
48354
45751
43380
41172
39463
37916
36647
35492
34138
32754
31545
30655
30087
29652
29279
28826
28204
27578
27028
26532
26154
25996
26030
26260
26631
27241
27901
28461
28927
29341
29640
29791
29697
29497
29231
28868
28467
28010
27560
27174
26914
26887
27043
27422
27940
28579
29215
29694
30077
30389
30593
30701
30615
30357
29951
29394
28895
28357
27833
27440
27257
27318
27616
28152
28735
29400
30088
30741
31276
31621
31822
31871
31747
31433
30982
30490
29978
29398
28862
28423
28196
28215
28456
28905
29417
30055
30678
31238
31687
32004
32148
32224
32039
31847
31333
30890
30196
29738
29186
28879
28687
28701
28935
29319
29734
30375
31061
31656
32135
32451
32630
32698
32617
32314
31949
31465
30900
30278
29628
29093
28852
28822
28970
29347
29832
30447
31108
31740
32194
32599
32948
33041
32958
32727
32397
31901
31365
30763
30343
30018
29856
29863
30044
30397
30893
31428
32007
32452
32765
33059
33222
33253
33207
33056
32791
32364
31852
31332
30884
30533
30283
30142
30151
30436
30927
31488
32081
32734
33241
33554
33671
33622
33415
33012
32622
32164
31623
31082
30663
30293
30055
30078
30198
30535
31060
31672
32357
32944
33295
33564
33703
33689
33618
33375
33063
32647
32109
31522
31015
30647
30380
30330
30484
30916
31434
32020
32625
33218
33608
33948
34202
34234
34167
33926
33693
33445
33028
32476
31989
31521
31237
31130
31297
31797
32478
33029
33682
34239
34583
35127
35196
35540
35356
35319
34804
34487
34021
33197
32748
32151
31939
31844
31988
32502
33132
34152
35052
35683
35994
36175
36269
36341
36359
36132
35847
35351
34794
34159
33543
33103
32895
32802
32892
33189
33509
33998
34518
34927
35268
35501
35654
35585
35415
