ECG
31992
32087
32223
32217
32119
32295
32391
32494
32556
32519
32445
32374
32407
32430
32484
32439
32311
32223
32255
32246
32200
32103
31919
31760
31698
31650
31668
31671
31623
31486
31417
31370
31389
31351
31404
31486
31476
31431
31508
31665
31703
31594
31687
31772
32002
32039
32006
31950
31842
31872
31919
32064
31997
31893
31873
31967
32123
32219
32213
32129
32085
32174
32255
32391
32359
32318
32263
32214
32134
32129
32071
32095
31975
31788
31476
31255
31076
30914
30830
30799
30702
30660
30596
30634
30599
30631
30740
30890
31081
31223
31436
31916
32485
33172
33734
34351
34933
35815
36721
37494
38171
38907
39450
39863
40538
40967
41349
41492
41469
41759
41931
42127
42178
42091
41831
41266
40961
40547
40017
39367
38815
38183
37420
36860
36154
35412
34790
34215
33647
33156
32677
32405
32244
31959
31623
31341
31133
31004
30971
30891
30775
30554
30465
30365
30321
30358
30285
30159
30047
29972
29895
29847
29898
29903
29772
29646
29609
29740
29721
29637
29596
29536
29524
29526
29452
29420
29335
29299
29348
29368
29497
29619
29649
29682
29676
29683
29690
29838
29786
29799
29853
30029
29989
29910
29855
29782
29847
29847
29793
29739
29703
29723
29798
29687
29636
29619
29733
29853
29816
29831
29900
29973
29874
29766
29734
29742
29773
29813
29862
29981
30141
30132
30071
30048
30117
30188
30132
30042
29959
30010
30048
29990
29989
30039
30079
30097
30127
30135
30196
30155
30087
30059
30059
30183
30208
30151
30103
30077
30056
30081
30165
30220
30167
30020
29951
30017
30028
29949
29920
29946
30079
30100
30028
29960
29943
29991
30070
30129
30153
30149
30127
30150
30213
30205
30222
30322
30341
30295
30187
30080
30027
29993
29959
30047
30125
30143
30106
30076
30068
30147
30287
30335
30365
30414
30494
30598
30598
30506
30423
30360
30304
30372
30278
30395
30351
30427
30583
30701
30628
30690
30785
30847
30797
30832
30951
30924
30978
30868
30727
30648
30667
30746
30842
30915
30965
30983
30938
30925
30934
30972
31033
31194
31300
31356
31367
31333
31319
31311
31271
31235
31178
31108
31079
31100
31191
31231
31227
31137
31118
31201
31321
31361
31358
31279
31273
31309
31380
31492
31564
31562
31505
31431
31357
31301
31349
31365
31319
31289
31298
31306
31277
31306
31319
31311
31258
31158
31112
31156
31079
30945
30815
30751
30795
30847
30823
30800
30817
30981
31119
31122
31127
31167
31305
31375
31300
31263
31294
31409
31375
31325
31276
31285
31304
31275
31194
31111
31063
31091
31191
31239
31172
31126
31134
31172
31189
31231
31318
31361
31351
31343
31331
31359
31399
31383
31319
31273
31293
31306
31311
31359
31455
31551
31596
31599
31559
31535
31464
31419
31361
31286
31239
31175
31183
31182
31111
31013
30964
31042
31023
31044
31094
31225
31266
31206
31119
31055
30993
30988
31016
30950
30871
30858
30900
31015
31111
31133
31164
31125
31100
31034
30969
30918
30915
30945
30993
30967
30916
30903
30882
30882
30869
30825
30796
30788
30805
30767
30682
30608
30539
30549
30536
30550
30570
30582
30622
30676
30671
30692
30725
30770
30759
30727
30741
30769
30780
30801
30813
30823
30855
30911
31028
31103
31157
31204
31246
31295
31288
31340
31375
31340
31283
31239
31223
31211
31213
31220
31239
31271
31300
31335
31355
31374
31404
31381
31386
31390
31391
31400
31398
31391
31340
31265
31235
31211
31204
31223
31271
31283
31262
31239
31199
31175
31169
31165
31175
31213
31252
31239
31233
31188
31147
31098
31047
30959
30920
30899
30856
30830
30817
30819
30841
30877
30975
31047
31108
31127
31156
31239
31300
31343
31391
31396
31364
31357
31365
31411
31471
31556
31615
31646
31692
31757
31777
31804
31800
31806
31814
31749
31669
31621
31581
31549
31511
31513
31538
31553
31556
31577
31623
31718
31810
31869
31892
31884
31879
31854
31815
31773
31717
31686
31623
31589
31578
31550
31521
31487
31439
31451
31457
31469
31525
31592
31633
31663
31686
31667
31655
31683
31700
31709
31684
31677
31655
31664
31671
31660
31680
31738
31814
31868
31935
31959
32007
31999
32021
32037
32057
32048
32030
32007
31989
31901
31868
31841
31829
31799
31764
31771
31836
31881
31943
31956
32007
32079
32103
32101
32075
32058
31983
31879
31764
31590
31428
31330
31271
31221
31184
31148
31220
31265
31269
31164
31176
31291
31462
31642
31902
32284
32743
33275
33863
34461
35071
35727
36422
37186
37972
38732
39455
40130
40687
41095
41380
41529
41734
41932
42103
42159
42127
42029
41821
41525
40935
40507
39836
39065
38428
37887
37283
36572
35823
35134
34535
34028
33579
33140
32838
32553
32241
31980
31770
31604
31454
31299
31150
30945
30803
30793
30743
30707
30546
30412
30323
30266
30180
30087
29973
29871
29751
29694
29580
29511
29452
29393
29370
29439
29447
29552
29559
29599
29743
29796
29805
29799
29815
29761
29837
29901
29954
29879
29874
29900
29908
29966
29958
29901
29946
30040
30111
30206
30197
30197
30206
30343
30407
30481
30487
30452
30505
30523
30533
30561
30498
30375
30442
30468
30507
30623
30677
30719
30783
30901
31000
31087
31034
30964
30955
30919
30900
30885
30823
30811
30727
30699
30713
30755
30766
30823
30895
30983
31051
31159
31201
31183
31140
31143
31154
31182
31175
31172
31198
31165
31127
31080
31095
31125
31210
31276
31366
31422
31487
31518
31455
31492
31545
31652
31678
31690
31698
31700
31675
31653
31611
31622
31639
31643
31629
31642
31665
31750
31887
32020
32087
32119
32143
32164
32211
32294
32294
32233
32157
32192
32207
32239
32077
32116
32196
32236
32335
32295
32324
32414
32543
32629
32681
32629
32644
32710
32734
32730
32710
32706
32622
32577
32615
32647
32718
32757
32775
32751
32815
32927
33025
33115
33077
33012
33084
33175
33189
33199
33255
33165
33058
33079
33149
33213
33259
33352
33457
33503
33535
33527
33591
33646
33725
33799
33894
33926
33879
33831
33760
33815
33849
33874
33921
33979
34025
34006
34061
34209
34326
34407
34419
34343
34337
34351
34394
34428
34447
34351
34223
34185
34215
34247
34319
34277
34251
34239
34324
34356
34399
34451
34535
34581
34636
34620
34500
34503
34492
34484
34503
34439
34369
34355
34282
34205
34143
34221
34305
34407
34469
34397
34397
34385
34423
34479
34525
34388
34302
34360
34401
34403
34284
34288
34327
34367
34439
34464
34357
34428
34527
34589
34703
34630
34670
34734
34765
34742
34607
34567
34606
34615
34604
34609
34627
34551
34476
34558
34620
34693
34733
34687
34766
34876
34914
34980
34961
34905
34821
34837
34853
34836
34831
34852
34661
34583
34628
34663
34741
34823
34917
34895
34895
34884
34797
34746
34705
34709
34731
34751
34781
34663
34548
34622
34623
34688
34760
34718
34768
34868
34959
35043
35062
35100
35038
34997
35015
34999
34982
34919
34821
34732
34644
34574
34567
34655
34743
34820
34918
35003
35085
35137
35132
35082
35087
35038
35007
34980
34958
34972
34927
34878
34823
34676
34566
34543
34556
34551
34599
34604
34655
34759
34823
34844
34845
34838
34732
34647
34597
34585
34564
34540
34570
34456
34438
34454
34474
34559
34484
34527
34567
34596
34627
34562
34597
34634
34628
34598
34594
34577
34502
34418
34370
34367
34418
34404
34375
34415
34455
34525
34529
34548
34649
34668
34636
34575
34567
34558
34511
34506
34460
34506
34545
34511
34503
34604
34603
34641
34753
34838
34930
35007
35055
34991
34991
34974
34887
34863
34831
34692
34669
34677
34639
34636
34590
34464
34439
34455
34412
34401
34492
34498
34562
34646
34674
34709
34763
34725
34697
34724
34684
34561
34603
34530
34547
34537
34500
34580
34524
34525
34534
34579
34567
34519
34371
34358
34307
34249
34254
34225
34143
34191
34188
34098
34086
34119
34172
34108
34277
34332
34468
34556
34590
34667
34655
34725
34711
34719
34687
34689
34687
34678
34633
34647
34686
34712
34679
34727
34772
34815
34775
34841
34937
35020
35041
35053
35025
35004
34943
34925
34892
34855
34744
34573
34439
34335
34153
34082
33932
33786
33792
33724
33756
33621
33606
33569
33558
33573
33580
33839
34079
34445
34868
35236
35869
36528
37188
37831
38602
39461
40356
41204
41890
42381
42783
43100
43391
43645
43833
43942
44019
44068
44105
44135
44036
43807
43397
42903
42452
42018
41428
40759
40135
39556
38857
37973
37396
36914
36444
36058
35745
35474
35207
34910
34663
34466
34271
33995
33983
33927
33899
33823
33785
33775
33811
33781
33711
33561
33499
33444
33413
33343
33156
33124
33193
33162
33063
33167
33249
33315
33370
33300
33364
33479
33515
33604
33594
33428
33454
33513
33503
33495
33471
33458
33303
33364
33423
33446
33542
33422
33550
33628
33719
33767
33759
33710
33762
33799
33841
33874
33834
33644
33629
33670
33666
33665
33563
33730
33799
33924
33954
33954
34097
34194
34215
34071
34065
34100
34107
34130
34006
34074
34112
34140
34207
34189
34092
34132
34207
34303
34252
34388
34437
34576
34633
34558
34684
34685
34791
34810
34773
34738
34759
34780
34666
34636
34686
34692
34844
34884
34932
35079
35164
35204
35236
35255
35239
35283
35238
35271
35204
35062
35053
35004
35024
35016
34879
34997
34992
35076
35080
35068
35174
35195
35276
35260
35211
35118
34943
34961
34923
34966
34935
34809
34882
34862
34906
34888
34845
34845
34916
34873
34884
34885
34812
34614
34567
34522
34463
34407
34372
34251
34221
34252
34202
34244
34268
34311
34374
34347
34324
34342
34353
34345
34332
34283
34263
34255
34250
34156
34210
34279
34269
34298
34366
34502
34602
34673
34734
34645
34669
34745
34782
34808
34831
34883
34892
34972
35028
35027
34980
34986
35037
35071
35076
35158
35222
35255
35366
35425
35385
35433
35535
35636
35647
35620
35625
35583
35528
35374
35399
35388
35423
35365
35335
35322
35406
35429
35381
35414
35529
35598
35636
35649
35656
35664
35584
35665
35703
35707
35654
35695
35698
35571
35620
35654
35641
35702
35746
35835
35813
35814
35887
35925
35864
35865
35814
35761
35663
35599
35584
35673
35647
35670
35619
35605
35477
35514
35550
35501
35588
35543
35488
35335
35355
35356
35335
35322
35281
35124
35177
35137
35156
35073
34948
34972
34951
34947
34823
34886
34876
34942
34911
34748
34783
34823
34852
34847
34843
34754
34740
34815
34782
34876
34879
34749
34838
34935
34996
34996
34887
34932
34949
35007
34895
34879
34967
34980
34948
34780
34858
34906
34823
34955
34916
34884
34990
34972
34989
35116
35090
34999
35095
35163
35110
35224
35215
35158
35231
35194
35076
35127
35197
35217
35220
35114
35108
35173
35236
35284
35293
35232
35079
35101
35138
35149
35071
34951
34871
34885
34847
34866
34852
34706
34767
34804
34849
34869
34925
34902
34887
34784
34855
34884
34918
34916
34889
34756
34823
34915
34924
34912
34863
34788
34839
34847
34857
34839
34674
34702
34761
34719
34695
34535
34535
34620
34588
34572
34544
34407
34479
34542
34502
34421
34324
34340
34394
34406
34447
34430
34311
34370
34498
34556
34557
34514
34359
34396
34454
34431
34476
34452
34317
34310
34352
34373
34386
34421
34439
34324
34359
34392
34446
34471
34452
34457
34459
34463
34500
34491
34519
34516
34518
34503
34525
34503
34407
34392
34420
34471
34453
34422
34396
34246
34258
34277
34231
34232
34238
34117
34196
34272
34318
34287
34258
34239
34140
34122
34130
34153
34231
34278
34310
34287
34181
34247
34293
34286
34279
34248
34244
34108
34199
34199
34231
34258
34220
34214
34248
34297
34379
34373
34349
34341
34238
34340
34421
34485
34502
34512
34379
34484
34564
34567
34542
34444
34375
34442
34497
34558
34578
34591
34570
34528
34542
34676
34671
34701
34695
34647
34615
34674
34727
34757
34736
34711
34567
34592
34628
34672
34681
34660
34609
34385
34385
34299
34204
34045
33769
33647
33550
33443
33317
33206
33001
33041
33102
33223
33377
33591
33759
34180
34716
35316
35964
36639
37247
37887
38631
39340
40140
41008
41614
42132
42711
43193
43716
44048
44295
44336
44340
44388
44478
44700
44821
44698
44362
43839
43314
42769
42244
41709
41007
40308
39628
38896
38228
37566
37030
36452
36152
35901
35628
35370
35148
34775
34592
34418
34334
34262
34156
34038
33799
33750
33775
33787
33724
33521
33508
33595
33604
33553
33521
33503
33372
33419
33500
33553
33583
33595
33490
33511
33556
33722
33711
33628
33620
33743
33750
33636
33652
33741
33772
33761
33715
33574
33609
33639
33679
33662
33644
33495
33527
33531
33562
33652
33725
33697
33735
33777
33727
33764
33854
33990
34005
34049
34009
34018
34026
33986
33783
33764
33764
33784
33852
33846
33847
33855
33862
33927
33936
33822
33863
33898
33947
33936
33988
33980
34039
33985
33965
33951
33932
33887
33708
33737
33727
33707
33687
33692
33651
33581
33654
33624
33637
33616
33519
33551
33641
33692
33684
33687
33701
33671
33660
33617
33574
33532
33649
33732
33708
33701
33679
33671
33534
33558
33682
33724
33685
33700
33697
33693
33562
33628
33671
33670
33658
33636
33486
33450
33468
33576
33575
33594
33575
33545
33388
33408
33565
33610
33535
33478
33311
33313
33397
33474
33455
33449
33321
33379
33488
33478
33436
33273
33406
33414
33380
33372
33308
33331
33354
33396
33481
33536
33534
33519
33476
33476
33471
33353
33372
33388
33399
33413
33469
33436
33465
33458
33415
33225
33214
33186
33207
33255
33252
33149
33074
32881
32903
32988
33000
32996
32990
32893
32945
33092
33195
33220
33255
33272
33295
33382
33415
33455
33486
33396
33476
33523
33594
33671
33699
33623
33569
33388
33380
33453
33576
33621
33612
33483
33474
33481
33572
33615
33559
33509
33359
33383
33486
33475
33426
33292
33218
33024
32996
32974
33055
33038
33031
32849
32836
32836
32900
32899
32855
32820
32715
32724
32743
32774
32759
32798
32915
32860
32679
32686
32674
32690
32786
32822
32806
32797
32807
32785
32687
32751
32822
32822
32743
32683
32479
32487
32601
32730
32677
32684
32620
32447
32416
32498
32494
32511
32466
32460
32468
32454
32422
32445
32423
32419
32341
32324
32255
32193
32159
32292
32268
32284
32284
32212
32436
32409
32439
32311
32427
32471
32487
32481
32370
32391
32469
32527
32420
32374
32175
32255
32295
32263
32118
32172
32325
32414
32421
32486
32505
32421
32435
32467
32478
32483
32465
32506
32481
32441
32415
32215
32165
32199
32239
32148
32101
32079
31903
31940
31948
31972
32063
32108
32087
32015
31918
32088
32014
31993
31818
31803
31905
31927
31879
31833
31690
31676
31680
31639
31700
31783
31743
31751
31750
31748
31627
31628
31702
31798
31804
31770
31738
31735
31657
31581
31573
31539
31511
31463
31460
31430
31431
31394
31494
31416
31543
31516
31390
31396
31367
31391
31426
31465
31511
31516
31516
31521
31481
31494
31525
31519
31571
31622
31670
31687
31671
31613
31464
31500
31527
31488
31423
31316
31330
31226
31204
31212
31247
31285
31302
31300
31262
31125
31157
31284
31279
31303
31342
31367
31379
31371
31338
31143
31167
31230
31340
31404
31330
31279
31108
31102
31175
31252
31343
31342
31351
31349
31284
31258
31237
31220
31207
31304
31331
31302
31270
31139
31119
31239
31325
31324
31316
31322
31260
31194
31180
31260
31351
31247
31221
31146
31049
31014
31143
31217
31204
31204
31201
31102
31110
31210
31357
31348
31319
31328
31163
31222
31342
31335
31310
31274
31135
31140
31119
31142
31239
31328
31264
31267
31241
31156
31147
31260
31285
31265
31237
31221
31185
31047
31043
31105
31141
31173
31194
31151
31146
31111
30916
30944
31065
31113
31169
31174
31178
31153
31197
31228
31213
31157
31141
31190
31217
31213
31313
31322
31310
31276
31249
31220
31172
31163
31151
31119
31151
31148
31135
31015
30991
30991
31053
31164
31233
31229
31262
31196
31184
31163
31143
31138
31132
31094
30996
30968
30945
30875
30938
30869
30782
30639
30415
30149
29946
29855
29899
29837
29758
29700
29700
29750
29780
30053
30487
30913
31393
32007
32670
33350
34033
34679
35445
36226
37103
37919
38645
39170
39720
40167
40550
40825
41126
41174
41315
41396
41340
41390
41436
41422
41127
40583
39918
39220
38573
37889
37351
36701
35956
35189
34376
33524
32870
32443
32052
31674
31319
30825
30500
30262
30124
29900
29716
29514
29345
29173
28927
28968
28963
28887
28788
28623
28557
28695
28751
28800
28856
28862
28762
28746
28761
28854
28960
29063
29079
29030
28954
28909
28773
28791
28926
28988
29038
29041
29002
28968
28888
28929
28983
29102
29164
29140
29128
29150
29191
29189
29092
29124
29143
29159
29214
29263
29210
29190
29198
29177
29114
29079
29051
29004
28850
28871
28871
28844
28877
28921
28964
29036
29015
28964
28967
28946
28945
28925
28928
28934
28959
29004
29042
28936
28970
29002
29034
29068
29124
29165
29207
29332
29394
29465
29476
29517
29538
29530
29540
29504
29381
29414
29482
29548
29663
29710
29671
29616
29435
29494
29675
29765
29791
29689
29628
29790
29900
29869
29882
29747
29803
29841
29986
30103
30149
30182
30112
30022
30103
30094
30090
30081
30164
30171
30163
30170
30155
30171
30185
30211
30194
30041
30005
29993
30014
30031
30072
30055
30040
30001
29952
29762
29797
29814
29847
29750
29758
29772
29806
29893
30052
30131
30294
30349
30364
30327
30282
30274
30225
30128
30181
30100
30122
30202
30285
30364
30498
30545
30621
30695
30733
30823
30939
31047
31119
31231
31207
31172
31143
31117
31111
31059
30961
30922
30926
30990
31105
31054
31055
31058
31018
30946
31034
31159
31238
31231
31255
31279
31149
31159
31204
31279
31295
31238
31213
31159
30964
30969
31044
31106
31137
31121
31061
30949
30993
31103
31172
31127
31105
31124
31076
30959
30995
31045
31049
31015
30887
30887
30951
31081
31124
31101
31070
30951
31116
31226
31231
31223
31223
31223
31079
31103
31081
31127
31239
31171
31170
31175
31027
31055
31174
31209
31270
31278
31257
31198
31045
31092
31177
31236
31226
31199
31161
31126
30951
30999
31052
31100
31115
31194
31183
31193
31180
31079
31064
31069
31076
31044
31124
31231
31279
31332
31314
31253
31253
31222
31078
31066
31148
31228
31314
31326
31362
31396
31380
31340
31196
31155
31215
31228
31274
31237
31271
31268
31236
31165
31197
31255
31369
31479
31548
31607
31667
31709
31631
31724
31852
31836
31814
31735
31630
31735
31810
31791
31781
31700
31749
31903
31961
31951
31941
31783
31812
31921
31940
31943
31910
31875
31861
31716
31751
31765
31835
31876
31879
31879
31847
31722
31776
31945
32039
32039
32033
32010
31980
31991
32007
32031
32038
31968
31980
32003
32078
32151
32111
32126
32132
32183
32173
31995
32014
32046
32180
32234
32227
32263
32157
32116
32188
32246
32236
32197
32140
32031
32189
32255
32272
32207
32144
32189
32326
32342
32292
32289
32140
32254
32365
32352
32381
32335
32295
32423
32452
32522
32529
32561
32450
32537
32698
32772
32838
32895
32966
32990
32986
32967
32960
32855
32851
33009
33039
33044
33010
32937
32908
32922
32901
32884
32788
32783
32873
32956
32970
32986
33023
33046
33087
33087
33084
33122
32998
33038
33068
33166
33162
33117
33105
33103
33143
33150
33072
33114
33281
33325
33373
33332
33341
33329
33297
33161
33128
33107
33141
33201
33236
33267
33255
33274
33287
33313
33324
33335
33173
33217
33181
33155
33187
33124
33159
33116
33092
33092
33042
33015
32982
32932
32903
32910
32929
32801
32898
33021
33061
33145
33220
33287
33243
33162
33150
33159
33025
33076
33133
33199
33345
33513
33557
33615
33662
33653
33660
33656
33757
33804
33833
33749
33672
33631
33442
33430
33403
33465
33487
33456
33404
33360
33266
33279
33431
33487
33434
33481
33447
33316
33307
33270
33360
33293
33251
33193
33038
33025
33140
33213
33207
33247
33255
33110
33167
33158
33247
33318
33294
33203
33090
32971
32785
32750
32734
32824
32884
32838
32832
32786
32724
32662
32566
32562
32605
32660
32693
32722
32720
32743
32686
32634
32541
32440
32213
32176
32263
32365
32354
32301
32236
32255
32428
32465
32499
32525
32422
32484
32500
32550
32585
32631
32647
32581
32483
32301
32192
32145
32103
32001
31826
31703
31414
31353
31333
31375
31334
31330
31151
31141
31143
31357
31527
31695
31957
32263
32664
33212
33874
34694
35392
36096
36952
37840
38662
39419
40192
40856
41475
42030
42294
42599
42887
43198
43352
43435
43306
43196
43184
43050
42807
42220
41668
41095
40524
39911
39318
38649
37903
37051
36261
35544
34948
34399
33911
33549
33157
32813
32500
32075
31860
31805
31602
31418
31320
31072
31067
31186
31276
31255
31230
31183
31006
30961
31072
31081
31075
30964
30869
30801
30787
30770
30783
30629
30671
30700
30716
30800
30798
30862
30823
30807
30804
30784
30754
30756
30789
30804
30808
30817
30855
30881
30828
30807
30887
30982
31055
31054
31005
30978
30942
30756
30776
30719
30687
30668
30678
30691
30766
30783
30806
30815
30791
30799
30816
30821
30854
30852
30725
30842
30836
30844
30891
30967
31095
31124
31198
31297
31355
31313
31287
31239
31117
31222
31386
31476
31524
31482
31479
31520
31671
31671
31806
31751
31798
31804
31665
31687
31698
31775
31862
31927
31884
31900
31776
31754
31773
31801
31960
31989
31991
32007
31886
31956
32054
32063
32007
31964
31797
31807
31828
31943
31860
31775
31779
31637
31695
31879
31930
31938
31910
31836
31982
31980
31996
31893
31882
31868
31727
31693
31735
31760
31731
31719
31647
31623
31528
31407
31460
31571
31564
31580
31407
31464
31628
31687
31687
31708
31592
31594
31724
31817
31812
31780
31823
31671
31853
31877
31909
31832
31856
31965
31993
31981
31967
31862
31873
31959
32047
31989
31966
32031
32079
32095
32066
32051
32143
32199
32260
32364
32420
32394
32385
32356
32284
32188
32164
32255
32335
32332
32378
32407
32343
32407
32489
32676
32797
32834
32823
32758
32662
32725
32814
32726
32693
32639
32571
32530
32492
32465
32434
32355
32348
32340
32343
32351
32253
32383
32510
32484
32455
32332
32327
32436
32455
32367
32334
32262
32109
32104
32159
32164
32148
32137
32132
31957
31991
32063
32109
32060
32036
31959
31889
31689
31683
31746
31751
31751
31717
31570
31604
31775
31898
31886
31893
31949
31924
31933
31938
31784
31767
31831
31891
31823
31597
31591
31672
31645
31539
31472
31268
31272
31343
31460
31556
31536
31548
31417
31437
31501
31599
31537
31356
31394
31524
31548
31531
31418
31452
31578
31605
31561
31565
31415
31439
31622
31684
31804
31799
31757
31702
31855
31868
31831
31773
31602
31578
31561
31639
31655
31650
31653
31655
31572
31629
31787
31790
31817
31671
31668
31717
31781
31761
31726
31526
31534
31594
31620
31681
31614
31580
31622
31620
31479
31541
31631
31790
31822
31800
31780
31735
31648
31636
31698
31736
31605
31554
31521
31348
31373
31513
31567
31634
31652
31679
31702
31740
31629
31698
31733
31841
31828
31765
31676
31658
31542
31398
31358
31335
31388
31458
31516
31511
31524
31498
31413
31449
31538
31557
31624
31573
31543
31420
31424
31516
31527
31493
31460
31304
31365
31530
31632
31618
31678
31683
31606
31676
31761
31815
31822
31793
31726
31684
31670
31644
31486
31519
31617
31663
31641
31601
31551
31532
31465
31411
31415
31444
31494
31597
31671
31719
31634
31604
31624
31759
31711
31643
31650
31635
31655
31751
31812
31827
31843
31698
31766
31890
31965
31896
31852
31815
31690
31716
31797
31807
31799
31734
31572
31539
31556
31596
31604
31689
31650
31652
31496
31523
31620
31663
31732
31726
31748
31717
31610
31648
31788
31719
31703
31524
31652
31665
31636
31566
31516
31559
31679
31800
31853
31890
31840
31846
31860
31847
31706
31686
31748
31813
31809
31785
31700
31623
31842
31808
31670
31716
31841
31911
31903
31894
31744
31821
31895
31790
31751
31566
31628
31701
31711
31710
31673
31614
31647
31796
31935
31927
31997
31922
31991
32119
32184
32181
32197
32182
32068
32060
32087
32141
32164
32094
32079
32047
31943
31925
32024
32105
32149
32177
32169
32052
32113
32237
32127
32054
31853
31946
31941
31917
31767
31718
31786
31900
31837
31853
31708
31759
31861
31900
31883
31855
31772
31879
31860
31791
31580
31559
31637
31686
31636
31453
31501
31685
31645
31622
31567
31735
31815
31847
31853
31796
31779
31918
31956
31969
31943
31785
31806
31959
31884
31709
31684
31832
31821
31638
31679
31866
31943
31962
31857
31903
32052
32116
32132
31983
32039
32206
32162
32031
31921
31980
31951
31815
31522
31428
31428
31388
31254
31047
30987
31069
31020
30932
30841
30755
30634
30747
30979
31182
31415
31711
32039
32588
33332
34007
34676
35485
36264
37020
37876
38663
39239
39647
39982
40333
40682
40930
41053
41126
41169
41319
41283
41201
40952
40492
40015
39516
39014
38487
37924
37184
36476
35830
35215
34559
34022
33495
33159
32887
32660
32454
32178
31996
31653
31531
31419
31428
31356
31265
31179
30966
30898
30869
30871
30943
30990
30887
30823
30803
30767
30646
30574
30712
30773
30768
30772
30773
30748
30804
30877
30991
31127
31133
31076
31020
30980
30939
30727
30727
30737
30815
30887
30972
31066
31117
31178
31195
31192
31055
31080
31137
31257
31316
31277
31231
31186
31017
30975
31018
31123
31129
31122
31132
31074
31093
31123
31197
31302
31434
31530
31526
31354
31407
31478
31569
31479
31399
31199
31127
31087
31103
31159
31173
31118
31123
30971
31108
31194
31205
31187
31053
31172
31308
31354
31338
31322
31180
31319
31351
31335
31220
31332
31483
31473
31350
31421
31558
31705
31807
31900
31823
31898
32092
32141
32078
31869
31830
31837
31903
31819
31572
31558
31552
31692
31727
31715
31709
31621
31812
31961
31982
31835
31849
31922
31969
31874
31680
31717
31783
31721
31654
31511
31484
31622
31697
31687
31650
31557
31735
31803
31821
31794
31682
31647
31714
31777
31671
31643
31461
31473
31583
31585
31577
31586
31511
31545
31623
31845
31861
31883
31901
31751
31823
31962
31986
31962
31895
31767
31809
31967
31946
31931
31872
31747
31858
31935
31980
32049
32122
32131
32222
32405
32543
32497
32509
32453
32377
32186
32159
32111
32095
32139
32157
32133
32116
32111
32055
32141
32331
32380
32392
32395
32382
32297
32326
32391
32494
32500
32466
32407
32207
32155
32212
32293
32210
32227
32100
32193
32222
32353
32393
32385
32364
32228
32243
32307
32329
32342
32359
32279
32252
32085
32116
32279
32361
32357
32351
32255
32303
32453
32547
32486
32505
32526
32352
32355
32455
32480
32391
32337
32103
32077
32164
32212
32159
32216
32226
32245
32220
32263
32281
32181
32248
32335
32383
32309
32259
32075
32073
32156
32113
32074
32028
31995
31876
31934
32047
32119
32095
31959
32074
32146
32082
32071
31961
32087
32135
32060
31902
31863
32004
31903
31751
31790
31943
31904
31831
31780
31972
31943
31927
31791
31906
32003
31940
31927
31780
31788
31860
31824
31793
31700
31774
31928
32034
32048
32088
32194
32220
32183
32284
32409
32378
32326
32140
32198
32249
32166
32118
31962
31956
32100
32123
32122
31970
32040
32188
32254
32317
32330
32322
32188
32254
32324
32427
32455
32466
32527
32484
32436
32410
32249
32282
32397
32455
32447
32485
32490
32459
32475
32554
32673
32732
32677
32645
32460
32460
32591
32598
32524
32468
32375
32282
32336
32452
32373
32346
32297
32181
32293
32316
32330
32327
32213
32255
32277
32332
32364
32317
32292
32095
32074
32162
32237
32228
32154
32157
32300
32406
32402
32417
32322
32301
32403
32399
32351
32276
32029
31982
32052
32135
32031
31988
31833
31993
32081
32094
32097
32014
32182
32312
32337
32299
32326
32340
32187
32180
32270
32367
32323
32292
32279
32138
32135
32183
32293
32353
32332
32143
32165
32279
32169
31991
31956
32079
32003
31989
31960
31774
31794
31934
31951
31997
31983
31931
32046
32215
32281
32287
32327
32244
32260
32286
32369
32367
32328
32226
32245
32415
32380
32388
32404
32253
32308
32481
32560
32585
32586
32497
32565
32692
32757
32695
32686
32503
32557
32625
32592
32561
32437
32442
32564
32573
32532
32566
32535
32596
32636
32542
32642
32813
32874
32878
32879
32750
32775
32876
32925
32828
32743
32645
32451
32421
32466
32470
32466
32460
32429
32333
32314
32426
32441
32344
32309
32119
32175
32274
32341
32325
32334
32300
32227
32364
32484
32497
32510
32602
32572
32483
32551
32635
32655
32703
32655
32599
32564
32527
32492
32423
32332
32316
32290
32300
32423
32471
32481
32519
32590
32620
32504
32517
32623
32697
32727
32681
32668
32657
32647
32583
32444
32373
32335
32380
32403
32463
32547
32646
32711
32767
32796
32831
32835
32807
32762
32767
32888
32889
32824
32804
32763
32606
32688
32792
32816
32808
32775
32686
32653
32663
32678
32613
32430
32263
32108
31979
31719
31637
31661
31579
31460
31308
31199
31343
31575
31832
32059
32468
32821
33428
34092
34863
35562
36243
36841
37694
38518
39326
39960
40500
40932
41287
41782
42012
42271
42466
42556
42746
42810
42925
42757
42447
42065
41572
40988
40385
39783
39188
38543
37807
37047
36282
35544
34948
34461
34039
33596
33391
33214
33117
33026
32815
32668
32484
32255
32164
32092
32023
31979
31892
31749
31658
31751
31777
31685
31675
31550
31558
31647
31748
31782
31783
31732
31689
31642
31527
31476
31452
31440
31511
31612
31536
31482
31334
31346
31396
31484
31548
31598
31564
31589
31763
31839
31796
31761
31622
31648
31728
31744
31711
31676
31533
31509
31585
31655
31746
31732
31802
31700
31751
31908
31943
31997
31975
31968
31879
31801
31800
31898
31959
31991
31949
31922
31950
31956
31966
31909
31924
32028
32159
32206
32212
32229
32226
32200
32170
32068
32062
32129
32198
32102
32027
31903
32020
32116
32121
32122
32129
32132
32045
32103
32244
32263
32236
32206
32176
32028
32016
32078
32071
32050
31902
31905
32044
32051
32084
32099
32087
32007
32164
32263
32263
32251
32155
32214
32373
32309
32303
32129
32110
32199
32167
32135
32125
32069
32076
32247
32299
32290
32298
32324
32381
32399
32413
32305
32301
32367
32449
32437
32417
32399
32407
32332
32351
32474
32563
32582
32633
32579
32565
32582
32430
32437
32453
32580
32598
32635
32586
32554
32415
32385
32407
32498
32527
32574
32527
32551
32512
32463
32522
32597
32753
32795
32822
32813
32804
32751
32703
32810
32798
32806
32838
32887
32918
32957
32983
33080
33182
33221
33218
33169
33143
33159
33158
33153
33124
33015
32996
33016
33127
33114
33079
32967
32948
33031
33108
33158
33192
33174
33205
33215
33239
33212
33133
33140
33153
33248
33221
33187
33116
33011
32929
32825
32718
32683
32703
32838
32890
32876
32855
32838
32822
32678
32653
32692
32783
32739
32676
32649
32586
32478
32473
32519
32646
32664
32679
32703
32548
32589
32677
32759
32815
32772
32683
32596
32572
32662
32742
32638
32604
32447
32468
32471
32540
32676
32716
32748
32788
32823
32839
32869
32860
32794
32677
32727
32615
32591
32599
32684
32724
32676
32631
32575
32588
32542
32366
32368
32453
32519
32596
32526
32500
32471
32324
32351
32335
32396
32457
32513
32447
32423
32319
32425
32549
32598
32516
32590
32736
32663
32684
32553
32623
32761
32788
32799
32781
32617
32687
32711
32837
32858
32854
32781
32801
32807
32687
32724
32852
32935
32934
32909
32734
32743
32820
32923
32807
32738
32623
32616
32712
32700
32653
32483
32503
32619
32631
32651
32676
32563
32699
32834
32835
32833
32732
32732
32831
32861
32820
32785
32736
32586
32612
32733
32702
32676
32668
32535
32593
32703
32810
32757
32775
32754
32579
32566
32586
32655
32713
32668
32659
32647
32647
32533
32514
32645
32677
32703
32746
32788
32732
32716
32736
32658
32615
32647
32775
32791
32732
32706
32578
32625
32661
32653
32640
32652
32625
32560
32537
32568
32694
32679
32661
32545
32561
32655
32742
32698
32678
32681
32664
32471
32432
32433
32471
32516
32460
32449
32359
32373
32433
32517
32508
32461
32419
32373
32215
32230
32391
32388
32368
32212
32155
32126
32159
32272
32378
32348
32303
32263
32273
32274
32220
32252
32359
32323
32294
32412
32292
32245
32203
32165
32135
32117
32135
32231
32294
32345
32341
32367
32387
32388
32396
32361
32320
32316
32356
32406
32426
32314
32293
32255
32200
32071
32091
32202
32287
32286
32308
32326
32277
32383
32519
32658
32758
32758
32735
32730
32743
32749
32743
32727
32692
32557
32599
32683
32759
32852
32831
32826
32756
32786
32846
32965
33092
33143
33141
33148
32998
33031
33037
33084
33164
33148
33140
33062
32983
33007
33058
33056
33020
33038
32975
32849
32852
32974
33012
32991
32927
32726
32740
32746
32852
32828
32816
32749
32669
32671
32655
32647
32668
32681
32645
32823
32834
32809
32720
32805
32836
32792
32750
32742
32768
32722
32708
32628
32604
32807
32830
32837
32862
32839
32732
32769
32846
32876
32840
32855
32846
32835
32821
32786
32713
32734
32756
32877
32937
32895
32919
32775
32764
32774
32763
32745
32757
32870
32972
32976
33001
33036
33036
32874
32937
32910
32902
33031
33062
33098
33119
33122
33044
32967
32911
32884
32895
32823
32676
32486
32325
32118
31887
31765
31656
31653
31638
31605
31604
31647
31774
31848
32191
32585
33154
33754
34540
35252
35919
36523
37316
38182
38940
39655
40338
41092
41580
42066
42471
42799
43199
43501
43700
43633
43588
43503
43596
43562
43468
42980
42313
41702
41085
40425
39751
39018
38268
37472
36752
36121
35508
35047
34663
34316
33932
33672
33492
33255
32951
32767
32428
32307
32242
32228
32215
32119
32055
31885
31843
31884
31971
31871
31772
31668
31727
31844
31919
31975
31927
31904
31751
31830
31924
31809
31815
31660
31676
31824
31892
31892
31898
31797
31842
31966
32069
32196
32164
31990
32049
32181
32263
32231
32113
32128
32294
32263
32212
32193
32076
32079
32166
32244
32255
32223
32084
32103
32215
32250
32218
32208
32053
32173
32276
32263
32236
32223
32192
32092
32119
32244
32252
32220
32203
32135
32269
32343
32346
32239
32228
32350
32421
32350
32317
32122
32125
32244
32263
32245
32148
32199
32334
32461
32544
32621
32579
32559
32429
32422
32417
32548
32613
32556
32510
32450
32310
32350
32514
32542
32557
32554
32573
32449
32500
32596
32636
32662
32647
32621
32508
32471
32580
32580
32543
32358
32349
32372
32437
32436
32402
32388
32359
32284
32391
32559
32543
32545
32448
32468
32556
32601
32580
32537
32407
32415
32550
32486
32492
32475
32368
32502
32615
32623
32631
32610
32534
32551
32621
32687
32683
32594
32537
32485
32364
32367
32483
32499
32493
32488
32343
32390
32517
32675
32687
32709
32736
32561
32619
32719
32734
32681
32614
32748
32794
32775
32685
32828
32895
32896
32738
32813
32944
33044
33148
33139
33152
32996
33026
33102
33195
33194
33126
33073
33210
33196
33170
33126
33003
33036
33127
33159
33199
33063
33133
33263
33287
33268
33119
33098
33123
33124
33108
33047
33003
32837
32903
32964
32885
32839
32738
32879
32948
32911
32798
32783
32928
32941
32894
32892
32732
32733
32841
32871
32862
32862
32848
32743
32751
32804
32903
32796
32775
32652
32737
32881
32870
32702
32749
32891
32924
32915
32741
32722
32810
32751
32714
32566
32575
32687
32617
32645
32633
32551
32620
32743
32775
32767
32775
32815
32784
32740
32671
32646
32630
32784
32829
32774
32718
32518
32539
32499
32623
32652
32655
32540
32661
32759
32702
32671
32671
32639
32567
32628
32727
32743
32697
32519
32628
32672
32611
32621
32495
32555
32628
32722
32722
32711
32713
32683
32662
32608
32542
32543
32564
32546
32599
32646
32697
32679
32652
32644
32673
32679
32535
32583
32589
32663
32796
32864
32903
32839
32800
32716
32582
32594
32655
32687
32655
32537
32544
32596
32686
32730
32788
32753
32726
32591
32579
32730
32756
32726
32580
32692
32725
32668
32645
32634
32576
32613
32815
32903
32860
32859
32743
32936
32958
32932
32832
32802
32913
32965
32932
32911
32884
32743
32831
32942
32932
32775
32850
33015
32962
32822
32868
32976
33052
33068
33027
32871
32827
32794
32828
32956
32842
32845
32841
32710
32731
32840
32948
32946
32967
32901
32902
32940
32871
32907
32957
33028
33067
32986
32989
32986
32932
32828
32807
32800
32807
32822
32879
32967
32996
33031
32986
32985
32957
32884
32766
32748
32716
32695
32682
32646
32738
32799
32736
32712
32742
32749
32654
32715
32785
32934
32969
33039
33042
33060
33070
33077
33073
32956
32986
32969
32919
32937
33007
33056
33096
33072
33116
33124
33083
33097
33159
33246
33262
33274
33129
33157
33201
33287
33265
33260
33190
33172
33139
33140
33120
33055
33159
33287
33284
33242
33246
33071
33087
33173
33213
33124
32944
32950
33019
33095
33156
33116
33143
32989
33047
33166
33263
33327
33340
33318
33252
33258
33310
33377
33334
33332
33276
33137
33193
33265
33222
33193
33133
33024
33187
33241
33218
33228
33255
33171
33224
33286
33279
33261
33229
33090
33129
33103
33232
33277
33321
33286
33253
33269
33155
33218
33239
33308
33455
33491
33516
33519
33529
33524
33428
33478
33559
33530
33490
33330
33399
33481
33458
33464
33487
33423
33489
33643
33644
33673
33666
33551
33575
33669
33702
33692
33674
33506
33530
33623
33655
33620
33615
33615
33589
33484
33497
33535
33655
33732
33799
33772
33628
33696
33783
33694
33649
33480
33485
33543
33549
33532
33449
33415
33439
33501
33574
33508
33543
33461
33576
33687
33716
33702
33546
33593
33708
33743
33692
33543
33548
33612
33655
33663
33590
33551
33671
33759
33725
33721
33745
33593
33602
33628
33652
33654
33637
33606
33507
33396
33468
33430
33356
33255
33051
33095
33087
32980
32837
32555
32479
32404
32397
32319
32212
32145
31889
31832
31751
31814
31944
32105
32346
32654
32972
33517
34194
34890
35705
36454
37243
38011
38805
39612
40446
41215
41878
42247
42636
42983
43388
43716
43959
43863
43753
43783
43847
43816
43758
43321
42755
42087
41341
40701
40001
39284
38543
37890
37156
36359
35773
35268
34693
34361
34050
33759
33558
33380
33137
32962
32689
32519
32324
32158
32002
31842
31677
31510
31263
31172
31031
30995
31020
31029
30959
30789
30806
30810
30822
30824
30852
30967
31082
31091
31126
31148
31063
31066
31045
31097
31085
31132
31213
31303
31269
31247
31253
31113
31151
31208
31223
31348
31410
31434
31479
31509
31484
31468
31417
31200
31239
31193
31196
31192
31234
31372
31482
31469
31450
31298
31303
31317
31316
31315
31386
31439
31457
31412
31335
31199
31178
31158
31130
31158
31159
31211
31207
31172
31201
31058
31144
31346
31378
31276
31235
31404
31444
31428
31273
31305
31393
31375
31423
31374
31370
31302
31434
31588
31529
31509
31348
31485
31585
31586
31580
31581
31556
31403
31394
31534
31559
31506
31332
31366
31471
31490
31477
31303
31335
31490
31615
31601
31631
31629
31473
31559
31737
31726
31688
31558
31604
31727
31739
31729
31751
31751
31607
31627
31784
31863
31840
31861
31885
31879
31876
31777
31777
31793
31861
31846
31831
31661
31685
31750
31822
31840
31884
31744
31827
32007
32095
32041
32070
32051
31935
31955
32066
32139
32141
32125
32007
31968
31998
32166
32282
32322
32345
32321
32407
32563
32684
32694
32518
32572
32610
32719
32761
32783
32775
32732
32626
32748
32826
32806
32789
32623
32665
32823
32826
32806
32788
32714
32747
32877
32939
32951
32910
32831
32954
32998
32972
32934
32948
32772
32846
32960
33007
32999
33017
33056
33031
32935
32890
32898
32939
32935
32843
32820
32660
32676
32763
32743
32717
32653
32578
32607
32754
32810
32770
32805
32803
32793
32749
32621
32615
32614
32606
32594
32610
32670
32666
32660
32654
32624
32578
32615
32761
32828
32918
32917
32934
32951
32923
32800
32799
32913
32942
32903
32885
32750
32772
32871
32871
32855
32854
32737
32799
32870
33007
33068
33069
32978
32980
32965
33057
33126
33047
32990
32812
32828
32890
32911
32911
32875
32863
32727
32748
32898
32959
32916
32903
32870
32858
32718
32710
32820
32893
32900
32910
32742
32759
32788
32895
32864
32868
32727
32871
32954
32935
32963
32961
32995
32964
32853
32876
32997
33061
32970
32967
32907
32775
32859
32939
33028
33012
33023
33031
33061
33055
33031
33015
33028
33015
33004
32845
32879
32860
32810
32835
32878
32899
32902
32852
32836
32817
32799
32770
32775
32829
32869
32894
32871
32868
32869
32899
32890
32889
32892
32887
32911
32908
32768
32796
32808
32948
33031
33052
33134
33167
33181
33188
33228
33260
33295
33282
33252
33230
33178
33159
33143
33123
33044
32887
32900
32973
33084
33144
33179
33206
33086
33103
33110
33178
33242
33271
33313
33270
33226
33140
33037
32965
32946
32980
33056
33109
33140
33158
33140
33127
33140
33116
32999
33041
33108
33169
33175
33182
33159
33114
32975
33039
33138
33246
33287
33373
33359
33409
33447
33325
33446
33557
33594
33558
33555
33477
33423
33413
33475
33555
33529
33500
33532
33405
33482
33642
33767
33778
33799
33815
33748
33743
33834
33970
34028
33987
33990
33836
33847
33974
33999
33987
33961
33908
33920
33923
33893
33862
33850
33921
34069
34144
34182
34166
34235
34217
34191
34177
34124
34016
34007
34007
34084
34141
34154
34137
34124
34107
34090
34039
33951
33980
34052
34040
34036
33996
33923
33893
33705
33693
33648
33592
33600
33706
33751
33762
33765
33767
33740
33746
33763
33719
33613
33588
33575
33618
33757
33777
33751
33708
33552
33555
33636
33697
33731
33724
33744
33737
33663
33701
33719
33769
33815
33944
34052
34105
34108
34080
34095
34086
34122
34101
33973
34000
34031
34020
34023
34040
34119
34134
34158
34110
34062
34050
34013
33977
33970
33959
33940
33916
33856
33770
33725
33789
33893
33927
33938
33927
33933
33919
33847
33870
33845
33863
33908
33831
33759
33671
33533
33557
33591
33598
33558
33595
33633
33520
33607
33650
33692
33773
33807
33789
33780
33708
33671
33649
33640
33700
33757
33735
33695
33695
33733
33758
33785
33799
33818
33820
33815
33726
33734
33746
33775
33860
33824
33788
33773
33650
33668
33702
33708
33729
33825
33924
33983
33982
34009
33984
34001
33932
33878
33797
33679
33518
33247
33146
33025
32858
32720
32636
32535
32439
32452
32437
32394
32356
32416
32604
32847
33164
33541
34023
34428
35071
35720
36409
37155
37982
38759
39511
40259
40855
41394
41837
42244
42567
42884
43119
43207
43339
43378
43558
43611
43566
43356
42799
42218
41652
41062
40516
39860
39034
38324
37663
36980
36146
35647
35208
34815
34353
34199
33960
33796
33559
33247
32997
32983
32879
32774
32711
32619
32452
32399
32466
32464
32431
32374
32306
32105
32119
32126
32215
32311
32276
32255
32086
32082
32198
32191
32116
31973
31972
31981
32041
32085
32186
32232
32213
32199
32246
32261
32155
32220
32224
32297
32318
32333
32273
32222
32161
32097
31969
31953
32029
32129
32209
32202
32180
32227
32244
32153
32186
32335
32415
32489
32535
32532
32527
32540
32391
32442
32418
32575
32663
32644
32635
32474
32567
32645
32702
32744
32780
32805
32828
32835
32801
32735
32750
32789
32773
32829
32877
32886
32931
33052
33108
33063
33077
32965
32991
33012
33096
33166
33215
33236
33252
33285
33315
33273
33223
33287
33391
33490
33483
33481
33516
33373
33429
33447
33515
33623
33656
33614
33597
33492
33519
33470
33566
33603
33583
33639
33540
33493
33525
33417
33489
33565
33705
33741
33785
33796
33828
33828
33783
33764
33754
33818
33889
33897
33893
33927
33876
33849
33687
33711
33742
33799
33856
33916
33898
33884
33903
33895
33868
33799
33813
33813
33895
33895
33992
34051
34132
34093
34101
34108
34140
34144
34187
34074
34114
34165
34243
34342
34391
34396
34394
34394
34410
34375
34204
34236
34209
34258
34330
34343
34289
34311
34287
34303
34247
34274
34452
34502
34531
34548
34548
34544
34506
34484
34436
34383
34375
34340
34352
34432
34469
34513
34480
34529
34567
34625
34663
34700
34731
34624
34673
34751
34763
34747
34663
34572
34524
34413
34456
34538
34523
34420
34396
34343
34247
34214
34198
34197
34146
34127
34065
34028
33996
33975
33895
33716
33718
33827
33845
33779
33693
33685
33559
33591
33621
33726
33775
33780
33785
33764
33724
33676
33625
33604
33594
33510
33445
33399
33338
33313
33296
33297
33185
33233
33252
33280
33303
33277
33292
33287
33349
33324
33311
33214
33173
33136
33089
32991
32999
32994
33031
33147
33221
33311
33326
33340
33309
33214
33236
33325
33356
33302
33238
33151
33119
33094
33079
33023
32903
32950
32977
33078
33151
33180
33183
33227
33303
33297
33316
33304
33257
33217
33247
33308
33351
33318
33263
33238
33209
33025
33074
33156
33183
33143
33140
33029
33055
33055
33143
33183
33179
33161
33182
33144
33036
33039
33159
33243
33243
33261
33287
33311
33326
33276
33336
33486
33541
33527
33550
33399
33412
33366
33375
33465
33445
33391
33317
33156
33154
33150
33168
33153
33205
33292
33338
33294
33311
33319
33375
33415
33446
33382
33389
33313
33269
33204
33061
32996
32985
33039
33070
33108
33100
33180
33249
33173
33244
33300
33383
33513
33481
33370
33234
33170
33241
33132
32996
32985
33004
33060
33082
33061
32973
33017
33118
33182
33176
33177
33212
33095
33141
33174
33252
33287
33299
33253
33216
33199
33220
33177
33191
33319
33426
33462
33489
33463
33446
33367
33356
33374
33233
33253
33271
33249
33287
33367
33276
33207
33047
32979
32994
33099
33164
33174
33179
33055
32994
33061
33037
32944
32898
32838
32676
32655
32657
32720
32767
32798
32741
32695
32703
32550
32599
32692
32838
32874
32915
32919
32900
32709
32725
32773
32879
32933
32868
32896
32948
32926
32829
32836
32886
32966
32983
33037
33064
33058
33068
33052
32958
32935
33023
33111
33149
33062
33056
32879
32878
32903
33014
33055
33031
33026
33004
32921
32945
33116
33148
33101
32922
32903
33022
33045
32976
32805
32801
32742
32704
32796
32836
32847
32836
32823
32772
32843
32959
33125
33183
33188
33169
33047
33103
33214
33100
33063
32889
32892
32973
33012
32957
32943
32773
32827
32963
33039
32984
32982
32948
32789
32775
32836
32831
32852
32787
32775
32750
32624
32599
32715
32820
32775
32857
32922
32980
32992
32940
32965
33087
33127
33180
33141
33122
33096
33009
32995
33001
33060
33143
33210
33191
33151
33177
33154
33055
33131
33261
33227
33214
33166
33077
33072
33220
33270
33230
33200
33203
33184
33191
33048
33087
33185
33196
33183
33223
33190
33142
33039
32935
32887
32879
32964
32952
32893
32678
32670
32769
32707
32662
32565
32437
32456
32583
32684
32644
32665
32620
32519
32511
32578
32646
32638
32612
32620
32439
32466
32456
32519
32572
32514
32502
32508
32519
32498
32460
32339
32386
32477
32582
32565
32563
32548
32436
32495
32615
32559
32522
32465
32359
32243
32287
32351
32371
32334
32261
32141
31963
31826
31791
31759
31695
31564
31460
31343
31263
31172
30934
30837
30879
31028
31268
31527
31842
32321
32877
33470
34065
34687
35388
36166
36967
37700
38487
39188
39788
40320
40873
41254
41556
41837
42102
42215
42194
42228
42301
42399
42431
42247
41908
41354
40815
40264
39670
38949
38199
37405
36656
35927
35245
34590
34038
33566
33109
32866
32741
32575
32287
32076
31846
31618
31540
31487
31428
31322
31207
30933
30891
30929
30886
30877
30775
30655
30621
30615
30469
30519
30665
30782
30869
30877
30855
30836
30863
30889
31033
31071
30997
30966
31020
31010
30895
30847
30969
31010
31068
31079
31087
31092
31095
30998
30946
30914
31033
31055
31111
31043
31006
30949
30791
30765
30756
30810
30854
30911
30960
31036
31125
31192
31274
31339
31392
31455
31537
31541
31592
31635
31632
31535
31531
31573
31684
31768
31818
31839
31839
31861
31864
31886
31742
31826
31986
32096
32095
32116
32103
32077
32036
31989
31982
31991
32037
32207
32318
32311
32345
32421
32438
32345
32342
32446
32503
32558
32585
32580
32538
32417
32409
32433
32490
32526
32476
32487
32535
32526
32463
32581
32660
32708
32714
32766
32759
32716
32681
32519
32569
32582
32695
32740
32807
32847
32834
32746
32749
32615
32642
32647
32668
32726
32797
32937
33024
33069
33073
33039
32859
32901
32996
33023
32990
32912
32898
32855
32689
32790
32925
33133
33268
33383
33455
33358
33455
33535
33583
33679
33739
33711
33621
33508
33401
33222
33169
33271
33330
33396
33415
33348
33433
33595
33670
33759
33738
33755
33724
33620
33638
33634
33612
33612
33609
33591
33492
33425
33445
33557
33625
33562
33645
33654
33692
33662
33567
33579
33527
33494
33497
33527
33553
33501
33447
33493
33479
33476
33429
33426
33493
33566
33631
33687
33703
33732
33705
33674
33580
33383
33343
33277
33200
33140
33044
32981
32922
32960
32993
33109
33223
33350
33475
33572
33574
33588
33522
33497
33485
33368
33222
33174
33114
32980
32902
32839
32770
32787
32958
33050
33173
33254
33303
33339
33374
33369
33351
33324
33322
33292
33231
33039
33019
32963
32922
32933
32868
32783
32797
32865
32999
33073
33150
33181
33207
33124
33145
33148
33215
33261
33287
33208
33104
33092
33053
33004
32857
32879
32897
32948
33028
33132
33167
33193
33255
33269
33285
33381
33333
33326
33252
33185
33120
33060
33083
33001
32911
32847
32839
32786
32889
33108
33138
33139
32991
32990
33100
33130
33140
33111
32916
32941
32971
33037
32983
32949
32775
32785
32946
33082
33151
33243
33287
33234
33247
33260
33340
33382
33407
33387
33247
33206
33119
32916
32839
32844
32910
32894
32911
32951
32955
33004
33060
33074
33118
33142
33140
33038
32929
32839
32836
32882
32820
32738
32708
32708
32526
32549
32660
32859
32968
33073
33158
33092
33148
33280
33372
33337
33283
33276
33191
33036
33044
33034
32989
32956
32885
32837
32856
32915
32879
32996
33085
33209
33415
33414
33370
33359
33168
33164
33111
33094
33135
33137
33060
33010
32933
32895
32804
32903
33018
33191
33302
33359
33343
33327
33332
33281
33255
33155
33096
33063
32995
32937
32942
32895
32943
32989
33046
33133
33231
33306
33382
33464
33514
33470
33359
33370
33351
33328
33281
33327
33324
33327
33309
33254
33244
33182
33222
33253
33247
33284
33350
33457
33517
33527
33558
33509
33447
33375
33186
33204
33210
33280
33266
33205
33075
33108
33213
33320
33356
33441
33330
33381
33487
33569
33592
33601
33567
33490
33325
33359
33412
33254
33175
33031
33093
33234
33287
33372
33435
33360
33420
33479
33623
33644
33607
33605
33598
33415
33358
33270
33266
33339
33339
33339
33343
33187
33263
33383
33532
33740
33773
33839
33764
33862
33940
33975
33980
33970
33885
33941
33992
33847
33588
33513
33556
33572
33506
33420
33604
33724
33710
33780
33713
33791
33948
33991
33994
33983
33807
33839
33775
33788
33806
33772
33729
33653
33660
33652
33613
33685
33884
33989
34023
34063
33976
33976
33947
33926
33839
33765
33711
33653
33697
33647
33661
33583
33655
33614
33764
33911
34010
34175
34240
34321
34335
34361
34215
34285
34267
34300
34339
34269
34199
34204
34039
34078
34171
34327
34415
34492
34518
34522
34596
34600
34614
34701
34777
34719
34759
34724
34527
34476
34548
34576
34496
34410
34358
34478
34630
34645
34695
34711
34620
34708
34837
34866
34831
34773
34612
34622
34619
34688
34684
34574
34479
34398
34383
34387
34382
34284
34323
34390
34484
34536
34486
34487
34360
34359
34306
34310
34395
34371
34258
34204
34031
34023
34036
34122
34294
34391
34460
34486
34471
34397
34380
34407
34379
34294
34274
34121
34143
34218
34150
34091
34031
33975
34037
34023
34119
34365
34449
34498
34492
34406
34444
34506
34628
34666
34612
34534
34355
34323
34393
34244
34157
33914
33846
33850
33881
33844
33709
33618
33487
33351
33186
33081
33005
33021
33119
33223
33311
33559
33782
34311
34842
35488
36214
37061
37876
38676
39504
40311
41113
42020
42762
43116
43584
43985
44330
44564
44756
44892
44977
45055
45139
45399
45458
45316
44976
44519
43996
43388
42735
42037
41314
40550
39708
38807
37860
37068
36412
35866
35407
34927
34526
34229
33949
33781
33641
33540
33448
33263
33167
33270
33198
33213
33135
32948
32858
32796
32670
32652
32516
32679
32620
32637
32733
32687
32983
32919
32974
33154
33151
32998
33151
33150
33143
33083
32937
32844
32820
32847
32852
32712
32614
32566
32431
32492
32619
32814
32893
32924
32903
32850
32773
32805
32889
32876
32836
32759
32637
32623
32643
32661
32647
32642
32642
32620
32665
32846
32981
32949
32959
32812
32834
32910
32959
32980
32961
32764
32765
32769
32830
32833
32741
32799
32881
32853
33001
33127
33180
33287
33464
33522
33554
33518
33439
33231
33211
33165
33146
33152
33175
33157
33116
33060
33079
33081
32956
33041
33188
33276
33273
33304
33152
33166
33159
33172
33118
33118
32970
32925
32831
32676
32654
32780
32829
32916
32989
32990
32980
32858
32860
32868
32948
33012
32991
32928
32855
32805
32639
32606
32593
32664
32767
32719
32691
32631
32706
32881
32916
32970
32991
33045
33061
33031
33004
32975
32968
32901
32738
32639
32566
32487
32508
32548
32623
32711
32756
32791
32811
32697
32788
32801
32903
32949
32869
32812
32788
32735
32679
32478
32484
32482
32530
32599
32669
32759
32836
32908
32962
33015
33059
32999
33028
33031
33063
33132
33103
33015
32977
32898
32758
32721
32823
32860
32959
32962
33017
33082
33046
33088
33254
33319
33268
33255
33094
33100
33208
33217
33151
33087
32863
32828
32763
32709
32756
32881
32965
32964
32988
32988
32929
32796
32769
32753
32671
32655
32624
32559
32479
32460
32348
32286
32245
32085
32081
32061
32190
32327
32437
32402
32449
32471
32465
32324
32303
32279
32263
32202
32238
32197
32214
32148
32070
32016
31943
31930
31966
32047
32177
32261
32208
32167
32149
32052
31860
31804
31751
31721
31674
31631
31539
31511
31461
31461
31457
31458
31381
31481
31489
31559
31594
31727
31684
31630
31596
31407
31380
31412
31369
31326
31299
31239
31220
31190
31221
31095
31207
31239
31311
31382
31460
31518
31540
31606
31580
31461
31307
31329
31309
31287
31292
31218
31141
31173
31215
31247
31246
31309
31343
31445
31488
31492
31479
31462
31348
31285
31223
31133
31009
30940
30743
30698
30800
30907
30952
30974
31051
31069
30956
30974
31076
31119
31124
31124
31103
31068
30978
30841
30778
30855
30903
30806
30743
30542
30618
30806
30956
31073
31103
31126
31121
31069
30959
30988
30951
30929
30937
30967
30936
30887
30900
30896
30878
30884
30868
30875
30962
31063
31188
31334
31393
31425
31435
31427
31372
31271
31095
31018
30900
30839
30854
30749
30719
30697
30643
30744
30800
30862
30948
30975
30954
30941
30885
30859
30820
30804
30805
30756
30607
30540
30577
30687
30650
30633
30655
30615
30741
30862
30959
30975
30972
30956
30922
30855
30750
30698
30518
30497
30484
30478
30558
30567
30557
30553
30621
30724
30901
30965
30978
31029
31025
30860
30898
30886
30846
30868
30898
30936
30948
30889
30887
30836
30671
30695
30934
31111
31204
31239
31326
31332
31335
31191
31196
31236
31292
31290
31199
31041
30961
30888
30801
30758
30823
30920
30982
31047
30975
31046
31111
31152
31189
31230
31287
31224
31133
31092
31031
30918
30666
30572
30512
30495
30509
30575
30647
30727
30727
30799
31007
31119
31146
31193
31193
31028
31055
31110
31172
31170
31095
31050
30992
30806
30806
30927
31080
31158
31239
31311
31277
31292
31367
31494
31509
31461
31239
31237
31158
31220
31183
31092
30988
30787
30695
30698
30724
30838
30980
31116
31170
31149
31103
31272
31367
31276
31229
31196
30993
30937
31011
31009
30997
30946
30855
30886
31081
31266
31330
31455
31540
31456
31479
31551
31591
31663
31679
31680
31660
31495
31367
31288
31365
31318
31266
31273
31374
31470
31548
31488
31559
31710
31772
31798
31783
31824
31812
31623
31553
31622
31643
31544
31471
31330
31452
31530
31582
31635
31717
31725
31657
31718
31831
31847
31780
31604
31503
31450
31487
31422
31351
31215
31087
31005
30931
30961
31092
31239
31470
31613
31743
31789
31823
31813
31796
31748
31707
31647
31556
31454
31235
31205
31183
31231
31239
31317
31356
31444
31455
31572
31640
31697
31759
31759
31780
31772
31673
31589
31383
31340
31263
31223
31157
31028
31041
30978
30939
30974
31012
30964
30861
30785
30713
30627
30549
30434
30283
30204
30155
30057
30167
30424
30714
31103
31534
32119
32783
33511
34324
35204
36153
37044
37807
38436
38956
39382
39802
40123
40404
40572
40628
40660
40708
40740
40682
40541
40292
39958
39572
39104
38564
38056
37565
36992
36249
35493
34743
34127
33711
33412
32993
32554
32216
31794
31604
31476
31373
31257
31073
31047
31111
31092
31008
30942
30855
30721
30676
30705
30727
30652
30563
30476
30399
30209
30123
30162
30230
30413
30575
30664
30727
30775
30858
30855
30847
30808
30776
30762
30687
30615
30524
30327
30292
30332
30349
30393
30527
30644
30756
30804
30855
30900
30908
30913
30874
30813
30612
30556
30503
30435
30379
30455
30463
30380
30420
30494
30415
30543
30639
30781
30885
30991
31100
31087
31046
30930
30799
30804
30871
30929
30872
30775
30700
30620
30394
30471
30609
30701
30870
30930
30996
30943
30887
31036
31079
31031
30868
30767
30724
30761
30802
30727
30674
30629
30580
30566
30685
30931
31094
31137
31181
31100
31204
31317
31398
31428
31448
31353
31320
31234
31058
30968
30971
30957
30988
31017
31068
31133
31267
31304
31323
31299
31319
31447
31462
31364
31250
31106
31135
31188
31142
31100
31008
30839
30827
30957
31180
31298
31391
31356
31425
31521
31671
31721
31663
31587
31509
31389
31145
31097
31103
31102
31047
31015
30996
30926
31044
31238
31407
31465
31560
31569
31626
31704
31718
31535
31569
31691
31697
31633
31572
31405
31360
31466
31527
31524
31658
31709
31874
32111
32239
32297
32306
32198
32257
32348
32340
32358
32300
32238
32033
32007
31982
32066
32122
32228
32296
32351
32461
32590
32628
32623
32650
32817
32903
32850
32829
32589
32551
32573
32541
32481
32404
32316
32236
32350
32493
32567
32611
32647
32481
32517
32567
32610
32568
32480
32412
32309
32079
32016
32006
32023
31995
31853
31839
31855
31732
31777
31799
31841
31938
31941
31967
31914
31882
31802
31748
31654
31516
31413
31429
31495
31523
31503
31499
31495
31509
31530
31527
31619
31640
31687
31716
31734
31764
31782
31736
31727
31687
31628
31479
31489
31500
31524
31524
31535
31575
31613
31772
31805
31857
31846
31879
31869
31823
31832
31785
31777
31717
31625
31609
31664
31714
31660
31647
31629
31556
31620
31821
31879
31899
31882
31685
31689
31750
31802
31814
31827
31771
31766
31748
31575
31621
31690
31876
31923
31929
32063
32119
32156
32122
32058
32007
31847
31884
31934
31962
32015
31982
31966
31807
31812
31860
31874
31954
32007
32041
32076
32151
32177
32007
32075
32098
32131
32260
32228
32217
32046
32102
32134
32140
32159
32173
32198
32167
32216
32350
32442
32439
32463
32303
32333
32423
32452
32484
32466
32427
32311
32322
32389
32412
32447
32375
32417
32277
32365
32606
32540
32615
32677
32759
32775
32747
32722
32597
32531
32600
32628
32526
32503
32410
32263
32274
32352
32383
32381
32454
32500
32550
32535
32563
32589
32621
32629
32604
32551
32479
32486
32491
32483
32463
32431
32516
32527
32580
32539
32524
32516
32519
32501
32554
32638
32719
32717
32748
32708
32671
32606
32431
32283
32324
32340
32295
32286
32239
32254
32239
32175
32214
32342
32415
32407
32434
32359
32311
32437
32505
32511
32550
32543
32519
32375
32359
32444
32556
32573
32562
32454
32518
32615
32598
32565
32522
32481
32487
32635
32494
32564
32655
32583
32620
32462
32471
32481
32570
32637
32637
32637
32620
32478
32487
32588
32726
32655
32575
32558
32495
32391
32420
32429
32420
32415
32366
32231
32258
32391
32498
32526
32585
32588
32644
32652
32548
32583
32677
32719
32636
32457
32477
32591
32598
32597
32647
32669
32663
32567
32685
32827
32933
32960
32991
32975
32788
32772
32814
32878
32911
32862
32773
32715
32573
32559
32663
32807
32910
32964
33016
32999
33141
33243
33324
33260
33286
33255
33167
33047
33044
33150
33149
33125
33090
33063
32983
32884
32927
33084
33140
33133
33167
33191
33198
33076
33124
33139
33232
33287
33190
33119
32996
33021
33126
33205
33151
33183
32986
33048
33154
33220
33260
33230
33252
33237
33239
33287
33199
33156
33113
32919
32898
32853
32927
32940
32916
32871
32893
32901
32903
32796
32853
32892
32967
33046
33154
33132
33097
33027
32927
32823
32711
32569
32382
32223
32016
31845
31716
31719
31703
31623
31603
31561
31549
31499
31529
31623
31763
31951
32215
32574
33061
33571
34007
34662
35325
36073
36860
37663
38340
39099
39751
40292
40763
41065
41375
41616
41791
41918
41954
41931
41873
41831
41674
41335
40928
40414
39877
39303
38791
38260
37626
36908
36129
35409
34868
34449
34087
33666
33477
33260
33015
32784
32494
32311
32237
32151
32005
31943
31892
31899
31821
31769
31732
31724
31723
31695
31654
31601
31570
31519
31350
31361
31488
31421
31296
31357
31466
31473
31565
31647
31655
31628
31679
31519
31559
31549
31591
31566
31489
31444
31399
31281
31261
31212
31143
31035
31046
31070
31127
31203
31272
31348
31364
31348
31391
31407
31306
31354
31444
31583
31609
31614
31663
31631
31641
31643
31694
31719
31685
31813
31946
32031
32092
32126
32175
32263
32318
32295
32196
32102
32053
32027
32007
31788
31791
31751
31734
31727
31771
31892
32001
32092
32091
32103
32092
32060
31988
31915
31806
31696
31635
31654
31765
31758
31743
31687
31703
31735
31775
31687
31780
31852
31925
31992
32028
32038
32122
32156
32170
32174
32159
32134
32100
31982
31910
31879
31972
32025
32087
32181
32291
32319
32366
32446
32471
32504
32554
32532
32518
32454
32363
32254
32186
32191
32254
32287
32310
32373
32415
32356
32403
32427
32488
32587
32634
32631
32542
32519
32465
32300
32278
32225
32172
32199
32233
32247
32167
32117
32116
31998
32083
32134
32156
32154
32212
32271
32364
32364
32420
32397
32354
32375
32405
32415
32369
32378
32379
32276
32397
32518
32632
32739
32842
32935
33001
33007
33007
33004
32869
32829
32783
32868
32903
32879
32828
32833
32852
32919
33028
33133
33207
33265
33271
33270
33210
33162
33158
33141
33058
32991
32892
32797
32696
32588
32505
32418
32367
32404
32475
32529
32476
32498
32531
32533
32659
32540
32515
32470
32357
32302
32238
32174
32084
31993
31892
31918
31892
31826
31815
31943
31997
32066
32092
32111
32097
32117
32118
32119
32110
32100
32062
31991
31876
31860
31813
31751
31679
31667
31622
31646
31711
31741
31776
31751
31781
31772
31740
31711
31680
31678
31735
31743
31751
31724
31767
31784
31801
31788
31849
31913
31877
31869
31855
31811
31696
31721
31717
31809
31788
31705
31662
31623
31607
31614
31570
31666
31666
31702
31716
31685
31657
31644
31688
31684
31568
31567
31623
31740
31782
31716
31717
31686
31544
31541
31559
31688
31714
31738
31749
31783
31672
31724
31791
31863
31929
32068
32113
32071
32007
31980
31851
31846
31913
31975
32013
32015
32030
31996
31936
31975
32082
32114
32077
32039
32096
32101
31970
32034
32087
32206
32271
32284
32286
32087
32095
32102
32178
32258
32251
32207
32209
32157
32050
32063
32153
32188
32166
32174
32081
32058
32135
32231
32261
32316
32389
32484
32435
32465
32542
32581
32556
32452
32468
32527
32551
32596
32593
32654
32630
32590
32566
32534
32504
32463
32422
32252
32217
32261
32221
32269
32259
32258
32249
32263
32251
32175
32121
32111
32128
32197
32253
32263
32317
32246
32326
32380
32245
32302
32333
32349
32421
32508
32549
32577
32582
32585
32493
32524
32545
32579
32703
32723
32743
32657
32692
32712
32549
32584
32636
32742
32820
32812
32775
32731
32692
32734
32775
32815
32697
32673
32439
32402
32417
32447
32513
32538
32589
32649
32749
32786
32836
32846
32815
32692
32764
32791
32819
32945
33039
33054
33031
32998
32985
32851
32919
33001
33022
33063
33095
33044
33073
33222
33381
33316
33359
33268
33281
33436
33447
33464
33407
33375
33332
33239
33252
33372
33389
33332
33353
33326
33255
33295
33410
33516
33532
33483
33367
33415
33534
33540
33530
33480
33357
33364
33350
33412
33437
33476
33493
33479
33292
33310
33415
33425
33311
33268
33083
33103
33139
33197
33216
33217
33212
33196
33072
33151
33321
33356
33371
33348
33236
33223
33285
33258
33169
33110
32972
33096
33089
33022
32839
32825
32943
32991
33004
33010
32900
33051
33074
33014
33008
32903
32956
33062
33055
32983
32881
32953
33073
33071
32985
32937
32900
32888
32750
32818
32871
32977
32984
32988
32984
32911
32793
32869
32917
32878
32759
32636
32466
32137
32031
31998
31974
31842
31724
31526
31559
31582
31574
31689
31814
31850
32127
32548
33030
33512
34063
34719
35415
36103
36799
37542
38358
39207
39870
40378
40772
41236
41527
41900
42134
42291
42273
42236
42231
42278
42290
42020
41694
41220
40583
39980
39367
38630
38021
37463
36776
36043
35231
34748
34383
34039
33612
33308
33017
32707
32480
32350
32204
32006
31844
31695
31583
31347
31363
31279
31268
31383
31397
31333
31276
31247
31147
31036
31077
31142
31105
31038
30953
30779
30796
30873
30831
30846
30691
30709
30791
30874
30960
30977
30866
30874
31060
31092
31070
31046
30887
30903
31011
31027
31050
31086
31106
31119
31132
31020
31066
31132
31268
31372
31481
31453
31479
31341
31364
31427
31518
31537
31532
31478
31343
31319
31409
31428
31367
31410
31367
31383
31453
31471
31448
31438
31444
31436
31287
31335
31351
31321
31291
31252
31117
31067
31178
31189
31127
31130
31022
31111
31271
31372
31391
31382
31210
31289
31348
31391
31471
31431
31417
31360
31235
31257
31351
31348
31277
31231
31083
31111
31119
31274
31335
31271
31192
31036
31062
31133
31092
31023
30865
30826
30866
30940
30844
30818
30628
30684
30831
30923
30941
30968
30905
30913
30914
30916
31016
31070
31141
31094
31082
31151
31149
31132
30927
30919
30967
31087
31189
31260
31373
31356
31362
31356
31415
31418
31437
31431
31443
31471
31580
31652
31623
31578
31423
31452
31438
31525
31543
31510
31513
31526
31427
31441
31583
31628
31657
31708
31715
31709
31582
31647
31696
31812
31820
31813
31837
31700
31780
31919
31998
32022
32078
32125
32041
32006
32134
32183
32203
32226
32194
32219
32295
32303
32309
32319
32342
32374
32331
32361
32489
32559
32568
32526
32487
32392
32277
32261
32346
32367
32361
32394
32357
32287
32263
32252
32214
32196
32154
31977
31985
32051
32063
31980
31943
31907
31831
31765
31711
31628
31424
31361
31321
31379
31413
31410
31373
31367
31332
31210
31229
31262
31392
31411
31405
31207
31266
31335
31341
31237
31137
31074
30965
30828
30812
30782
30820
30901
30945
31082
31118
31140
31172
31081
31103
31212
31375
31527
31663
31687
31716
31719
31681
31588
31605
31708
31789
31768
31711
31588
31529
31612
31655
31583
31551
31381
31404
31506
31525
31519
31513
31523
31492
31483
31394
31431
31508
31598
31615
31540
31524
31479
31452
31410
31231
31252
31329
31390
31413
31379
31373
31348
31311
31268
31236
31125
31143
31156
31301
31367
31357
31404
31455
31495
31327
31345
31296
31279
31344
31406
31477
31529
31529
31506
31492
31471
31454
31324
31324
31308
31343
31463
31526
31502
31489
31524
31550
31412
31461
31462
31518
31515
31607
31600
31620
31630
31573
31446
31492
31493
31566
31655
31735
31816
31905
31823
31790
31788
31790
31669
31707
31679
31788
31862
31873
31887
31828
31796
31804
31861
31913
32071
32095
32102
32055
31974
32127
32124
32074
32043
31902
31956
32109
32036
32012
32027
31985
31824
31826
31833
31845
31855
31928
32021
32056
31977
31865
31991
32001
31897
31895
31942
31954
31997
32073
32055
32086
31937
31987
32090
32197
32247
32178
32159
32149
31999
32050
32072
32111
32215
32228
32209
32132
32034
31868
31883
31868
31896
31972
31983
31997
31967
31986
31950
32037
32039
32073
32159
32212
32205
32150
32045
32060
32031
32060
31991
32030
31999
32007
32036
32078
32047
32023
32069
32167
32165
32199
32158
32043
32004
31836
31879
31934
32015
32135
32197
32196
32091
32143
32263
32351
32356
32359
32276
32367
32443
32484
32473
32448
32463
32455
32292
32278
32231
32299
32350
32413
32356
32341
32159
32166
32183
32263
32334
32386
32380
32373
32359
32374
32321
32297
32119
32104
32111
32199
32322
32263
32109
32188
32342
32399
32456
32453
32343
32395
32569
32517
32348
32452
32421
32295
32383
32380
32231
32337
32498
32380
32565
32668
32596
32803
32711
32863
32892
32759
32910
32874
32797
32913
32751
32881
32903
32775
32939
32898
32732
32860
32893
32759
32922
32875
32725
32847
32839
32593
32610
32622
32374
32219
32126
31998
31751
31792
31751
31684
31535
31549
31702
31654
31531
31741
31991
32197
32303
32801
33302
33734
34504
35167
35750
36557
37350
38068
38936
39727
40364
40920
41439
41979
42440
42854
43207
43372
43329
43281
43214
43282
43324
43183
42644
41908
41204
40572
39869
39238
38561
37790
37007
36263
35617
35081
34638
34267
33926
33655
33276
32992
32789
32613
32449
32321
32249
32143
32004
31884
31628
31622
31623
31691
31750
31711
31652
31569
31379
31442
31471
31447
31404
31260
31326
31431
31441
31445
31455
31309
31357
31501
31564
31592
31471
31532
31621
31684
31718
31559
31532
31631
31633
31589
31493
31397
31403
31398
31429
31410
31375
31335
31373
31276
31351
31483
31546
31557
31428
31407
31402
31405
31475
31519
31459
31442
31263
31283
31366
31364
31386
31374
31350
31292
31261
31365
31389
31412
31328
31239
31284
31317
31351
31349
31178
31257
31340
31403
31420
31445
31437
31332
31424
31557
31601
31637
31656
31662
31637
31532
31630
31751
31721
31705
31524
31604
31684
31642
31564
31504
31380
31363
31425
31476
31533
31511
31519
31463
31394
31420
31522
31588
31614
31623
31611
31476
31479
31553
31538
31546
31525
31536
31575
31656
31725
31665
31717
31791
31848
31903
31950
32007
32006
32052
32007
31957
31919
31910
31914
31839
31860
31901
31991
32068
32116
32180
32203
32126
32151
32200
32244
32281
32314
32429
32463
32500
32481
32519
32550
32463
32455
32484
32477
32555
32615
32660
32652
32629
32606
32551
32491
32300
32317
32407
32403
32415
32367
32327
32308
32140
32192
32317
32446
32511
32586
32615
32606
32629
32602
32470
32403
32350
32379
32448
32458
32423
32360
32319
32305
32282
32148
32103
32165
32271
32335
32326
32340
32194
32239
32346
32417
32439
32407
32361
32300
32170
32180
32200
32204
32122
32078
32042
32015
32007
31964
31955
31953
31926
31921
31893
31863
31744
31684
31644
31726
31719
31692
31751
31732
31730
31639
31636
31729
31645
31652
31655
31703
31740
31793
31733
31678
31670
31676
31676
31606
31590
31624
31670
31727
31736
31735
31708
31708
31710
31742
31791
31829
31855
31884
31911
31885
31873
31907
31885
31856
31819
31751
31719
31702
31623
31609
31650
31657
31714
31775
31860
31973
31983
31950
31988
31994
32002
32038
32036
32042
32046
32029
32047
32055
32072
32117
32111
32143
32122
32072
32026
31979
31799
31820
31853
31901
31911
31945
31924
31918
31919
31903
31807
31807
31876
31974
32030
32039
32108
32151
32049
31994
32020
32090
32183
32190
32177
32036
32060
32101
32026
32065
32037
31916
31911
31987
32045
32075
32098
31991
31995
32077
32066
32170
32234
32287
32183
32173
32177
32211
32257
32285
32235
32236
32220
32095
32142
32263
32298
32381
32405
32351
32423
32470
32510
32503
32460
32436
32333
32302
32402
32399
32551
32602
32501
32559
32631
32661
32665
32651
32469
32561
32611
32741
32681
32658
32724
32735
32799
32791
32730
32593
32582
32571
32527
32532
32420
32411
32498
32601
32663
32687
32684
32605
32655
32652
32698
32663
32702
32610
32677
32679
32622
32452
32494
32501
32634
32676
32583
32674
32775
32814
32887
32918
32807
32850
32887
32887
32919
32797
32775
32807
32806
32804
32679
32659
32652
32743
32791
32716
32852
32884
32921
32801
32857
32847
32938
32820
32831
32857
32924
32932
32804
32903
32941
33020
33085
33012
33126
33215
33366
33392
33350
33435
33514
33566
33631
33636
33638
33550
33653
33664
33667
33727
33717
33645
33727
33687
33742
33793
33847
33901
33934
33890
33916
33909
33943
33958
33895
33973
33997
34024
33986
33953
33889
33927
34018
34028
34069
34062
34100
34116
34055
34029
34080
34105
34109
34123
34141
34079
34095
34110
34052
33942
33956
34004
33991
33972
34055
34132
34127
34061
34078
33950
33932
33941
33862
33803
33799
33774
33758
33687
33628
33591
33559
33523
33524
33556
33599
33565
33555
33604
33599
33590
33476
33524
33525
33482
33503
33478
33401
33316
33399
33508
33550
33513
33508
33510
33543
33513
33428
33489
33543
33561
33532
33578
33581
33591
33516
33372
33367
33190
33075
32935
32614
32540
32405
32376
32303
32164
32218
32194
32247
32280
32311
32548
32893
33175
33718
34324
34959
35662
36415
37036
37700
38564
39460
40268
41015
41652
42183
42637
43025
43354
43664
43911
43972
44151
44149
44238
44327
44198
44028
43484
42922
42340
41722
41067
40358
39541
38663
37822
37092
36380
35732
35178
34663
34235
33925
33664
33377
33012
32743
32615
32408
32294
32200
31985
31962
31957
31878
31932
31915
31852
31744
31820
31809
31850
31812
31741
31814
31860
31887
31823
31858
31806
31876
31909
31797
31902
31866
31875
31953
31922
31777
31868
31866
31900
31860
31746
31765
31764
31702
31535
31588
31532
31565
31558
31459
31534
31548
31626
31577
31551
31563
31557
31607
31652
31580
31679
31657
31707
31723
31671
31653
31719
31817
31907
31845
31968
32037
32213
32253
32172
32191
32185
32148
32202
32142
32066
32099
32069
32123
32135
32124
32095
32057
32118
32132
32148
32222
32235
32157
32099
32119
32124
32087
32124
32116
32125
32116
32047
31999
32095
32172
32182
32294
32335
32220
32196
32239
32220
32255
32294
32277
32208
32135
32135
32126
32198
32188
32250
32239
32172
32243
32279
32293
32351
32359
32357
32369
32303
32341
32417
32357
32390
32415
32398
32343
32399
32359
32405
32351
32346
32239
32311
32308
32345
32420
32500
32553
32487
32515
32589
32588
32668
32696
32729
32796
32866
32903
32927
32948
32874
32865
32919
32881
32762
32796
32851
32878
32841
32864
32892
32911
32923
32908
32903
32902
32879
32903
32954
32963
32935
32987
32964
32940
32936
32969
32967
32962
32947
32927
32875
32871
32854
32823
32702
32663
32699
32731
32697
32661
32697
32742
32799
32816
32879
32937
32933
32860
32821
32807
32820
32759
32700
32703
32685
32667
32577
32471
32484
32492
32408
32359
32356
32349
32393
32381
32417
32407
32405
32372
32396
32359
32288
32258
32220
32219
32241
32209
32111
32143
32171
32169
32143
32107
32116
32129
32124
32118
32092
32037
32021
32046
32077
32015
31948
31903
31814
31718
31700
31734
31767
31745
31804
31780
31769
31743
31703
31650
31668
31732
31678
31739
31776
31838
31684
31705
31735
31670
31676
31647
31587
31547
31588
31552
31574
31623
31651
31655
31647
31495
31558
31583
31635
31697
31708
31690
31604
31661
31687
31702
31701
31660
31631
31589
31601
31622
31657
31713
31748
31817
31927
31989
31983
31960
32019
32004
32019
32019
32041
32074
32133
32159
32164
32171
32204
32193
32140
32213
32226
32263
32261
32247
32316
32351
32340
32294
32247
32253
32225
32261
32307
32212
32242
32284
32359
32364
32340
32364
32367
32326
32245
32257
32247
32258
32218
32303
32330
32348
32334
32351
32383
32430
32494
32570
32631
32619
32666
32719
32708
32748
32809
32799
32815
32807
32828
32815
32796
32788
32799
32802
32734
32709
32687
32735
32815
32900
32982
33047
33053
33071
33094
33186
33159
33183
33212
33261
33244
33290
33347
33319
33245
33205
33209
33247
33263
33304
33328
33397
33509
33455
33508
33603
33593
33601
33542
33523
33534
33570
33575
33600
33655
33703
33599
33556
33572
33582
33605
33658
33589
33540
33575
33644
33696
33732
33751
33796
33725
33679
33604
33575
33594
33607
33634
33649
33654
33687
33729
33764
33730
33702
33735
33812
33922
33989
33945
33991
33932
33877
33914
33942
33969
33986
33978
34034
34038
34084
34092
33965
33961
34055
34110
34155
34196
34183
34055
34042
34081
34074
34087
34065
34055
33964
33960
33984
34046
34087
34132
34060
34044
33983
34038
34102
34140
34159
34209
34181
34191
34207
34217
34243
34246
34239
34192
34165
34199
34229
34295
34340
34361
34381
34356
34372
34391
34423
34436
34460
34497
34519
34551
34567
34492
34461
34412
34450
34513
34567
34564
34596
34663
34690
34657
34598
34567
34600
34551
34484
34428
34343
34252
34223
34082
34036
34054
34067
34084
34106
34117
34151
34156
34111
33982
33933
33999
34023
34022
34014
33927
33863
33872
33815
33799
33807
33759
33738
33775
33839
33927
33942
33948
33847
33791
33785
33841
33864
33882
33912
33889
33775
33672
33541
33503
33471
33437
33386
33343
33348
33358
33324
33255
33278
33277
33254
33108
32983
32837
32612
32484
32373
32247
32132
32082
31993
31927
31899
31975
32058
32165
32325
32645
32947
33332
33820
34383
35013
35676
36387
37064
37796
38565
39354
40069
40692
41183
41631
42007
42383
42735
42974
43111
43110
43123
43114
43143
43084
42819
42315
41683
40964
40284
39591
38943
38269
37533
36792
35981
35215
34633
34225
33826
33463
33213
32885
32594
32360
32197
32023
31876
31703
31516
31455
31295
31228
31175
31130
31034
31020
31013
30938
30945
30970
30966
30817
30825
30830
30836
30816
30806
30814
30775
30711
30697
30681
30751
30790
30791
30847
30908
30881
30818
30893
30920
30910
30927
30937
30964
30907
30885
30844
30847
30861
30845
30802
30899
31007
31079
31199
31265
31271
31327
31416
31421
31465
31419
31366
31417
31359
31394
31407
31343
31406
31375
31451
31402
31397
31505
31507
31536
31511
31468
31448
31438
31459
31341
31426
31422
31453
31502
31442
31547
31586
31651
31668
31740
31747
31682
31785
31751
31751
31795
31832
31820
31749
31767
31783
31683
31709
31707
31630
31500
31527
31513
31551
31503
31461
31519
31453
31495
31568
31589
31566
31623
31714
31662
31669
31701
31705
31661
31591
31597
31529
31525
31564
31620
31692
31660
31551
31572
31656
31740
31717
31799
31791
31846
31834
31767
31778
31800
31737
31751
31807
31873
31935
31960
31962
32054
31998
32075
32138
32109
32106
32148
32135
32220
32222
32243
32298
32279
32347
32418
32389
32387
32466
32567
32603
32663
32708
32723
32680
32683
32648
32658
32668
32637
32642
32636
32576
32578
32473
32545
32499
32501
32453
32437
32396
32437
32423
32466
32547
32519
32492
32492
32484
32462
32460
32486
32490
32484
32495
32548
32531
32575
32620
32639
32668
32700
32740
32790
32807
32863
32913
32969
32968
32999
33036
32982
32927
32933
32956
32926
32902
32932
32950
32847
32839
32796
32719
32680
32705
32676
32664
32598
32621
32559
32460
32454
32415
32334
32227
32257
32272
32230
32270
32276
32249
32325
32380
32309
32310
32307
32284
32335
32390
32399
32404
32497
32510
32487
32427
32417
32417
32404
32407
32455
32513
32535
32573
32626
32576
32624
32644
32666
32684
32655
32601
32657
32591
32519
32465
32375
32263
32203
32150
32141
32071
32155
32205
32230
32165
32219
32308
32292
32321
32374
32390
32375
32399
32420
32341
32364
32377
32393
32367
32359
32367
32433
32516
32518
32548
32543
32554
32609
32604
32533
32458
32499
32420
32419
32445
32463
32508
32412
32431
32550
32546
32605
32623
32686
32740
32766
32807
32871
32861
32894
32894
32890
32798
32785
32775
32716
32653
32642
32710
32764
32901
32940
32994
32998
33071
33138
33172
33196
33243
33177
33199
33160
33079
33102
33077
33016
32983
32951
32960
32949
33041
32975
33019
33106
33079
33170
33129
33150
33191
33172
33189
33195
33228
33205
33162
33230
33181
33227
33250
33243
33226
33198
33190
33199
33236
33236
33203
33227
33222
33249
33191
33138
33197
33106
33088
33109
33121
33151
33194
33236
33269
33270
33279
33351
33297
33239
33303
33287
33400
33407
33452
33496
33418
33401
33415
33376
33297
33280
33287
33281
33231
33221
33335
33329
33281
33248
33254
33245
33243
33191
33180
33191
33198
33253
33229
33157
33146
33250
33245
33255
33397
33355
33366
33415
33405
33405
33446
33392
33391
33429
33401
33333
33389
33308
33280
33191
33183
33066
33063
33116
33137
33066
33124
33090
33099
33068
33013
32997
32958
32900
32913
32913
32791
32878
32903
32894
32822
32788
32805
32786
32846
32792
32714
32834
32813
32815
32836
32855
32793
32840
32817
32796
32839
32820
32781
32657
32731
32775
32756
32847
32879
32877
32927
32848
32840
32828
32795
32660
32641
32590
32509
32534
32519
32489
32424
32342
32303
32332
32351
32300
32333
32374
32343
32244
32277
32252
32251
32231
32263
32260
32164
32081
32049
32059
31967
31855
31814
31796
31668
31632
31647
31698
31696
31783
31801
31695
31695
31803
31767
31724
31714
31663
31651
31541
31492
31493
31483
31500
31479
31471
31512
31511
31562
31588
31619
31589
31475
31567
31614
31607
31662
31700
31647
31597
31635
31645
31637
31583
31636
31628
31632
31652
31572
31558
31640
31715
31698
31732
31765
31684
31511
31454
31417
31308
31209
30951
30788
30692
30600
30585
30399
30443
30415
30335
30162
30218
30268
30439
30684
30843
31326
31855
32526
33110
33783
34406
35079
35932
36797
37541
38277
38988
39620
40154
40609
40963
41260
41460
41630
41727
41822
41847
41873
41868
41788
41520
41044
40444
39860
39263
38669
38083
37417
36580
35869
35163
34474
33895
33382
32932
32615
32313
31999
31757
31535
31232
31041
30966
30832
30671
30676
30614
30609
30619
30505
30470
30481
30530
30585
30543
30524
30482
30471
30418
30242
30247
30273
30347
30367
30421
30519
30536
30534
30459
30422
30466
30512
30533
30613
30689
30685
30725
30814
30706
30766
30868
30874
30920
30999
31054
30980
31120
31172
31260
31362
31404
31271
31396
31361
31457
31471
31425
31359
31475
31555
31541
31607
31633
31439
31471
31495
31524
31491
31428
31409
31527
31575
31634
31561
31581
31583
31595
31529
31423
31519
31521
31551
31623
31623
31591
31711
31756
31879
31892
31888
32015
32034
32102
32030
32035
32081
32084
32103
32098
31966
32097
32067
32100
32098
31980
32047
32081
32166
32234
32196
32076
32141
32133
32144
31960
32026
32007
32091
32117
32167
32143
32116
32155
32181
32234
32294
32391
32430
32452
32519
32541
32421
32437
32404
32363
32431
32412
32395
32247
32263
32351
32340
32362
32383
32367
32250
32281
32332
32340
32412
32407
32396
32328
32310
32397
32423
32436
32448
32271
32268
32301
32295
32353
32373
32294
32391
32484
32460
32535
32498
32433
32450
32455
32457
32526
32535
32492
32422
32473
32585
32596
32694
32757
32805
32687
32809
32838
32964
32983
32927
32938
32950
32823
32791
32735
32835
32870
32775
32902
32876
32829
32867
32919
33040
33040
33098
33196
33269
33267
33343
33375
33440
33480
33378
33465
33434
33477
33455
33287
33301
33293
33219
33237
33185
33061
33148
33100
33101
33031
32914
32871
32919
32900
32775
32846
32803
32829
32783
32670
32654
32628
32491
32587
32620
32601
32612
32553
32466
32503
32492
32550
32518
32388
32454
32435
32481
32490
32471
32360
32326
32258
32366
32444
32498
32556
32549
32579
32678
32762
32766
32703
32771
32804
32794
32845
32822
32813
32814
32750
32627
32613
32684
32676
32740
32732
32720
32663
32729
32764
32852
32901
32901
32826
32877
32935
32919
32980
33036
33007
32930
32919
32984
32965
32942
32837
32903
32895
32951
32955
32890
32935
32933
32983
32951
32933
32775
32792
32775
32751
32735
32692
32627
32508
32547
32629
32647
32687
32760
32829
32765
32757
32802
32727
32727
32669
32575
32493
32509
32431
32476
32471
32457
32452
32423
32426
32548
32595
32586
32677
32691
32542
32615
32671
32662
32716
32701
32705
32581
32638
32590
32644
32492
32563
32533
32620
32661
32682
32695
32831
32865
32959
32894
32837
32860
32821
32855
32855
32764
32700
32724
32734
32721
32740
32658
32630
32695
32717
32741
32612
32697
32831
32975
33042
32930
33021
32996
33054
32915
32983
33063
32911
32990
32991
33039
32961
33052
33098
32988
33087
33111
33126
33007
33103
33112
33196
33171
33151
33190
33239
33172
33158
33132
33190
33196
33102
33205
33233
33287
33287
33250
33308
33371
33386
33468
33508
33452
33494
33524
33566
33437
33542
33553
33540
33465
33511
33459
33479
33388
33471
33524
33468
33449
33466
33378
33372
33398
33447
33388
33359
33338
33335
33183
33276
33271
33326
33339
33398
33458
33590
33635
33495
33553
33601
33669
33685
33636
33620
33666
33548
33614
33634
33589
33572
33578
33615
33515
33610
33645
33678
33600
33693
33809
33716
33761
33780
33751
33598
33620
33606
33662
33577
33569
33573
33618
33521
33587
33615
33671
33644
33771
33734
33701
33708
33799
33693
33736
33823
33831
33678
33735
33823
33718
33740
33795
33783
33699
33660
33689
33519
33604
33615
33631
33492
33567
33573
33572
33469
33498
33568
33610
33525
33623
33615
33652
33549
33614
33644
33622
33531
33506
33556
33437
33495
33566
33460
33583
33669
33553
33636
33639
33543
33543
33548
33519
33570
33637
33637
33552
33591
33685
33583
33644
33647
33492
33541
33594
33526
33482
33482
33463
33327
33372
33342
33331
33382
33365
33287
33311
33236
33200
33277
33239
33062
33047
33096
32966
33113
33145
33170
33169
33190
33116
33220
33214
33239
33127
33166
33257
33281
33164
33250
33287
33114
33206
33255
33236
33091
33124
33167
33007
33079
33119
32993
33076
33160
32993
33105
33109
33045
33020
32960
32703
32629
32535
32354
32175
32132
31932
31894
31903
31671
31668
31714
31598
31849
32036
32159
32572
33039
33582
34060
34674
35352
36018
36731
37525
38383
39258
39827
40512
41245
41606
41919
42381
42566
42757
42948
43038
43039
43190
43168
43156
43063
42583
41956
41386
40864
40013
39457
38772
37919
37138
36380
35591
34924
34444
33943
33703
33397
32981
32791
32539
32327
31947
31855
31732
31399
31353
31288
31006
31020
30903
30652
30685
30708
30538
30689
30754
30622
30791
30874
30702
30831
30884
30775
30861
30886
30788
30809
30837
30868
30866
30727
30802
30928
30962
30849
30894
30936
31004
30991
30820
30917
30921
30890
30749
30799
30941
30999
30829
30903
30945
30983
30847
31014
30975
30841
30975
31072
30978
31169
31231
31117
31222
31300
31308
31175
31313
31246
31215
31039
31125
31182
31106
31051
31141
31188
31014
31126
31159
31133
31063
31180
31204
31036
31141
31174
31132
31006
31123
31183
31175
31017
31068
31192
31223
31151
31226
31341
31399
31303
31365
31461
31455
31351
31489
31446
31430
31467
31334
31364
31439
31401
31230
31359
31372
31256
31431
31458
31313
31431
31302
31319
31412
31343
31236
31397
31383
31364
31478
31415
31310
31418
31441
31296
31412
31546
31564
31491
31687
31788
31712
31866
31854
31751
31819
31823
31784
31608
31692
31778
31751
31623
31725
31769
31675
31906
31892
31768
31877
31940
31971
31889
32087
32156
32139
31978
32076
32076
32094
32016
32077
32116
32167
32218
32292
32355
32429
32526
32572
32486
32659
32686
32572
32676
32647
32623
32695
32732
32578
32740
32692
32561
32671
32743
32595
32735
32794
32737
32828
32916
32884
32725
32869
32838
32692
32764
32775
32599
32772
32746
32584
32696
32775
32673
32823
32836
32744
32895
32935
32941
32828
32942
32998
32861
32970
33015
32922
32903
32996
32953
32800
32859
32822
32773
32621
32697
32855
32816
32617
32695
32695
32638
32427
32519
32524
32385
32449
32519
32455
32356
32382
32303
32103
32191
32217
32062
32218
32242
32125
32202
32249
32255
32317
32315
32152
32212
32300
32340
32327
32308
32199
32263
32316
32335
32228
32279
32340
32352
32303
32204
32206
32284
32327
32248
32121
32191
32166
32194
32149
32121
31982
32124
32118
32113
32079
31943
32005
32115
32154
32143
32094
31892
31884
31924
31926
31989
31982
31954
31947
31868
31956
32067
32049
32007
31972
31852
31823
31956
32037
32038
32055
31887
31883
31944
31983
31985
31959
31830
31733
31815
31868
31814
31788
31661
31669
31703
31796
31758
31742
31527
31476
31517
31498
31530
31495
31349
31352
31411
31508
31508
31540
31550
31551
31425
31465
31580
31639
31649
31542
31615
31786
31826
31842
31740
31846
31895
31903
31740
31805
31913
31866
31735
31797
31876
31927
31927
31802
31929
32041
32081
32107
32064
32000
32103
32085
32049
31975
31780
31815
31882
31870
31864
31749
31783
31908
31981
32013
31908
31967
32093
32143
32102
31975
32096
32170
32138
32079
31975
32042
32141
32122
32130
31950
31984
32046
32056
32043
31910
31932
31975
32025
32085
32045
31828
31815
31855
31907
31892
31739
31768
31860
31956
31911
31860
31670
31764
31849
31839
31750
31949
31997
31900
31967
32060
32117
32135
32113
32007
32111
32135
32134
32031
32199
32271
32288
32286
32177
32287
32404
32452
32443
32319
32263
32359
32369
32340
32263
32103
32078
32141
32254
32263
32316
32298
32196
32183
32328
32350
32417
32421
32439
32298
32291
32367
32403
32313
32212
32141
32193
32290
32295
32280
32233
32150
32229
32385
32386
32391
32321
32423
32492
32553
32518
32357
32420
32505
32564
32564
32412
32456
32460
32518
32564
32599
32645
32663
32672
32599
32610
32631
32667
32775
32821
32818
32794
32653
32685
32767
32773
32760
32806
32831
32859
32877
32775
32876
32953
33020
33209
33316
33281
33260
33271
33285
33165
33159
33209
33222
33233
33228
33095
33160
33225
33246
33255
33237
33095
33233
33269
33316
33287
33225
33278
33389
33423
33413
33244
33370
33407
33394
33268
33319
33433
33500
33518
33397
33351
33391
33395
33296
33087
33072
33135
33115
33126
32995
33060
33188
33183
33223
33254
33143
33282
33306
33287
33192
33333
33431
33487
33470
33357
33522
33586
33572
33477
33495
33562
33669
33759
33765
33783
33684
33727
33830
33851
33871
33767
33854
33947
33959
33823
33882
33958
33941
33815
33770
33843
33872
33865
33761
33799
33879
33909
33964
33859
33884
33995
33956
33871
33687
33692
33652
33499
33359
33159
33106
33043
32802
32727
32750
32678
32529
32492
32639
32766
32937
33143
33703
34165
34551
35287
35909
36487
37082
37892
38622
39360
40180
40967
41558
42022
42556
43122
43597
43744
43834
43959
44103
44244
44426
44527
44453
44063
43559
42991
42451
42010
41351
40597
39941
39238
38557
37786
37125
36592
36017
35591
35365
35085
34788
34397
34269
34088
33894
33577
33444
33389
33326
33208
32998
33054
33100
33060
32868
32877
33012
33004
32953
32788
32827
32916
32999
32996
32951
32856
32998
33060
32991
32936
32743
32830
32924
32927
32937
32861
32996
33071
33045
33074
32931
33047
33075
33045
32911
32911
32935
33060
33044
32861
32820
32876
32906
32923
32791
32857
33016
33055
33087
32972
33066
33131
33151
33148
33147
33029
33137
33212
33164
33130
32924
32959
32959
32934
32810
32900
33013
33009
33055
32932
33029
33138
33174
33157
32993
32977
32965
33055
33116
33083
33084
33089
32929
32946
33076
33137
33167
33055
33190
33255
33287
33144
33216
33282
33215
33160
33038
33140
33191
33136
32926
32963
32959
32926
32855
33015
33044
33082
33001
33106
33188
33239
33060
33100
33206
33156
33108
32960
33021
33071
33064
33031
32903
33021
33023
33022
32887
33058
33110
32986
33047
33159
33143
33109
33007
33118
33137
32998
33111
33180
33152
33159
33052
33173
33249
33236
33091
33150
33243
33207
33191
33065
33065
33180
33247
33263
33125
33247
33239
33076
33105
33212
33156
33088
33241
33190
33078
33255
33299
33159
33258
33343
33324
33164
33253
33247
33079
33207
33222
33116
33215
33319
33311
33197
33332
33438
33444
33482
33386
33508
33608
33599
33582
33433
33470
33532
33567
33552
33483
33596
33571
33473
33639
33642
33515
33666
33701
33675
33604
33686
33655
33590
33584
33612
33575
33559
33386
33503
33502
33357
33457
33586
33511
33460
33322
33338
33439
33494
33444
33263
33268
33367
33270
33066
33152
33135
33086
33009
32956
32887
32722
32807
32793
32799
32646
32749
32802
32818
32710
32897
32857
32652
32695
32767
32708
32563
32559
32646
32650
32614
32435
32471
32555
32505
32337
32405
32530
32492
32333
32366
32460
32407
32334
32500
32457
32255
32306
32427
32412
32285
32388
32423
32404
32293
32432
32566
32600
32524
32755
32829
32842
32706
32859
32859
32773
32727
32868
32871
32660
32742
32756
32580
32666
32762
32708
32628
32753
32774
32652
32815
32751
32589
32655
32775
32716
32521
32581
32613
32614
32542
32500
32508
32327
32364
32491
32564
32391
32415
32519
32502
32431
32228
32263
32333
32356
32337
32172
32132
32172
32243
32207
32213
32135
32276
32383
32354
32188
32212
32350
32340
32319
32157
32192
32274
32311
32276
32151
32180
32173
32149
32143
32149
32133
32103
32119
32208
32223
32183
32164
32175
32175
32286
32265
32254
32205
32231
32148
32198
32141
31961
31998
32154
32187
32159
32091
32022
32154
32229
32181
32175
32005
32074
32163
32171
32069
32263
32273
32263
32100
32164
32229
32279
32086
32141
32253
32277
32324
32297
32216
32364
32407
32455
32458
32285
32398
32377
32369
32211
32330
32399
32434
32369
32263
32471
32464
32297
32319
32422
32399
32213
32262
32413
32391
32389
32249
32396
32452
32450
32389
32304
32470
32545
32560
32407
32506
32607
32587
32593
32703
32653
32511
32628
32754
32729
32583
32609
32695
32661
32506
32510
32506
32610
32679
32653
32511
32735
32668
32629
32462
32564
32599
32593
32453
32545
32647
32636
32478
32574
32637
32631
32615
32457
32550
32702
32707
32535
32660
32668
32597
32466
32568
32593
32569
32382
32511
32586
32561
32420
32540
32543
32548
32466
32597
32625
32484
32558
32753
32767
32798
32701
32733
32839
32905
32866
32726
32769
32827
32914
32928
32912
32775
32758
32879
32931
32943
32919
32810
32917
33055
33060
32967
33095
33138
33135
33018
33103
33146
33143
33014
33143
33188
33063
33151
33305
33274
33296
33204
33303
33405
33348
33192
33250
33381
33365
33374
33244
33346
33394
33449
33389
33197
33204
33266
33255
33239
33135
33253
33367
33396
33250
33349
33414
33308
33362
33540
33519
33415
33574
33601
33469
33543
33661
33636
33585
33445
33607
33650
33514
33565
33670
33675
33598
33524
33703
33632
33588
33413
33521
33543
33359
33484
33532
33459
33340
33554
33572
33435
33527
33658
33614
33482
33497
33615
33636
33462
33550
33591
33493
33616
33671
33652
33496
33606
33709
33697
33580
33653
33791
33846
33738
33855
33808
33694
33475
33497
33407
33150
33172
33095
32982
32828
32942
32894
32717
32811
32767
32596
32788
32956
33127
33250
33702
34153
34647
35094
35876
36581
37255
37936
38797
39527
40285
41061
41740
42239
42959
43389
43647
43850
44284
44270
44218
44404
44457
44269
44030
43839
43329
42479
41869
41168
40544
39846
39100
38308
37692
37026
36336
35807
35529
35186
34738
34532
34409
34175
33812
33723
33542
33247
33122
33100
33052
32858
32908
33004
32973
32990
33010
32979
32948
32751
32821
32775
32754
32684
32540
32508
32464
32546
32502
32462
32282
32423
32471
32474
32474
32383
32505
32609
32549
32405
32358
32457
32552
32550
32484
32415
32474
32513
32511
32467
32282
32443
32481
32335
32434
32582
32574
32573
32458
32567
32617
32629
32615
32448
32580
32587
32540
32542
32373
32535
32648
32678
32517
32565
32661
32645
32495
32559
32655
32695
32702
32572
32652
32759
32701
32637
32479
32655
32699
32711
32550
32573
32653
32785
32772
32788
32623
32676
32789
32810
32781
32637
32772
32754
32677
32455
32500
32517
32476
32338
32467
32506
32493
32454
32324
32442
32505
32475
32319
32314
32362
32345
32295
32144
32294
32369
32335
32164
32200
32323
32423
32380
32327
32204
32320
32343
32217
32298
32518
32581
32508
32549
32695
32752
32726
32603
32716
32735
32724
32638
32818
32806
32677
32791
32806
32639
32676
32808
32764
32639
32781
32820
32795
32741
32645
32689
32773
32743
32563
32574
32734
32742
32737
32660
32802
32844
32732
32827
32935
32891
32855
32700
32740
32784
32790
32766
32768
32714
32885
32910
32951
32828
32903
32996
32948
32791
32903
32931
32832
32751
32532
32633
32687
32686
32573
32750
32718
32709
32613
32714
32725
32690
32567
32701
32732
32708
32562
32662
32715
32691
32543
32560
32683
32686
32631
32407
32463
32407
32319
32109
32077
32133
32106
32040
31823
31887
31920
31918
31902
31708
31749
31743
31751
31661
31588
31339
31275
31246
31229
31217
31253
31226
31199
31047
31154
31189
31157
30997
31092
31112
31033
30828
30785
30855
30859
30817
30623
30719
30750
30647
30449
30465
30566
30615
30575
30601
30429
30518
30543
30495
30317
30440
30478
30309
30381
30536
30522
30375
30376
30491
30468
30270
30321
30394
30409
30250
30375
30460
30485
30351
30526
30623
30609
30466
30669
30631
30474
30517
30607
30553
30345
30474
30461
30273
30346
30479
30500
30364
30514
30567
30511
30337
30408
30530
30524
30341
30440
30483
30443
30259
30355
30327
30105
30215
30214
30150
30056
30180
30247
30261
30297
30151
30166
30276
30317
30272
30103
30084
30215
30170
30020
30172
30071
30050
29904
30052
30103
30039
29924
29831
29944
29951
29932
29764
29799
29847
29878
29802
29630
29731
29789
29770
29636
29831
29965
29931
29809
29845
30022
30098
30071
29959
30095
30206
30289
30323
30196
30322
30366
30313
30326
30171
30228
30327
30391
30416
30405
30302
30296
30453
30534
30527
30370
30487
30532
30467
30239
30294
30310
30254
30045
30050
30138
30183
30183
30059
30042
30135
30196
30172
29991
30034
30145
30227
30073
30127
30206
30164
30117
29953
29961
30098
30158
30126
30063
30159
30310
30377
30256
30329
30532
30493
30358
30462
30515
30469
30364
30466
30505
30524
30429
30612
30690
30725
30625
30759
30875
30917
30823
30863
30939
31054
31110
31049
31007
30869
30827
30875
30884
30823
30708
30871
30871
30725
30766
30919
30990
30976
30839
30929
31004
31069
30994
30928
30790
30909
30917
30726
30757
30900
30966
31006
30916
30951
31104
31175
31135
30950
31004
31111
31040
30876
30769
30837
30804
30760
30573
30588
30695
30684
30686
30694
30726
30758
30793
30739
30778
30848
30957
31014
31103
31134
31023
31047
31125
31063
31033
30992
30917
30727
30679
30654
30717
30791
30821
30804
30679
30695
30782
30829
30839
30879
30903
30820
30718
30748
30724
30743
30664
30482
30479
30594
30628
30662
30570
30666
30810
30882
30847
30726
30802
30804
30750
30585
30669
30769
30812
30668
30711
30866
30842
30844
30780
30897
31014
31110
31044
31018
31125
31191
31153
30952
31012
31092
31172
31196
31047
31142
31207
31263
31239
31096
31239
31295
31155
31236
31390
31396
31292
31397
31427
31238
31351
31406
31359
31253
31372
31403
31261
31375
31354
31167
31077
31095
31071
30980
30706
30672
30760
30694
30495
30461
30492
30398
30239
30415
30414
30357
30516
30869
31297
31607
32292
32955
33502
34262
34997
35815
36492
37335
38108
38780
39407
39878
40132
40555
40910
40903
41087
41286
41055
41159
41389
41086
40910
40711
39941
39405
38882
38204
37565
36804
36132
35436
34567
33964
33350
32724
32407
32162
31740
31633
31509
31328
31038
31024
30921
30829
30535
30445
30438
30177
30132
30101
29871
29943
29937
29727
29749
29756
29580
29617
29763
29783
29679
29702
29812
29780
29655
29789
29799
29775
29653
29735
29757
29551
29677
29753
29743
29630
29791
29947
29959
29974
30132
30234
30289
30215
30341
30348
30426
30256
30394
30402
30215
30292
30343
30196
30308
30343
30183
30273
30407
30453
30498
30661
30669
30791
30930
30908
30903
30975
30772
30849
30857
30647
30684
30720
30673
30502
30542
30603
30535
30674
30563
30747
30846
30822
30974
31011
31012
30903
30933
31031
31022
30855
30884
31062
31073
31089
30973
31058
31117
31130
31017
31167
31302
31375
31256
31407
31428
31526
31409
31454
31599
31601
31444
31546
31658
31578
31710
31792
31749
31742
31828
31879
31879
31774
31857
31935
31902
31886
31980
32119
32028
32084
32185
32217
32204
32106
32236
32319
32373
32421
32478
32556
32583
32647
32557
32663
32713
32706
32676
32679
32703
32639
32603
32583
32679
32556
32656
32657
32731
32767
32740
32785
32884
32878
33010
33077
32998
33125
33173
33183
33052
33191
33183
33251
33174
33197
33268
33327
33327
33318
33250
33335
33312
33341
33431
33479
33551
33628
33703
33751
33830
33919
33970
33959
33913
33928
33950
34011
34063
34103
34166
34236
34259
34406
34378
34376
34417
34330
34429
34440
34438
34452
34359
34441
34467
34541
34523
34485
34429
34452
34511
34546
34555
34582
34615
34504
34468
34498
34414
34268
34311
34228
34249
34234
34148
34145
34167
34127
34145
34182
34221
34178
34119
34217
34172
34141
34147
34148
34063
34071
33931
33902
33876
33734
33731
33729
33692
33701
33678
33602
33668
33615
33675
33661
33550
33579
33583
33581
33540
33471
33457
33417
33307
33351
33319
33358
33389
33348
33382
33381
33364
33399
33453
33365
33471
33487
33553
33541
33601
33564
33498
33404
33343
33303
33284
33269
33215
33285
33247
33220
33279
33240
33247
33218
33219
33190
33167
33201
33063
33079
33053
33039
33028
33088
33071
33134
33129
33199
33269
33231
33282
33292
33315
33393
33357
33427
33349
33388
33323
33333
33273
33255
33206
33221
33125
33143
33143
33130
33134
33101
33031
33022
33014
32952
33052
33000
33015
32995
32973
32970
33000
33037
33012
32979
33047
33068
33015
33026
33031
32993
33023
33026
32961
32939
32853
32767
32639
32604
32557
32444
32391
32393
32346
32276
32230
32195
32105
32023
32051
31985
32055
32007
31991
32012
31953
31940
31898
31858
31828
31850
31815
31807
31793
31775
31763
31677
31628
31618
31748
31733
31842
31905
31943
31957
31926
31871
31870
31825
31705
31709
31639
31599
31558
31469
31391
31374
31351
31343
31287
31372
31421
31427
31415
31412
31383
31421
31291
31343
31253
31213
31170
31060
31055
30938
30917
30895
30740
30815
30750
30750
30711
30638
30702
30637
30683
30556
30641
30595
30605
30542
30557
30486
30430
30401
30348
30182
30116
30156
30159
30266
30351
30328
30380
30391
30375
30420
30415
30433
30511
30468
30551
30607
30621
30645
30631
30668
30685
30661
30680
30676
30646
30659
30628
30596
30673
30591
30604
30629
30590
30612
30511
30540
30487
30567
30575
30668
30688
30790
30769
30883
30922
30971
30952
31012
31070
31155
31197
31251
31315
31286
31324
31347
31302
31320
31226
31218
31255
31221
31321
31303
31305
31229
31255
31236
31227
31199
31239
31288
31236
31268
31286
31256
31231
31140
31141
31080
31157
31066
31134
31119
31175
31167
31173
31183
31183
31132
31080
31106
31118
31025
31039
31065
31114
31053
31042
31111
31147
31206
31286
31259
31375
31435
31522
31470
31519
31628
31646
31751
31630
31684
31724
31835
31719
31713
31751
31751
31717
31590
31620
31630
31665
31556
31572
31597
31554
31607
31564
31520
31579
31610
31518
31460
31511
31461
31491
31398
31318
31333
31340
31293
31234
31127
31084
30999
30907
30813
30770
30699
30609
30655
30617
30560
30437
30447
30550
30742
30895
31142
31596
32152
32789
33463
34167
34851
35564
36359
37111
37847
38594
39235
39780
40199
40495
40830
41273
41472
41523
41452
41524
41743
41941
41901
41511
41151
40661
40032
39333
38671
38042
37383
36676
35875
35074
34361
33687
33148
32740
32423
32214
31973
31680
31550
31391
31157
30983
30918
30951
30893
30896
30805
30827
30884
30930
30862
30760
30762
30867
30902
30948
30916
30876
30961
31015
31015
31077
31010
30995
31089
31148
31219
31212
31152
31239
31328
31399
31355
31335
31384
31419
31351
31295
31345
31372
31375
31311
31281
31385
31464
31543
31639
31636
31561
31596
31631
31699
31716
31678
31731
31791
31853
31921
31897
31839
31863
31878
31900
31883
31814
31751
31751
31783
31796
31801
31807
31751
31605
31607
31620
31660
31590
31533
31595
31631
31631
31567
31569
31590
31623
31615
31577
31505
31452
31464
31529
31554
31572
31580
31550
31566
31619
31647
31695
31749
31761
31751
31708
31718
31764
31821
31838
31831
31780
31732
31791
31814
31847
31900
31965
32018
32068
32146
32209
32263
32349
32330
32307
32258
32287
32306
32293
32263
32183
32150
32184
32255
32311
32319
32320
32301
32301
32255
32262
32215
32188
32196
32220
32222
32176
32093
32041
32051
32007
31949
31908
31910
31918
31985
32023
32086
32114
32077
32031
32087
32114
32083
32050
31982
31943
31943
31987
32004
31962
31940
31953
31983
32019
32087
32121
32150
32217
32298
32359
32397
32417
32458
32487
32544
32532
32524
32539
32534
32538
32551
32572
32583
32555
32541
32509
32518
32569
32581
32616
32647
32677
32701
32715
32726
32742
32746
32717
32698
32685
32699
32715
32737
32753
32833
32871
32895
32918
32932
32966
33007
33007
32999
32968
33012
33031
33023
32974
32919
32868
32820
32767
32714
32649
32589
32535
32503
32503
32519
32543
32527
32527
32467
32415
32388
32330
32249
32221
32175
32118
32119
32087
32033
32012
32055
32083
32135
32178
32199
32213
32215
32230
32208
32221
32228
32188
32167
32087
32044
32054
32061
32087
32094
32119
32145
32181
32242
32275
32287
32341
32381
32417
32447
32482
32501
32495
32493
32505
32505
32562
32593
32613
32595
32553
32531
32519
32523
32549
32556
32583
32596
32582
32588
32592
32628
32644
32612
32567
32549
32535
32502
32508
32534
32611
32672
32681
32703
32743
32807
32820
32783
32759
32780
32837
32830
32807
32812
32832
32828
32821
32800
32818
32865
32884
32895
32935
32999
33062
33124
33116
33155
33212
33212
33211
33204
33235
33315
33335
33327
33285
33263
33338
33311
33276
33287
33373
33474
33482
33454
33462
33524
33639
33719
33709
33678
33659
33693
33663
33551
33475
33530
33490
33399
33351
33373
33447
33422
33382
33327
33351
33371
33407
33415
33399
33340
33391
33450
33468
33445
33412
33404
33439
33518
33565
33612
33649
33683
33749
33733
33741
33842
33946
33969
34008
34011
33980
33878
33863
33967
34023
34054
33991
33938
33981
34055
34075
34031
33975
33919
33952
34055
34079
34012
33949
33915
33892
33883
33946
33908
33829
33823
33770
33799
33920
33996
34063
34087
34079
34146
34197
34223
34221
34196
34118
34081
34124
34237
34228
34135
34062
34097
34103
34155
34196
34328
34406
34439
34447
34481
34510
34540
34594
34670
34667
34605
34517
34480
34412
34346
34303
34244
34207
34272
34383
34415
34431
34437
34420
34399
34405
34452
34564
34631
34653
34652
34586
34548
34567
34647
34682
34668
34619
34545
34615
34743
34776
34852
34876
34861
34930
34959
34999
35044
35134
35255
35247
35205
35133
35174
35199
35187
35193
35188
35196
35223
35240
35319
35421
35532
35619
35580
35487
35445
35455
35495
35542
35564
35588
35534
35461
35335
35275
35201
35134
35079
35055
35118
35263
35260
35269
35319
35308
35190
35132
35101
35053
34951
34835
34846
34864
34752
34635
34506
34459
34424
34511
34622
34563
34575
34630
34762
34927
35052
35131
35143
35159
35079
35023
34981
35007
35121
35148
35137
35103
35033
35029
35029
35124
35270
35277
35230
35117
35100
35119
35215
35207
35121
34964
34855
34768
34798
34711
34572
34340
34198
34097
34083
34069
33937
33793
33763
33828
33911
33788
33623
33663
33855
34055
34223
34380
34711
35275
35916
36463
37055
37842
38736
39516
40307
41111
41732
42473
43151
43625
43948
44149
44275
44564
44749
44799
44828
44884
44742
44703
44436
44023
43590
43004
42277
41501
40669
40061
39485
38728
37895
37015
36367
35960
35602
35151
34736
34431
34295
34139
33918
33751
33543
33414
33415
33500
33446
33350
33283
33224
33227
33217
33202
33127
32993
32860
32767
32688
32743
32669
32541
32413
32357
32340
32278
32263
32289
32293
32227
32180
32134
32138
32189
32175
32135
32075
32043
31997
31955
31968
31968
32087
32230
32207
32132
32070
32005
31934
31943
32018
31999
31938
31876
31796
31710
31626
31541
31459
31424
31431
31391
31330
31270
31265
31333
31398
31364
31292
31223
31148
31158
31190
31187
31183
31108
31023
30978
30948
30927
30894
30847
30831
30903
30896
30863
30839
30798
30789
30852
30895
30979
30967
30953
30934
30956
31024
31017
30943
30884
30876
30926
30943
30938
30866
30827
30799
30866
30940
30972
30895
30885
30950
30955
30888
30793
30722
30662
30663
30661
30657
30599
30527
30515
30587
30623
30604
30536
30429
30382
30426
30415
30343
30299
30274
30276
30334
30327
30238
30176
30149
30175
30274
30316
30332
30359
30369
30404
30438
30548
30633
30662
30630
30607
30596
30631
30740
30788
30789
30725
30670
30631
30663
30756
30727
30711
30631
30607
30640
30695
30716
30699
30675
30637
30591
30590
30716
30741
30708
30674
30721
30823
30951
31012
31046
31048
31029
31054
31132
31233
31430
31495
31479
31484
31501
31594
31636
31531
31479
31446
31519
31599
31679
31647
31686
31714
31820
31884
31908
31922
31887
31796
31719
31703
31824
31862
31797
31726
31662
31615
31596
31644
31812
31815
31723
31703
31709
31767
31868
31812
31724
31660
31615
31633
31749
31716
31623
31521
31428
31340
31404
31447
31391
31343
31359
31395
31527
31549
31512
31455
31412
31356
31333
31207
31101
31047
31023
31079
31154
31176
31151
31151
31148
31169
31118
31041
31054
31026
31015
31018
30994
30971
30957
30986
31078
31125
31155
31143
31173
31189
31220
31239
31287
31339
31434
31557
31622
31628
31601
31557
31630
31761
31831
31910
31989
32030
32020
31973
31943
32039
32188
32141
32084
32189
32325
32297
32260
32303
32327
32485
32471
32378
32299
32261
32297
32399
32324
32222
32062
31972
31972
32063
32087
32051
31999
32086
32206
32459
32613
32710
32772
32720
32657
32645
32591
32594
32687
32652
32559
32484
32504
32545
32692
32775
32775
32710
32741
32775
32939
32964
32960
32948
32916
32861
32883
32895
32874
32981
33042
32959
32916
32997
33100
33081
32989
33007
33180
33074
32977
32997
33090
33041
32900
32903
33008
33050
33015
32930
32967
33099
33133
33107
33019
32921
32903
32911
32983
33047
33126
33285
33246
33239
33339
33466
33409
33381
33456
33595
33516
33412
33359
33467
33559
33500
33452
33529
33717
33765
33722
33639
33623
33762
33732
33628
33421
33407
33358
33356
33323
33280
33260
33287
33318
33468
33499
33462
33430
33487
33580
33626
33567
33497
33542
33593
33671
33590
33444
33423
33415
33453
33331
33196
33185
33191
33185
33227
33318
33303
33220
33141
33134
33217
33313
33212
33126
33196
33343
33319
33184
33201
33271
33340
33308
33212
33263
33314
33356
33417
33495
33485
33402
33287
33228
33213
33164
33207
33175
32967
32934
32911
32978
32991
32999
32979
32912
32930
32935
33071
33029
32914
32967
32990
33135
33087
32988
32895
32855
32932
32901
32846
32785
32866
32902
33063
33105
33089
33020
33052
33076
33205
33283
33209
33021
32982
32999
32999
33110
33148
33148
33081
32917
32882
32887
32868
32954
33101
33097
33061
32967
32853
32793
32748
32718
32748
32762
32689
32614
32538
32555
32575
32643
32672
32644
32594
32476
32392
32406
32367
32341
32363
32258
32102
32070
32014
31986
32039
31889
31764
31751
31743
31904
31947
31893
31820
31799
31940
31919
31847
31799
31830
31903
32007
32028
31966
31911
31934
32039
32140
32079
31975
31946
31890
31842
31876
31980
31968
31911
31826
31723
31669
31689
31709
31811
31878
31861
31831
31748
31695
31591
31416
31271
31108
30947
30812
30709
30597
30530
30443
30494
30402
30311
30335
30438
30653
31006
31587
32135
32711
33287
33861
34607
35386
36284
37148
37936
38706
39317
39747
40439
41000
41503
41761
41991
42117
42095
41991
42153
42287
42375
42261
41828
41223
40552
39878
39054
38387
37844
37151
36397
35711
34911
34119
33428
32891
32508
32170
31978
31698
31428
31135
30907
30667
30500
30373
30272
30241
30258
30231
30199
30100
29989
29969
29900
29877
29926
29836
29667
29554
29520
29537
29447
29397
29381
29380
29537
29543
29557
29551
29529
29525
29529
29539
29633
29703
29689
29652
29597
29572
29534
29653
29656
29607
29594
29553
29503
29479
29466
29543
29683
29703
29735
29751
29716
29703
29625
29605
29652
29693
29716
29722
29681
29658
29655
29671
29751
29844
29871
29827
29791
29878
29919
30020
30020
29950
29905
29920
29903
29969
30005
29972
29919
29882
29867
29847
29845
29969
29953
29922
29894
29943
29962
30035
30029
30111
30202
30225
30165
30171
30140
30129
30185
30228
30308
30392
30402
30382
30338
30398
30413
30499
30446
30356
30295
30318
30357
30484
30636
30638
30592
30533
30549
30526
30634
30650
30603
30632
30735
30755
30724
30665
30719
30741
30907
30983
30983
30919
30880
30931
30974
31006
31079
31137
31220
31223
31149
31093
31118
31176
31271
31263
31194
31143
31125
31041
31038
31127
31157
31137
31082
30999
31063
31111
31223
31247
31270
31212
31324
31411
31533
31686
31746
31751
31636
31533
31567
31573
31535
31644
31676
31647
31531
31599
31692
31751
31933
32084
32103
32102
32060
32183
32226
32294
32279
32302
32263
32239
32288
32344
32543
32587
32550
32503
32575
32727
32859
33022
33094
33106
33028
33189
33263
33359
33367
33356
33273
33208
33279
33303
33280
33375
33386
33362
33304
33355
33399
33482
33390
33260
33159
33233
33267
33330
33327
33300
33193
33084
33031
33096
33141
33155
33119
33116
33083
33003
32962
33106
33252
33317
33303
33218
33239
33335
33457
33463
33402
33348
33351
33329
33355
33337
33269
33223
33156
33263
33369
33405
33351
33280
33210
33286
33388
33391
33295
33287
33359
33396
33431
33367
33575
33716
33791
33749
33599
33694
33689
33791
33815
33799
33655
33823
33981
33996
34018
33889
33999
33959
34049
34063
33982
33969
33892
33862
33776
33913
33943
33997
33962
33883
33799
33921
33978
34027
34041
34036
33974
33888
33855
33895
33953
33903
33831
33969
34068
34225
34205
34153
34120
34298
34343
34375
34348
34426
34375
34287
34241
34207
34130
34034
34055
34157
34278
34276
34198
34149
34190
34177
34218
34163
34135
34127
34073
34220
34311
34423
34405
34345
34213
34042
34079
34159
34180
34125
34130
34143
34052
34189
34204
34207
34173
34205
34191
34135
34044
33900
33986
33996
33983
33858
33750
33632
33491
33529
33531
33518
33568
33633
33655
33667
33671
33744
33773
33732
33689
33621
33500
33588
33631
33671
33719
33856
33895
33868
33880
33871
33814
33729
33764
33796
33871
33875
33921
33900
33820
33754
33643
33583
33607
33660
33701
33782
33853
33799
33762
33687
33863
33951
33951
33925
33887
33815
33732
33780
33868
33910
33927
33884
33836
33749
33652
33524
33635
33617
33711
33702
33683
33630
33543
33594
33679
33751
33857
33860
33823
33823
33767
33647
33703
33652
33615
33583
33603
33607
33615
33652
33682
33703
33671
33614
33737
33861
33926
33900
33927
33932
33951
33940
33965
33988
34031
34047
34151
34181
34154
34132
34084
34037
34128
34165
34263
34302
34242
34181
34100
34076
34010
33852
33862
33902
33990
34005
34020
34002
33974
33991
33968
33836
33842
33966
34101
34162
34183
34110
34016
33975
34019
34051
33986
33879
33711
33751
33839
33851
33925
33949
33831
33791
33772
33786
33952
33980
33915
33985
34036
33935
33743
33834
33860
33676
33443
33479
33527
33421
33318
33220
33350
33461
33519
33460
33332
33300
33417
33415
33351
33217
33256
33330
33297
33216
33201
33340
33511
33573
33503
33452
33410
33500
33563
33628
33614
33543
33422
33523
33540
33519
33413
33287
33169
33257
33343
33255
33073
33175
33263
33186
32979
33031
32900
32553
32467
32391
32154
32097
32110
32018
31830
31750
31822
31783
31873
32193
32399
32825
33448
33937
34815
35510
36007
36964
37659
38346
39412
40066
40586
41415
41852
42164
42620
43103
43182
43234
43580
43801
43803
43853
43898
43975
43575
42898
42356
41901
41147
40197
39873
39142
38333
37353
36646
35874
35269
34719
34287
33912
33618
33356
33074
32878
32679
32486
32309
32206
32167
32093
32062
32023
31924
31826
31703
31610
31479
31495
31510
31551
31601
31583
31507
31453
31470
31551
31566
31527
31365
31410
31511
31527
31509
31456
31389
31375
31333
31330
31264
31205
31252
31332
31409
31460
31549
31623
31729
31811
31904
31943
31976
31972
31971
31975
31943
31932
31847
31871
31930
31947
32015
32042
32066
32062
32020
31963
31920
32002
32062
32073
32038
31956
31905
31934
32004
32069
31989
31934
31778
31895
32004
32131
32135
32116
32049
32126
32164
32159
32103
32063
31957
31895
31981
32036
32094
32107
32039
32020
31922
31870
31879
31972
32007
32159
32243
32244
32207
32071
32146
32135
32204
32125
31942
31999
32084
32188
32244
32231
32183
32100
32167
32257
32239
32324
32336
32342
32343
32300
32231
32308
32359
32408
32423
32417
32304
32406
32442
32497
32532
32487
32456
32318
32409
32518
32510
32415
32479
32572
32591
32538
32508
32435
32333
32423
32501
32588
32519
32461
32549
32646
32612
32556
32663
32775
32963
32943
32851
32977
33019
32959
32895
32855
32714
32756
32775
32894
32837
32732
32655
32708
32839
32841
32850
32860
32831
32973
33049
33140
33198
33166
33113
33059
33153
33101
33204
33167
33138
33001
33090
33103
33197
33204
33159
33077
32934
32983
32921
33029
33070
33076
33036
33022
33015
32975
32835
32908
32901
32929
32831
32684
32831
32973
32966
32901
32925
32975
32980
32871
32693
32635
32702
32724
32655
32507
32543
32562
32634
32607
32551
32377
32411
32443
32492
32391
32183
32183
32185
32223
32151
32044
32095
32151
32104
32007
31991
32004
32042
31950
31772
31846
31845
31964
31946
31935
31813
31855
31876
31950
31940
31835
31695
31567
31567
31562
31588
31574
31463
31397
31471
31532
31711
31813
31842
31825
31830
31935
32028
32075
32059
32023
31898
31791
31748
31652
31600
31540
31570
31609
31548
31543
31530
31415
31463
31527
31591
31618
31578
31502
31517
31611
31633
31525
31417
31261
31133
31174
31215
31229
31201
31108
31225
31299
31393
31426
31399
31340
31443
31575
31492
31359
31417
31503
31440
31306
31327
31386
31351
31236
31112
31167
31141
31223
31271
31263
31183
31220
31223
31297
31135
31050
31103
31151
31119
31023
30941
31009
31113
31161
31135
31066
31057
31132
31227
31340
31349
31277
31173
31186
31181
31270
31222
31124
31062
31079
31085
31004
31065
31143
31127
30951
31079
31068
30951
31004
31065
31087
30945
30988
31097
31061
30958
30895
30937
30995
30930
30811
30767
30791
30797
30847
30881
30906
30890
30846
30903
30922
31039
31095
31027
30967
30971
30960
30999
30930
30823
30743
30745
30861
30761
30695
30765
30803
30922
30928
30841
30821
30818
30841
30687
30750
30855
30812
30695
30703
30749
30811
30933
30924
30867
30812
30837
30816
30902
30883
30810
30890
30941
31044
30930
30900
30963
31027
30983
30874
30886
30937
30929
30851
30830
30933
31107
31159
31175
31084
31159
31204
31409
31430
31352
31366
31457
31444
31367
31270
31252
31239
31311
31286
31253
31145
31132
31180
31284
31401
31419
31403
31326
31264
31335
31359
31445
31566
31546
31474
31524
31623
31623
31495
31465
31487
31617
31617
31524
31580
31612
31712
31773
31732
31671
31719
31748
31805
31815
31710
31659
31725
31787
31887
31868
31802
31901
32024
32119
32134
32103
32166
32256
32349
32316
32284
32277
32303
32361
32394
32317
32180
32130
32172
32180
32251
32358
32382
32381
32263
32372
32437
32417
32532
32513
32451
32325
32312
32339
32281
32297
32340
32316
32298
32170
32236
32323
32487
32547
32543
32492
32397
32417
32364
32296
32191
32013
31806
31567
31359
31273
31183
31163
31143
31079
31005
30974
31068
31293
31647
31972
32418
33007
33580
34148
34741
35464
36247
36969
37613
38271
38840
39674
40336
40808
41085
41366
41575
42044
42261
42343
42298
42283
42293
42164
41654
41372
40990
40566
40034
39351
38574
38007
37377
36694
35951
35265
34631
34336
34049
33799
33588
33391
33173
32977
32919
32827
32759
32561
32407
32215
32180
32231
32095
31991
32018
32037
32087
31996
31895
31954
31944
31881
31790
31693
31713
31702
31847
31838
31701
31751
31893
31827
31695
31698
31864
31911
31873
31901
31958
32108
32103
32079
32129
32263
32334
32245
32236
32328
32326
32263
32210
32263
32283
32415
32210
32271
32394
32391
32285
32293
32423
32327
32224
32287
32351
32430
32377
32263
32255
32271
32396
32364
32249
32157
32212
32367
32414
32443
32425
32465
32541
32511
32660
32642
32527
32629
32831
32817
32706
32748
32828
32911
32885
32847
32804
32743
32740
32822
32838
32822
32717
32786
32978
32990
32912
32906
32925
33055
33031
32953
32988
33083
33075
32883
32945
33046
33083
33007
32935
32949
33122
33093
32966
33040
33169
33140
32975
32990
32979
33124
33061
32918
32950
32975
32972
33092
33103
33054
33014
33073
33100
33164
33105
32991
32985
33059
33001
32887
32741
32706
32739
32788
32703
32639
32724
32855
32871
32769
32814
32877
32975
33057
33000
32906
32783
32842
32894
33040
33031
32999
32959
32966
32959
32887
32896
32911
33079
33064
32935
32967
33116
33041
33001
33009
33123
33044
32879
32929
32972
33055
33031
32921
32975
33113
33095
32976
33055
33157
33238
33207
33158
33087
33134
33297
33287
33165
33111
33223
33253
33091
33063
33105
33227
33114
33015
33059
33181
33311
33350
33276
33303
33358
33447
33327
33269
33319
33353
33247
33167
33135
33237
33113
33026
32937
32995
33071
33087
32989
32993
33031
33201
33162
33087
33137
33130
33265
33169
33083
32998
32983
33100
33043
32852
32843
32839
32962
32954
32895
32812
32865
32878
33030
32985
32836
32830
32805
32767
32903
32895
32770
32764
32806
32897
32722
32743
32875
32892
32846
32768
32802
33021
33054
32965
33022
33135
33248
33217
33093
33086
33095
33236
33239
33149
33030
33084
33218
33314
33343
33287
33233
33219
33329
33284
33163
33159
33172
33305
33183
33089
33031
33053
33219
33233
33220
33207
33282
33350
33498
33560
33560
33591
33548
33443
33447
33437
33479
33554
33580
33524
33364
33301
33255
33327
33351
33313
33319
33407
33435
33476
33452
33487
33572
33692
33596
33479
33407
33453
33421
33271
33164
33190
33303
33255
33143
33132
33118
33284
33297
33231
33143
33133
33252
33383
33340
33261
33284
33420
33379
33214
33128
33180
33204
33148
33103
33124
33361
33327
33287
33372
33533
33473
33349
33415
33598
33582
33499
33391
33364
33492
33535
33519
33463
33390
33382
33408
33519
33636
33618
33574
33638
33841
33889
33878
33828
33860
34014
34054
33991
33940
33989
34135
34081
34046
33999
34062
34261
34270
34231
34190
34216
34303
34349
34332
34220
34082
34068
34121
34225
34165
34116
34113
34138
34191
34165
34103
34084
34025
34074
34131
34183
34391
34427
34372
34356
34260
34236
34239
34228
34288
34417
34409
34404
34419
34415
34502
34562
34623
34663
34759
34754
34849
34714
34820
34820
34823
34687
34863
34669
34735
34695
34519
34386
34311
34387
34215
34165
34269
34391
34407
34375
34457
34501
34655
34751
34741
34655
34524
34513
34591
34643
34601
34535
34364
34333
34484
34486
34380
34295
34324
34455
34412
34263
34171
34235
34322
34309
34231
34107
34028
34122
34087
33935
33914
34033
34116
33985
33946
33982
34160
34215
34087
34049
34045
34158
34147
34004
33943
33895
33991
33986
33889
33731
33705
33811
33767
33691
33687
33811
33839
33772
33716
33709
33850
33889
33833
33714
33716
33868
33839
33813
33730
33695
33671
33759
33852
33790
33695
33516
33399
33461
33364
33142
32967
32943
32919
32740
32548
32412
32386
32374
32213
32173
32250
32453
32732
33065
33511
33990
34564
35287
36030
36679
37289
38032
38859
39652
40407
40900
41276
41578
41727
42023
42263
42453
42538
42503
42425
42358
42158
42070
41847
41398
40755
39988
39444
38957
38378
37572
36724
35951
35255
34745
34199
33748
33356
33047
32870
32745
32559
32319
32045
31868
31684
31582
31562
31479
31306
31169
31125
31131
31027
30911
30789
30791
30791
30803
30799
30801
30806
30836
30863
30812
30809
30871
30974
31015
30950
30908
30895
30908
30773
30654
30573
30612
30628
30605
30605
30644
30688
30679
30668
30649
30723
30719
30700
30653
30588
30599
30631
30596
30566
30535
30508
30503
30503
30495
30500
30510
30569
30655
30665
30658
30643
30695
30735
30663
30549
30546
30567
30516
30476
30511
30564
30543
30556
30612
30676
30685
30657
30631
30634
30651
30647
30622
30667
30667
30589
30518
30438
30395
30369
30321
30274
30255
30258
30294
30301
30338
30431
30513
30535
30583
30580
30567
30566
30547
30534
30508
30499
30533
30532
30543
30527
30500
30511
30545
30560
30563
30578
30599
30636
30636
30619
30593
30645
30644
30615
30631
30591
30595
30625
30619
30628
30679
30719
30754
30779
30777
30778
30766
30772
30735
30699
30632
30585
30557
30532
30479
30388
30354
30323
30314
30311
30369
30394
30431
30485
30578
30685
30737
30767
30790
30823
30847
30887
30922
30936
30967
31007
31036
31057
31058
31074
31137
31215
31307
31372
31458
31479
31456
31469
31564
31591
31601
31612
31628
31669
31729
31790
31783
31763
31725
31686
31710
31751
31807
31834
31897
31909
31919
31863
31850
31847
31831
31782
31751
31770
31787
31811
31801
31743
31671
31692
31740
31778
31740
31733
31740
31694
31645
31644
31644
31623
31573
31533
31467
31438
31424
31423
31367
31294
31270
31252
31220
31213
31189
31183
31177
31166
31159
31186
31223
31295
31316
31305
31296
31271
31271
31265
31252
31274
31239
31223
31239
31238
31229
31206
31239
31278
31316
31337
31393
31407
31399
31428
31421
31431
31433
31425
31422
31396
31358
31329
31326
31319
31336
31334
31343
31361
31388
31334
31302
31239
31215
31197
31187
31223
31268
31292
31314
31354
31390
31461
31463
31487
31533
31589
31620
31668
31681
31671
31686
31695
31692
31727
31708
31657
31634
31607
31615
31606
31606
31616
31631
31693
31743
31791
31818
31862
31910
31933
31900
31906
31945
31991
32023
32036
32063
32095
32090
32072
32046
32035
32039
32092
32190
32275
32310
32315
32310
32289
32295
32327
32335
32306
32281
32247
32228
32214
32212
32202
32175
32119
32077
32090
32105
32112
32121
32118
32113
32150
32149
32107
32124
32165
32204
32220
32183
32159
32167
32231
32295
32349
32375
32431
32509
32558
32630
32623
32634
32657
32711
32751
32772
32791
32804
32833
32855
32839
32764
32729
32738
32774
32799
32772
32788
32830
32873
32910
32887
32876
32894
32914
32902
32914
32933
32980
32980
32957
32882
32846
32852
32870
32900
32953
33022
33087
33206
33312
33328
33323
33343
33379
33351
33287
33229
33185
33179
33117
33070
33013
33028
33052
33063
33091
33110
33115
33111
33133
33199
33244
33302
33350
33367
33367
33353
33386
33365
33361
33407
33450
33460
33418
33415
33458
33567
33615
33583
33527
33484
33452
33499
33518
33468
33414
33389
33402
33425
33450
33423
33414
33498
33591
33642
33649
33628
33634
33685
33667
33639
33599
33601
33607
33639
33679
33660
33587
33500
33441
33439
33456
33475
33470
33451
33425
33429
33460
33511
33522
33492
33454
33424
33439
33455
33444
33397
33381
33399
33422
33359
33319
33268
33215
33205
33243
33283
33319
33313
33286
33246
33268
33319
33347
33331
33268
33223
33167
33102
33031
33012
32997
32983
32973
33018
33063
33092
33131
33181
33212
33217
33213
33191
33191
33186
33167
33111
33030
32956
32884
32749
32596
32454
32335
32215
32151
32108
32117
32134
32108
32072
32135
32254
32416
32653
32953
33362
33937
34567
35157
