ECG
32156
32090
32237
32343
32261
32423
32363
32381
32519
32475
32343
32332
32428
32238
32289
32263
32125
32219
32023
32119
32156
32062
32117
32273
32238
32238
32358
32462
32319
32414
32383
32247
32295
32135
32166
31999
32111
31935
32016
31919
31947
31990
31993
32089
32046
32175
32228
32115
32259
32108
32151
32140
31975
32007
31892
31805
31870
31695
31783
31806
31640
31781
31719
31751
31913
31786
31886
31857
31781
31799
31855
31831
31670
31630
31657
31599
31446
31433
31495
31403
31395
31526
31509
31483
31558
31652
31582
31569
31709
31591
31593
31660
31468
31563
31433
31452
31439
31295
31380
31315
31343
31506
31472
31471
31630
31663
31628
31778
31712
31668
31764
31804
31661
31767
31623
31685
31653
31557
31647
31751
31670
31861
31935
31903
32078
32121
32132
32346
32271
32351
32487
32362
32379
32513
32383
32354
32442
32401
32365
32511
32489
32490
32699
32671
32740
32903
32796
32863
33052
32908
32948
33094
32932
32976
33026
32853
32852
32973
32885
32843
32932
33021
32905
32951
33075
33159
33052
33135
33259
33173
33087
33136
33181
32991
32927
32974
33023
32810
32828
32940
32820
32870
33044
33009
33007
33131
33247
33207
33105
33139
33255
33118
33031
33056
33140
32949
32917
33029
33043
32892
32977
33068
32967
33147
33261
33165
33183
33319
33335
33158
33225
33341
33145
33180
33181
33018
33060
33117
32977
33118
32973
33157
33143
33132
33285
33154
33300
33268
33333
33369
33219
33328
33258
33147
33211
33061
33006
33122
33022
33020
33144
33020
33132
33231
33154
33157
33287
33295
33167
33191
33306
33151
33093
33177
33102
33008
33125
33010
32964
33086
33030
32979
33175
33123
33135
33333
33209
33287
33343
33184
33283
33284
33058
33073
33159
33015
32943
33027
33062
32903
33001
33102
32986
33055
33204
33124
33115
33249
33303
33123
33133
33219
33068
33111
33119
32950
33002
33044
32908
32861
32986
33016
32952
33044
33193
33064
33210
33271
33133
33236
33055
33158
33016
33127
32948
33063
32903
32881
32981
32839
32951
33008
32903
33060
33120
33000
33103
33125
33005
33100
33012
32942
33027
32809
32894
32766
32695
32766
32599
32662
32742
32629
32796
32814
32743
32859
32895
32758
32872
32877
32775
32849
32791
32644
32770
32599
32588
32683
32551
32611
32783
32687
32759
32938
33005
32940
33108
33172
33070
33230
33135
33188
33236
33044
33050
33113
32935
32974
33051
32962
33046
33156
33145
33254
33330
33191
33323
33319
33247
33367
33375
33206
33214
33287
33118
33013
33031
33028
32858
32875
32996
32967
32943
33093
33159
33050
33147
33233
33246
33070
33124
33151
32982
32951
33023
32909
32860
32943
32767
32826
32926
32811
32938
33044
32978
32973
33116
33019
32992
33112
32983
32949
33017
32972
32824
32927
32833
32767
32850
32871
32732
32811
32913
32918
32845
32954
33060
32967
32963
33048
33030
32879
32903
32985
32924
32759
32782
32861
32775
32735
32820
32879
32788
32854
32999
32975
32951
33085
33048
32972
33076
33029
32897
32995
32870
32841
32859
32689
32735
32538
32478
32431
32287
31990
31773
31620
31469
31259
31194
31239
31190
31147
31205
31149
31225
31490
31785
31983
32381
32743
33103
33781
34306
34875
35500
35879
36552
37465
37982
38703
39878
40687
41444
42180
42343
42118
41933
41399
40402
39642
38391
36711
35245
33919
32717
32040
31876
31922
32352
32938
33334
33853
34245
34288
34346
34445
34223
34157
34197
34130
34122
34297
34353
34228
34294
34245
33948
33797
33746
33479
33297
33265
33087
32852
32810
32595
32470
32462
32297
32135
32143
32021
31900
31905
31930
31879
31789
31879
31901
31828
31890
31909
31838
31803
31828
31871
31844
31781
31847
31792
31737
31831
31844
31815
31934
31903
31991
32004
32080
32004
32133
31999
32040
32108
31996
31988
32041
32074
31990
32033
32103
32007
32029
32127
32156
32116
32188
32286
32237
32198
32287
32285
32199
32295
32190
32184
32263
32147
32177
32234
32143
32166
32261
32225
32189
32259
32329
32253
32349
32383
32263
32300
32319
32230
32260
32298
32253
32141
32193
32239
32124
32159
32243
32247
32190
32233
32291
32208
32263
32285
32222
32319
32232
32171
32205
32198
32077
32111
32116
32007
32075
32084
32007
32077
32135
32040
32102
32150
32037
32071
32148
32031
32081
32087
31993
32051
32021
31901
31937
31879
31842
31890
31916
31857
31887
31969
31879
31887
31892
31845
31804
31879
31775
31751
31757
31623
31668
31605
31597
31598
31517
31566
31582
31499
31542
31569
31513
31553
31612
31559
31533
31529
31542
31488
31443
31489
31438
31350
31391
31396
31332
31335
31380
31324
31388
31447
31407
31432
31514
31479
31478
31483
31495
31423
31463
31498
31423
31423
31449
31442
31421
31468
31538
31545
31503
31574
31652
31711
31718
31761
31854
31945
31907
31957
32050
32066
32028
32057
32159
32177
32176
32289
32406
32390
32396
32538
32539
32567
32668
32748
32702
32689
32796
32839
32761
32826
32933
32901
32823
32891
32955
32887
32871
32952
33026
32939
32980
33097
33116
33057
33146
33135
33063
33181
33141
33177
33154
33087
33186
33048
33137
33181
33081
32991
33002
32949
32735
32709
32796
32739
32845
33076
33131
33335
33610
33754
33667
33723
33734
33529
33305
33159
33036
32854
32677
32634
32695
32678
32719
32908
32977
33049
33300
33512
33543
33710
33828
33649
33661
33396
33212
33087
32775
32739
32668
32572
32612
32701
32680
32763
32999
33112
33229
33503
33628
33677
33819
33810
33564
33479
33287
32965
32871
32740
32591
32631
32676
32613
32701
32892
33053
33093
33277
33512
33543
33733
33815
33633
33615
33501
33174
32999
32839
32643
32671
32556
32569
32684
32783
32767
32981
33064
33230
33503
33524
33642
33749
33594
33498
33420
33142
32879
32810
32591
32581
32573
32508
32647
32612
32750
32915
32971
33258
33316
33595
33681
33628
33702
33543
33334
33207
32871
32775
32623
32543
32582
32514
32629
32639
32732
32937
32966
33254
33318
33523
33676
33593
33634
33518
33238
33128
32860
32636
32561
32428
32461
32375
32464
32493
32590
32796
32869
33115
33223
33363
33542
33429
33468
33255
33120
32900
32647
32551
32334
32341
32261
32326
32431
32439
32625
32668
32847
33077
33223
33325
33575
33567
33532
33511
33255
33146
32964
32719
32700
32715
32665
32722
32687
32765
32967
33021
33228
33452
33519
33780
33935
33851
33863
33802
33489
33385
33111
32911
32866
32749
32660
32733
32748
32797
32975
32997
33162
33364
33423
33662
33751
33666
33709
33542
33335
33208
32882
32791
32698
32540
32574
32575
32556
32702
32782
32872
33152
33218
33428
33587
33630
33566
33554
33511
33236
32974
32797
32689
32527
32415
32447
32495
32480
32599
32766
32808
32996
33245
33379
33438
33647
33655
33480
33404
33287
32993
32794
32664
32487
32417
32436
32423
32436
32572
32727
32807
32943
33157
33342
33412
33482
33591
33581
33341
33152
33006
32799
32598
32543
32455
32355
32439
32477
32509
32649
32820
32889
33073
33220
33172
33188
33018
32732
32375
31919
31401
30991
30708
30541
30461
30437
30436
30488
30631
30908
31340
31805
32289
32838
33364
33894
34590
35191
35429
35811
36375
36799
37241
37954
38861
39693
40813
41735
42079
42329
42676
42631
42092
41388
40695
39427
37694
36141
34620
33252
32363
31983
31973
32287
32724
33107
33486
33829
33906
34055
34206
34190
34311
34628
34777
34799
34948
34872
34540
34289
33981
33481
33071
32863
32637
32439
32397
32253
32204
32263
32263
32309
32468
32495
32576
32551
32427
32327
32151
31893
31646
31420
31239
31119
31045
31040
31068
31115
31253
31345
31516
31687
31863
32091
32237
32257
32329
32263
32045
31900
31678
31423
31276
31205
31161
31140
31159
31239
31335
31479
31655
31812
32012
32196
32273
32415
32462
32317
32146
32004
31770
31518
31382
31271
31198
31194
31201
31300
31433
31524
31676
31864
32017
32209
32398
32383
32455
32391
32175
32066
31845
31599
31475
31388
31318
31306
31352
31386
31491
31651
31767
31892
32119
32263
32351
32459
32503
32365
32230
32081
31803
31552
31438
31367
31263
31255
31308
31387
31452
31569
31741
31916
32083
32247
32438
32475
32437
32423
32240
31980
31764
31562
31373
31271
31215
31165
31216
31260
31303
31427
31569
31679
31879
32086
32185
32212
32247
32193
31989
31823
31614
31357
31140
31023
30950
30915
30963
31009
31076
31190
31287
31418
31636
31772
31942
31995
31971
31930
31721
31490
31244
31034
30873
30753
30727
30700
30709
30775
30860
30958
31119
31260
31450
31665
31807
31831
31839
31751
31595
31391
31185
30951
30805
30713
30679
30687
30727
30817
30933
31052
31216
31427
31604
31788
31990
32045
32052
32038
31895
31706
31534
31347
31202
31163
31164
31195
31260
31389
31519
31663
31889
32091
32276
32551
32766
32816
32847
32880
32765
32529
32353
32204
32071
31980
31997
32044
32092
32181
32346
32500
32622
32823
33110
33317
33415
33471
33560
33543
33311
33132
32962
32820
32599
32513
32537
32519
32509
32647
32829
32927
33005
33227
33436
33531
33757
33871
33770
33675
33603
33419
33089
32892
32793
32638
32642
32687
32655
32710
32903
32976
33079
33325
33486
33602
33833
33899
33781
33732
33655
33357
33120
33004
32817
32727
32758
32696
32736
32882
32931
33044
33254
33357
33581
33799
33816
33991
33888
33831
33747
33402
33255
33081
32860
32804
32805
32743
32807
32934
32951
33116
33340
33443
33653
33946
33959
34023
34078
33869
33697
33599
33362
33073
33013
32869
32775
32823
32841
32857
33012
33169
33225
33484
33676
33743
33971
33984
33872
33870
33712
33439
33295
33067
32881
32852
32787
32725
32774
32877
32889
33065
33279
33366
33602
33837
33921
33871
33899
33873
33644
33415
33242
33058
32835
32766
32763
32748
32719
32876
33021
33048
33240
33439
33526
33764
33933
33871
33833
33841
33600
33349
33183
32972
32793
32807
32789
32723
32768
32893
33005
33050
33233
33476
33595
33727
33938
33951
33827
33799
33579
33287
33147
32903
32692
32637
32580
32516
32612
32701
32759
32958
33036
33199
33439
33498
33613
33764
33622
33517
33387
33078
32932
32625
32513
32476
32454
32399
32516
32555
32714
32935
33041
33207
33521
33606
33753
33909
33844
33704
33636
33431
33127
32997
32850
32708
32679
32752
32759
32852
33028
33069
33315
33452
33606
33869
33863
33900
33972
33771
33618
33476
33167
32902
32819
32743
32598
32573
32660
32682
32831
32917
33053
33319
33405
33522
33685
33734
33619
33479
33383
33148
32831
32630
32547
32455
32359
32387
32477
32582
32625
32749
32967
33175
33268
33435
33591
33709
33574
33447
33348
33125
32808
32647
32582
32483
32394
32438
32503
32508
32607
32790
32911
33027
33287
33503
33518
33615
33638
33391
33208
33049
32811
32572
32471
32429
32358
32324
32377
32487
32591
32665
32843
33082
33212
33338
33461
33563
33439
33279
33190
32966
32669
32504
32381
32263
32281
32247
32211
32255
32300
32290
32241
32236
32230
32099
31949
31799
31649
31500
31331
31122
30881
30718
30695
30807
31070
31415
31748
32188
32775
33360
34015
34931
35640
36138
36743
37591
38253
38764
39287
40024
40839
41444
41556
41495
41547
41199
40436
39798
38895
37479
35941
34612
33568
32692
32303
32278
32421
32759
33111
33287
33482
33626
33533
33542
33517
33381
33481
33505
33611
33900
34032
34287
34526
34452
34530
34451
34095
33823
33535
33070
32807
32468
32178
32060
31907
31817
31825
31831
31821
31898
31987
32046
32135
32271
32351
32263
32202
32095
31892
31692
31506
31308
31199
31127
31118
31156
31168
31279
31426
31559
31746
31959
32100
32292
32429
32387
32393
32263
32047
31852
31647
31450
31362
31316
31279
31288
31370
31458
31598
31775
31935
32123
32372
32469
32590
32639
32533
32423
32308
32031
31782
31613
31486
31411
31399
31438
31511
31583
31725
31909
32039
32239
32453
32557
32639
32706
32647
32463
32278
32111
31879
31676
31585
31509
31463
31507
31580
31652
31751
31955
32128
32260
32458
32663
32695
32775
32614
32507
32263
32071
31814
31657
31596
31486
31478
31517
31560
31645
31751
31874
32046
32270
32404
32566
32652
32613
32604
32396
32204
31995
31748
31536
31429
31315
31315
31347
31373
31460
31617
31737
31831
32007
32213
32319
32364
32428
32385
32187
32033
31734
31535
31356
31203
31135
31108
31123
31142
31263
31399
31495
31609
31809
31996
32107
32215
32263
32129
31980
31823
31580
31343
31164
31017
30959
30945
30967
31007
31123
31233
31341
31541
31759
31882
32079
32119
32117
32100
31916
31720
31565
31361
31164
31097
31061
31015
31065
31131
31263
31398
31522
31740
31908
32071
32292
32340
32367
32405
32223
32126
31869
31714
31565
31456
31524
31516
31570
31696
31780
31999
32197
32337
32583
32831
33011
32999
33061
33095
32902
32736
32628
32407
32217
32196
32135
32128
32214
32289
32388
32593
32766
32863
33150
33389
33447
33631
33663
33494
33413
33260
32951
32731
32629
32561
32436
32431
32513
32519
32611
32794
33007
33063
33328
33561
33567
33664
33759
33566
33463
33364
33047
32804
32728
32562
32543
32563
32516
32675
32724
32866
33076
33128
33404
33579
33662
33866
33765
33684
33607
33362
33088
32943
32700
32669
32623
32533
32606
32750
32751
32909
33157
33279
33388
33588
33799
33846
33729
33685
33628
33420
33108
32889
32831
32732
32608
32667
32739
32743
32804
32996
33181
33271
33417
33680
33862
33789
33777
33761
33489
33406
33178
32857
32767
32695
32575
32669
32716
32702
32871
32989
33082
33319
33575
33702
33736
33839
33894
33751
33538
33422
33213
32913
32804
32727
32631
32586
32643
32775
32837
32890
33121
33267
33374
33585
33783
33810
33683
33702
33583
33287
33089
32943
32734
32582
32614
32549
32590
32740
32775
33005
33076
33210
33502
33567
33693
33841
33686
33672
33471
33285
33120
32788
32706
32623
32513
32603
32550
32639
32791
32837
33087
33126
33404
33531
33655
33788
33620
33630
33347
33221
32967
32679
32619
32523
32390
32396
32490
32514
32570
32775
32818
33070
33182
33334
33510
33461
33568
33356
33262
33070
32770
32652
32476
32319
32355
32327
32354
32534
32575
32812
32973
33116
33436
33497
33671
33815
33707
33606
33611
33341
33069
32876
32814
32648
32615
32705
32678
32719
32945
33028
33127
33390
33535
33647
33878
33829
33879
33842
33532
33390
33183
32875
32831
32661
32507
32538
32551
32534
32734
32868
32947
33214
33439
33471
33604
33767
33661
33596
33537
33196
32950
32806
32641
32463
32546
32424
32557
32639
32703
32943
32985
33215
33436
33495
33662
33786
33630
33630
33447
33119
33013
32762
32598
32564
32431
32557
32541
32601
32805
32864
33003
33268
33375
33532
33690
33572
33578
33606
33400
33377
33070
32879
32807
32599
32508
32544
32584
32557
32724
32863
32892
33068
33364
33519
33543
33649
33706
33517
33437
33370
33132
32854
32761
32655
32508
32519
32567
32450
32439
32476
32377
32366
32364
32183
32132
32057
31871
31720
31636
31516
31252
31083
31042
31051
31323
31646
31921
32373
32918
33411
34215
35003
35563
36334
36987
37718
38242
38663
39478
40357
40782
41365
41754
41647
41350
41039
40423
39543
38383
37227
35819
34236
33280
32425
31993
32089
32247
32561
33004
33186
33503
33572
33570
33655
33437
33479
33483
33402
33639
33758
33903
34278
34374
34479
34638
34521
34257
34055
33846
33394
33031
32799
32450
32243
32149
32072
31955
31967
32074
32018
32095
32278
32316
32383
32531
32439
32388
32375
32091
31943
31772
31518
31414
31372
31287
31327
31415
31430
31548
31734
31825
32021
32271
32327
32543
32635
32474
32509
32232
32103
31868
31584
31503
31436
31364
31451
31438
31520
31712
31805
31932
32200
32364
32435
32595
32720
32661
32508
32413
32295
32043
31783
31695
31669
31567
31559
31639
31729
31742
31905
32132
32246
32383
32616
32764
32737
32725
32694
32575
32322
32160
32018
31770
31724
31694
31612
31640
31780
31869
31911
32074
32327
32493
32567
32721
32876
32807
32647
32551
32428
32237
31952
31775
31748
31724
31619
31676
31815
31837
32007
32211
32291
32519
32751
32705
32763
32796
32574
32458
32298
31996
31759
31626
31579
31453
31463
31568
31671
31686
31857
32033
32100
32285
32505
32632
32575
32550
32484
32191
32076
31751
31604
31362
31319
31215
31246
31262
31396
31475
31556
31787
31853
32043
32233
32311
32292
32309
32179
31923
31698
31527
31264
31111
31071
31034
30965
31058
31188
31239
31398
31607
31732
31933
32163
32156
32194
32211
32021
31879
31751
31485
31246
31156
31104
31007
31079
31140
31171
31364
31452
31612
31895
32032
32191
32389
32286
32373
32300
32045
31911
31767
31495
31435
31477
31420
31438
31562
31725
31879
31994
32127
32364
32654
32820
32854
32991
33007
32797
32716
32616
32380
32131
32102
32060
31975
32078
32167
32159
32371
32550
32614
32916
33194
33282
33314
33468
33472
33222
33057
32964
32720
32449
32444
32252
32314
32282
32308
32511
32516
32738
32898
32976
33319
33358
33503
33609
33429
33423
33255
32988
32863
32612
32415
32422
32388
32319
32453
32527
32588
32823
32919
33108
33378
33423
33649
33599
33513
33521
33364
32992
32847
32711
32503
32391
32398
32491
32562
32546
32656
32883
33077
33165
33301
33554
33727
33634
33553
33551
33406
33067
32858
32756
32611
32452
32535
32551
32478
32671
32806
32819
33086
33316
33381
33538
33748
33701
33574
33567
33359
33039
32910
32684
32507
32519
32412
32415
32580
32593
32705
32983
33025
33175
33475
33639
33586
33717
33654
33399
33323
33143
32767
32643
32585
32405
32374
32438
32525
32519
32713
32918
32965
33143
33446
33572
33535
33642
33639
33338
33247
33096
32756
32508
32470
32455
32316
32296
32437
32600
32653
32718
32955
33226
33260
33415
33618
33503
33439
33443
33234
32897
32767
32634
32374
32396
32373
32340
32487
32577
32595
32789
33043
33076
33238
33497
33599
33496
33497
33444
33199
32849
32668
32542
32284
32247
32322
32295
32263
32399
32631
32656
32807
33090
33276
33263
33375
33501
33303
33105
32995
32758
32426
32350
32249
32071
32031
32135
32247
32236
32427
32695
32766
33008
33324
33335
33576
33601
33420
33394
33269
32923
32762
32651
32423
32354
32410
32455
32433
32577
32807
32968
33013
33327
33603
33732
33687
33799
33799
33490
33339
33219
32879
32639
32613
32582
32420
32402
32537
32463
32577
32853
32935
33118
33429
33420
33504
33641
33527
33260
33164
33018
32711
32430
32366
32401
32256
32287
32455
32546
32549
32729
33005
33111
33286
33567
33661
33503
33484
33427
33079
32932
32740
32452
32430
32382
32247
32308
32476
32532
32526
32711
33014
33076
33295
33572
33648
33508
33476
33444
33095
32922
32813
32516
32348
32369
32342
32274
32351
32565
32717
32719
32916
33237
33329
33422
33574
33615
33586
33287
33214
33038
32668
32503
32495
32375
32247
32355
32463
32383
32464
32612
32586
32591
32705
32587
32294
32167
31937
31564
31371
31191
30892
30726
30681
30722
30828
31195
31612
31917
32447
33062
33560
34415
35249
35732
36391
36996
37428
38204
38520
39271
40157
40661
41374
41767
41735
41583
41311
40534
39846
38908
37482
36246
34746
33529
32555
32031
31910
32083
32334
32444
32775
33141
33204
33287
33497
33473
33391
33614
33717
33882
34116
34218
34548
34780
34647
34658
34539
34055
33831
33465
32987
32805
32575
32334
32303
32087
32164
32207
32140
32263
32429
32476
32478
32620
32637
32492
32519
32199
32042
31845
31532
31439
31411
31263
31303
31417
31412
31538
31766
31803
31965
32263
32346
32447
32630
32651
32455
32337
32255
31937
31741
31655
31479
31433
31524
31516
31519
31700
31832
31889
32119
32422
32555
32610
32755
32815
32606
32605
32351
32079
31957
31804
31593
31546
31623
31589
31671
31877
31903
32071
32351
32519
32559
32788
32973
32922
32751
32721
32560
32230
32086
31917
31690
31646
31751
31796
31751
31929
32108
32164
32325
32584
32801
32878
32858
32953
32932
32647
32471
32346
32021
31862
31873
31823
31678
31804
31902
31908
32059
32287
32302
32531
32842
32823
32916
33020
32804
32615
32493
32282
31910
31825
31692
31546
31647
31596
31637
31812
31936
31975
32174
32454
32476
32639
32799
32668
32545
32508
32151
31978
31842
31553
31393
31453
31367
31330
31439
31535
31599
31828
31959
32066
32354
32507
32437
32458
32475
32194
31941
31726
31588
31313
31179
31204
31228
31185
31207
31372
31495
31548
31829
32063
32103
32259
32407
32363
32199
32126
31924
31550
31343
31284
31209
31044
31111
31119
31159
31364
31495
31553
31863
31998
32149
32414
32358
32382
32423
32143
31970
31850
31535
31478
31413
31297
31412
31451
31508
31765
31831
32036
32301
32376
32697
32900
32879
32940
33001
32774
32540
32404
32223
31934
31927
31964
31866
31895
32081
32189
32247
32519
32716
32835
33143
33226
33270
33415
33260
33108
33055
32639
32569
32303
32320
32277
32131
32244
32415
32435
32447
32655
32934
32988
33183
33415
33517
33383
33263
33178
33052
32705
32463
32405
32355
32151
32201
32358
32374
32404
32623
32773
32870
33222
33279
33427
33615
33481
33391
33375
33023
32900
32599
32434
32465
32302
32383
32398
32408
32676
32655
32879
33174
33207
33495
33533
33602
33709
33485
33441
33107
32967
32747
32507
32535
32342
32480
32396
32495
32757
32732
33012
33075
33336
33570
33533
33661
33772
33519
33429
33311
32948
32825
32671
32458
32524
32527
32423
32614
32759
32769
33062
33126
33388
33649
33601
33767
33791
33521
33439
33319
32919
32841
32715
32471
32492
32558
32449
32560
32774
32756
32911
33162
33220
33535
33551
33583
33684
33499
33356
33276
32881
32707
32669
32423
32391
32455
32444
32478
32683
32778
32850
33145
33275
33382
33650
33551
33535
33548
33239
33175
32921
32601
32590
32352
32359
32412
32313
32425
32639
32615
32845
33071
33085
33367
33534
33439
33527
33403
33213
33248
33003
32935
33013
32797
32863
32903
32732
32799
32835
32655
32746
32712
32655
32762
32761
32707
32839
32813
32655
32728
32767
32762
32630
32593
32673
32710
32608
32574
32652
32710
32607
32551
32623
32668
32501
32550
32607
32447
32547
32517
32395
32537
32505
32479
32596
32551
32479
32596
32602
32510
32610
32573
32517
32641
32516
32563
32652
32514
32644
32647
32629
32786
32663
32843
32746
32884
32895
32803
32953
32932
32838
32966
32879
32851
32980
32858
32839
32952
32831
32804
32884
32877
32791
32916
32956
32841
32954
32877
32824
32910
32924
32738
32775
32860
32698
32666
32736
32756
32646
32767
32623
32604
32731
32707
32657
32775
32729
32682
32828
32686
32791
32659
32740
32757
32615
32681
32743
32579
32677
32678
32591
32656
32687
32609
32746
32767
32679
32820
32718
32723
32871
32687
32747
32803
32665
32703
32803
32644
32639
32743
32608
32647
32799
32650
32775
32807
32757
32895
32759
32903
32735
32847
32725
32842
32731
32709
32842
32703
32788
32738
32715
32859
32759
32774
32881
32748
32902
32775
32908
32770
32766
32838
32620
32631
32323
32227
31986
31661
31452
31103
30940
30910
30763
30822
30849
30743
30846
30849
31068
31361
31615
32041
32207
32734
33312
33826
34613
34992
35668
36471
37101
37933
38943
39830
41182
42132
42601
43293
43271
43236
42969
42068
41335
40287
38647
37150
35502
33845
32831
32116
31931
32214
32592
32969
33540
33970
34002
34122
34236
34001
33951
34071
33930
33924
34127
34092
34031
34119
33866
33687
33639
33401
33153
33143
32965
32820
32805
32676
32462
32470
32350
32149
32100
32077
31832
31851
31673
31695
31687
31509
31580
31624
31525
31657
31687
31604
31748
31655
31742
31701
31631
31754
31644
31684
31718
31572
31633
31679
31595
31717
31574
31623
31708
31618
31718
31636
31591
31683
31559
31703
31623
31682
31886
31876
32100
32219
32215
32311
32092
32071
31859
31708
31681
31445
31426
31490
31399
31554
31471
31602
31782
31799
32107
32121
32391
32325
32452
32361
32262
32213
31911
31847
31543
31565
31383
31397
31500
31439
31620
31671
31790
32043
32075
32359
32455
32497
32612
32355
32335
32055
31863
31782
31521
31447
31439
31343
31491
31413
31526
31704
31692
31949
32181
32215
32419
32516
32327
32348
32244
31948
31844
31636
31374
31377
31311
31236
31356
31396
31361
31564
31744
31808
32126
32135
32331
32404
32199
32164
32036
31703
31582
31431
31173
31140
31121
31013
31104
31183
31170
31359
31551
31636
31868
32070
31992
32028
32105
31887
31692
31599
31313
31092
31057
30849
30812
30903
30863
30930
31101
31231
31283
31483
31772
31846
31950
32087
32007
31839
31773
31644
31298
31196
31023
30919
30963
30890
30930
31122
31142
31350
31435
31722
31779
32038
32209
32161
32245
31991
31963
31679
31516
31366
31260
31269
31223
31350
31404
31463
31726
31868
32004
32365
32464
32686
32935
32797
32863
32804
32541
32486
32159
32016
31985
31833
31916
32000
31952
32177
32378
32414
32609
32916
33102
33212
33383
33474
33263
33159
33135
32775
32687
32466
32325
32279
32260
32330
32503
32620
32708
32768
32935
33142
33310
33555
33652
33555
33488
33449
33308
32901
32714
32635
32555
32374
32404
32537
32620
32597
32735
33020
33011
33223
33535
33513
33740
33719
33559
33543
33279
33003
32907
32679
32517
32591
32412
32519
32671
32677
32769
33015
33212
33281
33588
33765
33689
33799
33702
33432
33370
33090
32807
32775
32540
32569
32628
32561
32576
32796
32962
32972
33274
33468
33534
33789
33857
33734
33796
33511
33311
33231
32855
32709
32759
32533
32617
32743
32666
32769
33030
33040
33333
33573
33597
33796
33897
33746
33826
33511
33506
33102
32959
32811
32618
32663
32519
32716
32654
32923
32903
33158
33380
33568
33734
33826
33767
33887
33795
33522
33396
33234
32881
32735
32769
32652
32556
32604
32636
32851
32999
32997
33262
33448
33532
33767
33871
33759
33791
33583
33302
33215
32877
32664
32663
32703
32531
32568
32775
32848
32828
33081
33317
33387
33630
33823
33719
33830
33862
33516
33426
33200
32845
32761
32727
32489
32615
32612
32634
32876
32900
32999
33315
33381
33553
33822
33685
33767
33743
33441
33314
33073
32796
32775
32507
32550
32591
32509
32711
32657
32838
33115
33113
33431
33454
33638
33783
33588
33637
33348
33111
32980
32646
32630
32398
32463
32335
32391
32511
32524
32817
32796
33091
33145
33423
33525
33467
33578
33287
33260
32903
32762
32500
32321
32364
32221
32179
32319
32487
32493
32622
32897
33096
33175
33402
33662
33780
33620
33557
33567
33276
32952
32775
32772
32580
32495
32590
32727
32677
32834
33095
33255
33260
33452
33674
33864
33838
33732
33721
33484
33236
33132
32759
32584
32600
32455
32361
32503
32554
32607
32789
33042
33055
33223
33510
33620
33525
33514
33555
33348
32999
32800
32724
32453
32327
32373
32452
32394
32421
32577
32790
32998
33020
33204
33487
33652
33542
33621
33604
33303
33031
32887
32695
32439
32447
32447
32322
32445
32517
32535
32772
32862
32961
33257
33350
33378
33553
33515
33305
33232
33115
32665
32559
32515
32319
32255
32358
32351
32343
32542
32745
32753
32959
33287
33390
33411
33583
33585
33301
33213
33079
32711
32583
32468
32231
32263
32167
32054
32145
31943
31885
31908
31661
31620
31613
31382
31410
31355
31129
31007
30807
30466
30351
30503
30670
30870
31262
31690
32223
33086
33944
34567
35375
36458
37482
38288
39232
40452
41446
42409
43470
43999
44039
44093
44148
43909
43192
42240
41367
40199
38508
36748
35393
34195
33455
33339
33572
33927
34161
34239
34332
34287
34076
33719
33652
33660
33627
33581
33780
34009
34085
34043
34092
34247
34165
33919
33838
33749
33287
33009
32772
32390
31946
31684
31605
31461
31280
31306
31263
31229
31372
31453
31453
31694
31919
31846
31927
32028
31929
31615
31452
31335
31034
30895
30948
30798
30860
30963
30990
31053
31242
31505
31569
31814
32071
32101
32087
32108
32123
31833
31593
31469
31359
31175
31040
31087
31068
31119
31329
31329
31495
31763
31900
32028
32285
32436
32327
32397
32255
31993
31892
31676
31367
31292
31303
31235
31178
31310
31485
31452
31620
31870
32007
32106
32351
32535
32519
32357
32337
32234
31860
31671
31607
31346
31338
31387
31314
31358
31535
31708
31725
31847
32138
32351
32364
32511
32643
32503
32359
32317
32066
31732
31679
31482
31380
31393
31439
31503
31517
31583
31782
32022
32202
32229
32428
32647
32615
32480
32423
32303
31910
31714
31606
31382
31289
31310
31404
31310
31402
31621
31588
31774
32074
32092
32282
32417
32306
32284
32223
31908
31808
31516
31284
31234
31161
31021
31135
31055
31156
31380
31426
31527
31818
31996
31980
32110
32277
32100
31999
31933
31565
31395
31324
31182
31003
31035
31044
30974
31118
31271
31284
31464
31777
31884
32012
32167
32305
32125
32004
31927
31690
31303
31167
31159
31093
30930
31029
31153
31151
31249
31429
31700
31887
32005
32279
32388
32359
32412
32408
32119
31919
31845
31679
31495
31565
31629
31516
31649
31860
32037
32112
32415
32677
32767
33045
33242
33156
33190
33188
32934
32692
32548
32463
32255
32164
32183
32357
32343
32415
32688
32895
32885
33173
33500
33499
33692
33747
33592
33574
33511
33120
32908
32879
32603
32623
32675
32575
32628
32865
32827
33031
33262
33303
33581
33797
33735
33880
33799
33580
33543
33244
32963
32926
32813
32584
32587
32757
32639
32753
33026
32989
33127
33414
33631
33630
33812
33924
33697
33575
33560
33301
32965
32846
32800
32549
32530
32687
32596
32692
32967
32953
33130
33431
33516
33636
33917
33766
33788
33729
33375
33205
33029
32736
32785
32619
32586
32736
32628
32862
32860
33007
33319
33369
33540
33839
33748
33843
33903
33646
33431
33348
33021
32754
32660
32746
32583
32670
32743
32747
33015
33063
33148
33407
33700
33673
33751
33946
33687
33559
33511
33183
32924
32891
32650
32549
32654
32613
32613
32812
32892
32967
33244
33455
33500
33622
33880
33850
33671
33591
33490
33256
32876
32704
32756
32592
32549
32679
32746
32719
32884
33127
33140
33343
33575
33822
33876
33780
33684
33645
33367
33095
33005
32823
32631
32588
32687
32735
32612
32817
33015
33124
33168
33374
33710
33839
33791
33759
33686
33700
33454
33135
32917
32831
32763
32537
32531
32663
32694
32710
32883
33127
33115
33347
33652
33793
33721
33715
33741
33710
33369
33204
33063
32765
32647
32711
32738
32583
32647
32833
33023
32965
33152
33522
33536
33725
33882
33735
33655
33636
33502
33172
32884
32703
32721
32656
32484
32511
32679
32876
32860
32951
33229
33438
33507
33725
33885
33820
33616
33483
33401
33151
32780
32591
32542
32556
32415
32373
32446
32682
32711
32748
32920
33213
33469
33434
33486
33572
33578
33269
33066
32951
32757
32431
32334
32354
32383
32279
32306
32410
32612
32808
32816
33112
33341
33364
33471
33562
33581
33474
33184
32950
32865
32767
32551
32492
32571
32671
32612
32685
32885
33118
33156
33324
33551
33791
33788
33759
33787
33740
33396
33107
32943
32860
32734
32551
32535
32660
32670
32684
32796
33075
33169
33210
33364
33579
33711
33687
33493
33371
33324
33105
32730
32581
32582
32553
32364
32359
32409
32661
32699
32787
33056
33295
33375
33454
33521
33671
33535
33301
33130
33023
32842
32534
32394
32470
32489
32381
32426
32551
32771
32952
33037
33181
33359
33632
33592
33493
33492
33406
33223
32848
32642
32577
32527
32311
32299
32430
32513
32503
32647
32884
33108
33122
33250
33478
33631
33447
33366
33393
33206
32802
32597
32567
32470
32324
32326
32459
32440
32475
32684
32852
32852
32972
33118
33220
33068
32727
32400
32068
31613
31036
30708
30521
30271
30176
30228
30149
30106
30263
30631
31159
31525
32036
32726
33244
33909
34727
35101
35663
36332
36807
37320
38230
39343
40346
41581
42750
43359
43686
44378
44609
44365
44165
43583
42418
41477
39695
37848
36152
34377
33327
32838
32571
32825
33271
33429
33660
34013
34045
34011
34186
34253
34342
34724
34759
34793
34919
34694
34305
34050
33572
33079
32851
32628
32260
32121
32132
31913
31878
31999
31909
31956
32196
32165
32127
32137
32143
31887
31653
31590
31206
30975
30911
30850
30715
30703
30834
30926
30900
31032
31236
31491
31588
31733
31935
32117
31972
31868
31860
31539
31313
31182
31105
30884
30844
30972
30951
30968
31103
31338
31377
31513
31823
31918
32007
32231
32074
32062
32012
31655
31464
31380
31177
31050
31095
31137
31036
31185
31382
31370
31547
31810
32085
32127
32242
32449
32383
32215
32124
32001
31657
31452
31373
31367
31221
31200
31350
31265
31501
31619
31774
31829
32157
32228
32538
32424
32516
32404
32199
32094
31730
31703
31406
31430
31217
31214
31329
31461
31542
31532
31690
31845
32143
32380
32455
32441
32409
32407
32315
32053
31705
31500
31350
31374
31351
31175
31203
31383
31439
31455
31618
31921
32066
32135
32319
32422
32263
32188
32116
31895
31535
31332
31209
31173
31061
30962
31002
31111
31271
31340
31361
31531
31823
32020
31998
32122
32187
31945
31732
31591
31343
31027
30979
30834
30751
30810
30910
30838
31031
31189
31213
31374
31599
31877
31991
31891
31894
31930
31775
31452
31244
31115
31054
30828
30790
30889
30892
30849
30973
31210
31336
31396
31610
31911
32002
31999
32103
32091
31875
31866
31850
31604
31591
31727
31591
31651
31776
31877
31798
31820
31839
31991
31967
31929
31965
32084
32157
32053
32059
32096
32239
32351
32255
32326
32479
32562
32487
32573
32709
32616
32620
32815
32755
32702
32775
32847
32683
32695
32775
32881
32834
32823
32928
33086
33031
33031
33063
33239
33335
33229
33135
33207
33271
33097
33173
33246
33040
33100
33188
33028
33031
33199
33085
33061
33210
33287
33154
33244
33313
33168
33159
33301
33224
33107
33171
33213
33071
33015
33082
33173
33146
33030
33078
33258
33327
33274
33230
33229
33385
33358
33204
33183
33287
33308
33146
33078
33159
33087
32985
33111
33100
33031
33060
33253
33274
33142
33172
33370
33218
33201
33350
33165
33127
33241
33119
33046
33215
33206
33054
33007
33175
33066
33071
33233
33284
33191
33311
33431
33257
33330
33399
33209
33183
33218
33257
33134
33079
33110
33196
33046
33047
33154
33268
33317
33211
33283
33381
33247
33369
33244
33228
33367
33214
33160
33295
33137
33079
33208
33143
33057
33201
33092
33185
33273
33159
33310
33228
33182
33325
33268
33201
33348
33196
33113
33282
33188
33085
33145
33227
33063
33029
33228
33236
33170
33259
33347
33210
33189
33363
33236
33204
33356
33415
33228
33242
33263
33119
33079
33194
33099
33055
33155
33196
33090
33118
33232
33321
33178
33124
33211
33300
33191
33097
33044
33159
33170
32998
32950
33031
33099
32942
32968
33065
33159
33094
33062
33131
33246
33103
33092
33221
33237
33086
33012
33092
33162
32952
32922
33068
33055
32924
32929
33124
33100
33044
33038
33183
33234
33194
33089
33134
33212
33034
33078
33125
32964
32890
32979
32938
32863
32991
33041
32935
33047
33161
33022
33031
33227
33166
33084
33158
33218
33108
32994
33061
33109
32947
32956
33059
32890
32855
32984
33073
33021
33012
32988
33127
33220
33061
33110
33182
33047
32965
32986
33063
32869
32817
32921
32789
32766
32876
32884
32766
32775
32935
32993
32900
32947
33066
32993
32873
32934
32975
32823
32719
32858
32685
32617
32705
32754
32647
32750
32774
32689
32711
32868
32897
32807
32806
32975
32999
32854
32863
32955
32930
32838
32934
33030
32992
32911
32908
33044
33052
32971
33060
33207
33116
33081
33233
33172
33070
33236
33062
33023
33114
33015
32926
33126
32966
33002
33039
32974
33085
33108
32989
33110
33087
32986
33090
32997
32964
33069
32898
32958
32949
32801
32919
32877
32767
32929
32805
32775
32956
32817
32892
33031
32903
33029
33101
32921
32993
32988
32880
32934
32903
32775
32848
32898
32753
32850
32903
32775
32783
32947
32942
32887
32996
33063
32930
33022
33092
32886
32847
32960
32859
32783
32852
32847
32737
32718
32857
32935
32807
32796
32941
33006
32858
32916
33031
32890
32826
32983
32847
32783
32886
32697
32879
32692
32749
32838
32700
32708
32902
32740
32859
32751
32652
32700
32365
32165
32048
31694
31287
31093
30918
30611
30600
30606
30432
30447
30502
30495
30804
31081
31353
31762
32166
32540
33185
33905
34292
35004
35767
36359
37167
37999
39048
40175
41132
42396
43260
43597
43862
44136
44132
43735
42876
41749
40747
39244
37470
35668
34249
33324
32885
32728
32959
33519
33748
33980
34273
34375
34235
34112
34223
34241
34143
34143
34300
34263
34118
33959
33924
33719
33310
33071
33023
32743
32527
32406
32356
32278
32007
31953
32015
31964
31722
31667
31663
31548
31365
31362
31292
31167
31167
31257
31092
31083
31213
31049
31093
31239
31181
31188
31367
31220
31295
31444
31335
31311
31373
31450
31316
31300
31438
31263
31222
31343
31326
31229
31386
31436
31325
31367
31519
31504
31473
31482
31615
31533
31474
31527
31639
31523
31452
31524
31546
31458
31511
31587
31457
31545
31654
31543
31650
31793
31702
31696
31824
31743
31676
31751
31789
31628
31582
31675
31711
31548
31551
31698
31557
31567
31679
31780
31687
31724
31831
31901
31767
31743
31830
31890
31724
31725
31788
31780
31622
31650
31741
31575
31591
31706
31671
31632
31727
31845
31685
31699
31847
31677
31687
31799
31676
31598
31702
31656
31494
31524
31602
31638
31514
31495
31603
31697
31623
31554
31572
31678
31679
31550
31477
31540
31546
31378
31324
31338
31404
31231
31204
31321
31343
31237
31326
31425
31309
31303
31406
31461
31316
31279
31315
31375
31212
31239
31297
31112
31086
31185
31088
31067
31140
31236
31197
31162
31212
31367
31223
31247
31335
31327
31193
31212
31265
31102
31209
31180
31063
31084
31215
31087
31121
31303
31214
31220
31261
31370
31439
31311
31319
31355
31444
31436
31301
31284
31407
31366
31302
31413
31469
31367
31424
31582
31718
31653
31688
31743
31863
31994
32043
31946
32035
32161
32022
32023
32115
32195
32112
32100
32138
32306
32396
32303
32356
32503
32615
32632
32615
32620
32775
32817
32673
32665
32716
32829
32747
32701
32708
32890
32820
32797
32922
33039
32919
32916
33059
33172
33085
33038
33087
33127
33165
32988
32939
33037
33095
32902
32851
32990
32919
32863
32957
33031
33131
33110
33001
32993
33181
33217
33061
33020
33134
33142
32970
32926
33014
33057
32846
32806
32989
32958
32937
33008
33123
33108
33023
33007
33151
33220
33108
33025
33117
33148
33062
32971
32887
33006
32990
32857
32919
32999
32942
32945
33007
33133
33012
33091
33201
33094
33047
32997
33147
33049
32938
32890
32995
32999
32871
32807
32806
32954
33090
33005
32975
32929
33090
33141
33039
33089
33206
33063
33103
33158
32995
32967
33046
33090
32960
32924
32988
33078
33105
32988
32973
33217
33094
33205
33140
33154
33215
33154
33165
33123
33232
33031
32983
33055
33127
32977
32931
33123
33191
33078
33065
33227
33252
33176
33124
33268
33337
33161
33210
33260
33085
33100
33207
33046
32981
33123
33031
32977
32943
33153
33054
33159
33268
33119
33092
33273
33183
33093
33041
33159
33103
32962
32971
33085
32918
32900
33044
33095
32977
33044
33204
33121
33073
33108
33201
33284
33127
33042
33143
33180
33003
33028
33102
33031
32897
32901
32949
33029
32998
32935
32927
33026
33167
33178
33063
33020
33076
33141
33132
32938
32887
32903
32951
32943
32783
32775
32935
32901
32843
32917
33036
33061
32978
33007
33124
33119
33022
32975
32922
33074
33011
32873
32885
32950
32830
32772
32932
32880
32837
33013
33031
32930
33018
33115
33029
32958
33018
33117
32975
32919
33005
33031
32822
32764
32866
32906
32803
32797
32892
32988
32893
32875
32854
33004
33054
32906
32868
32938
33008
32812
32844
32935
32746
32738
32793
32631
32603
32748
32769
32664
32722
32829
32967
32802
32784
32900
32974
32867
32775
32903
32806
32685
32765
32791
32623
32572
32669
32736
32590
32621
32773
32660
32743
32891
32799
32817
32959
32985
32874
32830
32959
33031
32911
32873
32967
33053
32916
33031
33127
33036
33116
33238
33108
33108
33287
33139
33076
33233
33214
33121
33138
33184
33031
32994
33141
33039
32997
32967
33109
33151
32917
33093
32906
33093
32951
33031
33127
32951
33109
33079
32958
32879
33026
32922
32828
32927
32929
32807
32766
32898
33015
33027
32927
32917
33095
33108
32958
32892
32962
33050
32993
32935
32889
32934
32970
32932
32783
32731
32903
32942
32828
32837
33004
32908
32872
32979
33071
32927
32903
33010
33068
32911
32874
32954
32964
32847
32807
32861
32967
32835
32833
33020
33010
32924
32948
33052
32897
32998
32967
32865
33002
32943
32807
32959
32809
32758
32883
32811
32742
32789
32917
32736
32617
32599
32493
32228
32062
31900
31541
31298
31238
31031
30967
30988
31043
30901
30890
31075
31389
31623
31911
32229
32615
33188
33698
34204
34849
35428
35929
36416
37096
37847
38505
39351
40532
41397
41849
41814
42176
42144
41614
40956
40215
39115
37468
36074
34586
33111
32148
31730
31675
31769
32213
32847
33143
33495
33868
34030
33901
33791
33959
33927
33829
33815
34069
34100
34075
34104
34153
33895
33671
33671
33391
33132
33156
32874
32679
32681
32634
32372
32279
32357
32351
32133
32044
32098
32017
31828
31826
31846
31675
31630
31687
31743
31608
31557
31668
31680
31580
31585
31711
31751
31632
31649
31815
31771
31668
31669
31814
31702
31668
31819
31725
31671
31702
31679
31660
31631
31663
31703
31696
31893
31791
31778
31791
31965
31836
31847
31976
32079
31927
31916
31895
31929
31968
31913
31834
31820
31980
31980
31873
31902
32031
32095
31956
31965
32103
32148
32038
32031
32138
32143
32006
31982
32045
32131
31932
31908
31955
32045
32006
31983
32059
32190
32140
32095
32102
32163
32247
32141
32102
32204
32241
32252
32060
32059
32079
32147
32029
32021
32101
32229
32090
32101
32260
32284
32172
32126
32260
32237
32118
32127
32204
32125
32030
32081
32114
31958
32006
32116
31983
31983
32164
32116
32068
32050
32190
32113
32023
32103
32124
31998
31961
31955
31981
31972
31812
31810
31895
31954
31836
31858
31977
32071
31926
31874
32003
31986
31828
31839
31909
31727
31718
31847
31873
31771
31733
31792
31873
31849
31785
31794
31906
31989
31826
31831
31943
31930
31767
31739
31829
31878
31719
31706
31761
31852
31733
31740
31829
31941
31822
31820
31803
31937
31972
31933
31843
31807
31935
31977
31852
31839
31943
31951
31812
31779
31879
31971
31878
31879
32050
32182
32117
32199
32346
32227
32228
32391
32281
32221
32406
32262
32311
32413
32244
32486
32316
32468
32420
32564
32437
32452
32659
32551
32519
32679
32634
32572
32543
32645
32679
32533
32615
32701
32590
32559
32524
32679
32732
32631
32632
32838
32897
32828
32886
32998
32903
32814
32797
32903
32765
32715
32817
32783
32670
32637
32774
32703
32677
32836
32847
32732
32711
32919
32879
32788
32851
32765
32690
32895
32734
32767
32841
32684
32736
32841
32711
32660
32873
32823
32785
32839
32962
32836
32889
32971
32828
32770
32949
32888
32765
32871
32867
32741
32775
32876
32748
32748
32843
32935
32924
32850
32933
33018
32892
32839
32964
33022
32889
32863
33029
32991
32898
32850
32986
32998
32845
32802
32884
33016
32926
32917
32892
33047
33100
32960
32941
32999
33092
33102
33007
33015
33066
33071
32940
32887
33057
33052
32911
32860
33034
33111
32980
32954
33079
33183
33045
33028
33141
33246
33084
33011
33190
33166
32996
32954
33079
33068
32941
32931
33117
33182
33044
33060
33127
33195
33231
33104
33087
33158
33252
33276
33116
33062
33062
33135
33039
32935
32957
33037
33110
32975
32965
33009
33114
33099
32956
32930
33035
33132
33105
33010
32944
33083
32928
32848
33031
33030
32886
32850
32999
32900
32951
33053
32919
33125
32958
33167
32991
33166
32964
33171
33100
33090
32907
32859
32991
32885
32794
32932
33013
32883
32839
32949
33031
32910
32863
33027
33012
32925
32972
33079
32921
32868
33020
32903
32788
32895
32836
32737
32863
32958
32814
32802
32968
32949
32827
32981
33013
32903
32839
32975
33017
32943
32809
32719
32807
32837
32736
32671
32647
32796
32870
32806
32751
32810
32935
32999
32848
32889
33003
32879
32855
32863
32956
32757
32671
32775
32809
32660
32639
32802
32802
32702
32797
32826
32697
32807
32860
32727
32663
32747
32621
32694
32567
32509
32646
32564
32487
32639
32736
32575
32563
32708
32742
32627
32687
32844
32709
32645
32773
32831
32704
32664
32836
32756
32723
32809
32892
32748
32742
32943
33031
32894
32956
33078
32943
33015
33123
32988
32914
33003
33051
32887
32822
32958
32966
32824
32823
32949
32980
32847
32775
32919
32951
32764
32774
32863
32811
32677
32697
32802
32775
32646
32687
32745
32613
32558
32703
32767
32647
32622
32689
32796
32725
32670
32829
32763
32687
32620
32759
32751
32614
32557
32663
32727
32658
32607
32655
32774
32735
32662
32618
32751
32843
32775
32687
32663
32792
32815
32674
32623
32549
32572
32623
32605
32564
32485
32514
32576
32686
32751
32631
32611
32727
32809
32695
32660
32622
32726
32607
32548
32513
32630
32617
32463
32453
32567
32650
32538
32536
32518
32675
32604
32473
32361
32364
32044
31829
31732
31510
31134
30936
30924
30804
30719
30727
30846
30823
30878
31091
31557
31816
32093
32447
32957
33397
33841
34397
34980
35381
35693
36476
37215
37841
38512
39581
40514
40950
41301
41534
41351
40602
40156
39428
38017
36900
35364
33752
32596
31567
31014
31037
31051
31439
32061
32529
32876
33391
33674
33655
33647
33783
33684
33536
33631
33791
33812
33735
33927
33850
33692
33767
33637
33327
33231
33107
32788
32642
32702
32477
32332
32319
32359
32165
32089
32188
32050
31934
31934
31931
31703
31645
31657
31727
31570
31517
31495
31561
31638
31595
31590
31673
31742
31600
31615
31766
31767
31667
31665
31811
31850
31719
31708
31844
31690
31772
31857
31742
31812
31858
31759
31895
31942
31851
31895
31975
31833
31815
31919
32025
31921
31884
31851
31977
32007
31877
31823
31972
31860
31847
31996
31914
31908
31972
32071
31908
31927
32041
32133
31991
31944
32060
31990
31938
32007
32063
31913
32004
32125
31975
32052
32132
31991
32012
32180
32070
32027
32165
32140
32055
32180
32113
32012
32151
32046
31991
32167
32028
31999
32155
32111
31940
31924
31998
31879
31967
32213
32255
32349
32583
32685
32574
32422
32270
32228
31935
31664
31615
31638
31465
31445
31572
31695
31669
31775
31950
32175
32326
32390
32436
32583
32549
32348
32168
32129
31838
31620
31495
31516
31512
31415
31393
31444
31654
31761
31737
31870
32099
32295
32263
32231
32314
32206
31961
31903
31695
31460
31359
31404
31239
31236
31378
31480
31428
31516
31740
31987
32017
32108
32228
32351
32167
32028
32007
31931
31665
31491
31444
31441
31309
31303
31451
31588
31586
31687
31905
32100
32177
32216
32312
32399
32452
32303
32100
32037
31874
31647
31607
31676
31517
31500
31637
31780
31831
31933
32134
32418
32431
32556
32687
32831
32756
32575
32428
32362
32263
31990
31892
31906
31957
31855
31895
32131
32167
32228
32406
32690
32718
32900
33095
32962
32899
32942
32815
32524
32415
32383
32167
32118
32208
32225
32186
32343
32487
32487
32695
32751
32915
33077
33069
33230
33077
33008
32772
32771
32481
32314
32316
32327
32150
32157
32340
32385
32390
32618
32667
32775
33073
33174
33155
33119
33230
33055
32829
32749
32639
32373
32335
32404
32258
32255
32374
32553
32594
32591
32704
32934
33182
33195
33181
33201
33231
33114
32825
32846
32512
32490
32316
32432
32275
32392
32495
32431
32519
32773
32773
32887
33154
33229
33212
33181
33317
33165
32963
32771
32730
32628
32419
32369
32418
32519
32497
32496
32550
32763
32903
32902
32961
33140
33286
33338
33164
33042
32883
32806
32719
32597
32406
32327
32286
32295
32470
32582
32551
32587
32710
32925
32927
32975
33119
33196
33182
32951
32815
32725
32683
32431
32325
32442
32520
32511
32430
32588
32727
32663
32802
33022
33189
33200
33159
33159
33189
33044
32830
32766
32694
32527
32380
32317
32402
32500
32398
32437
32604
32741
32676
32783
32999
33125
33159
33012
32948
32833
32837
32717
32496
32399
32487
32495
32415
32406
32404
32580
32701
32704
32745
32822
33041
33169
33151
33061
33078
33005
32819
32681
32589
32532
32359
32430
32525
32423
32423
32541
32676
32623
32674
32925
33148
33069
33146
33190
33172
32917
32973
32802
32588
32652
32577
32377
32391
32503
32559
32490
32580
32830
32935
32878
32983
33177
33068
33045
33039
32991
32894
32616
32470
32466
32498
32313
32453
32431
32420
32643
32620
32585
32772
32774
32757
32989
32909
32821
32870
32837
32567
32452
32449
32394
32192
32191
32303
32317
32260
32387
32546
32498
32575
32837
32896
32898
33143
33189
33013
33007
32974
32814
32591
32596
32666
32558
32564
32601
32735
32871
32919
32918
32975
33198
33353
33287
33239
33337
33255
33028
32982
32999
32789
32655
32628
32655
32642
32565
32607
32809
32795
32798
32886
33089
33104
33058
33159
33200
32998
32975
32914
32668
32684
32721
32559
32623
32693
32596
32628
32855
32751
32810
33030
32919
32924
33090
33191
32980
32892
32924
32868
32655
32615
32666
32580
32511
32637
32583
32586
32823
32823
32804
32922
33087
32994
33012
33165
33073
32949
33007
32843
32660
32686
32543
32454
32485
32535
32444
32455
32682
32684
32663
32878
32780
32844
32997
32855
32806
32903
32701
32570
32678
32488
32447
32500
32439
32209
32191
32110
31799
31597
31535
31309
31048
30976
31079
30963
30937
30910
30956
30894
31015
31423
31703
31954
32309
32935
33388
33943
34799
35194
35718
36419
37188
37734
38694
39660
40381
41274
41921
41981
41660
41623
40862
39700
38962
37932
36470
34869
33471
32020
30975
30433
30301
30285
30630
31204
31854
32230
32751
33166
33383
33335
33487
33639
33543
33591
33786
33962
33887
33828
33909
33785
33455
33271
33082
32727
32469
32351
32423
32463
32327
32359
32470
32507
32359
32335
32391
32391
32117
31964
31943
31810
31521
31442
31500
31348
31277
31372
31495
31423
31521
31801
31796
31867
32007
32071
31961
31935
31972
32004
31799
31661
31696
31452
31372
31462
31495
31373
31457
31716
31724
31794
31871
32032
32142
32074
32135
32274
32155
31964
31836
31823
31671
31473
31421
31469
31374
31324
31399
31628
31722
31785
32007
32132
32097
32323
32244
32247
32359
32271
32140
32140
32119
31884
31751
31738
31820
31729
31764
31853
32111
32209
32215
32338
32492
32417
32443
32468
32575
32551
32329
32243
32275
32110
31983
32090
31895
31852
31975
31931
31987
32215
32382
32316
32369
32549
32406
32383
32493
32319
32209
32303
32063
32113
31876
31818
31844
31794
32006
31937
32036
32263
32196
32236
32442
32311
32301
32391
32298
32039
31988
31934
31652
31546
31590
31342
31351
31476
31401
31505
31695
31900
31908
31967
32145
32083
32001
32103
32079
31847
31750
31749
31686
31452
31311
31303
31284
31109
31148
31335
31363
31396
31553
31695
31703
31687
31751
31814
31662
31583
31588
31569
31339
31239
31250
31268
31074
31087
31286
31188
31313
31559
31596
31595
31751
31906
31836
31764
31715
31682
31628
31488
31261
31127
31112
31161
30998
31026
31183
31255
31308
31515
31719
31791
31828
31974
32096
32005
31944
32021
31980
31751
31719
31607
31470
31439
31343
31409
31407
31546
31770
31810
31860
31934
32132
32252
32166
32260
32319
32156
32066
32007
32043
31903
31796
31762
31843
31901
31819
31916
32109
32295
32262
32323
32395
32580
32583
32444
32485
32438
32319
32315
32348
32175
32136
32180
32168
32064
32031
32092
32243
32373
32431
32391
32539
32679
32561
32614
32679
32459
32370
32372
32385
32209
32107
32238
32081
32140
32335
32263
32351
32623
32565
32772
32679
32734
32935
32751
32791
32801
32615
32679
32442
32421
32410
32236
32351
32199
32236
32455
32423
32539
32796
32775
32802
33015
32872
32959
33021
32854
32909
32772
32592
32655
32491
32408
32542
32516
32508
32741
32687
32789
33015
32926
32991
33175
33022
33104
32967
32989
32987
32756
32783
32644
32490
32587
32501
32442
32646
32651
32702
32990
32946
32998
33190
33052
33135
33191
32975
32962
32932
32707
32772
32508
32483
32455
32276
32381
32434
32447
32742
32759
32993
33132
33071
33284
33116
33199
33127
32980
33020
32745
32773
32546
32468
32545
32380
32498
32438
32647
32679
32801
33062
32972
33076
33212
33094
33133
33191
32943
32919
32898
32658
32671
32599
32438
32503
32558
32447
32667
32569
32721
32828
32796
33012
32871
32933
32978
32746
32746
32741
32519
32558
32367
32313
32426
32292
32485
32479
32532
32772
32687
32847
32948
32864
32966
33070
32892
32894
32929
32695
32583
32655
32413
32401
32429
32289
32409
32529
32422
32559
32740
32647
32775
32903
32773
32775
32903
32686
32647
32647
32361
32352
32165
32063
32173
32035
32138
32321
32252
32387
32636
32581
32644
32843
32807
32768
32866
32951
32751
32691
32735
32548
32484
32588
32554
32495
32658
32791
32712
32841
33096
33008
33117
33287
33143
33162
33310
33079
33045
33117
32867
32826
32854
32634
32698
32844
32743
32895
33029
32935
33015
33183
33212
33079
33160
33253
33028
32948
33023
32945
32698
32612
32668
32493
32364
32409
32494
32396
32460
32711
32660
32717
32906
32772
32815
32949
32946
32803
32831
32810
32583
32612
32471
32367
32413
32423
32284
32446
32584
32529
32633
32862
32759
32884
32918
32790
32880
32687
32585
32676
32404
32405
32252
32175
32310
32143
32231
32427
32345
32545
32718
32677
32855
32881
32790
32911
32775
32705
32791
32707
32532
32606
32479
32343
32419
32384
32346
32553
32463
32666
32748
32723
32934
32751
32743
32678
32319
32197
31853
31468
31249
30826
30580
30503
30310
30379
30435
30343
30621
30788
31248
31782
32069
32404
32999
33397
33944
34671
34951
35247
35922
36428
37279
38010
38782
39822
40823
41253
41719
41989
41767
41095
40405
39329
38375
37193
35495
33980
32398
31017
30181
29804
29679
29991
30542
31002
31599
32206
32490
32674
32935
33062
33066
33231
33412
33415
33596
33726
33556
33533
33460
33079
32877
32769
32418
32292
32314
32117
32211
32316
32170
32224
32381
32246
32353
32223
32156
32167
31912
31721
31684
31531
31335
31309
31404
31275
31345
31503
31439
31620
31748
31672
31815
31913
31852
32006
31846
31822
31869
31809
31564
31574
31591
31436
31545
31614
31490
31623
31795
31729
31840
32060
32134
32046
32200
32108
32087
32156
31939
31844
31879
31600
31580
31646
31589
31478
31647
31718
31682
31824
32007
32066
32021
32103
32236
32295
32238
32071
31998
31989
31938
31670
31653
31709
31535
31573
31729
31799
31751
31951
32117
32045
32207
32300
32202
32286
32278
32071
32121
32134
31911
31853
31899
31845
31672
31722
31815
31697
31884
32042
31987
32148
32263
32141
32202
32348
32328
32160
32135
32133
32135
31967
31815
31812
31802
31631
31682
31807
31971
31949
31999
32139
32223
32149
32278
32192
32063
32117
32103
31887
31812
31805
31719
31565
31525
31556
31708
31806
31724
31813
31959
32019
31946
32021
32151
32180
31993
31903
31858
31925
31807
31569
31449
31430
31454
31367
31348
31471
31608
31589
31556
31647
31767
31838
31743
31735
31790
31820
31692
31558
31593
31589
31494
31365
31396
31437
31463
31387
31479
31681
31774
31695
31751
31868
31948
31792
31806
31846
31828
31629
31523
31476
31508
31522
31389
31358
31429
31573
31749
31871
31855
31965
32114
32247
32254
32105
32084
32100
32116
31884
31828
31844
31843
31661
31639
31771
31764
31775
31940
32101
32100
32072
32185
32362
32329
32327
32418
32444
32239
32135
32127
32143
32035
31973
32037
32109
32159
32062
32142
32328
32470
32413
32480
32607
32661
32505
32436
32499
32497
32292
32211
32207
32309
32130
32100
32161
32252
32215
32203
32276
32391
32531
32578
32519
32579
32621
32732
32714
32487
32397
32404
32364
32143
32069
32095
32199
32263
32202
32339
32519
32652
32576
32643
32775
32762
32628
32617
32679
32574
32388
32263
32202
32235
32215
32055
32111
32231
32388
32505
32549
32508
32609
32764
32745
32671
32775
32807
32708
32578
32658
32659
32498
32385
32359
32427
32483
32383
32401
32589
32790
32735
32762
32863
32996
33076
33054
32909
32892
32962
32775
32660
32663
32669
32597
32429
32475
32642
32608
32641
32749
32969
32884
32937
33063
33140
33071
32924
32897
32876
32871
32767
32583
32559
32572
32687
32622
32580
32692
32943
33012
32939
32971
33085
33188
32996
33039
33129
32927
32927
32940
32796
32606
32737
32700
32692
32799
32846
32698
32698
32818
32841
32709
32711
32771
32882
32954
32850
32823
32866
32968
32846
32820
32912
32901
32719
32775
32829
32674
32678
32839
32865
32775
32828
32999
33013
32903
32951
33052
33076
32935
32964
33101
32887
32934
32949
32708
32687
32756
32814
32711
32719
32821
32901
32773
32895
32999
32863
32948
32975
32804
32868
32927
32863
32708
32735
32775
32691
32546
32644
32756
32700
32647
32687
32810
32810
32703
32738
32827
32733
32615
32647
32716
32689
32567
32581
32679
32487
32574
32661
32522
32567
32750
32735
32708
32871
32959
32869
32896
33012
33054
32935
32908
32990
33076
32962
32863
32895
32981
32885
32835
32885
32999
32983
32930
33063
33185
33069
33206
33223
33121
33191
33110
32999
33001
33054
32985
32860
32948
32916
32846
32988
33100
33027
33046
33227
33079
33076
33167
33169
32971
32991
33091
32892
32775
32813
32796
32583
32619
32619
32481
32558
32716
32855
32809
32822
32868
33023
33028
32879
32905
33012
32999
32807
32767
32761
32798
32828
32681
32623
32708
32806
32743
32694
32775
32910
32937
32831
32793
32796
32900
32958
32903
32754
32748
32807
32831
32767
32607
32620
32758
32833
32754
32837
32959
33044
33088
32947
32939
33007
33057
32902
32849
32884
32877
32895
32714
32654
32725
32766
32740
32661
32671
32727
32751
32534
32391
32350
32263
32009
31672
31435
31242
31161
31040
30911
30975
31038
31032
30974
31116
31438
31903
32226
32511
32915
33527
34021
34507
34984
35526
36146
36738
37391
38191
39142
40100
40820
41321
41886
42060
41827
41103
40243
39409
38378
37028
35832
34014
32391
31264
30327
29895
29944
30164
30612
31193
31751
32049
32444
32742
32711
32909
33084
33075
33158
33431
33564
33557
33658
33823
33751
33463
33311
33263
32900
32767
32801
32566
32519
32591
32439
32388
32468
32399
32375
32444
32433
32218
32245
32237
32015
31999
32034
31914
31792
31815
31923
31831
31840
31968
32039
31959
32044
32162
32173
32094
32207
32244
32098
32128
32244
32093
32094
32182
32127
31982
31997
32062
32124
32044
32107
32279
32308
32212
32359
32461
32358
32406
32516
32507
32354
32364
32444
32405
32247
32213
32234
32335
32271
32214
32312
32463
32574
32488
32480
32578
32601
32423
32425
32487
32552
32467
32412
32508
32582
32537
32391
32414
32535
32518
32432
32519
32586
32475
32528
32692
32599
32590
32706
32531
32535
32625
32476
32436
32541
32420
32359
32478
32381
32364
32524
32439
32417
32565
32617
32559
32588
32714
32663
32589
32590
32657
32472
32510
32607
32442
32387
32439
32422
32277
32343
32489
32391
32415
32519
32583
32493
32378
32374
32439
32500
32351
32231
32231
32294
32150
32147
32244
32262
32142
32144
32228
32318
32256
32231
32274
32349
32383
32210
32204
32289
32276
32102
32105
32175
32023
31967
32007
32070
31979
31975
32044
32167
32124
32036
32159
32223
32098
32191
32295
32207
32213
32322
32204
32125
32183
32118
31983
32080
32154
32058
32067
32172
32256
32150
32239
32295
32132
32183
32306
32258
32171
32263
32297
32135
32141
32239
32163
32143
32278
32219
32247
32425
32359
32373
32508
32535
32404
32471
32447
32391
32484
32430
32350
32420
32445
32295
32408
32349
32366
32533
32586
32511
32596
32767
32686
32655
32740
32741
32646
32708
32807
32668
32583
32671
32686
32552
32549
32702
32743
32663
32775
32929
32826
32814
32919
32943
32788
32843
32933
32853
32819
32856
32894
32775
32724
32820
32793
32686
32845
32751
32942
32972
32983
32935
32904
32954
33068
33020
32903
33038
32954
32798
32894
32735
32642
32743
32631
32791
32822
32724
32773
32932
32871
32885
33007
32999
32890
32980
33095
32996
33031
33141
32974
32976
33044
32852
32847
32999
32927
32836
32942
33013
32940
32991
33095
33085
32983
33125
33079
33031
33129
32937
33017
33055
32868
32959
33040
32873
32945
33007
32908
32999
33143
33207
33075
33223
33283
33140
33211
33273
33081
33109
33177
33057
32959
33055
33022
32945
33096
33090
33050
33223
33054
33108
33242
33111
33206
33143
33031
33155
33140
32985
33060
33015
32822
32904
32976
32863
32853
33020
33084
32982
33127
33252
33111
33114
33245
33092
33084
33156
33125
33015
33092
33109
32956
32892
32972
33045
32926
32932
33093
33026
33067
33239
33159
33127
33217
33130
33050
33184
33046
32981
33055
33028
32884
32890
32948
32965
32823
32907
33094
33020
32957
33132
33116
33084
33247
33254
33126
33195
33092
32926
32948
32956
32789
32775
32895
32903
32823
32929
33044
32895
33023
33107
32980
32997
33103
33164
33073
32999
33050
33062
32893
32860
32964
32995
32860
32852
32977
32911
32901
32965
33095
33182
33151
33087
33075
33063
33084
33130
33122
33133
33130
33087
33018
32911
32839
32841
32852
32951
32959
32877
32919
33046
33031
32903
32918
32999
33011
32813
32792
32871
32850
32683
32695
32763
32615
32579
32625
32759
32820
32751
32835
32972
33082
32980
32930
32959
33073
33052
32942
33005
33151
33133
33031
33063
33157
33190
33073
33145
33305
33273
33181
33287
33396
33351
33245
33287
33440
33447
33313
33312
33356
33300
33159
33126
33203
33269
33356
33244
33351
33503
33563
33373
33350
33415
33236
33079
32996
33002
32783
32729
32807
32840
32727
32917
32886
33130
33157
33114
33231
33383
33314
33234
33279
33297
33076
32983
33023
32787
32807
32775
32606
32661
32799
32911
32910
33015
33193
33325
33215
33268
33396
33231
33214
33245
33134
32943
32930
33004
32853
32829
32893
32775
32775
32926
33005
32884
32999
33116
32988
33031
33132
33069
32962
32999
33087
32945
32925
32996
32965
32823
32835
32943
32790
32849
32910
32788
32917
32927
32807
32941
32999
32983
32990
33055
33103
32914
32724
32638
32551
32292
31928
31637
31431
31220
30940
30932
31020
31021
30945
31050
31260
31582
31831
32204
32611
32971
33228
33745
34442
35025
35295
35755
36513
37341
38020
38718
39616
40775
41743
42157
42191
42036
41876
41165
40032
38951
38022
36772
35054
33348
31873
30769
30042
29759
29959
30445
31138
31724
32253
32730
33111
33252
33193
33274
33444
33509
33485
33580
33781
33876
33701
33700
33751
33495
33287
33255
33199
33063
32888
32900
32994
32851
32794
32881
32828
32699
32735
32731
32550
32341
32279
32283
32216
32026
32059
32152
32140
32071
32190
32343
32276
32332
32469
32328
32333
32391
32471
32374
32287
32316
32373
32382
32208
32170
32238
32342
32244
32263
32374
32494
32479
32431
32489
32580
32615
32500
32490
32590
32564
32455
32358
32295
32332
32401
32415
32271
32335
32460
32503
32460
32630
32708
32571
32577
32666
32624
32563
32654
32671
32514
32527
32529
32357
32409
32558
32486
32584
32693
32612
32735
32796
32699
32785
32903
32767
32756
32858
32852
32702
32775
32684
32570
32620
32559
32439
32500
32618
32522
32591
32752
32663
32652
32798
32734
32671
32786
32855
32759
32677
32704
32747
32615
32525
32573
32583
32456
32462
32596
32683
32638
32636
32749
32791
32679
32624
32661
32704
32567
32492
32487
32511
32425
32277
32310
32388
32391
32287
32417
32516
32444
32449
32598
32551
32415
32422
32503
32527
32441
32332
32319
32367
32356
32213
32218
32286
32261
32157
32199
32314
32260
32221
32308
32421
32289
32304
32428
32388
32286
32316
32353
32198
32116
32199
32254
32120
32138
32256
32203
32175
32204
32289
32381
32433
32310
32358
32457
32394
32400
32466
32540
32467
32319
32372
32346
32207
32229
32338
32407
32343
32326
32460
32572
32589
32519
32506
32599
32677
32687
32552
32514
32517
32585
32518
32447
32551
32656
32567
32576
32688
32785
32701
32724
32862
32915
32809
32775
32855
32883
32767
32682
32740
32801
32631
32628
32733
32770
32670
32727
32862
32956
32871
32839
32932
32973
32999
32900
32896
33007
33002
32857
32951
32996
32854
32807
32908
32797
32761
32819
32912
33009
32898
32916
33045
32988
32862
32980
33029
32838
32838
32918
32815
32722
32767
32805
32716
32722
32886
32891
32885
32987
33087
33031
32877
32948
32983
32843
32803
32891
32860
32711
32726
32845
32729
32743
32807
32927
32955
32852
32873
32988
33064
32970
32935
33049
33050
32920
32926
33079
33055
32895
32886
32943
32881
32739
32809
32951
33003
32892
32922
33046
33143
33037
33030
33111
33167
32999
32993
33120
33061
32943
32919
32969
32903
32772
32812
32970
32902
32934
33093
33108
33046
33186
33255
33117
33131
33259
33279
33140
33155
33207
33140
32999
33101
33067
32935
32971
33071
33100
33042
33171
33275
33175
33150
33279
33287
33183
33283
33199
33287
33159
33089
33094
33115
33047
32919
32948
33044
33170
33043
33077
33231
33255
33136
33240
33282
33092
33167
33217
33095
33042
33122
33111
32949
33020
33148
33046
33019
33076
33250
33117
33182
33343
33207
33327
33423
33244
33248
33345
33177
33178
33254
33052
33031
33092
32895
32919
33060
32943
33019
33215
33215
33146
33196
33335
33223
33182
33225
33287
33067
33082
33155
33039
32934
33052
33029
32951
33076
33060
33052
33222
33324
33213
33322
33373
33228
33379
33301
33232
33359
33189
33153
33230
33044
32988
33089
32951
32978
33114
33191
33063
33223
33305
33198
33375
33326
33326
33444
33272
33217
33318
33223
33063
33121
33159
32950
33048
33143
33031
33162
33253
33140
33206
33327
33143
33215
33215
33082
33152
33054
33010
33148
32927
32967
33082
32916
32916
33040
32889
33049
33031
33062
33190
33047
33163
33100
33085
33172
32991
32955
33023
32857
32956
33041
32906
32935
33134
33212
33137
33284
33482
33372
33381
33522
33575
33371
33444
33439
33319
33373
33380
33191
33149
33268
33159
33123
33276
33218
33230
33436
33325
33443
33509
33396
33516
33580
33404
33492
33533
33295
33379
33287
33126
33182
33194
33043
33089
33238
33095
33221
33242
33117
33190
33263
33114
33117
33213
33180
33022
33068
33135
32957
32916
32993
33069
32916
32935
33068
32983
33029
33172
33118
33064
33230
33063
33044
33181
33107
33046
33176
33047
33002
33078
32930
32910
33018
32967
32933
33114
33031
33113
33243
33076
33063
33151
33148
33019
33074
33159
32983
32959
33045
32999
32890
32980
32815
32844
32980
32935
32895
33049
33038
32997
33103
33062
33052
33212
33044
33139
33043
32987
33094
32867
32933
32740
32594
32621
32341
32183
32045
31655
31512
31279
31036
31029
30920
30828
30820
30791
30747
30995
31308
31461
31751
32167
32509
32999
33734
34247
34736
35463
35964
37023
37633
38565
39642
40359
41524
41956
42108
42216
41657
40944
40167
39061
38112
36980
35292
33844
32263
31116
30479
30136
30383
30807
31300
32022
32468
32839
33218
33143
33271
33301
33235
33438
33537
33605
33887
33919
34055
34102
33924
33965
33638
33597
33269
33193
33230
32989
32999
32944
32726
32719
32710
32529
32612
32514
32350
32439
32351
32250
32351
32391
32263
32350
32422
32358
32498
32462
32397
32508
32319
32411
32329
32247
32344
32225
32287
32462
32315
32447
32500
32425
32591
32519
32682
32519
32605
32605
32503
32564
32326
32365
32341
32111
32132
32156
32039
32187
32223
32148
32303
32297
32252
32407
32327
32407
32535
32367
32459
32519
32361
32402
32339
32229
32317
32353
32174
32274
32391
32235
32332
32492
32527
32422
32519
32620
32574
32495
32574
32573
32397
32320
32341
32263
32132
32213
32244
32074
32191
32294
32206
32263
32391
32327
32290
32423
32443
32369
32439
32455
32233
32251
32177
32044
32127
31985
31979
32080
32071
32010
32153
32233
32149
32268
32398
32335
32451
32592
32460
32429
32525
32367
32284
32319
32103
32084
32187
32123
32064
32189
32183
32180
32291
32369
32258
32364
32527
32415
32519
32518
32343
32279
32280
32111
31978
32045
32076
31965
31981
32135
32263
32220
32276
32461
32513
32447
32532
32655
32618
32471
32494
32326
32167
32210
32155
32007
32104
32148
32023
32118
32199
32133
32143
32298
32346
32287
32447
32544
32391
32455
32519
32375
32245
32204
32236
32102
32052
32076
32204
32253
32140
32276
32408
32286
32429
32612
32492
32612
32687
32509
32586
32536
32335
32428
32301
32278
32434
32389
32380
32519
32588
32556
32751
32694
32717
32807
32951
32944
32798
32751
32815
32694
32567
32639
32615
32469
32519
32621
32714
32613
32661
32844
32967
32861
32935
33143
33199
33071
33117
33183
33013
32927
32908
32899
32739
32655
32731
32797
32690
32847
32852
32828
32975
33084
33015
33071
33227
33352
33268
33164
33207
33093
32863
32772
32796
32846
32708
32724
32863
32911
32783
32846
32962
33068
32926
33063
33188
33093
33068
33195
33031
32954
32991
32771
32799
32847
32733
32869
32865
32811
32989
32895
32957
33135
33059
33146
33315
33196
33160
33287
33100
32967
33009
32810
32767
32918
32775
32831
32953
32821
32886
33052
33006
33014
33191
33363
33242
33270
33415
33285
33201
33211
33199
32935
32942
33080
32916
32997
33106
33028
33052
33246
33223
33215
33402
33410
33414
33603
33469
33457
33413
33239
33295
33223
33063
33127
33087
33017
33148
33284
33247
33210
33347
33471
33412
33428
33573
33659
33521
33446
33478
33472
33268
33135
33208
33272
33138
33145
33258
33354
33372
33285
33351
33485
33466
33484
33596
33655
33482
33463
33532
33351
33207
33214
33244
33050
33103
33231
33279
33220
33148
33201
33342
33463
33415
33424
33471
33607
33598
33441
33375
33380
33346
33187
33084
33092
33222
33303
33183
33169
33191
33345
33395
33305
33351
33456
33613
33515
33460
33461
33476
33249
33149
33180
33143
32982
32996
33143
33087
33127
33335
33307
33287
33454
33438
33418
33469
33603
33595
33402
33412
33335
33218
33302
33087
33223
33191
33206
33183
33100
33127
33333
33212
33390
33447
33415
33596
33556
33487
33537
33388
33460
33329
33135
33159
33222
33029
33063
33192
33052
33079
33212
33287
33227
33360
33499
33375
33378
33509
33327
33268
33353
33098
33108
33140
32975
32927
33008
33097
32959
33071
33223
33082
33164
33379
33287
33311
33447
33299
33196
33287
33151
33047
33127
32941
32914
33055
33086
32973
33047
33190
33090
32997
33067
33111
32893
32854
32943
32797
32714
32791
32894
32831
33030
32979
33003
33190
33092
33247
33337
33127
33093
33173
33037
32893
32901
32927
32709
32743
32838
32701
32823
32924
32873
33045
33157
33127
33357
33282
33390
33518
33339
33275
33351
33165
33103
33172
32974
32976
33124
32956
32999
33217
33126
33335
33351
33330
33526
33375
33431
33503
33317
33255
33284
33223
33025
33095
32905
32903
33011
32845
32904
33017
32863
32992
33015
33031
33233
33078
33165
33237
33063
33153
33122
32917
32979
32833
32722
32831
32665
32775
32775
32684
32854
32740
32807
33064
32933
32988
33147
32958
32932
33006
32876
32751
32807
32711
32580
32644
32731
32576
32657
32820
32695
32754
32927
32927
32834
32868
32980
32887
32793
32866
32748
32655
32729
32532
32516
32628
32446
32538
32615
32541
32737
32679
32718
32919
32879
32900
33015
33111
32931
32862
32939
32807
32620
32615
32645
32476
32557
32415
32277
32308
32293
32055
31930
31853
31503
31291
31239
31207
31028
30981
30970
30910
30785
30975
31269
31413
31767
32175
32399
32932
33727
34405
34895
35556
36228
36895
37765
38612
39391
40391
41437
42130
42247
42335
42279
41678
40551
39713
38830
37759
36263
34708
33230
31751
30599
30111
30146
30311
30796
31450
32055
32367
32697
32903
32743
32828
32943
32873
33007
33351
33437
33541
33708
33876
33767
33631
33528
33434
33039
32932
32900
32636
32511
32540
32263
32252
32244
32084
32180
32062
32086
32226
32033
32143
32135
32033
32171
31996
32071
31927
31875
31968
31829
31701
31813
31705
31660
31743
31879
31765
31841
32039
31956
32035
32169
32039
32135
32188
32079
32204
32023
32079
32080
31903
31981
31931
31855
31993
31956
31943
32127
32052
32162
32388
32272
32373
32357
32311
32407
32262
32226
32318
32097
32135
32046
31980
32087
32007
32172
32166
32159
32359
32247
32319
32462
32315
32348
32475
32306
32245
32327
32238
32167
32276
32115
32172
32188
32123
32324
32231
32391
32391
32346
32527
32444
32427
32535
32343
32423
32387
32247
32340
32213
32116
32146
32133
31953
32028
32167
32111
32135
32297
32409
32308
32436
32439
32396
32479
32535
32319
32335
32309
32098
32128
32055
31943
31956
32094
32084
32071
32226
32331
32240
32391
32260
32356
32380
32356
32316
32293
32190
32189
32124
32022
32138
31994
31939
32026
31847
31884
32076
32014
32070
32243
32243
32148
32238
32207
32113
32247
32084
32157
32199
32003
32075
32070
31963
32020
32145
32054
32095
32252
32294
32171
32214
32363
32209
32254
32296
32097
32135
32060
31957
32042
31941
31919
32051
31971
32143
32102
32102
32239
32167
32203
32391
32280
32277
32412
32216
32258
32263
32135
32190
32249
32055
32143
32130
32149
32332
32359
32332
32519
32551
32515
32660
32693
32548
32605
32566
32519
32700
32490
32471
32570
32420
32405
32591
32462
32547
32670
32533
32572
32717
32759
32686
32794
32842
32700
32707
32863
32743
32667
32719
32756
32594
32556
32743
32661
32613
32800
32687
32705
32869
32813
32820
33005
32851
32965
32988
32788
32735
32858
32736
32633
32678
32719
32560
32663
32775
32823
32725
32887
32948
32852
32984
32961
32903
33071
32867
32897
32967
32745
32766
32786
32567
32652
32535
32533
32703
32675
32628
32806
32863
32748
32882
32823
32772
32935
32769
32818
32879
32663
32644
32742
32676
32544
32554
32715
32690
32647
32694
32850
32703
32733
32924
32852
32806
32822
32964
32808
32798
32959
32789
32749
32789
32845
32807
32697
32703
32793
32880
32766
32839
32967
32996
32911
32924
33087
32893
32882
32948
32959
32766
32767
32903
32896
32812
32934
32806
32868
33083
33038
33022
33175
33233
33054
33069
33192
33102
33002
33058
33138
32956
32964
33087
32903
32887
33034
32902
33030
33140
33063
33196
33175
33117
33282
33236
33158
33228
33241
33039
33006
33135
33055
32973
33082
33093
32973
33007
33178
33083
33068
33263
33287
33190
33287
33399
33285
33246
33316
33315
33094
33036
33143
32966
32892
32986
33063
32913
33083
32988
32974
33113
33155
33092
33191
33303
33137
33181
33255
33077
33055
33140
33078
32935
33008
33014
32892
32988
33115
32986
33005
33156
33231
33117
33137
33278
33287
33145
33196
33231
33071
33013
33041
33096
32938
32884
33028
33013
32983
33173
33010
33020
33172
33106
33092
33253
33086
32999
33127
32994
32909
32951
33012
32908
32812
32805
32943
33009
32937
33031
33148
33006
33020
33154
33259
33169
33119
33112
33227
33089
33007
32959
33044
32966
32833
32955
32957
32864
32948
33023
32987
32935
33023
33204
33075
33053
33183
33064
33026
33102
33205
33047
33007
33141
33140
32981
32948
33031
33143
33029
33055
33178
33259
33126
33127
33250
33125
33012
33103
32967
32911
32927
33012
32811
32775
32851
32937
32799
32832
32962
33084
32972
32980
33148
33226
33068
33018
33069
33127
32930
32855
32934
32893
32734
32764
32839
32676
32721
32846
32941
32826
32855
33047
33114
33035
33040
33116
33201
33038
33038
33132
33227
33015
33016
33140
32972
32971
33170
33140
33094
33270
33356
33231
33247
33439
33286
33303
33381
33440
33211
33151
33254
33253
33077
33071
33207
33163
33143
33247
33308
33202
33195
33335
33370
33239
33177
33235
33287
33089
32978
33072
33039
32876
32835
32921
32972
32847
32932
33055
32901
32926
33112
33013
32970
33093
33172
33047
33029
33076
33111
32903
32855
32935
32890
32743
32756
32921
32775
32901
33021
32911
32967
33133
32983
33023
33222
33033
33087
33148
32940
32975
32969
32823
32889
32876
32754
32910
32840
32832
32993
32916
32921
33087
33015
32972
32991
33147
33123
32967
33051
33031
32839
32820
32959
32871
32785
32928
32820
32829
33005
32934
32893
32965
32927
32684
32660
32583
32232
32054
31852
31467
31296
31228
31007
30998
31078
31052
30981
31220
31430
31715
32241
32486
32844
33410
33748
34354
34983
35359
35701
36462
37124
37607
38543
39540
40254
41268
41784
41765
42083
41852
40830
40173
39309
38173
36852
35591
33789
32234
30991
30011
29679
29786
29991
30556
31284
31773
32260
32718
32955
32932
33076
33240
33214
33422
33629
33635
33812
34006
33868
33704
33727
33515
33252
33207
33091
32858
32775
32826
32831
32669
32663
32823
32676
32622
32706
32460
32387
32368
32342
32230
32051
32007
32037
32083
32100
32004
31980
32038
32182
32247
32280
32165
32199
32225
32315
32388
32354
32238
32206
32256
32307
32323
32263
32167
32135
32142
32145
32253
32372
32433
32422
32378
32359
32385
32492
32602
32629
32554
32387
32339
32391
32407
32351
32220
32211
32276
32348
32457
32389
32375
32468
32571
32575
32506
32591
32640
32650
32442
32423
32479
32494
32516
32335
32287
32263
32367
32426
32428
32367
32436
32488
32629
32695
32688
32623
32598
32676
32710
32591
32485
32444
32481
32509
32514
32452
32302
32300
32379
32492
32574
32583
32516
32549
32591
32592
32603
32668
32713
32611
32495
32462
32437
32463
32508
32509
32385
32346
32423
32519
32609
32566
32532
32543
32577
32681
32703
32639
32474
32439
32423
32500
32487
32338
32305
32310
32327
32451
32525
32483
32383
32399
32380
32411
32527
32575
32567
32459
32379
32357
32321
32343
32372
32279
32174
32135
32246
32295
32232
32198
32252
32399
32456
32356
32369
32437
32532
32447
32366
32439
32471
32243
32185
32287
32134
32245
32190
32165
32333
32212
32311
32444
32323
32309
32467
32350
32340
32455
32263
32338
32335
32224
32343
32311
32199
32243
32337
32198
32348
32415
32307
32471
32375
32533
32552
32473
32549
32583
32439
32524
32462
32328
32423
32388
32239
32363
32295
32287
32476
32398
32447
32627
32575
32535
32631
32685
32535
32462
32540
32594
32391
32354
32476
32375
32305
32372
32492
32377
32490
32627
32556
32543
32692
32719
32615
32759
32742
32587
32535
32641
32494
32431
32579
32391
32375
32483
32429
32400
32510
32620
32547
32563
32710
32634
32579
32671
32757
32625
32594
32667
32622
32469
32489
32511
32356
32513
32359
32453
32487
32444
32598
32621
32540
32677
32664
32556
32638
32604
32527
32636
32607
32436
32575
32499
32407
32458
32551
32409
32423
32623
32540
32621
32810
32821
32699
32751
32861
32679
32696
32711
32543
32687
32523
32608
32568
32431
32611
32476
32573
32671
32620
32863
32752
32903
32864
32820
32956
32765
32695
32823
32735
32663
32807
32653
32740
32861
32703
32702
32903
32860
32845
33055
33031
32967
33101
33158
33006
32979
33096
33007
32886
32884
32954
32793
32731
32708
32887
32786
32882
33034
32907
32948
33129
33119
33031
33082
33197
33045
32980
33127
32929
32854
32979
32799
32807
32887
32775
32871
32999
32911
32996
33218
33173
33127
33272
33241
33071
33156
32979
32986
33055
32850
32980
32813
32797
32989
32823
32919
33024
32956
32975
33127
33191
33109
33239
33285
33117
33147
33101
32974
33084
32923
32804
32926
32743
32812
32895
32836
32946
33066
32959
32947
33091
33151
33054
33055
33183
33180
33017
32951
33030
33055
32869
32829
32967
32850
32801
32904
33007
32892
32879
33001
33092
32928
32987
33100
32967
33010
33086
32903
32847
32943
32858
32759
32858
32742
32789
32910
32775
32889
33050
32905
32899
33030
33060
32931
33031
33031
32936
32996
33031
32836
32896
32836
32717
32879
32745
32759
32948
32906
32868
32972
33100
32999
33100
33185
33031
33052
33121
32903
32899
32954
32823
32708
32743
32830
32702
32848
32727
32751
32919
32842
32802
32995
32924
32884
32983
32936
32793
32943
32775
32708
32847
32775
32683
32758
32792
32701
32775
32905
32831
32815
32999
32901
32868
32951
32991
32799
32799
32908
32748
32727
32841
32771
32737
32842
32708
32743
32851
32775
32750
32732
32842
32929
32834
32771
32766
32862
32927
32822
32794
32871
32924
32743
32791
32940
32852
32890
33124
33170
33099
33141
33358
33287
33254
33353
33436
33329
33201
33204
33229
33043
32996
33092
33090
33012
33092
33231
33159
33205
33415
33413
33332
33439
33486
33332
33423
33468
33286
33195
33223
33255
33086
33097
33174
32975
33022
33106
32954
33037
33009
32975
33127
33111
33020
33076
33177
33018
32975
33087
32943
32961
33047
32845
32806
32943
32965
32841
33007
33031
32974
33140
33127
33035
33181
33039
32997
33134
32997
32903
33020
33000
32879
32908
32979
32835
32788
32935
33035
32891
32870
33049
33013
32927
33055
33099
32943
32881
33006
33006
32836
32837
33031
32855
32823
32980
32828
32804
32988
32933
32899
33006
33005
32949
33087
33087
32932
32892
33031
32935
32809
32868
32886
32671
32639
32762
32607
32431
32451
32252
32113
32068
31716
31518
31412
31110
31130
31118
30980
30944
30982
30942
30974
31307
31639
31826
32231
32679
33031
33729
34453
34855
35311
36201
37031
37737
38551
39631
40701
41428
42463
42766
42733
42774
42071
41054
40455
39592
38380
37154
35676
33884
32305
31223
30369
30215
30540
31047
31469
32065
32639
32860
32887
33067
33097
33031
33319
33332
33473
33782
33863
33895
33965
33998
33691
33478
33404
33223
32885
32718
32759
32666
32431
32356
32326
32349
32343
32205
32184
32119
32153
32175
31986
31934
32020
31975
31848
31971
32000
31817
31828
31943
31842
31748
31751
31898
31918
31795
31879
31982
31935
31934
32062
32215
32048
32013
32134
32020
31981
32045
32154
31951
31890
31979
31879
31846
31852
32012
31983
31980
32129
32129
32127
32252
32365
32245
32205
32147
32237
32209
32047
32012
32100
32111
32020
31972
32119
32167
32102
32227
32348
32275
32305
32493
32415
32383
32487
32384
32298
32349
32364
32217
32159
32189
32263
32190
32125
32182
32292
32202
32194
32284
32407
32295
32263
32372
32420
32259
32231
32346
32372
32176
32142
32124
32294
32135
32149
32150
32307
32263
32227
32308
32428
32380
32324
32396
32425
32259
32259
32319
32185
32108
32047
32175
32007
32095
32109
32030
32026
32169
32189
32087
32079
32231
32119
32091
32140
32183
32027
31992
32060
32065
31895
31843
31933
31844
31792
31854
31959
31932
31879
31941
32063
31951
31902
31899
32030
32028
31901
31800
31729
31740
31815
31786
31691
31818
31861
31746
31837
32007
31950
31949
32077
32151
32026
31988
31962
32051
32054
31908
31844
31933
31957
31802
31806
31945
31883
31847
32006
32042
31956
32029
32124
32252
32239
32127
32112
32217
32248
32137
32079
32071
32145
32204
32164
32069
32148
32167
32340
32335
32280
32399
32569
32519
32528
32527
32660
32558
32500
32625
32566
32463
32500
32603
32460
32454
32594
32732
32639
32645
32679
32838
32908
32827
32814
32852
32956
32852
32775
32831
32881
32727
32678
32700
32815
32642
32636
32871
32805
32823
32947
33040
32903
32895
33045
32950
32863
32943
32942
32784
32790
32807
32631
32551
32658
32765
32699
32703
32751
32860
32719
32679
32857
32863
32805
32853
32919
32775
32740
32749
32854
32745
32647
32764
32650
32582
32549
32700
32812
32775
32773
32828
32932
32962
32837
32871
32988
32785
32723
32821
32719
32582
32643
32695
32576
32556
32644
32775
32673
32751
32871
32926
32826
32836
32997
32903
32772
32708
32783
32775
32587
32531
32660
32586
32543
32708
32823
32799
32817
32849
33014
33023
32927
32907
33054
32993
32873
32885
32919
32697
32612
32716
32597
32559
32685
32766
32695
32724
32966
32954
32950
33148
33200
33055
33067
33169
32976
32967
32995
32943
32773
32812
32863
32731
32812
32863
32764
32972
33069
32983
33115
33097
33042
33210
33175
33105
33076
33064
32860
32909
32846
32729
32877
32771
32743
32868
33003
32917
33020
33164
33108
33179
33322
33227
33144
33253
33066
33055
33099
32871
32855
32883
32718
32795
32898
32821
32943
33103
33131
33068
33183
33359
33264
33199
33263
33262
33049
32956
33063
33015
32809
32807
32815
32663
32732
32911
32852
32997
33156
33092
33137
33231
33335
33210
33140
33260
33155
32987
32858
32942
32898
32725
32671
32805
32813
32764
32933
33095
33117
33085
33164
33285
33165
33148
33311
33135
33020
33114
32916
32814
32892
32846
32706
32794
32891
32860
32858
32983
33181
33130
33161
33311
33390
33239
33122
33228
33140
32946
33005
32960
32787
32702
32828
32747
32723
32921
33015
32956
33075
33204
33079
33040
33186
33261
33132
33123
33189
32972
32869
32935
32900
32847
32687
32626
32846
32773
32758
32964
33066
33004
33022
33228
33177
33092
33220
33127
32989
33045
32999
32784
32750
32783
32591
32551
32727
32663
32750
32905
32873
32951
33108
33004
32998
33195
33045
33024
33095
32911
32862
32871
32676
32734
32615
32591
32790
32798
32830
32921
33183
33231
33245
33346
33455
33348
33280
33298
33359
33260
33103
32983
33087
33082
32932
32903
33077
33062
33047
33068
33269
33383
33443
33343
33300
33449
33481
33287
33285
33335
33126
33084
33125
33010
32921
32963
33086
33005
32988
33235
33196
33160
33379
33320
33248
33383
33407
33201
33164
33199
32974
32826
32887
32894
32742
32699
32756
32894
32910
32935
33031
33204
33164
33164
33316
33338
33177
33072
33210
33159
32945
32835
32910
32835
32663
32684
32802
32713
32775
32999
33095
33039
33037
33239
33197
33130
33063
33090
33105
32996
32801
32775
32822
32730
32588
32556
32751
32814
32775
32859
33047
32971
33085
33255
33117
33140
33243
33023
33031
32935
32721
32775
32533
32307
32273
32051
31834
31796
31551
31320
31200
31167
31147
31103
31141
31176
30946
31012
31202
31277
31495
31861
32125
32297
32757
33529
34183
34681
35388
36296
37062
38075
39094
39919
41363
42447
43037
43464
43687
43247
42727
42070
40933
39974
38914
37220
35885
34194
32557
31434
30827
30719
31063
31729
32241
32697
33151
33356
33336
33351
33423
33233
33271
33442
33436
33439
33709
33767
33668
33671
33615
33384
33401
33263
33067
33018
32973
32708
32498
32518
32299
32156
32025
32039
31901
31735
31724
31841
31751
31765
31839
31987
31991
31960
32095
32183
32031
32031
32071
31879
31804
31711
31800
31740
31628
31594
31743
31867
31828
31885
32130
32084
32118
32285
32276
32188
32135
32223
32191
32022
31940
31993
31924
31786
31751
31898
32023
31923
32007
32231
32369
32271
32263
32439
32419
32341
32271
32334
32244
32103
32039
32117
32017
31921
31974
32086
31994
32033
32220
32327
32263
32368
32484
32599
32562
32446
32374
32439
32391
32165
32079
32151
32109
31951
31895
32046
32101
32093
32188
32352
32415
32396
32409
32557
32617
32474
32508
32524
32316
32319
32159
32003
32058
32002
31878
31923
32052
32023
32047
32262
32255
32254
32450
32527
32417
32391
32410
32415
32167
32215
32188
31962
31845
31911
31779
31761
31919
31888
31911
32098
32108
32097
32246
32273
32138
32181
32199
31968
31887
31926
31833
31594
31636
31569
31493
31572
31583
31536
31676
31898
31859
31964
32114
31975
32025
32102
31942
31918
31950
31788
31670
31647
31673
31503
31461
31618
31559
31588
31783
31915
31815
31844
32022
32143
32017
31975
32002
32042
31978
31855
31770
31834
31677
31574
31644
31703
31665
31726
31900
32098
32063
32093
32303
32320
32327
32353
32463
32287
32210
32279
32113
32138
32031
32041
32055
32100
32119
32228
32317
32533
32631
32619
32815
32799
32735
32887
32742
32689
32801
32735
32586
32559
32587
32479
32420
32476
32631
32620
32645
32832
32982
32927
32918
33072
33181
33028
32967
33031
33030
32903
32744
32697
32739
32621
32519
32590
32700
32668
32707
32964
33051
32994
33103
33200
33072
32999
33154
33047
32888
32944
32879
32678
32590
32719
32587
32556
32764
32789
32789
32973
33143
33053
33066
33115
33181
33167
32975
32925
32996
32829
32705
32677
32676
32504
32604
32706
32645
32658
32902
32981
32972
33009
33222
33222
33127
33031
33112
33030
32868
32857
32873
32658
32631
32657
32588
32596
32606
32839
32938
32928
33042
33213
33232
33143
33195
33303
33287
33079
32955
33013
32877
32761
32634
32710
32789
32703
32687
32858
32985
32925
32953
33162
33247
33154
33095
33255
33269
33103
32954
33010
33009
32786
32730
32744
32797
32857
32817
32831
33020
33182
33132
33143
33347
33304
33217
33421
33308
33127
33146
33159
32933
32871
32934
32762
32802
32932
32832
32848
33028
33225
33159
33180
33423
33399
33294
33427
33326
33157
33197
33159
32943
32821
32959
32939
32831
32902
33027
32958
33031
33287
33214
33277
33428
33300
33243
33439
33351
33210
33185
33156
32943
32868
32959
32757
32714
32919
32934
32931
32949
33243
33184
33164
33363
33388
33248
33284
33344
33234
33081
33046
33100
32954
32843
32741
32834
32850
32767
32871
33039
33093
33029
33037
33254
33399
33311
33244
33364
33297
33095
33082
32997
32855
32855
32895
32786
32756
32961
32922
33028
33199
33167
33263
33399
33268
33370
33364
33142
33243
33128
32956
32988
32871
32716
32705
32796
32741
32708
32903
32911
32959
33215
33201
33161
33260
33319
33161
33039
33103
33126
32876
32853
32860
32671
32732
32783
32671
32775
32974
32948
32978
33176
33197
33159
33213
33319
33170
33216
33238
33015
33060
32839
32948
32764
32655
32743
32847
32756
32810
32912
33066
33125
33042
33169
33269
33148
33042
33208
33094
32963
33009
32962
32750
32807
32767
32659
32647
32843
32973
32950
32996
33059
33195
33195
33116
33041
33156
33172
32967
32863
32972
32957
32788
32769
32850
32709
32719
32863
33096
33052
33076
33330
33317
33284
33498
33470
33299
33375
33404
33185
33029
33133
33003
32861
32963
32916
32810
33043
33002
33124
33301
33209
33372
33357
33311
33492
33319
33345
33198
33015
33063
32956
32711
32651
32741
32583
32614
32772
32700
32867
33031
32971
33062
33214
33100
33031
33195
33095
32973
32935
32926
32800
32647
32708
32753
32585
32714
32744
32711
32975
33017
32966
33159
33086
33005
33161
33127
32995
32966
32905
32647
32644
32663
32483
32432
32582
32644
32610
32596
32852
32900
32903
33085
33126
33020
33169
33027
33103
33089
32884
32900
32853
32673
32758
32670
32524
32692
32762
32693
32837
32981
32870
32932
32929
32678
32485
32358
32082
31604
31319
31097
30767
30727
30736
30583
30545
30560
30804
31078
31330
31715
32252
32658
33018
33541
34292
34895
35295
35782
36614
37530
38324
39110
40164
41419
42415
42972
43410
43634
43597
42916
42238
41527
40627
39270
37731
36164
34370
32691
31620
31167
31172
31324
31751
32348
32855
33058
33191
33429
33633
33615
33589
33879
34055
34040
34219
34332
34132
33879
33738
33495
33124
33015
32831
32543
32395
32455
32436
32284
32233
32431
32516
32406
32317
32279
32239
32171
31991
31923
31914
31690
31651
31693
31530
31499
31672
31612
31655
31727
31926
32038
31961
31994
32191
32254
32109
32036
32132
32087
31902
31804
31873
31846
31650
31641
31774
31818
31818
31864
32141
32185
32153
32175
32357
32388
32251
32148
32207
32221
32044
31990
31985
32004
31943
31817
31775
31821
31945
32127
32228
32167
32199
32346
32423
32333
32292
32348
32391
32276
32140
32058
32035
32046
31845
31788
31950
31876
31915
32083
32175
32149
32341
32451
32356
32398
32473
32429
32283
32262
32231
32216
32028
31903
31871
31919
31943
31864
31892
32150
32165
32172
32380
32460
32391
32335
32263
32389
32294
32132
32015
32060
31913
31795
31770
31846
31715
31750
31869
32007
31926
31947
32092
32119
32076
32182
32193
32037
31967
32034
31906
31660
31582
31612
31575
31442
31524
31584
31482
31531
31708
31807
31774
31808
31941
32004
31879
31863
31916
31735
31616
31665
31476
31351
31407
31429
31293
31301
31495
31463
31525
31735
31802
31807
31960
32027
31911
31944
32007
31826
31710
31735
31584
31479
31477
31533
31522
31467
31516
31782
31714
31764
31988
31932
31939
32122
31977
31951
32042
31863
31765
31858
31676
31631
31779
31642
31756
31827
31855
32086
32239
32211
32371
32455
32439
32604
32631
32492
32423
32585
32415
32316
32383
32358
32198
32148
32337
32261
32356
32602
32595
32614
32871
32831
32927
33063
32933
32867
33027
32892
32775
32790
32807
32623
32543
32692
32727
32613
32655
32887
32964
32909
32910
33146
33014
33023
33186
33044
32949
33062
32869
32812
32831
32711
32591
32740
32775
32716
32813
32977
32923
32946
33173
33278
33174
33198
33276
33172
33051
33023
33046
32846
32733
32735
32775
32680
32638
32719
32917
32894
32933
32941
33149
33060
33119
33275
33140
33107
33135
33104
32943
32783
32677
32718
32782
32618
32588
32785
32775
32806
32952
33123
33172
33101
33097
33252
33246
33069
32956
33021
32940
32767
32724
32749
32550
32583
32701
32646
32810
32859
32938
33101
33031
33218
33225
33143
33213
33273
33078
33101
33068
32858
32905
32886
32709
32789
32841
32745
32978
33029
32964
33193
33111
33118
33372
33255
33252
33317
33134
33005
33127
32988
32845
32914
32815
32679
32846
32831
32819
32919
33103
33047
33079
33273
33363
33229
33196
33278
33287
33087
32976
33094
32985
32830
32839
32868
32757
32745
32900
33079
33079
33075
33319
33217
33295
33463
33324
33222
33285
33255
33057
32911
33006
32935
32775
32893
32828
32809
33013
33124
33087
33231
33302
33252
33363
33364
33213
33236
33183
33025
33073
33001
32804
32803
32867
32693
32651
32858
32923
32891
32949
33084
33260
33220
33184
33263
33332
33258
33148
33143
33094
32860
32754
32841
32866
32699
32676
32841
32924
32873
32906
33099
33190
33149
33206
33316
33233
33140
33174
33209
33045
32914
32774
32836
32815
32640
32613
32817
32924
32876
32903
33097
33159
33072
33070
33180
33262
33279
33095
32990
32948
32960
32847
32667
32596
32732
32626
32603
32795
32935
32932
32971
33083
33231
33198
33133
33118
33157
33203
33047
32932
32908
32910
32738
32636
32623
32702
32743
32663
32694
32878
33021
33068
33024
33015
33141
33207
33132
33022
32889
32949
32923
32690
32580
32586
32631
32598
32543
32570
32791
32900
32849
32890
32998
33101
33092
33023
32989
33023
33095
32934
32846
32966
32975
32808
32743
32909
33003
32959
32924
33161
33180
33156
33379
33372
33294
33373
33388
33205
33093
33028
33031
32911
32764
32805
32870
32749
32812
33014
32958
33109
33273
33173
33126
33194
33284
33175
33031
32976
33060
32837
32798
32833
32644
32583
32750
32659
32650
32738
32903
33003
32973
32967
33099
33189
33195
33030
32941
32993
33009
32823
32700
32595
32679
32619
32498
32502
32630
32797
32762
32775
32971
33090
33061
33023
32967
33122
33158
33038
32905
32841
32825
32692
32540
32612
32629
32503
32692
32740
32734
32836
33052
32943
32996
33127
33045
32918
32967
32969
32760
32716
32741
32589
32453
32367
32361
32255
32031
31956
31920
31676
31409
31239
31221
31197
31023
31013
30994
30965
30756
30797
31052
31249
31431
31708
32185
32639
33197
33794
34527
35276
36020
36766
37749
38735
39855
40796
41959
43079
43591
43663
43527
43204
42669
41782
40823
39622
38088
36804
35220
33553
32297
31548
31348
31464
31913
32533
33100
33287
33410
33476
33524
33376
33231
33287
33465
33623
33719
33713
33771
33717
33686
33618
33308
33103
33116
33022
32746
32607
32548
32465
32209
32036
31965
31951
31708
31655
31772
31722
31681
31696
31879
31839
31818
31824
31989
31879
31806
31790
31851
31620
31551
31620
31555
31370
31370
31535
31550
31519
31584
31764
31937
31948
31919
32003
32124
31986
31943
31956
31965
31823
31700
31661
31623
31739
31751
31636
31682
31862
31972
31905
31980
32105
32262
32167
32163
32294
32308
32132
32059
32013
32063
31972
31845
31803
31868
31977
31885
31920
32167
32166
32173
32223
32431
32394
32343
32472
32455
32253
32179
32231
32135
31956
31870
31980
31879
31855
31931
32108
32051
32199
32375
32280
32409
32326
32423
32340
32335
32221
32228
32239
32050
32127
31943
32068
31885
31975
31927
32132
32044
32263
32299
32260
32282
32263
32437
32309
32230
32233
32278
32063
31965
31997
31977
31802
31756
31876
31944
31852
32002
32177
32045
32156
32302
32141
32126
32231
32082
31976
31956
31929
31751
31620
31533
31614
31605
31495
31551
31695
31806
31751
31775
31924
32030
31999
31901
31892
32003
31861
31726
31679
31726
31663
31476
31494
31562
31478
31506
31671
31837
31751
31820
31955
32099
32052
31993
31986
32105
32019
31874
31797
31843
31769
31588
31622
31700
31626
31605
31703
31894
32061
31990
32072
32255
32358
32247
32180
32175
32280
32282
32097
32036
32054
32127
31967
32007
32134
32270
32321
32380
32548
32774
32678
32767
32927
32775
32726
32836
32769
32602
32535
32620
32447
32391
32447
32567
32487
32557
32758
32930
32852
33002
33178
33071
33167
33271
33109
33053
33164
33025
32884
32879
32883
32667
32615
32725
32828
32775
32847
33087
33100
33058
33287
33300
33213
33249
33311
33220
33056
33119
32967
32849
32847
32870
32695
32647
32775
32853
32820
32975
33137
33036
33127
33252
33157
33097
33140
33176
33099
32964
32924
32945
32707
32688
32761
32639
32586
32799
32894
32862
33004
33151
33187
33075
33017
33166
33114
33022
33095
33052
32842
32748
32832
32665
32567
32679
32597
32614
32805
32967
32900
33023
33184
33065
33068
33255
33119
33007
33109
32895
32879
32908
32786
32667
32807
32663
32673
32828
32862
32875
33117
33015
33054
33224
33260
33151
33221
33225
33054
32953
33031
32852
32753
32833
32871
32711
32705
32924
33012
32964
33001
33173
33313
33189
33195
33309
33389
33218
33122
33031
33073
33031
32980
32825
32775
32759
32935
32996
32950
33044
33179
33316
33370
33278
33277
33303
33369
33359
33276
33071
32957
32927
32935
32719
32687
32876
32836
32871
33077
33091
33098
33287
33337
33239
33325
33351
33190
33303
33079
33060
33073
32877
32764
32891
32766
32723
32903
32863
32848
33063
33134
33091
33120
33253
33356
33287
33206
33097
33187
33083
32903
32845
32884
32700
32646
32763
32850
32732
32783
32927
33037
33109
33078
33079
33183
33287
33135
33065
33084
33122
32885
32763
32783
32804
32670
32615
32750
32879
32817
32874
33091
33189
33071
33061
33245
33226
33063
33116
33116
32911
32899
32901
32670
32607
32751
32775
32681
32741
32927
33071
32998
33020
33126
33247
33305
33135
33079
33122
33094
32951
32809
32821
32867
32709
32655
32698
32831
32883
32799
32871
33054
33159
33011
33015
33177
33167
32988
32953
32865
32887
32895
32823
32647
32615
32676
32749
32657
32725
32791
32974
33094
33021
33052
33164
33220
33262
33116
33040
32986
32987
32972
32988
32775
32767
32765
32918
32911
32912
33034
33254
33239
33207
33245
33421
33447
33278
33252
33316
33314
33204
32956
32869
32966
32805
32710
32853
32853
32831
32956
33147
33079
33123
33326
33357
33249
33231
33277
33276
33159
32943
32820
32794
32837
32600
32567
32715
32718
32643
32718
32852
33015
33040
32940
32982
32981
33095
33102
32986
32879
32775
32815
32771
32684
32541
32527
32653
32735
32612
32679
32827
32995
33039
32927
32986
33106
32942
32983
32995
32959
32719
32645
32707
32612
32473
32432
32526
32596
32513
32565
32729
32852
32804
32809
32894
33037
32863
32848
32871
32931
32871
32695
32586
32604
32647
32599
32454
32476
32601
32677
32470
32396
32335
32383
32015
31748
31551
31303
30946
30759
30735
30620
30479
30481
30471
30431
30745
31206
31462
31852
32421
32989
33531
34223
34916
35327
36044
36838
37501
38380
39396
40292
41393
42360
42688
42916
43111
42653
41901
41400
40519
39303
38055
36336
34726
33364
32003
31269
31262
31447
31751
32263
32791
33199
33258
33283
33461
33391
33347
33496
33735
33772
33837
34045
34156
34167
33935
33707
33522
33363
33161
32797
32558
32466
32423
32317
32100
32070
32164
32215
32036
32027
32133
32064
31955
31914
31941
31991
31895
31724
31680
31635
31611
31584
31438
31430
31466
31617
31591
31631
31734
31900
32026
32087
31980
31997
32041
32074
32047
31894
31748
31693
31735
31533
31623
31463
31508
31682
31695
31806
32052
31978
32014
32127
32255
32095
32130
32237
32031
32027
32068
31820
31734
31785
31727
31636
31706
31799
31791
31830
31935
32162
32071
32147
32348
32372
32247
32217
32263
32121
31980
31957
31950
31724
31687
31779
31783
31706
31810
32065
32133
32107
32193
32326
32425
32366
32303
32335
32364
32229
32098
31999
32042
31975
31828
31863
31910
31794
31855
32056
32141
32096
32276
32369
32271
32297
32391
32360
32159
32084
32118
31906
31814
31803
31821
31663
31650
31723
31852
31812
31836
31943
32107
32071
32053
32095
32197
32071
31944
31946
31924
31694
31563
31518
31566
31612
31570
31454
31520
31732
31675
31713
31842
31948
31852
31843
31876
31892
31813
31628
31552
31590
31441
31351
31357
31380
31396
31293
31375
31556
31715
31643
31687
31844
31897
31828
31844
31968
31821
31694
31683
31685
31540
31476
31452
31556
31462
31431
31558
31707
31636
31820
32007
31923
31985
32141
32138
31997
32014
32061
31839
31793
31861
31691
31702
31785
31876
31774
31860
32127
32143
32244
32436
32492
32486
32636
32681
32539
32555
32644
32430
32368
32445
32263
32207
32248
32353
32263
32404
32597
32651
32671
32759
32901
33031
32934
32911
32882
32959
32931
32726
32644
32652
32679
32585
32455
32484
32682
32795
32762
32899
33052
32972
33098
33212
33102
33026
33119
32974
32859
32914
32755
32638
32774
32583
32685
32748
32672
32775
33031
32991
32982
33084
33188
33239
33132
33107
33210
33214
32951
32836
32839
32820
32613
32567
32615
32679
32685
32658
32820
32997
32999
32990
33001
33132
33194
33037
32975
33031
33021
32812
32716
32719
32770
32647
32548
32565
32630
32828
32906
32911
32933
32990
33170
33265
33099
33081
33157
33191
33023
32893
32894
32771
32666
32794
32645
32764
32899
32884
32873
33004
33154
33125
33118
33260
33279
33180
33230
33268
33044
32958
33053
32855
32780
32890
32703
32767
32919
32836
32903
33143
33079
33104
33305
33269
33177
33285
33159
33031
33079
33021
32846
32855
32852
32654
32710
32791
32704
32895
32948
32882
33025
33156
33039
33227
33114
33105
33222
33015
33052
32996
32817
32815
32846
32690
32614
32750
32845
32794
32988
33001
32989
33206
33115
33121
33276
33133
33079
33188
32937
32881
32934
32851
32705
32775
32679
32655
32775
32942
32886
33046
33204
33053
33175
33300
33139
33126
33221
33221
33065
32892
32868
32911
32735
32655
32614
32775
32799
32757
32861
33017
33151
33143
33108
33198
33287
33227
33087
33027
33040
33031
32775
32726
32724
32749
32692
32558
32615
32747
32911
32875
32895
32978
33180
33115
33038
33022
33023
33020
32974
32772
32685
32700
32743
32647
32559
32603
32807
32924
32860
32920
32964
33173
33095
33039
33199
33030
33099
32913
32825
32854
32634
32707
32539
32631
32708
32684
32629
32708
32773
32943
33079
33138
33015
33021
32999
33103
33130
32922
32855
32910
32897
32761
32639
32617
32742
32807
32775
32903
33114
33319
33436
33378
33415
33540
33622
33567
33399
33317
33311
33308
33210
32986
32900
32972
33031
32943
32925
32971
33137
33233
33268
33188
33220
33239
33355
33400
33373
33183
33038
32965
32870
32839
32828
32797
32654
32635
32685
32854
32969
32964
32993
33127
33236
33316
33195
33103
33140
33179
33080
32879
32801
32839
32866
32719
32686
32831
32914
32806
32864
33056
33126
33055
33101
33263
33217
33111
33161
33183
33020
32939
32853
32891
32911
32787
32652
32706
32775
32948
33061
32975
33049
33287
33191
33165
33322
33297
33159
33093
33159
33095
32873
32805
32903
32877
32709
32711
32836
32967
32911
32876
32859
32903
32700
32460
32325
32100
31631
31364
31178
30867
30716
30734
30727
30497
30524
30733
30830
31290
31748
32007
32428
33084
33606
34235
34925
35604
36335
37037
37799
38526
39668
40871
42130
43058
43575
44140
44441
44334
43775
43152
42300
41318
40005
38262
36452
35031
33645
32593
32303
32463
32879
33327
33644
33812
33956
33961
34115
34156
34028
34067
34265
34463
34589
34492
34375
34174
34089
33893
33426
33175
33031
32729
32471
32360
32284
32095
31978
31975
32056
32060
31885
31774
31749
31780
31811
31625
31521
31585
31457
31284
31263
31263
31287
31161
31086
31140
31294
31303
31313
31413
31583
31468
31550
31639
31716
31575
31574
31576
31612
31476
31300
31220
31200
31268
31286
31236
31351
31458
31490
31449
31516
31663
31686
31502
31389
31276
31239
31005
30844
30802
30699
30495
30375
30359
30462
30397
30420
30538
30705
30695
30737
30882
30927
30877
30948
31019
30934
30780
30820
30788
30635
30600
30655
30532
30479
30583
30644
30590
30662
30809
30790
30796
30867
30950
30860
30787
30783
30839
30715
30548
30533
30567
30566
30452
30439
30559
30709
30702
30820
31008
31116
31076
31215
31326
31222
31215
31239
31253
31074
30998
30999
31053
30902
30871
30950
31032
31101
31066
31165
31270
31473
31509
31441
31545
31639
31512
31452
31429
31454
31356
31167
31110
31118
31175
31084
31038
31172
31323
31344
31341
31460
31560
31599
31501
31483
31467
31535
31367
31262
31205
31191
31109
30914
30903
30958
30916
30872
31018
31149
31261
31206
31204
31269
31360
31357
31239
31195
31172
31189
31199
31060
30965
30950
31019
31059
30995
31006
31079
31228
31335
31313
31328
31399
31549
31533
31435
31469
31565
31552
31363
31326
31360
31450
31298
31350
31452
31653
31747
31751
31879
32055
32190
32151
32163
32263
32331
32361
32180
32130
32167
32166
32079
31946
31939
32001
32090
32152
32063
32119
32189
32348
32479
32401
32360
32429
32495
32298
32239
32230
32263
32152
32007
32002
32078
32116
31956
31993
32184
32083
32149
32351
32421
32341
32318
32353
32420
32468
32237
32132
32103
32135
32132
31913
31837
31803
31926
32014
31958
31999
32060
32229
32262
32215
32195
32292
32351
32180
32135
32085
32147
32074
31857
31844
31831
31935
32016
32061
31999
32060
32205
32303
32396
32411
32301
32329
32430
32425
32316
32178
32119
32212
32067
32027
32045
31975
32189
32076
32174
32287
32439
32531
32474
32497
32514
32685
32647
32518
32495
32532
32559
32543
32396
32298
32263
32263
32370
32485
32463
32444
32523
32669
32798
32686
32706
32733
32844
32849
32668
32644
32663
32580
32444
32415
32535
32494
32428
32541
32660
32722
32647
32662
32775
32901
32922
32813
32831
32956
32989
32846
32807
32796
32893
32908
32763
32775
32952
33020
32973
32967
33067
33306
33239
33281
33388
33523
33407
33415
33466
33578
33478
33363
33367
33359
33473
33484
33496
33367
33388
33574
33679
33589
33663
33854
33911
33837
33777
33751
33799
33837
33813
33628
33601
33626
33695
33652
33506
33493
33583
33718
33799
33757
33691
33680
33859
33939
33905
33799
33769
33706
33831
33868
33702
33643
33684
33756
33631
33580
33661
33759
33660
33646
33836
33822
33753
33874
33951
33788
33823
33892
33783
33683
33649
33764
33827
33658
33656
33771
33845
33727
33793
33912
33830
33757
33855
33936
33789
33733
33852
33766
33654
33610
33735
33701
33543
33525
33684
33729
33600
33638
33862
33836
33815
33950
34111
34021
33991
34141
34073
33989
34055
34135
33935
33870
33975
33940
33815
33965
34063
33966
33973
34143
34268
34128
34092
34237
34335
34181
34109
34079
34173
34171
34013
33904
33919
33982
33998
33920
33854
33878
34055
34043
34005
34044
34135
34029
33920
33943
33943
33788
33636
33572
33510
33592
33591
33518
33377
33398
33399
33518
33602
33584
33543
33631
33743
33747
33595
33603
33641
33731
33571
33516
33473
33540
33584
33404
33401
33556
33677
33549
33686
33830
33732
33767
33976
33860
33797
33925
33818
33711
33685
33810
33620
33542
33636
33676
33567
33678
33827
33754
33765
33937
34055
33927
33969
34150
34135
33973
33927
34049
33987
33796
33718
33783
33796
33778
33672
33702
33879
33914
33755
33634
33628
33571
33231
32975
32719
32553
32386
32054
32038
32067
31828
31791
31900
32103
32204
32557
32911
33351
33762
34129
34756
35435
35819
36217
36903
37702
38343
39025
40004
41031
41864
42492
43271
43662
43567
43190
42900
42236
41020
40083
38743
37083
35586
34282
33433
32967
32863
33095
33603
34127
34405
34780
35039
35066
34959
34978
35063
35108
35099
35146
35399
35406
35221
35022
34971
34795
34438
34167
34021
33908
33623
33445
33314
33341
33282
33135
32987
32928
32879
32807
32809
32852
32785
32655
32584
32549
32519
32583
32569
32584
32423
32325
32298
32379
32482
32358
32374
32420
32556
32659
32702
32694
32599
32597
32752
32759
32656
32547
32567
32591
32493
32374
32351
32435
32533
32495
32428
32552
32647
32572
32705
32815
32736
32681
32697
32756
32807
32693
32551
32503
32529
32572
32583
32424
32502
32615
32508
32511
32557
32706
32839
32730
32719
32701
32815
32685
32653
32756
32775
32598
32515
32500
32593
32582
32463
32453
32567
32678
32615
32594
32736
32845
32767
32696
32692
32821
32809
32615
32529
32611
32575
32406
32367
32468
32445
32372
32391
32533
32539
32492
32571
32741
32585
32633
32686
32539
32607
32607
32385
32327
32396
32204
32155
32276
32173
32151
32340
32199
32361
32463
32327
32327
32396
32463
32275
32263
32350
32149
32073
32143
31940
31892
31999
31839
31860
31994
31847
31878
32055
31967
31930
32022
32058
31985
32002
32035
31937
31876
31876
31759
31777
31655
31684
31769
31654
31651
31817
31780
31788
31893
32007
31889
31879
31935
32012
31830
31839
31955
31784
31779
31863
31658
31679
31798
31805
31686
31769
31956
31956
31887
31991
32129
32031
32041
32139
32191
32150
32017
32041
32148
32197
32068
32065
32101
32231
32364
32397
32375
32444
32607
32764
32625
32717
32866
32897
32712
32721
32887
32755
32693
32679
32801
32707
32662
32709
32871
32945
32839
32895
33111
33097
33087
33204
33319
33313
33144
33140
33244
33260
33246
33079
33063
33208
33219
33052
33041
33167
33301
33228
33215
33342
33445
33308
33295
33404
33437
33287
33252
33219
33301
33293
33093
33068
33158
33204
33082
33103
33194
33337
33293
33268
33336
33438
33453
33287
33255
33343
33388
33240
33149
33130
33226
33191
33018
33031
33181
33253
33140
33151
33287
33286
33221
33317
33380
33220
33267
33325
33134
33143
33214
33052
32983
33079
33021
32935
32999
33114
32991
32991
33105
33228
33196
33102
33105
33174
33277
33076
33087
33150
32983
32903
32876
33031
32967
32909
32916
33066
33015
32993
33037
33199
33287
33175
33146
33239
33269
33178
33062
33102
33172
32977
33023
33103
32920
32910
33069
33015
32967
33174
33063
33062
33259
33233
33127
33164
33205
33096
33012
33111
32989
32903
32983
33014
32861
32840
33006
32946
32935
33071
33114
33041
33249
33099
33173
33268
33060
33079
33159
32948
32892
32998
32946
32807
32910
32931
32860
33038
32918
32944
33103
33159
33039
33038
33154
33197
33007
32981
33070
33124
32966
32876
32832
32955
32799
32927
32838
32827
32995
33026
32903
32877
33001
33097
32953
32966
33031
32978
32819
32755
32872
32892
32749
32665
32634
32743
32660
32644
32767
32910
32771
32794
32871
32966
32956
32821
32775
32901
32725
32689
32652
32790
32791
32644
32653
32750
32854
32857
32863
32910
33088
33147
33046
33031
33159
33239
33241
33105
33002
32967
33023
33066
33031
32979
32885
32824
32815
32833
33007
33087
33019
32995
33031
33057
33138
33186
33172
32981
32892
32829
32929
32922
32734
32661
32746
32839
32745
32723
32806
32893
32919
32830
32841
32983
32844
32817
32881
32959
32812
32724
32701
32813
32700
32639
32700
32767
32597
32622
32731
32859
32877
32724
32747
32839
32903
32870
32743
32796
32878
32804
32680
32653
32759
32759
32604
32590
32591
32743
32790
32681
32691
32825
32904
32879
32774
32848
32916
32845
32734
32719
32769
32801
32759
32603
32575
32691
32759
32647
32637
32727
32818
32697
32717
32850
32877
32740
32692
32628
32656
32572
32262
32071
31950
31751
31349
31079
30924
30847
30815
30807
30722
30804
30913
30893
31103
31468
31858
32111
32300
32694
33217
33909
34466
34804
35284
36215
37018
37602
38345
39350
40631
41692
42375
42599
42878
43060
42708
41975
40899
40008
38726
37244
35430
34020
32883
32127
31815
32001
32519
33139
33660
33894
34132
34207
34356
34366
34160
34124
34141
34281
34370
34381
34114
33908
33764
33639
33424
33123
32906
32746
32742
32684
32558
32327
32199
32098
32101
32058
31951
31683
31564
31460
31481
31411
31207
31198
31239
31303
31297
31194
31250
31298
31422
31520
31419
31420
31519
31589
31484
31418
31410
31447
31495
31402
31327
31311
31416
31457
31318
31332
31416
31517
31495
31455
31487
31607
31543
31463
31530
31619
31473
31479
31524
31574
31371
31373
31453
31534
31399
31422
31438
31562
31570
31476
31558
31663
31532
31604
31709
31542
31552
31697
31604
31545
31554
31613
31479
31462
31533
31628
31575
31562
31631
31751
31652
31633
31697
31789
31631
31590
31701
31578
31566
31670
31495
31559
31643
31508
31591
31669
31557
31615
31737
31621
31599
31727
31660
31604
31711
31764
31614
31613
31717
31537
31519
31631
31433
31467
31609
31627
31535
31591
31700
31570
31643
31677
31569
31639
31698
31528
31479
31546
31491
31357
31350
31477
31340
31313
31343
31415
31295
31295
31415
31444
31313
31366
31463
31333
31351
31455
31279
31237
31276
31278
31111
31079
31177
31095
31055
31072
31221
31116
31142
31305
31167
31157
31239
31294
31155
31143
31204
31255
31065
31044
31077
31131
30988
30999
31082
31189
31206
31103
31134
31284
31205
31221
31370
31379
31278
31372
31423
31268
31340
31423
31259
31335
31314
31260
31438
31362
31412
31554
31623
31573
31638
31829
31775
31797
31947
31985
31865
31871
32004
32030
31909
31904
31957
32034
32084
32053
32017
32072
32092
32287
32260
32239
32347
32439
32390
32391
32443
32512
32351
32324
32439
32319
32311
32471
32403
32391
32559
32525
32455
32622
32580
32543
32725
32622
32691
32788
32639
32744
32680
32556
32643
32610
32459
32583
32463
32447
32623
32487
32485
32678
32543
32594
32645
32557
32676
32644
32559
32723
32591
32524
32614
32482
32421
32519
32529
32455
32580
32486
32454
32669
32550
32638
32734
32582
32566
32724
32599
32551
32681
32591
32500
32529
32604
32446
32495
32518
32415
32572
32543
32487
32570
32678
32572
32679
32858
32743
32647
32751
32744
32581
32607
32682
32535
32471
32591
32583
32500
32647
32706
32607
32647
32791
32714
32671
32729
32835
32842
32663
32649
32742
32732
32559
32549
32668
32714
32597
32607
32768
32843
32702
32715
32802
32919
32760
32759
32945
32924
32834
32828
32887
32935
32775
32687
32743
32813
32707
32655
32801
32869
32797
32791
32986
32828
32922
32929
32897
32877
32906
32958
32789
32703
32722
32814
32707
32670
32664
32818
32884
32783
32759
32716
32794
32865
32878
32746
32737
32683
32742
32836
32668
32583
32630
32707
32597
32551
32535
32687
32731
32726
32671
32663
32795
32830
32660
32635
32775
32680
32603
32719
32766
32625
32639
32801
32785
32748
32926
33015
32941
32938
33107
32999
32983
33142
33124
33030
32998
33112
33163
32986
32934
33031
33116
32995
32950
33098
33159
33095
33079
33076
33240
33319
33197
33159
33111
33178
33159
33156
32953
32893
33007
32997
32884
32882
32983
33031
32974
32913
32885
33012
33118
33055
33018
33049
33141
32990
32916
33060
32919
32831
32903
32936
32849
32774
32825
32937
32988
32833
32863
32936
33052
33006
32967
32929
33012
33070
33038
32884
32834
32957
32873
32769
32714
32871
32889
32772
32758
32836
32958
33022
32903
32935
33052
32903
32871
32975
33011
32830
32762
32863
32831
32670
32694
32775
32630
32644
32837
32831
32765
32804
32919
32801
32869
32932
32775
32748
32836
32823
32575
32407
32375
32248
31942
31653
31445
31321
31189
30999
31001
31174
31131
31071
31178
31359
31445
31742
32197
32356
32652
33146
33653
34082
34548
35207
35724
36204
36899
37597
38282
38870
39901
40815
41445
41661
41711
41623
40951
40071
39192
38037
36389
34638
33277
32037
30994
30580
30759
31139
31521
32103
32788
33351
33564
33879
33829
33831
33858
33772
33648
33596
33863
33769
33780
33961
33884
33719
33726
33495
33349
33380
33193
33013
32853
32784
32756
32553
32420
32455
32380
32135
32038
32108
31862
31837
31868
31694
31671
31770
31884
31774
31783
31936
31823
31773
31855
31884
31730
31706
31765
31835
31644
31628
31771
31751
31716
31790
31911
31830
31860
31991
32028
31895
31888
31959
32039
31947
31839
31806
31943
31801
31761
31805
31879
31913
31775
31782
31915
31943
31887
31874
31983
32094
31983
31943
32018
31954
31886
32007
31832
31895
31995
31831
31900
32020
31916
31927
32054
32174
32057
32069
32236
32196
32104
32203
32260
32084
32115
32145
31965
32039
32068
31927
31903
32046
32135
31996
32083
32200
32092
32100
32235
32277
32152
32122
32255
32263
32100
32039
32103
32140
31954
31904
31999
32100
31972
31975
32062
32156
32229
32225
32111
32099
32089
32204
32054
31994
32006
32053
32049
31876
31838
31879
31982
31894
31903
31956
32064
31930
31930
32100
32036
31982
32029
32111
31935
31864
31975
31967
31817
31745
31780
31868
31748
31771
31834
31767
31941
31809
32023
31887
32035
31860
32015
31849
31990
31861
31991
31840
31913
31831
31703
31828
31711
31815
31794
31717
31869
31944
31826
31851
31943
31999
32055
31991
31932
31897
31975
31991
31901
31811
31832
31802
31916
32001
31965
31934
31977
32086
32207
32228
32143
32167
32164
32238
32345
32237
32165
32258
32281
32166
32082
32140
32252
32263
32199
32207
32207
32327
32447
32494
32356
32385
32519
32375
32462
32415
32341
32483
32343
32373
32469
32373
32372
32423
32532
32495
32479
32507
32671
32679
32614
32597
32620
32681
32772
32690
32617
32574
32688
32667
32548
32561
32638
32599
32542
32515
32689
32591
32597
32597
32763
32684
32591
32650
32675
32559
32630
32683
32594
32508
32564
32642
32519
32468
32620
32587
32559
32724
32815
32684
32673
32789
32820
32676
32743
32844
32671
32704
32750
32623
32547
32647
32756
32682
32657
32729
32828
32762
32719
32799
32926
32844
32783
32932
32852
32772
32859
32907
32761
32775
32871
32733
32679
32820
32903
32824
32823
32835
33038
32935
32893
33042
33031
32866
32847
33012
32870
32810
32937
32852
32750
32850
32775
32823
32889
32790
32900
32990
32870
32908
33046
32942
32910
32999
33080
32940
32923
32986
32946
32815
32775
32876
32824
32760
32903
32861
32775
32926
33006
32901
32869
33060
32887
32901
32954
32813
32703
32870
32683
32637
32741
32669
32667
32775
32615
32717
32737
32626
32775
32827
32708
32833
32775
32668
32835
32732
32620
32703
32671
32547
32567
32639
32461
32529
32588
32431
32697
32567
32772
32617
32855
32767
32846
32970
32837
32782
32996
32839
32804
32951
32833
32749
32909
32895
32828
32921
33031
32939
32900
33134
33065
33021
33174
33098
32991
33097
33137
32975
32971
33055
32868
32811
32870
32968
32838
32856
32960
32815
32785
32965
32900
32836
32994
32846
32874
32983
32812
32704
32815
32678
32587
32721
32613
32584
32751
32663
32684
32748
32935
32816
32825
32903
32749
32708
32853
32858
32719
32669
32788
32686
32595
32724
32677
32565
32677
32635
32610
32801
32712
32686
32866
32759
32801
32915
32765
32731
32868
32855
32687
32614
32766
32720
32597
32731
32621
32649
32770
32639
32750
32871
32772
32716
32917
32793
32775
32891
32735
32652
32668
32735
32561
32530
32564
32653
32519
32637
32702
32611
32719
32607
32582
32610
32383
32155
32034
31900
31580
31410
31409
31261
31165
31218
31324
31221
31367
31711
31934
32286
32775
33095
33396
33908
34468
34752
35322
35806
36199
36500
37239
37740
37951
38633
39297
39796
39843
40215
40100
39423
38628
37824
36759
35173
33603
32255
30885
30047
29634
29692
29862
30343
30936
31572
31950
32495
33050
33207
33356
33429
33535
33455
33409
33615
33609
33621
33871
33903
33753
33863
33705
33444
33457
33238
32975
33047
32862
32719
32775
32767
32584
32573
32628
32519
32397
32381
32434
32194
32082
32167
32004
31874
32013
31862
31794
31946
31828
31875
32046
31930
31993
32141
32025
32038
32257
32111
32075
32206
32054
32231
32087
32131
32223
32066
32119
32241
32119
32201
32357
32283
32249
32439
32327
32318
32480
32396
32352
32428
32482
32342
32358
32448
32316
32241
32396
32372
32293
32380
32441
32322
32476
32486
32445
32648
32519
32622
32556
32471
32556
32429
32415
32539
32361
32411
32397
32308
32413
32396
32386
32560
32482
32444
32619
32556
32511
32643
32606
32485
32630
32591
32467
32437
32514
32365
32468
32425
32349
32508
32406
32469
32586
32476
32559
32613
32469
32587
32623
32510
32623
32634
32455
32433
32518
32380
32381
32454
32340
32388
32511
32359
32431
32508
32405
32459
32586
32431
32494
32471
32316
32497
32335
32361
32345
32148
32204
32239
32121
32245
32305
32213
32254
32379
32239
32275
32379
32237
32180
32365
32231
32200
32349
32173
32169
32269
32101
32135
32238
32095
32076
32249
32118
32225
32247
32140
32207
32333
32172
32239
32217
32092
32252
32078
32079
32147
31978
32067
32029
31958
32130
32103
32024
32263
32172
32222
32302
32171
32207
32344
32228
32182
32300
32132
32169
32132
32012
32194
32087
32118
32253
32159
32234
32372
32231
32274
32399
32279
32249
32399
32301
32239
32245
32324
32159
32181
32231
32082
32098
32244
32091
32086
32298
32167
32182
32391
32258
32356
32453
32303
32278
32439
32316
32225
32237
32289
32135
32190
32246
32143
32234
32324
32212
32263
32463
32335
32322
32501
32389
32358
32549
32373
32381
32439
32225
32404
32221
32311
32228
32247
32307
32332
32402
32551
32611
32599
32554
32489
32550
32559
32613
32700
32562
32618
32455
32476
32581
32452
32455
32628
32550
32516
32733
32624
32670
32790
32657
32704
32764
32647
32699
32782
32638
32586
32580
32663
32498
32477
32628
32599
32573
32739
32775
32673
32730
32849
32769
32741
32868
32920
32759
32691
32815
32816
32669
32683
32745
32661
32615
32734
32857
32710
32742
32869
32771
32757
32895
32943
32838
32988
32926
32847
32928
32951
32762
32692
32853
32729
32689
32829
32879
32807
32772
32913
33014
32877
32921
33060
32934
32879
32982
33055
32849
32775
32823
32870
32824
32694
32703
32795
32879
32902
32775
32769
32893
32975
32847
32794
32920
32940
32772
32727
32847
32742
32590
32739
32732
32567
32518
32698
32748
32628
32636
32828
32693
32677
32841
32697
32662
32813
32691
32599
32668
32679
32511
32535
32643
32580
32519
32647
32732
32647
32671
32916
32796
32787
32956
32999
32925
32884
33063
33066
32930
32940
33020
32846
32789
32919
32858
32771
32944
32973
32889
32967
33113
32999
32983
33058
33195
33031
32980
33150
33028
32855
32941
32807
32660
32767
32804
32668
32660
32790
32884
32918
32794
32775
32860
32960
32922
32826
32775
32896
32887
32683
32811
32775
32614
32545
32662
32730
32693
32639
32616
32772
32876
32754
32741
32844
32927
32798
32732
32896
32909
32741
32655
32709
32765
32628
32604
32702
32796
32708
32671
32839
32903
32871
32797
32826
32886
32989
32836
32834
32908
32751
32767
32836
32723
32612
32767
32690
32618
32739
32844
32720
32722
32909
32855
32820
32852
32940
32989
32822
32879
32883
32714
32639
32791
32788
32593
32557
32571
32487
32290
32188
32095
31908
31589
31451
31453
31495
31419
31364
31401
31493
31487
31639
32053
32420
32604
32917
33536
34041
34407
34865
35516
35879
36231
36929
37607
38055
38583
39392
40103
40514
40685
40787
40452
39463
38669
37795
36405
35045
33412
31865
30851
29988
29686
29863
30312
30655
31190
31831
32403
32709
33004
33236
33372
33281
33308
33397
33351
33313
33569
33772
33747
33766
33846
33867
33622
33439
33412
33403
33077
32952
32951
32709
32597
32707
32519
32413
32499
32519
32389
32332
32338
32367
32175
32192
32271
32121
32143
32197
32043
32012
32050
31941
31850
32014
31919
31939
32087
31975
31982
32190
32162
32119
32223
32344
32227
32215
32382
32223
32279
32198
32098
32203
32198
32072
32090
32220
32299
32170
32220
32353
32234
32314
32436
32324
32322
32475
32551
32381
32354
32485
32325
32283
32367
32382
32279
32263
32279
32442
32446
32383
32447
32578
32577
32447
32466
32558
32642
32513
32460
32362
32516
32424
32348
32316
32436
32474
32356
32430
32583
32484
32545
32662
32543
32541
32742
32581
32730
32559
32621
32660
32459
32391
32469
32433
32316
32423
32452
32340
32435
32476
32365
32599
32459
32560
32535
32453
32576
32519
32432
32556
32479
32294
32429
32258
32277
32381
32237
32218
32369
32283
32442
32340
32340
32387
32454
32516
32354
32359
32446
32207
32201
32314
32097
32089
32236
32047
32070
32149
32077
32225
32302
32180
32248
32358
32252
32236
32381
32207
32140
32255
32089
32007
32094
32151
31983
31981
32123
32038
32161
32170
32087
32236
32210
32165
32204
32311
32157
32148
32250
32086
32079
32122
31999
32052
31899
32066
32002
32002
32191
32039
32215
32127
32225
32188
32247
32391
32253
32263
32333
32141
32206
32188
32056
32182
32044
32105
32231
32100
32143
32263
32205
32269
32349
32239
32347
32422
32293
32270
32351
32170
32231
32190
32036
32148
32116
32020
32239
32135
32263
32192
32243
32285
32231
32431
32295
32487
32383
32314
32455
32281
32359
32236
32139
32303
32182
32135
32310
32228
32199
32363
32235
32319
32449
32358
32431
32543
32422
32502
32453
32348
32450
32246
32308
32327
32199
32242
32328
32229
32337
32482
32352
32420
32556
32466
32561
32668
32516
32577
32683
32500
32567
32485
32372
32387
32399
32330
32479
32447
32410
32524
32508
32638
32615
32647
32714
32772
32585
32703
32571
32597
32650
32468
32386
32490
32603
32447
32429
32605
32618
32564
32724
32757
32708
32772
32889
32774
32717
32785
32862
32667
32590
32659
32692
32518
32470
32662
32573
32527
32687
32747
32670
32684
32889
32975
32855
32821
32886
32905
32730
32660
32773
32743
32550
32518
32685
32566
32567
32762
32743
32669
32831
32820
32757
32991
32881
32926
33017
32857
32814
32897
32721
32711
32775
32647
32658
32800
32645
32704
32825
32800
32769
32839
33005
32943
33057
32887
33073
32847
32932
32728
32830
32636
32615
32617
32677
32740
32710
32596
32756
32604
32756
32745
32727
32820
32731
32885
32687
32716
32699
32740
32614
32508
32556
32590
32423
32392
32545
32602
32476
32476
32634
32644
32615
32709
32883
32813
32752
32875
32945
32775
32758
32823
32644
32628
32794
32822
32727
32743
32854
32991
32983
32967
32966
33159
33236
33095
33030
33117
33183
33135
32967
32886
33020
32935
32819
32966
33021
32920
33007
33022
32965
33079
33150
32990
32943
33076
33116
32920
32871
32983
32971
32769
32877
32860
32692
32663
32711
32848
32803
32758
32837
32935
32998
32919
32964
33071
32992
32924
32919
32954
32845
32681
32598
32743
32761
32635
32639
32771
32871
32767
32831
32871
32927
33074
32956
32929
33119
33023
32933
33031
32931
32775
32793
32881
32737
32698
32867
32919
32803
32773
32974
32941
32920
33045
33184
33060
32982
33095
33127
32945
32871
32954
32908
32750
32828
32898
32804
32931
33031
32954
32957
32913
33132
32996
32999
33054
33027
32849
32564
32427
32188
31764
31559
31317
31045
31042
31095
31013
31076
31143
31079
31253
31620
31958
32133
32397
32828
33323
33697
34199
34919
35433
35791
36359
37354
38197
39045
39927
41145
42236
42780
42871
43070
42855
42013
41111
40221
39063
37351
35825
34220
32596
31559
31126
31193
31365
31751
32283
32964
33477
33671
33771
33863
33981
34029
33919
33884
33928
34087
