ECG
29652
29871
30062
30276
30325
30357
30335
30178
30155
30151
30093
29994
29976
29871
29822
29850
29899
30076
30330
30618
30777
30973
31151
31232
31237
31175
31119
30955
30830
30704
30512
30229
30191
30166
30215
30279
30367
30581
30774
30977
31069
31228
31340
31463
31500
31430
31356
31156
30980
30878
30763
30631
30492
30451
30481
30528
30573
30658
30823
31028
31279
31520
31682
31742
31751
31682
31570
31458
31312
31266
31201
31020
30750
30696
30724
30775
30890
31121
31342
31520
31697
31831
31825
31847
31884
31879
31824
31683
31532
31301
31078
30940
30863
30860
30913
31012
31140
31181
31302
31543
31783
32026
32129
32123
32054
32020
31971
31814
31663
31503
31340
31163
31007
30871
30947
31045
31267
31474
31706
31900
32042
32242
32347
32389
32368
32330
32282
32134
32017
31863
31696
31591
31445
31342
31375
31464
31594
31782
32015
32279
32436
32606
32690
32671
32663
32623
32571
32509
32359
32206
31988
31777
31685
31671
31722
31712
31837
32052
32309
32595
32826
32970
33134
33172
33154
33101
33044
32942
32834
32722
32531
32402
32306
32254
32271
32328
32516
32766
33029
33313
33470
33621
33799
33877
33879
33812
33724
33607
33501
33354
33191
32999
32865
32866
32903
32961
33039
33151
33453
33770
34005
34122
34235
34247
34252
34193
34060
33981
33945
33799
33599
33407
33247
33151
33119
33159
33247
33453
33693
33913
34071
34174
34277
34285
34286
34220
34087
33970
33830
33703
33533
33397
33196
33074
33012
33076
33161
33270
33394
33585
33743
33830
33826
33775
33695
33567
33399
33161
32959
32712
32468
32328
32140
31963
31852
31839
31861
31951
32074
32217
32354
32423
32381
32336
32324
32223
32123
31903
31648
31466
31335
31142
31039
30881
30855
30863
30955
31078
31205
31360
31511
31581
31604
31581
31535
31452
31340
31197
31048
30886
30684
30463
30276
30182
30135
30110
30199
30447
30561
30709
30871
31078
31215
31223
31183
31110
31013
30919
30727
30558
30411
30244
30092
29988
29895
29951
30079
30241
30469
30761
30951
31063
31142
31114
31092
30996
30956
30922
30820
30657
30438
30272
30215
30169
30172
30182
30303
30460
30567
30780
30948
31094
31175
31399
31434
31423
31323
31185
31053
30911
30738
30553
30420
30278
30287
30373
30462
30637
30865
31055
31185
31277
31348
31381
31367
31324
31318
31207
30983
30839
30683
30436
30284
30215
30258
30335
30502
30727
31036
31335
31646
31743
31807
31846
31845
31798
31660
31569
31457
31295
31087
30882
30738
30682
30694
30756
30914
31100
31341
31567
31791
31898
31959
32004
32052
31997
31912
31746
31589
31432
31306
31143
31093
31035
30975
31082
31255
31421
31650
31865
32015
32126
32148
32165
32135
32103
31999
31898
31772
31588
31420
31213
31103
31012
30959
31068
31229
31470
31640
31815
31950
32033
31959
31940
31917
31919
31848
31692
31567
31443
31231
31050
30958
30911
30966
31009
31119
31311
31472
31507
31687
31882
31986
31980
31879
31793
31689
31557
31444
31289
31111
30919
30805
30776
30823
30975
31089
31239
31437
31751
31970
32111
32167
32204
32116
32007
31866
31733
31607
31495
31287
31118
30993
30958
30913
30908
30941
31151
31329
31636
31800
31853
31886
31817
31952
31887
31707
31631
31462
31219
31001
30822
30727
30727
30725
30727
30863
31078
31300
31474
31638
31751
31851
31916
31925
31831
31687
31527
31327
31143
30930
30750
30663
30599
30588
30692
30880
31031
31268
31462
31620
31704
31749
31764
31654
31573
31460
31303
31137
31003
30880
30786
30652
30598
30654
30693
30813
30951
31139
31282
31447
31623
31716
31700
31648
31655
31542
31482
31321
31198
31009
30869
30758
30644
30495
30503
30580
30837
31076
31374
31530
31636
31772
31814
31800
31691
31613
31480
31371
31271
31092
30892
30767
30640
30655
30708
30862
31010
31172
31371
31541
31700
31764
31636
31604
31550
31468
31351
31197
31016
30804
30685
30583
30494
30548
30609
30741
30904
31167
31451
31574
31668
31781
31832
31841
31783
31669
31551
31280
31103
30874
30716
30599
30556
30569
30686
30841
31036
31271
31436
31585
31655
31769
31740
31711
31655
31548
31450
31402
31341
31165
30991
30881
30840
30858
30910
31022
31102
31351
31567
31732
31871
31930
31979
31847
31695
31582
31431
31173
31002
30834
30663
30638
30599
30655
30751
30904
31046
31207
31303
31495
31591
31655
31665
31641
31528
31388
31217
31041
30845
30620
30507
30344
30262
30247
30359
30463
30613
30761
30965
31054
31359
31486
31516
31487
31396
31271
31116
30997
30894
30665
30517
30408
30335
30342
30377
30447
30644
30932
31165
31348
31426
31525
31511
31319
31361
31279
31127
30933
30819
30697
30598
30454
30336
30352
30407
30514
30705
30914
31093
31231
31346
31438
31510
31502
31400
31239
31074
30892
30737
30587
30442
30322
30202
30183
30278
30434
30608
30840
31092
31306
31375
31373
31433
31455
31464
31407
31236
30981
30749
30464
30210
29993
29746
29605
29591
29722
29894
30117
30274
30565
30886
31195
31557
32040
32631
33165
33622
34212
34921
35814
36696
37652
38852
40062
41300
42616
43900
45190
46308
47212
47922
48455
48852
49119
49304
49284
48955
48271
47345
46277
44969
43524
42030
40512
38800
37254
35798
34512
33301
32148
31124
30292
29564
28776
28052
27523
27239
27015
26884
26838
26831
26810
26818
26839
26941
27103
27262
27468
27724
28015
28402
28661
28849
28898
28928
28834
28749
28640
28526
28501
28486
28487
28505
28529
28653
28807
28964
29187
29425
29640
29734
29827
29871
29911
29848
29732
29607
29442
29314
29283
29164
29118
29108
29190
29349
29543
29697
29873
30055
30220
30358
30465
30547
30583
30548
30388
30183
30077
29971
29794
29698
29724
29697
29740
29798
30032
30275
30532
30751
30924
31046
31087
31101
31111
31099
31017
30860
30765
30604
30480
30340
30284
30263
30279
30400
30604
30863
31119
31340
31503
31648
31745
31751
31751
31695
31581
31343
31249
31142
31023
30924
30862
30864
30914
31021
31183
31396
31654
31845
32026
32117
32172
32294
32308
32215
32132
32072
31933
31814
31671
31514
31361
31388
31518
31655
31826
31991
32229
32455
32638
32763
32867
32911
32943
32868
32703
32584
32484
32329
32142
31942
31847
32021
32167
32222
32303
32550
32785
33047
33236
33382
33469
33511
33532
33469
33369
33241
33130
32991
32841
32750
32671
32604
32631
32823
32959
33182
33383
33599
33838
33979
34047
34087
34090
34065
33969
33889
33777
33606
33482
33378
33323
33270
33265
33407
33619
33924
34090
34308
34527
34657
34799
34919
34982
34987
34916
34836
34700
34498
34366
34285
34186
34171
34251
34412
34618
34804
34921
35084
35316
35394
35535
35578
35539
35455
35370
35151
35025
34951
34841
34713
34581
34461
34484
34612
34845
35000
35285
35470
35586
35677
35724
35737
35708
35623
35440
35293
35120
34935
34748
34612
34362
34375
34426
34395
34463
34610
34933
35103
35190
35224
35212
35124
34955
34710
34478
34223
33919
33671
33434
33172
33021
32908
32847
32820
32887
33087
33361
33577
33682
33729
33719
33636
33515
33302
33108
32906
32664
32439
32182
31943
31724
31619
31629
31725
31913
32068
32333
32529
32653
32694
32663
32579
32495
32403
32162
32007
31830
31630
31581
31404
31188
31108
31270
31450
31623
31728
31910
32004
32122
32263
32415
32380
32263
32188
32076
31928
31790
31654
31507
31385
31249
31193
31276
31368
31511
31764
31961
32145
32309
32398
32418
32331
32332
32255
32097
31957
31792
31623
31472
31378
31324
31311
31421
31499
31677
31840
32072
32303
32444
32495
32532
32575
32528
32403
32292
32151
32073
31927
31806
31664
31615
31649
31736
31868
32007
32209
32460
32668
32820
32944
32964
32840
32826
32764
32687
32550
32375
32198
32020
31908
31834
31789
31855
31969
32162
32377
32662
32902
33063
33170
33170
33140
33061
32968
32869
32774
32641
32502
32344
32236
32164
32134
32116
32174
32370
32581
32799
33066
33252
33391
33428
33445
33452
33420
33326
33218
33060
32930
32743
32547
32438
32357
32372
32446
32548
32770
33047
33258
33450
33610
33743
33701
33685
33639
33474
33199
33005
32838
32684
32498
32405
32383
32403
32424
32671
32952
33204
33423
33593
33696
33775
33826
33735
33597
33383
33173
32949
32846
32673
32501
32391
32410
32455
32615
32845
33113
33359
33574
33708
33799
33860
33834
33799
33743
33568
33385
33217
33015
32833
32655
32550
32558
32646
32751
32932
33112
33351
33562
33773
33780
33778
33823
33799
33711
33607
33489
33318
33109
32931
32775
32729
32696
32720
32796
32975
33186
33493
33743
33895
33978
34030
34039
33962
33930
33823
33585
33358
33166
33115
32973
32846
32836
32927
33053
33217
33444
33702
33927
34095
34191
34237
34247
34174
34062
33891
33703
33535
33351
33212
33077
32954
32971
33063
33080
33261
33521
33870
34151
34279
34303
34373
34391
34311
34215
34055
33888
33733
33607
33484
33316
33194
33228
33358
33452
33646
33811
34089
34336
34471
34485
34471
34434
34380
34278
34125
34102
33956
33796
33617
33532
33471
33428
33469
33552
33799
34036
34283
34484
34629
34740
34759
34732
34714
34616
34383
34239
34071
33919
33687
33530
33425
33441
33492
33585
33911
34212
34428
34593
34748
34845
34854
34838
34788
34695
34590
34372
34131
33916
33770
33729
33487
33469
33537
33663
33830
33986
34145
34430
34584
34684
34805
34810
34690
34627
34496
34364
34183
33947
33719
33543
33399
33453
33601
33750
33986
34231
34484
34660
34775
34807
34892
34895
34849
34773
34621
34462
34366
34226
34076
33934
33900
33926
33992
34114
34377
34581
34836
35025
35173
35242
35254
35226
35194
35167
34991
34733
34475
34320
34137
33970
33884
33856
33908
33951
34154
34340
34481
34714
34908
34975
34989
34991
34932
34895
34719
34619
34451
34241
34071
33931
33836
33746
33717
33837
33989
34020
34168
34391
34625
34666
34652
34644
34583
34522
34420
34261
34076
33799
33542
33347
33327
33407
33402
33398
33595
33822
34062
34288
34469
34548
34589
34545
34488
34384
34292
34085
33927
33793
33615
33428
33340
33350
33381
33462
33636
33836
34042
34167
34327
34306
34306
34299
34271
34260
34132
34028
33836
33671
33470
33364
33300
33252
33271
33353
33511
33624
33753
33885
34063
34196
34298
34300
34271
34188
34056
33874
33676
33445
33246
33044
32994
32772
32637
32690
32768
32821
32855
32919
32977
33086
33228
33275
33391
33590
33807
34156
34598
35063
35527
36116
36855
37866
38993
40248
41637
42970
44306
45683
47004
48202
49240
50001
50556
51063
51398
51591
51688
51628
51332
50762
49985
49116
48132
47007
45869
44524
43015
41448
39832
38256
36718
35254
33903
32717
31695
30759
29920
29303
28943
28774
28699
28694
28793
28989
29252
29440
29701
29862
29984
30057
30132
30182
30273
30296
30228
30141
30081
29990
29908
29823
29818
29940
30142
30407
30622
30908
31200
31401
31543
31665
31796
31708
31676
31625
31478
31393
31270
31119
30924
30755
30658
30688
30764
30855
31087
31348
31596
31842
31940
31991
31980
31967
31887
31748
31674
31680
31546
31354
31169
31108
31068
31068
31066
31237
31412
31594
31842
32116
32242
32319
32225
32213
32198
32076
31863
31679
31551
31372
31302
31239
31161
31132
31201
31367
31583
31858
32092
32314
32478
32557
32623
32621
32535
32487
32396
32252
32080
31839
31670
31591
31559
31566
31623
31734
31831
32069
32378
32652
32765
32857
32887
32867
32817
32784
32652
32564
32410
32241
32065
31926
31841
31814
31871
31970
32070
32274
32506
32662
32831
32915
32989
33020
32982
32935
32934
32885
32748
32485
32317
32132
32048
32095
32169
32485
32711
32903
33104
33388
33534
33556
33526
33461
33436
33357
33244
33178
33052
32945
32815
32703
32583
32589
32672
32821
33067
33174
33472
33716
33868
33991
34079
34041
34054
33934
33799
33687
33599
33471
33351
33285
33240
33076
33132
33307
33567
33868
34208
34396
34484
34588
34653
34650
34585
34560
34485
34394
34274
34113
33919
33887
33858
33879
33924
34048
34180
34372
34606
34858
35032
35132
35207
35156
35108
34919
34802
34700
34582
34412
34262
34142
34091
34134
34207
34287
34458
34688
34916
35076
35239
35391
35404
35410
35375
35306
35109
34772
34583
34420
34264
34135
34103
34100
34156
34212
34319
34476
34670
34823
34874
34843
34836
34794
34701
34567
34389
34193
33964
33705
33438
33262
33118
33039
33015
33106
33242
33364
33500
33556
33605
33623
33530
33375
33049
32871
32654
32488
32224
31985
31751
31572
31481
31455
31407
31449
31556
31688
31866
31970
32039
32175
32130
32198
32018
31873
31712
31464
31257
31046
30847
30707
30592
30572
30545
30692
30869
31077
31300
31435
31590
31849
31846
31732
31761
31668
31544
31364
31231
31082
30896
30706
30452
30436
30447
30583
30826
31061
31321
31504
31599
31663
31689
31751
31682
31655
31614
31529
31343
31170
31076
30962
30911
30904
31005
31167
31402
31625
31797
31863
31965
31974
31954
31937
31860
31637
31588
31487
31343
31152
31010
30964
30922
30901
30948
31125
31344
31572
31751
31896
32164
32271
32302
32251
32173
31878
31884
31821
31673
31494
31372
31253
31188
31154
31119
31306
31623
31932
32208
32407
32548
32579
32578
32529
32422
32268
32165
32052
31875
31718
31606
31547
31498
31467
31526
31666
31882
32020
32188
32407
32660
32740
32792
32754
32715
32647
32478
32343
32188
31889
31714
31645
31572
31535
31548
31717
31946
32180
32356
32541
32743
32863
32876
32884
32888
32823
32707
32583
32433
32258
32070
31936
31891
31906
31973
32082
32256
32448
32612
32809
32967
33052
33061
32999
32991
32926
32831
32603
32311
32237
32097
31866
31693
31661
31860
32005
32255
32511
32746
32930
33044
33079
33135
33194
33095
32956
32770
32655
32527
32363
32213
32071
31948
31868
31871
31978
32098
32386
32767
33007
33140
33180
33168
33116
33130
33053
32871
32696
32495
32327
32143
31970
31850
31866
31916
32158
32371
32519
32723
32967
33132
33244
33255
33237
33188
33060
32882
32703
32569
32488
32316
32225
32172
32197
32308
32506
32657
32844
33099
33279
33359
33415
33439
33312
33222
33126
33005
32869
32684
32486
32358
32252
32301
32325
32422
32583
32786
33053
33316
33444
33497
33524
33572
33543
33415
33241
33067
32983
32832
32576
32423
32274
32180
32211
32275
32443
32631
32916
33204
33410
33469
33534
33482
33442
33383
33276
33141
33039
32823
32518
32519
32519
32524
32588
32668
32773
32975
33239
33405
33534
33597
33646
33636
33612
33532
33443
33340
33183
33051
32929
32714
32423
32318
32464
32575
32748
32914
33100
33313
33461
33573
33693
33689
33653
33622
33551
33439
33228
33031
32918
32759
32578
32479
32531
32562
32710
32944
33190
33422
33485
33487
33498
33482
33445
33421
33326
33231
33117
32965
32787
32631
32508
32495
32534
32567
32748
33031
33246
33443
33582
33745
33820
33761
33701
33652
33522
33416
33333
33166
33017
32824
32726
32629
32542
32602
32772
32931
33180
33391
33543
33692
33781
33797
33815
33693
33527
33436
33311
33194
33049
32950
32866
32830
32820
32868
32879
33132
33431
33637
33816
33914
33895
33822
33756
33687
33582
33342
33139
33053
32875
32769
32711
32630
32599
32710
32933
33103
33196
33479
33764
33913
33921
33973
33959
33752
33616
33488
33347
33271
33099
32938
32832
32775
32768
32828
32955
33013
33223
33493
33702
33886
33956
33984
34016
33956
33871
33780
33626
33331
33200
33046
32852
32768
32869
33025
33226
33541
33773
33884
34035
34158
34158
34126
34064
34100
34025
33945
33790
33624
33386
33099
32992
33023
33048
33162
33383
33574
33739
33860
34014
34110
33985
33990
33935
33844
33793
33640
33464
33306
33159
33047
32863
32807
32807
32827
32923
33090
33310
33496
33645
33627
33679
33671
33686
33626
33533
33471
33287
33151
33014
32911
32743
32625
32662
32703
32862
33002
33148
33140
33326
33407
33433
33548
33598
33511
33446
33313
33197
33131
33067
32925
32869
32774
32695
32794
32978
33196
33372
33537
33695
33697
33710
33644
33543
33465
33284
33145
33085
32973
32926
32942
32923
32856
32994
33080
33325
33552
33782
33889
33924
33866
33666
33318
32728
32338
31945
31534
31137
30727
30343
30162
29978
29923
29996
30143
30284
30288
30119
29642
29130
29054
29406
29864
30244
30760
31669
32580
33366
34250
35397
36534
37732
39059
40770
42223
43375
44752
46596
48492
50357
52103
53622
54752
55430
55700
55524
55176
54856
54199
53212
52124
51370
50689
49885
48670
47124
45452
43878
42329
40495
38740
37191
35892
34751
33718
32745
31693
30880
30395
30069
29863
29756
29573
29364
29295
29300
29431
29516
29639
29936
30151
30165
30135
30095
30152
30084
30191
30266
30295
30273
30111
30087
30119
30119
30262
30391
30719
31125
31610
31847
31946
32090
32202
32308
32295
32149
31935
31728
31494
31188
30858
30581
30431
30438
30534
30727
30983
31296
31463
31434
31264
31061
30964
30953
31034
31255
31343
31431
31604
31774
31687
31246
30657
29940
29274
28679
28177
27909
27976
28353
28863
29360
29645
29603
29441
29210
29156
29103
28394
27221
26280
25900
26015
26644
27531
28286
29194
30352
31544
32549
33276
33846
34039
34106
34044
33854
33605
33445
33340
33241
33066
32935
32910
32708
32262
31902
31491
31080
30420
29752
29387
29407
29268
29154
29423
29999
30263
30284
30263
30577
31124
31862
32206
32268
32257
32087
31727
31311
30879
30506
30244
30004
29876
29783
29663
29636
29654
29725
29887
30132
30393
30678
30853
30946
31047
31178
31351
31559
31846
32150
32365
32452
32528
32596
32613
32591
32543
32544
32490
32352
32408
32518
32640
32855
33014
33158
33350
33476
33518
33442
33367
33413
33466
33586
33540
33513
33576
33706
33799
33880
33984
34109
34228
34268
34284
34335
34381
34468
34426
34406
34351
34332
34323
34390
34461
34534
34584
34771
34883
34898
34951
35060
35177
35319
35415
35495
35572
35756
35847
35800
35772
35748
35582
35445
35375
35433
35404
35335
35175
35135
35043
34895
34749
34489
34528
34612
34721
34769
34822
34750
34733
34849
34733
34593
34434
34255
34087
34004
33799
33670
33537
33457
33444
33335
33148
33078
32951
32691
32551
32458
32454
32476
32327
32216
32143
32116
32132
32051
32031
32036
31921
31895
31734
31615
31456
31278
31176
31225
30948
30895
30928
30909
30689
30657
30727
30735
30712
30767
30757
30783
30816
30711
30604
30527
30390
30314
30231
30207
30241
30196
30098
29935
29823
29719
29640
29620
29647
29664
29600
29566
29652
29828
30074
30109
30206
30262
30385
30484
30532
30503
30476
30453
30415
30489
30599
30820
30796
30815
30863
30881
30829
30731
30693
30658
30623
30542
30384
30247
30094
29957
29757
29563
29575
29575
29638
29686
29783
29831
29922
30056
30167
30303
30385
30439
30513
30663
30720
30727
30693
30788
30930
30937
31023
31100
31191
31276
31391
31423
31463
31412
31433
31413
31353
31402
31436
31418
31348
31292
31302
31254
31202
31204
31136
31097
31095
31023
30936
30820
30837
30914
30942
30835
31015
31188
31184
31234
31292
31448
31511
31513
31413
31433
31495
31643
31705
31717
31690
31604
31630
31642
31638
31623
31548
31491
31410
31403
31428
31445
31451
31396
31303
31247
31205
31183
31183
31213
31300
31359
31411
31444
31534
31653
31831
31870
31968
32087
32207
32250
32263
32215
32164
32118
32083
32024
32020
32013
31965
31950
31936
31960
32020
32032
32095
32156
32168
32202
32252
32327
32391
32394
32376
32335
32251
32241
32246
32250
32232
32243
32295
32316
32404
32508
32565
32614
32636
32628
32614
32541
32533
32472
32491
32540
32575
32524
32524
32548
32559
32588
32596
32647
32709
32736
32715
32750
32758
32756
32703
32680
32708
32700
32662
32610
32604
32577
32557
32608
32655
32637
32575
32629
32676
32704
32756
32769
32762
32775
32767
32746
32727
32683
32661
32634
32590
32540
32571
32597
32636
32699
32828
32804
32839
32892
32923
32926
32940
33023
33031
32967
32775
32738
32708
32615
32498
32394
32371
32415
32452
32588
32726
32847
32969
33031
33060
33094
33012
32988
32933
32792
32620
32652
32673
32655
32690
32775
32685
32594
32647
32620
32604
32774
32951
32992
32974
32972
33041
32961
32942
32960
32894
32999
32970
32874
32900
32804
32589
32678
32747
32974
32981
33075
33006
32940
32924
32903
32792
32668
32503
32349
32427
32486
32467
32385
32216
32246
32278
32263
32387
32527
32770
32975
33150
33242
33349
33380
33375
33329
33295
33112
33044
32940
33050
33128
33052
33060
33091
33115
33177
33279
33383
33396
33348
33256
33318
33456
33390
33272
33231
33190
33077
32994
32800
32764
32890
32931
32877
32863
32908
32724
32718
32711
32750
32775
32790
32691
32535
32494
32536
32559
32486
32316
32377
32475
32410
32325
32361
32535
32666
32682
32555
32476
32428
32413
32338
32458
32372
32366
32263
32305
32388
32352
32205
32075
32071
32087
32179
32214
32306
32287
32294
32327
32336
32423
32464
32562
32738
32860
32852
32858
32906
32876
32840
32913
32796
32708
32772
32754
32728
32665
32671
32711
32678
32758
32856
33005
33068
33150
33090
33022
32966
32839
32719
32684
32737
32726
32647
32551
32556
32586
32582
32537
32426
32263
32036
31973
31923
31868
31892
32038
32240
32439
32580
32841
33222
33607
34044
34567
35138
35880
36734
37734
38728
39768
40878
42020
43264
44494
45762
46840
47792
48390
48948
49415
49661
49751
49888
49875
49460
48775
48054
47220
46013
44807
43603
42159
40508
38874
37374
35953
34589
33380
32389
31541
30786
30182
29621
29237
29068
29016
29039
29106
29233
29343
29333
29244
29173
29284
29300
29199
29180
29204
29287
29428
29608
29759
29892
29993
30105
30302
30374
30495
30678
30801
30903
30863
30894
31048
31191
31228
31111
31004
31004
31070
31030
31005
30991
31038
31070
31071
31021
31057
31080
31158
31188
31270
31294
31380
31511
31570
31546
31620
31767
31751
31604
31492
31428
31338
31416
31519
31574
31620
31572
31676
32016
32100
32169
32260
32279
32169
32099
31980
31849
31802
31728
31726
31895
32038
32186
32273
32235
32263
32310
32321
32383
32449
32354
32288
32135
32178
32271
32170
32028
32081
32175
32157
32196
32310
32362
32514
32632
32599
32669
32628
32516
32506
32444
32479
32636
32737
32695
32639
32537
32506
32456
32362
32324
32365
32471
32455
32452
32492
32493
32532
32511
32516
32445
32591
32618
32622
32631
32676
32702
32710
32671
32607
32530
32514
32615
32796
32892
32916
32914
32990
33030
33105
33164
33159
33063
33080
33059
33020
33101
33255
33303
33322
33309
33250
33204
33157
33127
33327
33470
33483
33436
33420
33423
33502
33681
33735
33820
33727
33470
33467
33423
33335
33247
33304
33340
33413
33337
33339
33339
33433
33565
33685
33599
33510
33760
33935
34004
34013
34044
34260
34391
34444
34548
34474
34410
34364
34207
34150
34080
34047
34063
34202
34393
34543
34730
34903
34940
34994
35020
35068
35068
35129
35191
35178
35066
34920
34799
34626
34565
34641
34724
34853
34927
35000
35087
35268
35367
35300
35239
35281
35239
35173
35116
35015
34913
34702
34561
34514
34479
34411
34351
34439
34430
34421
34503
34556
34639
34687
34691
34637
34562
34478
34344
34228
34043
33892
33543
33344
33358
33223
32988
33014
33097
33162
33198
33202
33188
33165
33263
33287
33273
33213
33086
32917
32785
32700
32628
32565
32549
32508
32492
32441
32341
32207
32228
32283
32421
32519
32472
32439
32414
32465
32358
32386
32420
32350
32218
32114
31964
31948
32030
32174
32288
32295
32390
32532
32529
32434
32474
32463
32453
32375
32318
32204
32123
32125
32018
31990
31903
31831
31885
31948
32039
32085
32207
32299
32319
32322
32324
32335
32317
32263
32293
32118
32003
31921
31971
31909
31836
31810
31855
31951
32053
32296
32447
32487
32633
32550
32551
32592
32564
32484
32412
32268
32108
32020
31975
32007
32039
32051
32092
32214
32403
32545
32703
32818
32942
33015
33069
33102
33089
33046
32932
32802
32682
32583
32490
32439
32367
32337
32350
32374
32498
32695
32828
32977
33064
33156
33170
33166
33045
32942
32929
32909
32806
32775
32774
32735
32684
32633
32597
32669
32796
32871
33023
33160
33271
33302
33340
33322
33344
33276
32999
32828
32830
32782
32681
32538
32403
32358
32554
32674
32890
33098
33282
33415
33511
33588
33601
33749
33664
33527
33423
33297
33200
33117
33050
33031
32996
32932
32943
32997
33090
33191
33287
33390
33487
33572
33628
33593
33486
33447
33371
33376
33308
33200
33103
32981
32938
32923
32924
32969
33017
33100
33239
33362
33446
33511
33614
33671
33655
33625
33519
33376
33152
33172
33101
33063
33050
33056
33102
33171
33196
33156
33188
33262
33479
33525
33582
33609
33458
33386
33311
33184
33050
32999
32967
32911
32871
32895
32932
32966
33170
33372
33506
33559
33726
33799
33919
33873
33844
33774
33658
33551
33487
33380
33282
33128
33015
33035
33105
33189
33287
33436
33613
33829
33985
34069
34158
34226
34311
34346
34405
34426
34386
34375
34337
34204
34151
34270
34366
34608
34774
34964
35202
35415
35492
35587
35628
35583
35501
35435
35296
35407
35359
35303
35317
35316
35238
35236
35263
35361
35479
35618
35729
35837
35892
35951
36064
36087
36066
36060
35998
35831
35740
35684
35540
35493
35478
35412
35431
35481
35573
35651
35820
35989
36073
36182
36254
36300
36253
36174
36095
35961
35896
35787
35716
35663
35675
35695
35748
35806
35924
36053
36221
36388
36466
36500
36551
36612
36607
36594
36532
36424
36237
36048
35862
35796
35677
35632
35647
35733
35868
36023
36215
36372
36542
36756
36924
36999
37083
37159
37152
37043
36959
36847
36755
36648
36544
36487
36517
36644
36813
36953
37100
37252
37358
37447
37442
37401
37383
37298
37058
36913
36774
36682
36568
36359
36103
35959
35890
35879
35981
36161
36369
36647
36925
37094
37348
37588
37892
38344
38976
39544
40166
40865
41750
42756
43874
45028
46242
47430
48836
50232
51580
52772
53796
54629
55269
55792
56198
56518
56692
56621
56236
55535
54652
53536
52241
50885
49492
47872
46256
44798
43399
41873
40564
39348
38316
37368
36588
35828
35223
34885
34751
34653
34596
34653
34712
34694
34718
34817
35065
35161
35335
35485
35606
35723
35845
35892
35988
35892
35879
35782
35762
35733
35752
35748
35735
35737
35879
35916
35980
36092
36314
36444
36458
36539
36634
36671
36711
36684
36615
36529
36466
36398
36244
36036
35940
35919
35898
35919
36013
36094
36220
36332
36391
36427
36367
36278
36263
36231
36217
36212
36013
35830
35684
35607
35575
35534
35598
35671
35796
35919
36020
35968
36088
36202
36270
36328
36369
36434
36405
36327
36200
36126
36006
35916
35719
35649
35682
35692
35745
35817
35900
35974
36095
36119
36071
36036
35951
35876
35752
35687
35620
35580
35513
35492
35499
35506
35492
35607
35717
35836
35999
36150
36164
36237
36255
36244
36180
35999
35877
35774
35690
35598
35500
35372
35242
35186
35157
35185
35282
35379
35476
35696
35820
35928
35978
36025
36026
36005
35911
35777
35735
35598
35463
35324
35233
35133
35127
35140
35164
35259
35398
35530
35687
35766
35816
35810
35764
35620
35463
35380
35308
35205
35099
34966
34831
34729
34700
34743
34792
34832
34908
34983
35103
35169
35176
35185
35194
35204
35216
35143
35059
34988
34866
34764
34676
34615
34588
34567
34669
34743
34849
34953
35012
35039
35039
35067
35087
35093
35061
35014
34892
34817
34677
34574
34482
34476
34494
34492
34573
34647
34686
34746
34804
34756
34767
34744
34797
34818
34655
34503
34334
34151
33908
33651
33484
33413
33270
33225
33239
33301
33309
33277
33297
33281
33172
33183
33164
33016
32824
32567
32423
32270
32094
31943
31807
31691
31633
31597
31577
31582
31588
31642
31665
31615
31544
31456
31363
31258
31127
30955
30767
30566
30342
30123
29956
29855
29844
29687
29668
29645
29670
29718
29645
29605
29567
29528
29405
29340
29132
28958
28818
28740
28646
28516
28358
28244
28167
28116
28092
28116
28166
28231
28303
28338
28314
28315
28270
28138
27901
27714
27532
27408
27348
27246
27033
26975
26943
26933
26913
26952
27056
27063
27087
27118
27020
26994
27044
27045
26982
26886
26820
26751
26605
26479
26404
26340
26362
26388
26382
26406
26460
26484
26500
26590
26644
26733
26743
26716
26642
26516
26364
26186
26011
25891
25742
25726
25580
25639
25647
25676
25772
25899
26020
26154
26055
25829
25693
25660
25679
25654
25639
25188
25226
25035
24729
24655
24546
24492
24445
24356
24276
24274
24221
24045
23926
23757
23415
23271
23180
22965
22887
22771
22638
22562
22437
22192
22049
21973
21954
22047
22249
22206
22159
22364
22447
22445
22410
22368
22252
22068
21870
21637
21476
21279
21057
20944
20819
20772
20863
20926
21049
21105
21018
20871
20790
20845
20906
20937
20936
20822
20618
20423
20205
20087
20050
19946
19920
19983
20087
20088
20117
20238
20253
20201
20222
20082
19919
19770
19539
19210
19020
18805
18702
18622
18570
18631
18651
18516
18458
18510
18698
18709
18702
18623
18527
18534
18508
18533
18299
18267
18159
18005
17873
17767
17734
17588
17546
17605
17722
17922
17941
18097
17994
18063
18001
17826
17844
17831
17808
17588
17437
17304
17122
17078
17094
17020
16977
17073
17241
17383
17480
17607
17672
17595
17454
17388
17276
17238
17157
16985
16838
16873
16890
16811
16722
16716
16626
16449
16351
16465
16554
16633
16666
16690
16679
16497
16383
16359
16325
16243
16133
15983
15839
15823
15655
15527
15440
15557
15678
15812
15914
16031
16081
16127
16121
16042
15904
15735
15588
15475
15240
15078
15006
14909
14834
14869
14820
14844
14951
14983
15044
15162
15268
15211
15001
14758
14714
14454
14244
14174
14024
13858
13734
13584
13464
13478
13490
13510
13551
13609
13596
13687
13805
13790
13719
13557
13646
13630
13413
13220
12995
12869
12763
12644
12631
12662
12670
12697
12758
12825
12874
12939
13005
13092
13026
12903
12795
12658
12548
12541
12460
12490
12578
12591
12558
12604
12724
12773
13009
13079
13020
12948
12826
12788
12852
12841
12693
12667
12581
12504
12548
12564
12689
12646
12775
12932
13043
13201
13666
14305
15076
15839
16666
17575
18582
19719
20902
22094
23394
24806
26195
27626
28982
30338
31494
32516
33484
34320
35006
35583
36052
36325
36412
36223
35686
34812
33989
32820
31508
30020
28380
26774
24938
23082
21177
19558
18057
16724
15540
14676
14102
13642
13381
13377
13486
13556
13634
13632
13606
13591
13504
13459
13494
13619
13759
13845
14012
14189
14539
14792
14980
15055
15175
15243
15374
15731
15813
15678
15775
15751
15672
15631
15676
15776
15785
15861
16172
16420
16688
16985
17121
17147
17249
17338
17444
17639
17811
17809
17842
17799
17641
17602
17631
17593
17708
17805
17879
18034
18214
18266
18443
18786
19030
19170
19207
19343
19431
19471
19519
19579
19592
19685
19917
19979
20049
20080
20228
20420
20676
20854
20972
21146
21260
21348
21470
21501
21536
21533
21516
21629
21690
21721
21764
21896
22045
22111
22169
22300
22448
22647
22784
22863
22877
22977
23036
23096
23180
23206
23320
23433
23494
23491
23460
23535
23599
23743
23839
23897
24015
24164
24390
24596
24772
24911
24998
25104
25169
25255
25388
25445
25605
25693
25753
25833
25903
26025
26231
26380
26631
26836
26949
26997
27070
27116
27213
27375
27444
27464
27474
27579
27558
27551
27626
27747
27887
28042
28244
28436
28646
28858
29079
29205
29287
29335
29392
29470
29559
29594
29634
29581
29560
29557
29604
29654
29695
29712
29797
29887
29946
30116
30301
30460
30633
30727
30720
30646
30792
30872
30866
30925
31044
31180
31359
31487
31575
31711
31896
32037
32183
32364
32526
32742
32898
32958
32991
32973
33231
33300
33343
33308
33388
33397
33428
33308
33284
33470
33639
33788
33915
34031
34052
34108
34293
34524
34679
34807
34866
34905
34908
35108
35231
35275
35193
35157
35130
35175
35358
35636
35806
35918
36018
36118
36231
36185
36271
36391
36502
36630
36620
36596
36640
36693
36748
36724
36671
36584
36655
36749
36812
36868
36950
37040
37077
37028
36984
36966
36927
36880
36817
36585
36548
36524
36506
36468
36390
36375
36366
36372
36446
36550
36664
36769
36852
36925
36961
36892
36913
36900
36911
36940
36900
36817
36882
36894
36820
36846
36844
36868
36902
36928
37010
37074
37073
37050
37103
37108
37027
36935
36922
36850
36836
36916
36966
36935
37035
37101
37078
37136
37233
37332
37449
37592
37667
37735
37792
37889
37991
37972
37988
38031
37989
37948
38023
38024
37969
38093
38268
38352
38431
38469
38543
38545
38598
38684
38766
38856
38908
38981
38978
39018
39060
39047
38969
38844
38757
38755
38855
38903
38952
38995
39168
39332
39420
39487
39568
39556
39539
39599
39540
39479
39422
39461
39396
39361
39356
39398
39429
39495
39468
39452
39498
39605
39670
39761
39820
39860
39911
39892
39814
39664
39494
39431
39412
39398
39277
39096
38902
38822
38749
38718
38719
38767
38994
39059
39070
39071
39075
38939
38831
38772
38694
38647
38577
38557
38520
38607
38674
38719
38722
38766
38796
38820
38862
38903
38985
38919
38884
38905
38919
38934
38885
38815
38812
38841
38902
38956
38991
38936
38886
38845
38949
39048
39136
39223
39249
39286
39263
39191
39153
39174
39200
39188
39157
39120
39092
39094
39143
39210
39311
39376
39469
39566
39637
39677
39675
39668
39604
39548
39541
39473
39452
39381
39416
39431
39536
39678
39839
39999
40004
39989
40084
40168
40191
40332
40374
40532
40508
40476
40495
40432
40554
40519
40486
40426
40391
40491
40406
40548
40652
40701
40685
40700
40796
40758
40658
40647
40708
40703
40698
40743
40813
40758
40690
40670
40680
40700
40708
40693
40692
40741
40796
40884
41009
41055
41039
40983
41017
40956
40877
40800
40725
40684
40702
40794
40838
40773
40719
40698
40743
40836
40930
40996
41025
41068
41087
41082
41133
41170
41169
41223
41318
41436
41527
41585
41639
41751
41812
41852
41852
41861
41913
41991
42008
42000
42053
42250
42180
42186
42214
42324
42487
42736
42772
42669
42620
42628
42485
42526
42575
42674
42858
43088
43281
43287
43373
43332
43236
43215
43168
43143
43141
43114
43081
43004
43036
42994
42980
43078
43214
43089
42954
42798
42544
42495
42372
42303
42527
42826
43130
43578
44004
44461
44876
45368
45792
46409
47295
48417
49630
50941
52292
53631
54940
56340
57781
59086
60294
61358
62260
62947
63396
63768
64007
64064
63940
63548
62817
61894
60729
59399
57934
56402
54690
53015
51424
49852
48188
46622
45200
44039
42990
41980
41174
40769
40647
40600
40711
40858
40940
40949
40957
40938
40876
40802
40759
40693
40708
40742
40732
40689
40690
40710
40731
40681
40711
40809
40813
40870
40908
40985
41057
41074
41092
41034
40934
40919
40958
40996
40967
40907
40852
40778
40641
40560
40472
40415
40455
40524
40594
40672
40814
40950
41029
41042
41108
41179
41185
41263
41180
41196
41230
41197
41094
41010
41020
41014
41089
41071
41114
41182
41244
41170
41171
41216
41280
41322
41351
41413
41518
41479
41631
41715
41780
41774
41702
41661
41709
41765
41844
41917
41895
42150
42151
42215
42182
42122
42052
41965
41892
41859
41854
41797
41846
41889
41895
41882
42005
42100
42125
42209
42241
42204
42228
42300
42290
42303
42348
42365
42327
42136
42124
42053
41965
41886
41855
41962
42068
42137
42238
42332
42476
42622
42724
42799
42862
42913
42880
42864
42854
42819
42724
42688
42709
42676
42646
42708
42706
42740
42844
42847
42917
42948
42975
43096
43136
43129
43183
43171
43163
43167
43189
43169
43182
43169
43103
43150
43090
43110
43143
43246
43303
43354
43202
43116
42996
42996
43090
43158
43236
43084
42935
42736
42647
42552
42590
42692
42602
42582
42599
42614
42449
42423
42332
42236
42206
42222
42218
42150
42055
41876
41933
41796
41684
41663
41585
41431
41390
41444
41477
41470
41453
41492
41468
41479
41536
41578
41527
41406
41370
41341
41275
41263
41268
41258
41322
41267
41204
41237
41253
41319
41402
41348
41241
41095
41031
41079
40993
40894
40822
40668
40581
40498
40492
40591
40603
40576
40592
40614
40604
40589
40568
40474
40507
40382
40351
40290
40152
39975
39806
39743
39675
39646
39600
39516
39472
39382
39311
39228
39160
39094
39032
39071
39127
39073
38987
38919
38839
38631
38487
38441
38329
38244
38150
38082
37936
37798
37648
37584
37623
37580
37577
37580
37577
37501
37399
37383
37345
37289
37255
37216
37061
36958
36919
36861
36679
36517
36582
36614
36633
36634
36687
36710
36685
36591
36565
36526
36542
36549
36534
36439
36358
36351
36268
36189
36081
35999
35896
35847
35892
35814
35784
35829
35858
35821
35785
35841
35884
35910
35927
35935
35892
35903
35911
35866
35794
35843
35796
35719
35766
35772
35774
35765
35827
35895
35868
35778
35727
35722
35691
35681
35703
35690
35663
35622
35604
35550
35580
35583
35573
35583
35597
35597
35680
35711
35682
35616
35622
35601
35552
35528
35476
35384
35430
35451
35498
35392
35367
35422
35383
35396
35431
35467
35449
35387
35358
35369
35448
35505
35503
35487
35463
35426
35444
35492
35492
35404
35260
35296
35300
35367
35476
35473
35420
35380
35295
35198
35134
35092
35071
34996
34915
34942
34951
35004
35023
35036
35020
35070
35044
35095
35199
35199
35157
35163
35171
35203
35170
35147
35188
35254
35310
35359
35386
35318
35287
35201
35168
35291
35314
35335
35422
35556
35629
35740
35748
35790
35839
35917
35895
35809
35823
35817
35803
35760
35764
35781
35735
35740
35822
35822
35816
35804
35759
35718
35679
35600
35489
35495
35461
35379
35262
35152
35149
35225
35268
35255
35281
35251
35268
35234
35169
35260
35416
35437
35372
35333
35311
35292
35274
35247
35239
35232
35111
35032
34980
34838
34744
34761
34773
34812
34906
35050
35158
35244
35326
35309
35294
35151
35045
35172
35166
35104
34983
34868
34951
35004
34936
34870
35003
35103
35153
35140
35091
35104
35087
35079
35073
35127
35151
35146
35162
35295
35402
35447
35460
35499
35575
35444
35463
35455
35503
35586
35567
35557
35461
35386
35348
35476
35439
35365
35289
35270
35201
35180
35154
35174
35196
35181
35175
35127
35172
35207
35228
35217
35229
35294
35444
35444
35430
35345
35196
34847
34789
34629
34397
34241
34240
34464
34599
34908
35039
35207
35487
35864
36380
36942
37508
38074
38732
39551
40463
41479
42652
43871
45186
46782
48063
49404
50716
51783
52656
53420
53988
54374
54735
54919
54976
54770
54260
53468
52559
51494
50150
48647
47036
45278
43695
42100
40634
39100
37644
36356
35294
34305
33486
32817
32468
32484
32513
32639
32756
32758
32684
32571
32489
32449
32388
32476
32593
32659
32755
32823
32852
32887
32972
33024
33050
33054
33002
33015
32966
32918
32791
32731
32695
32609
32684
32793
32933
33060
33204
33279
33300
33286
33326
33356
33370
33322
33339
33333
33286
33278
33373
33428
33506
33534
33646
33845
33927
34066
34122
34190
34274
34403
34446
34452
34424
34422
34488
34519
34508
34517
34588
34627
34665
34678
34733
34838
34967
35053
35049
35005
34994
35012
35084
35173
35215
35183
35120
35055
34991
34950
35021
35060
35198
35277
35256
35361
35401
35428
35503
35516
35510
35524
35536
35567
35691
35746
35768
35771
35677
35700
35676
35681
35749
35775
35796
35810
35857
35940
35927
35938
35897
35942
36013
36017
36037
36036
35956
35951
35930
35879
35847
35834
35836
35847
35870
36034
36151
36228
36301
36359
36386
36333
36286
36221
36238
36224
36198
36148
36113
36076
36031
35999
36040
36012
36048
36100
36098
36142
36169
36207
36110
36118
36174
36219
36205
36168
36164
36123
36047
35959
35880
35839
35735
35766
35682
35738
35788
35855
35900
35906
35847
35806
35820
35864
35948
36048
36076
36124
36084
36084
36069
36093
36132
36085
36102
36135
36175
36164
36213
36313
36359
36346
36300
36218
36148
36038
36052
36111
36152
36108
36153
36112
36030
35999
35975
36038
36044
36093
36149
36165
36286
36428
36505
36477
36423
36318
36229
36207
36135
36117
36119
36049
35999
35871
35837
35765
35895
35953
35945
35951
35863
35734
35650
35566
35461
35399
35319
35238
35266
35237
35207
35135
35070
35065
35094
35069
35142
35175
35234
35238
35172
35092
35053
34941
34887
34660
34538
34572
34496
34416
34350
34322
34214
34031
33937
33887
33855
33892
33840
33868
33831
33746
33772
33713
33665
33631
33626
33665
33521
33375
33326
33329
33350
33343
33319
33279
33170
33004
32924
32826
32790
32752
32796
32797
32760
32775
32810
32697
32628
32631
32599
32484
32426
32353
32246
32119
32098
32129
32140
32141
32125
32102
32135
32190
32263
32292
32252
32188
32115
32058
31990
31911
31879
31809
31812
31827
31767
31801
31862
31859
31806
31718
31740
31692
31647
31601
31495
31442
31461
31562
31721
31938
31982
31943
31911
31876
31903
31926
31847
31775
31792
31887
31904
31955
31979
32015
32049
32015
32012
32050
32090
32043
31940
31860
31765
31717
31687
31651
31649
31692
31715
31781
31791
31791
31745
31748
31785
31852
31842
31852
31841
31886
31856
31774
31758
31696
31580
31500
31511
31452
31390
31397
31384
31407
31420
31495
31460
31380
31263
31166
31097
31073
31084
31079
31119
31185
31214
31233
31265
31238
31239
31207
31302
31301
31289
31211
31134
31068
31012
30941
30910
30869
30855
30816
30687
30652
30608
30517
30532
30541
30472
30396
30452
30612
30616
30536
30402
30530
30547
30460
30699
30718
30613
30836
30866
30849
30809
30801
30709
30646
30650
30655
30664
30668
30587
30514
30434
30340
30280
30335
30335
30273
30255
30263
30209
30194
30114
30018
29917
29850
29866
29867
29764
29655
29623
29577
29508
29549
29661
29793
29781
29702
29670
29639
29607
29623
29601
29628
29532
29431
29373
29307
29266
29161
29049
29014
28978
28918
28964
28866
28840
28863
28815
28778
28732
28733
28692
28692
28633
28619
28523
28419
28319
28212
28098
27988
27939
27911
27871
27842
27823
27924
27892
27998
28104
28095
28028
27927
27965
27977
27935
27898
27825
27742
27680
27615
27581
27577
27558
27486
27468
27486
27359
27286
27200
27140
27100
27058
26983
26948
26955
26956
26927
26954
26892
26900
26965
26982
26988
26971
26892
26806
26685
26533
26406
26196
25946
25696
25445
25263
25184
25190
25266
25355
25325
25428
25563
25940
26428
26914
27436
28068
28764
29764
30807
31938
33052
34123
35356
36605
37932
39298
40492
41438
42260
42846
43368
43780
44021
44065
43940
43596
42906
42078
41162
39882
38452
36958
35394
33765
32129
30595
29028
27428
25925
24622
23536
22625
21832
21264
20999
20895
20848
20861
20826
20812
20713
20760
20794
20732
20728
20884
20943
20825
20836
20955
21056
21082
21159
21279
21391
21460
21548
21612
21635
21582
21545
21569
21576
21471
21396
21404
21468
21462
21399
21431
21524
21541
21591
21595
21605
21645
21706
21781
21775
21665
21591
21592
21633
21590
21596
21615
21623
21635
21642
21673
21697
21623
21658
21697
21685
21655
21618
21628
21598
21583
21520
21472
21444
21473
21556
21592
21628
21785
21810
21833
21893
21940
21965
21945
21971
21987
21948
21895
21882
21887
21864
21832
21796
21780
21764
21737
21711
21684
21702
21712
21712
21734
21686
21652
21528
21597
21682
21652
21738
21706
21627
21695
21743
21689
21638
21666
21678
21696
21604
21574
21502
21443
21438
21492
21566
21689
21703
21651
21625
21663
21658
21666
21697
21774
21671
21534
21408
21428
21542
21596
21711
21716
21583
21510
21391
21484
21543
21564
21599
21575
21617
21756
21807
21863
21959
22010
22093
22104
22117
22055
22091
22230
22431
22552
22676
22701
22668
22661
22630
22535
22425
22308
22214
22192
22165
22190
22231
22302
22314
22407
22489
22403
22318
22273
22343
22439
22617
22735
22850
22963
23019
23020
23021
22966
22996
22987
22940
22860
22890
23098
23196
23212
23222
23314
23292
23208
23106
23131
23265
23340
23412
23383
23415
23431
23340
23248
23291
23332
23337
23343
23418
23440
23375
23372
23310
23262
23179
22996
22892
22908
22999
23070
23181
23214
23422
23538
23553
23577
23595
23614
23628
23617
23620
23584
23537
23536
23503
23535
23547
23499
23308
23161
23119
23102
23023
22947
22864
22785
22738
22799
22836
22777
22698
22703
22623
22636
22566
22570
22636
22625
22659
22709
22768
22805
22818
22735
22865
22907
22917
22948
22970
22988
22944
22821
22733
22674
22811
22837
22857
22982
23095
23228
23275
23260
23236
23202
23249
23215
23200
23215
23224
23223
23185
23190
23181
23175
23129
23106
23165
23252
23290
23326
23314
23324
23279
23230
23176
23104
23044
23032
22996
22983
23071
23120
23252
23359
23364
23391
23340
23204
23197
23204
23231
23330
23460
23654
23796
23840
23814
23855
23867
23873
23900
23913
23929
23925
23916
23951
23946
23910
23889
23876
23820
23718
23653
23716
23718
23727
23739
23789
23885
23932
23929
23923
23935
23959
24010
24038
24138
24250
24306
24282
24234
24180
24136
24230
24287
24334
24282
24164
24149
24193
24226
24231
24245
24236
24188
24130
24106
24127
24156
24153
24101
24088
24087
24135
24130
24060
24007
23995
24059
24091
23980
23850
23761
23742
23715
23724
23763
23756
23817
23917
23947
24057
24103
24085
24091
24052
23967
23928
23906
23884
23842
23866
23924
24042
24103
24141
24097
24050
24007
23972
24077
24091
24042
23974
23924
24000
24024
24030
24076
24109
24130
24157
24214
24210
24230
24259
24262
24276
24308
24358
24320
24342
24388
24405
24404
24316
24183
24105
24035
23996
23983
24061
24221
24390
24558
24597
24600
24495
24412
24368
24330
24312
24349
24386
24469
24552
24621
24656
24691
24750
24692
24684
24661
24693
24755
24772
24788
24794
24772
24745
24770
24732
24715
24727
24689
24669
24707
24744
24766
24793
24778
24770
24774
24737
24748
24719
24735
24834
24870
24863
24844
24866
24937
24928
24888
24834
24751
24769
24731
24669
24628
24599
24608
24702
24805
24817
24835
24851
24797
24695
24711
24724
24726
24756
24732
24718
24729
24702
24764
24926
25000
25145
25217
25286
25346
25399
25462
25498
25460
25433
25391
25369
25382
25436
25404
25358
25401
25445
25425
25460
25517
25591
25713
25789
25855
25890
25854
25855
25873
25862
25815
25758
25575
25431
25313
25194
25079
24877
24728
24638
24599
24639
24741
24933
25095
25319
25575
25862
26276
26809
27418
28069
28821
29629
30560
31618
32775
34052
35212
36687
38077
39512
40967
42132
43116
44015
44765
45271
45862
46180
46300
46202
45869
45191
44319
43295
41983
40500
38854
37394
35748
34201
32589
30881
29279
27776
26522
25460
24524
23698
23141
22816
22666
22759
22975
23271
23531
23754
23996
24203
24348
24483
24723
25060
25396
25665
25945
26191
26449
26612
26738
26915
27088
27231
27276
27293
27331
27429
27494
27546
27653
27614
27633
27758
27772
27799
27879
27933
27852
27780
27793
27785
27765
27753
27759
27745
27713
27694
27797
27828
27783
27821
27897
28002
28031
28007
27951
27894
27879
27903
27924
27895
27732
27732
27681
27676
27723
27805
27909
28023
28063
28072
28117
28213
28230
28276
28363
28414
28449
28452
28437
28446
28412
28329
28344
28416
28521
28604
28732
28780
28758
28766
28759
28804
28939
29060
29212
29286
29331
29289
29281
29316
29236
29190
29164
29084
29071
29003
29034
29047
29140
29260
29351
29447
29526
29558
29623
29617
29602
29542
29476
29415
29452
29492
29509
29500
29454
29378
29407
29399
29369
29370
29429
29539
29636
29662
29640
29625
29589
29483
29424
29365
29384
29431
29388
29398
29367
29308
29292
29412
29481
29596
29556
29525
29455
29479
29509
29566
29641
29767
29846
29826
29783
29745
29733
29735
29740
29741
29743
29700
29726
29772
29860
29938
29953
29964
30038
30123
30215
30277
30292
30416
30562
30620
30686
30765
30837
30943
30957
30996
30952
30934
31036
31098
31054
30982
30965
30932
30882
30844
30765
30706
30657
30619
30597
30623
30639
30709
30810
30887
31150
31294
31375
31395
31390
31364
31296
31239
31151
31216
31239
31143
31042
30982
30983
30958
30959
30913
31055
31021
31253
31367
31301
31278
31318
31384
31358
31280
31340
31388
31369
31239
31205
31131
31020
30910
30924
31015
30958
30996
31047
30930
30869
30668
30618
30619
30666
30663
30623
30504
30556
30486
30327
30263
30367
30381
30494
30382
30252
30284
30295
30172
30165
30225
30100
29958
29775
29752
29751
29737
29755
29796
29788
29725
29720
29798
29690
29743
29738
29734
29812
29860
29847
29858
29868
29799
29856
29825
29752
29681
29636
29564
29508
29515
29581
29583
29584
29626
29815
29753
29714
29543
29580
29674
29750
29788
29872
29987
30027
29997
29993
29924
29830
29828
29895
29941
30061
30174
30274
30393
30467
30500
30628
30695
30740
30855
30920
30977
30886
30906
30894
30956
31087
31206
31295
31199
31258
31255
31309
31372
31460
31588
31623
31646
31720
31791
31790
31768
31692
31650
31707
31796
31751
31664
31620
31526
31654
31852
31979
31951
32046
32020
31999
32071
32107
32148
32194
32194
32172
32088
32212
32151
32020
32196
32225
32257
32263
32285
32279
32270
32308
32230
32296
32397
32395
32380
32354
32404
32382
32391
32404
32439
32477
32510
32512
32420
32419
32303
32223
32228
32278
32534
32526
32673
32639
32809
32770
32726
32718
32740
32734
32739
32765
32756
32796
32941
32878
32860
32886
32963
32997
33004
32966
32833
32716
32750
32775
32889
32858
32857
32903
32910
32804
32790
32789
33005
32967
32940
32941
32917
32894
33017
33065
33113
33180
33287
33386
33480
33516
33597
33854
33906
33893
33880
33820
33786
33764
33775
33773
33731
33722
33660
33534
33378
33462
33596
33398
33380
33271
33382
33270
33195
33350
33301
33223
33142
33118
33038
32954
33006
33027
32991
32887
32815
32737
32820
33005
33078
33092
33048
32988
32967
32871
32759
32681
32656
32668
32665
32543
32554
32535
32634
32661
32644
32680
32704
32815
32692
32594
32535
32471
32394
32303
32250
32218
32283
32351
32399
32364
32361
32343
32343
32343
32313
32340
32101
32092
32143
32260
32271
32266
32297
32389
32444
32426
32435
32428
32560
32590
32710
32821
32934
33041
33105
33087
32927
32886
32935
32974
32930
32850
32875
32859
33034
32999
32967
32943
32893
32967
33014
33031
32918
33061
33071
32980
32952
32857
32706
32787
32668
32469
32242
32025
31876
31864
31798
31760
31810
31996
32287
32642
33082
33526
34089
34668
35267
36172
37035
38159
39196
40308
41545
42775
44068
45340
46695
47876
48919
49863
50654
51116
51668
52055
52293
52380
52286
51849
51100
50058
48868
47535
46031
44470
42765
41171
39447
37791
36201
34716
33348
32394
31412
30565
29927
29548
29442
29556
29743
29858
29871
29768
29692
29670
29634
29592
29689
29728
29838
29975
30108
30246
30395
30498
30591
30616
30721
30892
31118
31276
31380
31343
31220
31140
31038
30918
30813
30749
30712
30750
30837
30884
30941
31005
31039
31118
31207
31269
31540
31652
31636
31540
31525
31492
31558
31623
31757
32041
32063
32105
32127
32228
32303
32295
32307
32279
32252
32228
32188
32183
32139
32172
32124
32087
32071
32079
32100
32318
32361
32274
32370
32433
32517
32594
32780
32823
32869
32858
32850
32799
32724
32711
32585
32560
32612
32538
32492
32546
32678
32673
32825
32889
32860
32659
32757
32767
32780
32964
33050
33194
33280
33351
33436
33458
33420
33300
33228
33287
33341
33413
33374
33383
33568
33519
33410
33379
33411
33399
33375
33262
33281
33247
33217
33277
33342
33479
33541
33636
33799
33956
34076
34124
34119
34252
34495
34540
34567
34624
34600
34598
34578
34588
34677
34730
34844
34989
35038
35094
35148
35233
35266
35311
35375
35430
35457
35424
35389
35388
35356
35306
35169
35207
34999
35127
35197
35335
35423
35521
35722
35772
35753
35847
36079
36255
36254
36126
36286
36268
36254
36407
36288
36152
36196
36148
36090
36142
36326
36308
36185
36418
36430
36536
36513
36834
36911
37004
37031
36966
36969
37052
37167
37025
36729
36600
36756
36720
36658
36639
36807
36830
36678
36818
36895
36948
36959
36983
36981
37023
37193
37146
37009
36774
36903
36927
36972
37061
37078
37051
37153
37357
37438
37455
37361
37276
37186
36977
36996
37127
37031
36988
36916
36894
36949
37031
36926
36798
36775
36757
36783
36693
36869
36845
36808
36789
36709
36524
36454
36335
36446
36329
36213
36196
36279
36241
36206
36310
36359
36308
36183
36015
35890
35672
35446
35575
35500
35462
35461
35495
35500
35479
35412
35331
35243
35244
35239
35231
35207
35125
35061
35047
35111
35141
35163
35367
35387
35444
35439
35365
35198
35247
35172
35071
34965
34938
34893
34850
34742
34711
34665
34627
34690
34734
34792
34871
35052
35140
35204
35268
35285
35262
35221
35189
35245
35253
35231
35054
34954
35013
35103
35065
34980
35109
35054
35079
35058
35014
35117
34951
35126
35156
34980
34948
35165
35074
35063
35238
35204
35164
35183
35244
35303
35404
35530
35596
35674
35748
35815
35839
35807
35711
35652
35557
35461
35485
35564
35658
35772
35604
35764
35791
35715
35880
35942
36056
36052
36036
36055
36185
36187
36178
36172
36231
36240
36117
36276
36346
36487
36573
36689
36698
36788
36836
36935
37008
37092
37106
37070
37037
37035
37007
37204
37047
36849
36823
36788
36814
36837
36775
36774
36807
36830
36853
36814
36798
36796
36871
36928
36957
36940
36948
36990
36972
36978
36991
36816
36930
36863
36790
36781
36901
36834
36895
37118
37145
37188
37222
37231
37222
37173
36964
37017
37004
36956
36871
36927
37052
37106
37213
37242
37168
37143
37167
37153
37307
37383
37663
37717
37703
37631
37511
37468
37439
37414
37548
37465
37333
37088
37066
37333
37376
37458
37359
37378
37542
37559
37600
37646
37655
37604
37596
37582
37485
37446
37399
37317
37160
37090
37261
37247
37180
37237
37354
37415
37509
37563
37543
37525
37349
37270
37341
37277
37117
37025
36852
36823
36972
36910
36871
36943
36999
36982
37046
37060
37215
37279
37291
37245
37255
37282
37396
37439
37634
37628
37570
37511
37461
37268
37434
37413
37430
37476
37519
37735
37832
37868
37864
37836
37701
37781
37766
37791
37867
37887
37918
37967
38015
37943
38031
37924
37780
37789
37748
38074
38094
38111
38083
37980
38092
37982
37839
37658
37585
37560
37503
37460
37412
37398
37364
37378
37407
37338
37325
37194
37191
37023
36822
36690
36581
36487
36532
36578
36757
36835
37191
37511
37926
38295
39029
39614
40285
41120
42191
43503
44724
45976
47189
48396
49632
50862
51757
53023
53919
54676
55281
55782
56164
56455
56662
56733
56423
55815
55036
54061
52697
51370
49880
48258
46624
44984
43327
41374
40078
38568
37290
36188
35060
34213
33711
33358
33286
33332
33391
33422
33393
33508
33476
33485
33504
33518
33516
33561
33652
33703
33924
33959
34031
34145
34196
34393
34684
34904
34997
35021
35033
34895
34785
34896
34898
34955
34978
34948
35105
35079
35074
34876
35013
35014
34948
34926
34934
35034
35065
35095
35128
35228
35331
35340
35311
35477
35463
35396
35351
35148
35266
35224
35221
35175
35207
35184
35305
35287
35334
35424
35463
35493
35510
35640
35712
35847
36098
36217
36188
36030
35982
35935
35909
35852
35880
35953
36036
36044
36100
36140
36196
36426
36334
36082
36155
36093
36137
36308
36252
35916
36035
36003
36013
36284
36394
36460
36450
36487
36336
36454
36446
36560
36430
36356
36199
36269
36253
36199
36136
36116
36142
36079
35983
36153
36180
36234
36292
36455
36607
36641
36698
36670
36676
36757
36824
36894
36894
36807
36609
36276
36359
36322
36276
36295
36312
36367
36370
36477
36524
36527
36391
36215
36404
36420
36735
36716
36615
36548
36477
36382
36346
36463
36431
36270
36393
36491
36551
36643
36807
36871
36949
36946
36974
36943
36991
37004
36972
36982
36951
37018
37157
37194
37136
37031
36854
37064
37140
37121
37111
37141
37443
37433
37358
37201
37340
37345
37364
37308
37343
37473
37448
37331
37212
36892
36967
36955
37060
37120
37122
37164
37277
37480
37409
37374
37303
37173
37271
37215
37167
37111
36991
37026
37022
37046
37068
37178
37279
37359
37287
37512
37444
37292
37340
37397
37351
37290
37324
37211
37071
36956
36887
36929
36886
36823
37023
36887
36762
36694
36497
36615
36404
36615
36604
36536
36628
36615
36503
36262
36170
36262
36244
36215
36169
36174
36131
36085
36082
36092
36116
36103
36100
36097
36207
36137
36066
35975
35868
35788
35646
35441
35516
35441
35447
35460
35470
35487
35527
35499
35507
35452
35532
35501
35549
35405
35586
35527
35372
35087
35162
35111
35215
35111
35066
35094
34997
35006
34935
35033
34865
34797
34780
34775
34977
35013
35075
35015
35024
35078
35146
35147
35100
35069
35149
35151
35109
35074
35048
34976
34907
34880
34974
34986
35199
35172
35114
35103
35001
34902
34766
34735
34749
34839
34816
35007
35065
35151
35225
35226
35268
35290
35304
35278
35264
35335
35379
35299
35188
35143
35072
35124
35005
34951
34881
34751
34674
34679
34810
35014
35207
35333
35722
35692
35657
35620
35788
35706
35639
35447
35332
35366
35351
35291
35196
35087
35036
34911
34814
34886
34877
34784
34760
34798
34897
34969
35111
35187
35303
35212
35068
34919
34820
34735
34726
34799
34858
34958
35094
35164
35246
35327
35402
35479
35522
35519
35489
35571
35690
35657
35575
35548
35396
35429
35478
35399
35405
35412
35378
35647
35695
35695
35582
35771
35863
35943
35888
35813
35940
35897
35824
35713
35468
35492
35431
35269
35207
35335
35303
35257
35164
35074
35252
35239
35245
35328
35311
35428
35591
35507
35335
35420
35392
35362
35308
35298
35484
35345
35124
35297
35280
35439
35657
35559
35495
35604
35574
35598
35471
35458
35589
35500
35410
35373
35290
35201
35126
35254
35274
35287
35273
35505
35525
35554
35554
35559
35446
35596
35576
35453
35431
35404
35607
35538
35434
35351
35247
35176
35335
35319
35435
35495
35509
35444
35219
35264
35277
35293
35509
35402
35188
35331
35411
35392
35521
35463
35358
35288
35357
35301
35242
35258
35394
35437
35335
35220
35109
35189
35183
35194
35278
35140
34911
34885
34857
34743
34903
34684
34791
34916
35015
34976
35006
34885
34990
34933
34874
34962
34910
34823
34949
34946
34911
34752
34628
34502
34372
34502
34540
34516
34484
34386
34459
34533
34630
34653
34604
34613
34535
34530
34472
34567
34649
34567
34455
34594
34562
34516
34534
34439
34324
34413
34356
34270
34244
34262
34124
34215
34188
34199
34175
34055
34058
34215
34123
34007
34076
34073
34068
34197
34298
34396
34425
34622
34601
34545
34376
34140
33855
33476
33375
33247
33127
33020
32917
33055
33172
33300
33582
33914
34630
35239
35750
36335
37090
37942
39146
40278
41445
42550
43633
44772
45949
47358
48522
49522
50468
51270
51943
52543
52988
53255
53460
53343
52863
52183
51239
50043
48686
47136
45538
43972
42199
40508
38838
37084
35523
34078
32923
31939
31046
30396
30049
29894
29926
30031
30072
29920
29846
29675
29572
29471
29429
29550
29668
29786
29925
30258
30442
30504
30596
30717
30879
31014
31019
31167
31400
31490
31565
31500
31339
31347
31382
31414
31430
31503
31525
31557
31568
31526
31582
31663
31786
31761
31743
31705
31684
31655
31543
31505
31599
31650
31686
31703
31657
31716
31750
31812
31836
31987
32094
32127
32201
32567
32644
32622
32511
32529
32517
32477
32479
32340
32263
32405
32375
32471
32679
32679
32617
32882
33116
33321
33318
33359
33314
33319
33421
33493
33456
33429
33559
33535
33468
33351
33242
33070
33183
33209
33281
33335
33303
33274
33343
33351
33383
33421
33412
33468
33556
33450
33405
33287
33388
33448
33492
33602
33695
33700
33710
33678
33738
33829
33830
33903
33898
34164
34228
34246
34121
34286
34272
34359
34392
34446
34407
34319
34476
34506
34559
34815
34788
34899
35106
35058
34993
34975
34887
34932
34989
35038
35066
35092
35094
35060
34999
34946
35068
35131
35215
35285
35559
35716
35705
35710
35742
35559
35476
35575
35564
35498
35566
35602
35591
35462
35412
35333
35356
35486
35536
35636
35680
35604
35705
35789
35831
35859
35885
35901
35755
35674
35574
35298
35350
35260
35218
35287
35415
35431
35495
35519
35495
35449
35428
35444
35441
35462
35614
35587
35545
35476
35366
35299
35135
34891
35093
35191
35222
35223
35402
35471
35509
35694
35823
35813
35847
35911
35894
35804
35643
35550
35466
35239
35084
35119
35055
35018
34991
34980
35047
35108
35106
35108
35150
35183
35143
35308
35316
35351
35405
35271
35079
34913
34990
34991
35039
35028
34982
35018
35012
34956
34964
34894
34844
34790
34758
34695
34542
34479
34556
34538
34543
34576
34478
34301
34253
34264
34311
34159
34086
34204
34150
34196
34199
34231
34295
34189
34107
33994
33940
33989
33988
33985
33996
33969
33946
33958
33933
33843
33757
33758
33799
33787
33664
33879
33940
33916
33798
33673
33690
33650
33679
33719
33719
33558
33574
33612
33583
33634
33737
33830
33762
33607
33725
33790
33758
33671
33598
33740
33773
33765
33646
33445
33354
33252
33310
33356
33384
33300
33149
33089
33047
33150
33221
33232
33137
33058
33047
32945
32919
33015
33087
33171
33263
33410
33498
33475
33329
33216
33175
33110
33113
33223
33287
33383
33336
33260
33277
33239
33185
33084
33159
33255
33319
33287
33256
33170
33172
33183
33201
33243
33274
33364
33388
33364
33159
33023
32903
32847
32810
32855
32865
32847
32812
32711
32703
32728
32788
32854
32889
32860
32796
32763
32753
32734
32647
32597
32647
32707
32687
32595
32527
32572
32663
32702
32813
32832
32815
32852
32935
32999
33116
33287
33429
33446
33284
33129
33045
32949
32879
32902
32904
32870
32839
32782
32637
32604
32603
32557
32574
32603
32623
32704
32807
32874
32870
32813
32741
32684
32629
32567
32469
32425
32404
32383
32327
32350
32423
32493
32532
32559
32575
32641
32681
32706
32795
32887
32932
32894
32839
32756
32719
32693
32596
32565
32594
32654
32756
32860
32905
33022
33095
33058
33023
32903
32820
32831
32863
32922
33004
33007
32996
32972
32959
32975
32958
32966
32986
32974
32997
32927
33014
33143
33188
33198
33154
33116
33100
33076
33039
33029
32976
32928
32888
32839
32856
32855
32860
32852
32908
32956
32990
33020
33010
32964
32919
32871
32826
32792
32706
32596
32538
32486
32444
32441
32401
32422
32530
32633
32733
32800
32859
32879
32822
32775
32662
32543
32554
32606
32604
32663
32645
32602
32556
32528
32542
32652
32737
32764
32775
32775
32751
32762
32740
32739
32762
32759
32804
32910
32998
33031
33082
33116
33175
33273
33268
33256
33182
33171
33183
33196
33230
33231
33231
33212
33196
33154
33066
33005
32903
32775
32676
32620
32583
32543
32541
32586
32644
32631
32596
32575
32606
32610
32607
32582
32626
32671
32710
32735
32748
32775
32796
32756
32713
32666
32628
32609
32647
32703
32797
32842
32911
32933
32967
32973
32944
32894
32831
32844
32838
32708
32615
32511
32389
32377
32405
32321
32144
32028
31893
31989
32011
32020
32180
32284
32380
32551
32908
33458
34004
34500
34997
35671
36596
37679
38895
40088
41264
42508
43850
45224
46583
47760
48804
49765
50560
51159
51589
51901
51996
51884
51494
50985
50137
49140
47943
46516
44940
43232
41525
39858
38335
36868
35453
34172
33042
32075
31172
30378
29880
29689
29597
29577
29642
29779
29700
29581
29503
29433
29498
29639
29767
29807
29986
30136
30197
30154
30161
30100
30047
29989
30148
30166
30199
30240
30284
30356
30338
30297
30282
30317
30436
30564
30671
30634
30700
30766
30703
30631
30599
30589
30542
30573
30602
30595
30581
30776
30884
30973
31031
31146
31207
31262
31247
31239
31172
31116
31111
31083
31019
31048
31092
31142
31212
31326
31438
31526
31575
31566
31614
31617
31673
31718
31959
32065
32091
32067
32048
31975
31921
31949
31999
31943
31893
31887
31843
31944
32125
32127
32254
32287
32370
32551
32622
32673
32638
32579
32511
32365
32254
32164
32190
32222
32191
32157
32022
32094
32149
32162
32228
32387
32524
32584
32630
32630
32664
32634
32634
32637
32581
32567
32656
32590
32532
32513
32535
32502
32620
32676
32657
32638
32592
32564
32597
32603
32612
32616
32614
32619
32671
32683
32645
32655
32741
32922
32910
32941
32951
32961
32927
33171
33298
33142
33261
33258
33201
33112
33130
33087
33079
33084
33053
32991
32913
32895
32932
33045
33165
33263
33390
33391
33375
33385
33348
33412
33445
33385
33334
33318
33369
33412
33446
33557
33664
33684
33663
33656
33644
33666
33747
33760
33836
33967
34019
34103
34174
34311
34263
34220
34207
34118
34009
33906
33839
33823
33906
33956
33940
33900
33918
33967
34000
33981
34093
34063
34026
34022
34021
33944
33959
33947
33927
33921
33933
33949
33881
33852
33903
33842
33815
33869
33775
33607
33520
33433
33414
33367
33241
33175
33164
33142
33131
33092
33149
33375
33511
33631
33615
33569
33511
33498
33486
33612
33603
33494
33394
33287
33143
32980
32823
32681
32645
32684
32803
32855
32900
32953
32949
32910
32862
32899
32847
32820
32837
32903
32901
32995
33011
33022
33032
32996
32880
32751
32605
32430
32349
32295
32255
32252
32228
32206
32343
32413
32431
32388
32338
32321
32298
32216
32068
31991
31831
31705
31615
31592
31619
31660
31876
31919
31889
31833
31791
31777
31719
31576
31724
31748
31782
31630
31779
31814
31755
31724
31699
31625
31660
31688
31759
31856
31924
31989
32091
32154
32120
32088
32084
32092
32088
32044
32138
32146
32114
32086
32084
32062
31986
31896
31860
31904
31881
31974
31956
32029
32103
32160
32154
32173
32158
32127
32159
32134
32098
32145
32250
32124
32332
32428
32542
32631
32637
32647
32647
32606
32591
32560
32410
32375
32324
32255
32207
32263
32280
32292
32286
32309
32359
32374
32388
32437
32527
32626
32670
32707
32763
32804
32767
32758
32756
32854
32918
33054
33028
33036
33070
33024
33038
33041
33007
32927
32770
32734
32729
32812
32967
33121
33141
33070
33064
33049
32943
32875
32791
32775
32710
32615
32576
32488
32418
32317
32364
32455
32690
32831
32920
32942
32987
33002
33007
33020
32994
32942
32918
32830
32845
32738
32659
32775
32832
32847
32943
32900
32783
32809
32938
33010
33130
33152
33163
33169
33166
33159
33042
32996
33159
33178
33084
33068
33139
33255
33163
33137
33124
33089
33204
33254
33270
33230
33104
33042
33105
33078
33015
32909
32852
32826
32659
32468
32441
32530
32625
32681
32687
32657
32620
32625
32644
32580
32548
32609
32830
33031
33194
33330
33417
33308
33126
33094
33127
33191
33204
33171
33060
33044
33084
33020
33006
32911
32868
32902
32903
32923
32972
33015
33052
33150
33204
33346
33423
33479
33536
33630
33671
33625
33526
33476
33457
33388
33377
33332
33457
33484
33494
33543
33581
33647
33581
33589
33473
33458
33526
33520
33495
33485
33540
33581
33688
33664
33587
33557
33543
33470
33378
33337
33287
33127
33071
33012
33039
33117
33010
32969
32929
32855
32775
32654
32530
32534
32616
32740
32823
32803
32756
32753
32742
32719
32724
32612
32550
32619
32757
32875
32940
32961
32917
32785
32700
32621
32701
32666
32734
32659
32621
32519
32573
32650
32709
32735
32619
32756
32885
32943
32956
32942
32930
33020
33161
33209
33217
33284
33259
33150
32935
32767
32679
32654
32740
32766
32873
32934
32958
33122
33195
33206
33199
33202
33137
33099
33116
33109
33037
33039
32989
32903
32697
32493
32276
32087
31941
31838
31806
31871
32079
32260
32479
32717
33146
33675
34213
34680
35190
35876
36707
37710
38864
40053
41199
42524
43973
45354
46661
47845
48902
49927
50689
51272
51662
51945
52103
52026
51700
51115
50303
49383
48188
46832
45318
43649
41666
39913
38273
36776
35333
34036
32940
32096
31345
30599
30063
29734
29597
29588
29533
29526
29512
29500
29344
29293
29220
29226
29289
29339
29420
29494
29560
29672
29811
29896
29966
29982
29996
30026
30048
30058
30086
30093
30108
30164
30256
30328
30515
30590
30502
30451
30343
30554
30727
30626
30490
30455
30440
30445
30445
30404
30386
30424
30526
30615
30685
30749
30782
30802
30716
30757
30858
30970
31064
31086
31179
31260
31348
31444
31558
31620
31648
31631
31609
31709
31749
31751
31725
31711
31691
31669
31703
31737
31880
31879
31815
31684
31661
31629
31585
31518
31560
31660
31740
31874
31910
31944
31943
31940
31848
31815
31713
31614
31599
31767
31807
31919
32068
31982
31831
31820
31842
31885
31966
32006
32124
32230
32327
32420
32473
32543
32545
32581
32638
32709
32862
32902
32887
32860
32830
32832
32801
32802
32731
32740
32675
32718
32880
33006
33080
33148
33220
33157
33108
33044
32986
32971
32940
32933
32884
32896
32891
32928
32973
32935
33013
33019
32948
32858
32791
32742
32686
32595
32556
32540
32611
32683
32797
32852
32839
32799
32794
32802
32949
32925
32988
32986
33029
33080
33113
33209
33382
33498
33616
33655
33543
33381
33317
33270
33262
33252
33270
33303
33204
33332
33310
33255
33318
33455
33517
33543
33591
33600
33604
33489
33453
33412
33396
33378
33570
33644
33701
33706
33601
33556
33562
33559
33474
33547
33580
33613
33799
33817
33815
33816
33829
33716
33702
33628
33764
33829
33752
33701
33812
33773
33719
33706
33707
33710
33799
33839
33834
33814
33751
33542
33425
33332
33287
33418
33413
33348
33367
33229
33079
33031
32997
32948
33020
33083
33073
33038
32969
32985
32964
32863
32746
32688
32551
32497
32414
32418
32428
32444
32538
32580
32625
32682
32701
32699
32670
32617
32545
32477
32486
32449
32292
32180
32109
32001
31890
31759
31639
31655
31652
31671
31757
31833
31880
31878
31838
31828
31820
31876
31981
32028
32036
31988
31931
31879
31839
31685
31799
31870
31793
31770
31861
31892
31984
31997
32118
32319
32383
32423
32438
32289
32134
32180
32284
32407
32496
32639
32607
32493
32551
32581
32727
32824
32866
32874
32930
32949
32961
32919
32811
32784
32759
32766
32721
32871
32869
32852
32911
32814
32823
32793
32743
32713
32689
32775
32836
32892
32936
32930
32975
32981
32903
32732
32757
32892
32877
32937
33013
33151
33120
33063
33081
33110
33321
33391
33330
33556
33545
33671
33820
33860
33900
33799
33826
33844
33836
33791
33743
33734
33766
33857
33796
33701
33634
33705
33789
33708
33671
33758
33772
33807
33909
33919
33813
33636
33576
33611
33599
33623
33685
33639
33602
33484
33469
33564
33584
33647
33841
33926
33878
33772
33703
33671
33628
33542
33481
33455
33362
33322
33517
33545
33529
33583
33670
33703
33824
33868
33882
33918
33943
33887
34011
33964
33940
34004
33972
33882
33868
33924
34028
34068
34110
34150
34146
34108
34098
34100
34111
34145
34145
34204
34250
34250
34202
34110
33985
33934
33765
33594
33527
33611
33751
33901
34058
34120
34015
33983
33984
33934
33892
33934
33941
33884
33916
33901
33799
33648
33474
33368
33348
33527
33670
33732
33760
33808
33798
33694
33524
33589
33567
33716
33758
33750
33738
33720
33620
33488
33491
33595
33631
33652
33594
33610
33761
33799
33779
33646
33783
33864
33927
33799
33884
33876
33665
33482
33486
33406
33222
33346
33374
33354
33237
33188
33338
33326
33348
33359
33268
33165
33135
33195
33151
33084
32938
32825
32841
32775
32738
32700
32590
32624
32751
32802
32839
32822
32716
32628
32681
32666
32636
32726
32738
32786
32950
32976
33004
33051
32935
32966
33183
33318
33461
33632
33637
33609
33728
33876
33940
33936
33712
33522
33486
33382
33300
33064
32898
32972
32936
32905
32816
32745
32740
32886
32905
32982
32957
32851
32817
32822
32868
32884
32942
32960
32957
32903
32874
32859
32836
32852
32814
32892
32924
32917
32912
32949
32924
32915
32862
32871
33039
33092
33041
33003
32954
32891
32767
32647
32509
32402
32367
32417
32464
32699
32876
32993
33038
33178
33254
33307
33214
33130
33114
33031
33012
33094
33199
33321
33377
33332
33316
33205
33103
33084
33130
33188
33340
33347
33356
33276
33116
32925
32876
32936
32935
32947
32884
32894
33020
33059
33055
32953
32938
32982
33079
33097
33129
33050
32949
32908
32878
32863
32828
32775
32708
32657
32577
32412
32093
31880
31893
31972
32066
32145
32307
32430
32580
32789
33359
33828
34415
34835
35428
36280
37226
38288
39288
40377
41526
42927
44306
45454
46759
48007
49189
50222
51004
51530
51876
52098
52215
52212
51924
51268
50354
49193
47916
46574
45159
43490
41669
40111
38652
37151
35684
34380
33333
32318
31348
30371
29629
29260
29086
29131
29206
29239
29165
29140
29092
29093
29066
28975
29020
29142
29365
29640
29814
29932
30054
30059
30042
30082
30222
30304
30316
30434
30406
30338
30199
30122
30149
30183
30180
30260
30276
30308
30354
30358
30343
30343
30263
30183
30098
30206
30233
30199
30175
30213
30279
30342
30446
30466
30460
30412
30395
30402
30462
30589
30585
30559
30599
30565
30503
30369
30301
30310
30340
30471
30460
30496
30606
30724
30848
30953
31031
31047
31001
31018
31047
31114
31239
31239
31398
31449
31414
31448
31412
31340
31206
31076
30989
30991
31025
31100
31220
31335
31521
31548
31569
31700
31639
31540
31559
31653
31694
31625
31594
31543
31434
31415
31474
31624
31716
31774
31863
31983
32045
32092
32016
32076
32124
32105
32238
32130
32127
32036
31916
31799
31832
31852
31986
32068
32087
32066
32062
32104
32051
31961
31890
31940
32042
32039
31968
31873
31644
31432
31500
31456
31470
31508
31452
31438
31430
31559
31748
31836
31860
31932
31932
31859
31826
31933
31942
31905
31765
31698
31719
31728
31690
31492
31468
31580
31670
31680
31639
31785
32121
32293
32375
32385
32447
32596
32594
32592
32503
32327
32534
32484
32421
32586
32572
32625
32636
32576
32659
32743
32861
32898
32890
32884
32758
32707
32788
32825
32892
32804
32612
32609
32685
32645
32594
32480
32439
32609
32623
32660
32429
32535
32485
32348
32497
32478
32454
32597
32692
32706
32727
32661
32550
32620
32704
32763
32836
32740
32652
32723
32838
32867
32853
32841
32751
32668
32564
32514
32463
32517
32517
32555
32588
32550
32508
32458
32654
32769
32839
32923
32873
32724
32646
32745
32642
32606
32391
32287
32242
32199
32086
32034
31887
31823
31718
31732
32011
32103
32038
31865
31791
31782
31678
31620
31528
31391
31308
31396
31444
31423
31348
31169
30983
31074
31103
31143
31049
31017
31075
31095
31044
31174
31271
31316
31308
31268
31247
31246
31210
31254
31175
31125
31028
30903
30948
30974
30993
30928
30935
30934
30823
30824
30935
30988
30964
30891
31065
31076
31024
31000
30932
30823
30722
30727
30894
30922
30940
30968
30988
31014
31072
31076
31110
31086
30900
30808
30734
30833
30806
30806
30788
30778
30703
30710
30696
30703
30856
30919
30959
30950
30950
30838
30927
31015
31004
31060
31079
30996
30909
30791
30777
30862
30893
30969
31004
31054
31165
31235
31215
31205
31307
31404
31572
31646
31655
31660
31592
31446
31391
31463
31456
31409
31332
31198
31086
31031
31121
31250
31332
31388
31452
31365
31311
31289
31318
31321
31276
31260
31179
31080
31049
31032
31103
31123
31127
31199
31216
31191
31189
31262
31382
31372
31204
31230
31256
31239
31211
30991
30890
30951
30859
30791
30633
30528
30504
30615
30685
30663
30663
30601
30532
30455
30416
30508
30540
30502
30447
30292
30276
30453
30462
30473
30459
30420
30308
30145
30140
30262
30471
30578
30704
30689
30711
30724
30726
30895
30900
30964
30890
30740
30751
30863
30777
30686
30918
30952
31119
31280
31351
31414
31420
31527
31534
31536
31542
31620
31701
31706
31656
31668
31623
31566
31542
31521
31555
31588
31678
31799
31873
31877
31789
31751
31920
31948
31988
31929
31892
31710
31792
31834
31737
31650
31807
31831
31840
31822
31820
31719
31634
31655
31670
31806
31841
31881
31928
31964
31887
31772
31692
31742
31896
31935
32006
32117
32198
32143
32041
32157
32279
32299
32272
32263
32235
32140
32025
31910
31825
31678
31598
31389
31338
31301
31305
31342
31524
31623
31662
31751
31843
31967
32069
32194
32191
32242
32268
32166
31937
31821
31753
31751
31708
31665
31695
31818
31941
32104
32200
32300
32235
32122
32103
32141
32213
32166
32118
32046
31969
31912
31780
31598
31449
31344
31464
31558
31663
31782
31873
31862
31849
31842
32089
32229
32318
32326
32320
32220
32081
31940
31868
31935
31921
31906
31904
31886
31820
31811
31777
31748
31793
31839
31871
32006
31991
32000
32020
31962
31879
31783
31552
31487
31412
31374
31338
31416
31533
31659
31627
31788
31893
31884
31864
31837
31815
31713
31596
31533
31502
31480
31463
31443
31441
31516
31588
31671
31772
31932
32052
32057
32102
32141
32209
32319
32580
32684
32730
32692
32625
32639
32641
32582
32500
32383
32398
32575
32626
32679
32702
32708
32732
32751
32799
32766
32652
32556
32414
32405
32372
32234
32197
32150
32038
31877
31834
31846
31873
31913
31828
31744
31696
31580
31506
31302
31180
31217
31340
31492
31608
31874
32280
32775
33364
33988
34655
35524
36577
37753
38940
40179
41433
42738
44183
45382
46756
48016
49175
50098
50766
51158
51463
51681
51871
51859
51623
51111
50376
49432
48244
46883
45257
43456
41758
40098
38441
36753
35164
33582
32162
30874
29777
28901
28267
27901
27737
27687
27791
27973
28096
28151
28300
28372
28406
28469
28447
28336
28323
28452
28505
28533
28463
28432
28508
28580
28705
28943
29113
29229
29325
29391
29327
29330
29415
29431
29398
29392
29460
29580
29606
29678
29724
29690
29742
29736
29705
29503
29449
29489
29676
29865
29959
29988
30044
30035
29990
29990
29974
29916
29797
29732
29711
29605
29616
29757
29840
29879
29988
30155
30292
30476
30584
30716
30658
30487
30580
30781
30699
30534
30650
30711
30684
30695
30724
30620
30558
30458
30451
30530
30656
30755
30916
31068
31140
31172
31078
31023
31133
31231
31237
31129
31057
31034
30975
31065
31078
31079
31127
31207
31278
31350
31334
31300
31350
31331
31268
31177
31111
31071
30988
30952
30965
31000
30974
30930
30848
30735
30759
30914
30998
31076
31190
31238
31252
31308
31540
31639
31665
31652
31641
31633
31593
31537
31398
31335
31400
31391
31359
31321
31414
31572
31756
31975
32084
32217
32215
32165
32063
32046
31877
31775
31649
31638
31612
31716
31802
31847
31882
31908
31980
32165
32263
32161
32121
32026
31913
31919
31983
31914
31912
31972
32031
32080
32000
31954
31892
31830
31778
31808
32006
32160
32207
32340
32308
32227
32041
32068
32213
32182
32116
32036
31980
31838
31823
31758
31756
31724
31886
31935
32021
31994
32015
32017
32085
32228
32307
32287
32282
32205
32132
31946
31804
31756
31738
31760
31837
31876
31972
32007
31996
31982
32038
32004
31876
31697
31700
31853
31916
31791
31624
31621
31589
31621
31592
31552
31415
31425
31532
31612
31703
31724
31701
31772
31857
32003
32094
32144
31964
32013
31922
31863
31710
31543
31345
31252
31193
31182
31238
31394
31503
31607
31732
31660
31611
31804
31844
31687
31376
31239
31239
31132
31034
31012
30932
30796
30689
30632
30636
30806
30836
30902
30942
30938
31031
31030
30988
30807
30828
30834
30836
30763
30627
30520
30488
30528
30532
30552
30496
30432
30429
30468
30535
30678
30842
30932
31002
31062
31052
30933
30769
30596
30401
30225
30116
30057
30212
30337
30444
30479
30530
30649
30716
30737
30716
30727
30743
30791
30886
30878
30958
30738
30646
30783
30863
30900
30824
30820
30834
30853
30836
30977
31174
31284
31348
31353
31231
31084
30942
30817
30932
30959
30940
30950
30830
30736
30631
30673
30862
30987
31009
31111
31140
31088
30978
30938
30926
30888
30901
30853
30841
30703
30524
30373
30394
30375
30420
30482
30436
30388
30504
30665
30844
31029
31143
31162
31165
31117
31030
30984
31012
30860
30787
30599
30456
30340
30415
30452
30476
30420
30481
30445
30540
30780
30916
30999
31082
31210
31164
31090
30898
30727
30613
30517
30511
30593
30660
30781
30887
30853
30797
30780
30815
30905
30942
30951
30967
30841
30732
30645
30611
30495
30446
30343
30247
30177
30183
30215
30266
30247
30232
30162
30188
30234
30078
29952
29901
29804
29825
29871
30005
30071
30048
29952
29855
29772
29740
29893
30037
30188
30334
30258
30340
30359
30374
30372
30375
30457
30479
30542
30572
30418
30311
30227
30081
29932
29852
29864
29896
29982
30044
30118
30309
30266
30180
30185
30182
30271
30274
30195
30043
29895
29859
29894
30074
30156
30174
30165
30024
29861
29947
30034
30210
30303
30408
30369
30308
30246
30195
30172
30202
30269
30286
30279
30295
30379
30339
30246
30206
30254
30383
30531
30630
30711
30639
30512
30448
30356
30308
30328
30270
30191
30127
30029
30028
30100
30087
29945
29959
30014
30160
30214
30250
30276
30295
30207
30151
30139
30180
30164
30232
30173
30132
30081
30136
30208
30167
30125
30181
30239
30298
30487
30562
30544
30543
30538
30556
30536
30577
30591
30644
30546
30490
30514
30405
30345
30335
30414
30454
30599
30643
30681
30742
30754
30822
30759
30690
30673
30591
30546
30587
30777
30820
30860
30861
30852
30820
30836
30855
30853
30895
30847
30825
30812
30774
30757
30802
30806
30724
30623
30541
30422
30289
30205
29999
29846
29843
29866
29928
30074
30234
30308
30360
30429
30425
30414
30441
30372
30309
30212
30055
30000
29839
29791
29828
29845
30086
30182
30248
30367
30505
30507
30519
30415
30517
30541
30508
30502
30503
30459
30393
30424
30370
30439
30556
30622
30663
30702
30768
30660
30508
30513
30605
30744
30787
30764
30717
30596
30522
30489
30441
30534
30550
30502
30505
30468
30410
30357
30282
30356
30572
30724
30740
30677
30619
30583
30538
30394
30176
29916
29703
29498
29348
29284
29312
29561
29709
29907
30240
30678
31169
31819
32542
33287
34179
35173
36162
37313
38509
39700
40863
42108
43505
44866
46063
46974
47615
48236
48759
49147
49429
49592
49611
49391
48832
48068
47062
45728
44070
42362
40559
38744
37047
35417
33848
32466
31266
30264
29442
28564
27863
27511
27342
27333
27383
27354
27436
27427
27430
27324
27095
26960
26888
26751
26620
26637
26704
26793
27004
27293
27489
27631
27754
27903
28002
28128
28271
28373
28444
28445
28444
28488
28468
28444
28463
28452
28450
28464
28593
28728
28861
28986
29052
29102
29189
29301
29413
29452
29468
29452
29384
29306
29165
29058
29148
29224
29357
29289
29290
29390
29468
29460
29415
29334
29312
29243
29447
29479
29457
29357
29246
29086
29001
29047
29086
29109
29130
29136
29205
29220
29335
29468
29722
29882
29948
30044
29926
30038
30031
29957
29919
29813
29668
29742
29801
29876
29921
30086
30225
30310
30424
30597
30703
30637
30678
30687
30713
30775
30823
30897
30868
30833
30780
30630
30509
30436
30420
30408
30414
30494
30665
30810
30876
30902
30936
30947
30903
30871
30887
30938
30967
30958
31005
30933
30876
30833
30919
31024
31012
30948
30961
31033
31026
31074
31179
31278
31508
31634
31620
31508
31365
31302
31332
31357
31399
31412
31492
31498
31454
31430
31487
31724
31855
31988
32092
32154
32093
32082
32115
32108
32052
32019
31957
31964
31996
32021
32101
32106
32032
31997
32021
31975
32100
32149
32220
32239
32173
32100
32004
31924
31788
31703
31630
31806
31891
31908
31996
31984
31959
32159
32453
32606
32589
32492
32488
32631
32652
32682
32718
32599
32412
32263
32290
32220
32154
32171
32247
32246
32228
32244
32301
32414
32536
32647
32700
32569
32564
32545
32504
32415
32365
32223
32186
32305
32368
32377
32470
32444
32367
32438
32527
32575
32590
32585
32458
32353
32295
32206
32116
32124
32012
31925
31764
31631
31573
31596
31607
31679
31768
31821
31872
31903
31858
31847
31886
31884
31850
31816
31740
31647
31479
31391
31330
31191
31091
30988
30918
30799
30829
30758
30845
30930
31039
31145
31200
31226
31215
31076
30930
30811
30711
30669
30617
30533
30536
30502
30551
30524
30466
30543
30680
30764
30784
30821
30892
30836
30711
30588
30426
30284
30232
30220
30207
30164
30081
29987
29933
29970
29935
29911
29963
30143
30313
30502
30582
30745
30804
30713
30541
30336
30254
30213
30177
30190
30126
30010
29942
29978
30031
30108
30196
30373
30537
30698
30754
30841
30858
30814
30694
30618
30509
30517
30530
30582
30643
30679
30628
30528
30567
30715
30844
30936
30997
31052
31135
31038
30990
31065
31060
30955
30841
30691
30557
30437
30452
30517
30517
30623
30727
30687
30672
30635
30743
30955
31041
31076
31041
30980
30993
31164
31165
31043
30932
31015
31092
31111
31079
30967
30959
31142
31233
31289
31439
31485
31428
31309
31310
31348
31385
31351
31239
31092
31002
30967
31087
31068
31123
31123
31206
31335
31480
31708
31899
32007
31940
31869
31760
31691
31714
31682
31862
31836
31796
31704
31492
31640
31679
31695
31713
31695
31618
31652
31825
31897
31983
31805
31750
31751
31704
31668
31637
31402
31407
31586
31611
31717
31658
31536
31655
31684
31740
31684
31748
31904
31839
31819
31736
31665
31706
31736
31697
31634
31518
31330
31398
31513
31564
31500
31561
31764
31950
31990
32041
32028
31958
31934
31996
32015
31922
31846
31686
31473
31422
31444
31553
31470
31424
31424
31388
31538
31556
31638
31655
31720
31758
31966
32126
32212
32326
32335
32239
32110
31916
31886
31933
32035
32148
32225
32305
32295
32263
32338
32484
32449
32493
32532
32597
32615
32561
32478
32429
32303
32322
32165
32156
32040
31936
31857
31874
32044
32134
32174
32299
32336
32398
32421
32479
32570
32614
32642
32694
32716
32675
32549
32466
32537
32613
32762
32824
32892
33012
33076
33120
33216
33082
33066
33118
33078
32967
32834
32656
32550
32535
32545
32580
32663
32734
32804
32810
32799
32942
33046
33231
33375
33364
33356
33276
33053
32975
32892
32832
32720
32615
32615
32470
32351
32322
32340
32420
32511
32551
32598
32628
32654
32680
32686
32679
32673
32690
32589
32487
32418
32346
32334
32277
32191
32229
32314
32460
32589
32636
32732
32902
32932
32932
32896
32901
32869
32820
32751
32740
32703
32647
32663
32697
32673
32662
32649
32740
32852
32935
33020
33007
32984
32944
32916
32831
32919
32830
32788
32645
32497
32336
32287
32294
32253
32236
32143
32127
32293
32302
32367
32366
32348
32358
32314
32292
32098
31930
31675
31450
31254
31191
31226
31364
31500
31677
31940
32295
32692
33244
33909
34634
35440
36402
37475
38453
39560
40817
42020
43223
44448
45625
46869
47900
48646
49248
49876
50376
50836
51165
51311
51198
50797
50041
49093
47944
46622
45052
43380
41543
39439
37535
35790
34180
32802
31713
30868
30060
29353
28605
28038
27930
28081
28316
28409
28504
28514
28327
27988
27797
27741
27825
27814
27929
27909
27966
28188
28576
28839
29106
29207
29245
29415
29696
29871
29935
29844
29890
30007
29969
29980
29869
29810
29887
30020
30057
30076
30191
30263
30257
30228
30238
30198
30344
30334
30351
30366
30358
30329
30306
30209
30111
30041
30036
30049
30101
30209
30316
30438
30647
30782
30919
31079
31110
31089
31016
30887
30760
30616
30557
30556
30654
30685
30656
30649
30709
30727
30766
30836
30889
30900
30952
30996
30980
30908
30900
30983
31020
31039
30983
31018
30978
30935
30928
30991
31121
31222
31184
31290
31492
31620
31638
31734
31895
32018
31999
31839
31729
31725
31660
31556
31533
31422
31312
31348
31476
31567
31605
31580
31583
31590
31700
31953
32076
32111
32111
32116
31999
31880
31766
31786
31904
31927
32004
32039
32154
32198
32209
32307
32512
32596
32618
32620
32607
32582
32583
32525
32444
32341
32239
32205
32217
32291
32276
32263
32207
32165
32159
32161
32162
32202
32418
32613
32900
32997
32997
33007
33004
33041
33052
33044
32990
32943
32884
32879
32886
32945
33084
33230
33311
33393
33404
33423
33486
33510
33572
33535
33441
33415
33263
33166
33156
33102
33031
33005
33055
33124
33122
33047
33059
33071
33182
33215
33297
33380
33460
33376
33212
33070
33064
33230
33198
33266
33264
33234
33218
33263
33398
33508
33690
33844
34014
34119
34231
34278
34216
34136
34071
33925
33716
33580
33412
33426
33426
33448
33500
33564
33628
33701
33767
33796
33711
33687
33648
33668
33578
33495
33372
33205
33089
33040
32943
33009
32921
32842
32789
32753
32783
32859
33004
33134
33052
32920
32825
32796
32762
32713
32628
32468
32396
32268
32107
31996
31917
31800
31607
31511
31471
31550
31580
31724
31731
31685
31713
31721
31660
31554
31413
31233
31148
31135
31063
31026
31044
31092
31111
31133
31220
31333
31454
31660
31798
31893
31948
32032
32058
31956
31744
31552
31532
31508
31484
31413
31316
31222
31121
31154
31151
31149
31164
31229
31366
31479
31668
31677
31644
31632
31615
31684
31621
31678
31849
31838
31891
31770
31721
31746
31942
32030
32108
32122
32076
31917
31899
32061
32069
32103
32074
31943
31837
31784
31788
31768
31676
31615
31452
31324
31495
31596
31686
31821
31916
31844
31841
31855
31969
31960
31947
31957
31961
31890
31866
31970
31956
31969
32037
31968
31941
31886
32013
32164
32198
32233
32263
32213
32164
32100
32087
32162
32199
32192
32168
32221
32168
32172
32174
32251
32390
32443
32465
32530
32559
32519
32490
32488
32455
32375
32250
32199
32166
32167
32187
32220
32165
32034
32014
31999
32020
32026
32132
32237
32316
32404
32425
32388
32327
32183
32191
32222
32262
32263
32251
32191
32087
32106
32136
32084
31986
31946
32109
32216
32220
32159
32263
32513
32599
32582
32516
32405
32284
32086
32002
32068
32029
31964
31953
31934
31885
31964
32132
32263
32407
32447
32316
32329
32453
32399
32315
32213
32160
32080
31956
31962
32110
32132
32213
32199
32156
32164
32290
32532
32675
32788
32917
32964
33006
33075
33071
32928
32853
32885
32863
32794
32743
32765
32623
32429
32363
32308
32420
32458
32490
32573
32652
32687
32759
32810
32712
32711
32672
32668
32674
32812
32814
32863
32940
32965
32932
32941
33006
33096
33108
33314
33375
33372
33436
33352
33271
33196
33015
32879
32753
32804
32831
32844
32852
32838
32880
32911
32951
32948
32900
32959
33007
33048
33055
33081
32994
32964
32963
32914
32870
32775
32722
32803
32791
32862
32913
32996
33135
33246
33317
33319
33295
33300
33344
33540
33543
33535
33532
33567
33542
33445
33314
33268
33167
33178
33159
33214
33331
33436
33464
33501
33552
33582
33570
33565
33550
33467
33391
33268
33197
33286
33253
33270
33268
33193
33225
33294
33381
33455
33449
33449
33380
33404
33470
33540
33575
33458
33324
33159
33055
32964
32942
32980
32932
32919
32921
32941
32988
32988
33031
32985
33047
33076
33057
32967
33103
33062
33046
32981
32985
32942
32895
32915
32927
32916
32953
33094
33211
33228
33188
33068
32959
32920
32967
32938
32890
32890
32799
32707
32583
32588
32764
32823
32887
32894
33049
33221
33277
33254
33389
33540
33583
33492
33370
33172
33082
33063
33084
33090
33052
32999
32882
32790
32858
32969
33014
33101
33140
33119
33076
33068
33052
33027
32951
32870
32726
32665
32535
32399
32273
32215
32098
32082
32175
32324
32493
32879
33296
33831
34492
35079
35734
36506
37447
38532
39713
40823
41980
43245
44595
45976
47170
48159
49182
50095
50864
51500
52031
52502
52786
52861
52687
52157
51276
50265
48967
47534
45949
44174
42108
40372
38705
36996
35269
33713
32542
31482
30671
29885
29169
28821
28771
28905
29007
29037
29063
28877
28638
28551
28597
28549
28486
28577
28620
28572
28702
28952
29110
29231
29287
29368
29346
29318
29284
29468
29698
29755
29815
29788
29596
29594
29711
29723
29818
29938
29933
30018
30028
30108
30174
30326
30537
30647
30652
30534
30505
30477
30441
30399
30449
30638
30682
30718
30694
30631
30717
30814
30967
31108
31232
31310
31332
31201
31164
31166
31307
31348
31358
31493
31574
31502
31417
31487
31593
31729
31772
31770
31697
31696
31761
31980
32078
31940
32101
32033
31998
31991
31948
31879
31796
31783
31900
31868
31966
32060
32158
32231
32266
32310
32398
32441
32446
32458
32611
32596
32559
32428
32356
32230
32088
32045
32104
32314
32396
32464
32566
32477
32428
32516
32627
32775
33006
33078
33093
33087
32980
32925
32827
32722
32687
32794
32830
32891
32849
32790
32847
33053
33260
33386
33479
33542
33471
33476
33604
33535
33436
33362
33252
33262
33381
33353
33376
33321
33255
33196
33284
33460
33583
33678
33772
33885
33854
33773
33658
33578
33590
33615
33594
33607
33581
33541
33508
33529
33588
33701
33844
34055
34184
34202
34160
34180
34196
34117
34027
33900
33956
33954
33965
33799
33809
33901
33903
33919
33878
33845
34014
34089
34217
34215
34434
34366
34496
34604
34478
34532
34506
34345
34349
34330
34354
34209
34273
34306
34253
34105
34180
34295
34369
34278
34476
34730
34792
34718
34732
34789
34811
34669
34588
34692
34620
34458
34416
34568
34615
34679
34631
34750
34906
34975
34989
34893
34731
34642
34624
34748
34722
34600
34501
34360
34231
34118
33998
33885
33775
33745
33826
33838
33935
34049
34084
34086
33994
33869
33911
33887
33841
33780
33599
33405
33339
33324
33239
33087
32968
32825
32663
32615
32692
32818
32920
32986
32911
32788
32871
32878
32806
32620
32446
32470
32466
32415
32161
32102
32244
32308
32311
32216
32239
32462
32560
32500
32391
32359
32324
32308
32253
32108
31963
31971
32080
32156
32146
32124
32046
31937
31895
31921
32068
32077
32074
32078
32129
32061
32022
31954
32028
31951
31973
31919
31710
31697
31815
31834
31936
31931
31796
31815
31975
32028
32045
32070
32052
32000
32004
32068
32093
32068
31991
31955
31940
31918
31917
31879
31826
31942
31975
31977
32054
32069
31977
32062
32286
32351
32358
32300
32288
32214
32113
32100
32217
32255
32272
32297
32376
32403
32421
32394
32392
32463
32534
32587
32600
32549
32436
32519
32506
32452
32580
32567
32460
32425
32544
32654
32663
32667
32718
32742
32826
32878
32961
32972
33012
33142
33176
33281
33158
33015
32990
33030
32964
32927
32897
32824
32871
33006
33049
33124
33042
33031
33096
33151
33100
33167
33180
33217
33320
33314
33196
33159
33127
33225
33238
33322
33322
33344
33366
33391
33415
33460
33653
33703
33670
33509
33263
33176
33184
33365
33413
33386
33404
33312
33188
33135
33136
33148
33300
33330
33342
33415
33474
33364
33390
33361
33414
33417
33376
33347
33347
33301
33260
33186
33236
33423
33543
33673
33656
33612
33549
33557
33636
33663
33656
33721
33612
33412
33266
33193
33167
33148
33113
33159
33207
33196
33111
33119
33248
33308
33426
33485
33423
33380
33329
33403
33335
33295
33364
33448
33540
33612
33557
33500
33534
33562
33742
33764
33772
33840
33882
33893
33844
33814
33873
33975
34004
33972
33970
33902
33756
33628
33604
33700
33777
33754
33725
33697
33712
33799
33909
33927
33841
33860
33922
33942
33892
33879
33812
33596
33526
33625
33565
33573
33377
33327
33391
33536
33623
33687
33751
33748
33766
33937
34003
34060
33948
33869
33950
33888
33816
33644
33503
33422
33503
33565
33576
33543
33484
33551
33749
33881
33908
33824
33849
34004
34010
34036
33917
33701
33656
33719
33808
33845
33863
33844
33796
33707
33845
33976
34055
34091
34047
34023
34020
34140
34230
34212
34245
34220
34166
34036
34050
34193
34279
34212
34026
33895
33957
34020
34141
34278
34380
34328
34206
34183
34181
34249
34172
34132
34084
33997
33888
33831
33774
33698
33823
33871
33942
33966
33973
33975
34030
34292
34346
34311
34130
33850
33740
33763
33711
33647
33563
33442
33343
33239
33205
33140
33122
33199
33356
33418
33495
33594
33658
33631
33532
33518
33490
33492
33436
33467
33461
33469
33340
33207
33169
33308
33332
33530
33551
33521
33695
33703
33717
33682
33633
33575
33511
33460
33580
33644
33636
33637
33695
33686
33636
33647
33687
33783
33943
33932
33919
33858
33783
33701
33654
33784
33771
33764
33722
33524
33280
33375
33367
33359
33441
33325
33468
33599
33529
33723
33783
33645
33702
33661
33492
33235
32968
32708
32694
32582
32406
32231
32294
32385
32592
32577
32606
32916
33509
34078
34670
35174
35729
36543
37423
38490
39449
40533
41644
43024
44284
45264
46580
47844
48962
49847
50548
51152
51640
52119
52423
52607
52500
52031
51373
50580
49513
48239
46684
44856
42887
41038
39234
37518
35773
34279
33052
32146
31278
30490
29878
29422
29179
28973
28998
29213
29278
29143
28926
28760
28679
28624
28757
28822
28912
28959
28997
29285
29499
29605
29830
29984
30058
30204
30471
30611
30772
30703
30487
30452
30412
30495
30494
30531
30589
30558
30507
30570
30751
30767
30859
30812
30711
30804
31070
31101
31143
30913
31022
30997
31031
31044
30988
30911
31044
31086
31215
31290
31361
31443
31468
31455
31446
31496
31751
31765
31716
31654
31542
31506
31557
31583
31577
31599
31585
31508
31441
31445
31580
31881
32030
32093
32127
32167
32037
31987
32057
32007
31916
31862
31732
31543
31462
31393
31545
31543
31669
31792
31839
31840
31827
31942
32020
32025
31982
31909
31794
31692
31718
31751
31930
32066
31901
31892
32095
32168
32169
32191
32228
32220
32286
32400
32476
32600
32620
32631
32692
32605
32530
32430
32402
32359
32393
32445
32429
32384
32344
32378
32591
32647
32725
32788
32716
32611
32436
32279
32359
32375
32372
32341
32356
32433
32594
32625
32618
32639
32666
32730
32769
32983
33023
33013
33143
33198
33218
33188
33040
32900
32851
32831
32813
32949
32965
33056
33066
33039
33069
33176
33237
33351
33396
33479
33512
33536
33487
33506
33391
33393
33414
33332
33318
33270
33216
33175
33201
33167
33148
33182
33255
33400
33451
33537
33526
33524
33556
33503
33644
33703
33781
33799
33809
33735
33662
33539
33531
33679
33642
33659
33615
33722
33885
33986
34016
34077
34143
34084
33975
33839
33796
33689
33653
33575
33708
33788
33900
34024
34141
34229
34283
34245
34268
34245
34390
34397
34375
34342
34215
34073
33948
33892
33858
33847
33797
33743
33638
33572
33520
33386
33350
33391
33399
33517
33559
33588
33600
33597
33570
33543
33526
33499
33392
33252
33317
33287
33100
33201
33234
33145
33123
33015
32993
32926
32807
32727
32652
32572
32415
32503
32508
32481
32423
32359
32354
32315
32310
32263
32302
32376
32452
32543
32597
32655
32685
32659
32582
32622
32516
32425
32359
32245
32339
32347
32326
32263
32239
32304
32279
32229
32161
32143
32211
32204
32349
32420
32455
32340
32256
32263
32275
32287
32308
32230
32294
32430
32555
32641
32613
32628
32708
32764
32903
33001
33028
32964
32884
32775
32703
32637
32556
32546
32487
32431
32468
32564
32694
32807
32916
32988
33030
33102
33174
33199
33145
33042
32938
32827
32712
32631
32603
32588
32695
32747
32703
32681
32726
32696
32692
32766
32809
32799
32796
32804
32863
32775
32741
32666
32788
32814
32802
32684
32717
32909
32995
33015
32993
33005
33117
33334
33468
33568
33573
33557
33484
33487
33439
33441
33391
33316
33285
33254
33118
32970
32884
32852
32903
32942
32965
33060
33192
33346
33469
33558
33591
33647
33704
33673
33543
33479
33396
33194
33080
33120
33223
33279
33347
33385
33511
33525
33621
33679
33818
33845
33780
33764
33759
33723
33581
33407
33463
33487
33466
33447
33415
33423
33379
33383
33479
33602
33799
33957
34039
34104
34028
33934
33761
33703
33613
33520
33495
33500
33399
33324
33180
33055
33036
33044
33150
33235
33235
33372
33436
33423
33404
33279
33225
33215
33204
33167
33100
33068
32988
32908
32851
32839
32974
33063
33046
33086
33068
33079
33108
33180
33162
33309
33297
33124
33129
32986
32881
32804
32748
32719
32703
32678
32704
32656
32687
32718
32840
32938
33050
33127
33222
33333
33306
33185
32983
32914
32834
32871
32853
32846
32879
32724
32655
32601
32706
32679
32697
32679
32614
32607
32720
32834
32852
32815
32774
32734
32586
32454
32334
32320
32394
32362
32314
32214
32268
32347
32620
32854
32979
33111
33134
33006
32871
32800
32743
32687
32620
32535
32570
32559
32564
32612
32687
32638
32551
32525
32655
32685
32655
32713
32703
32664
32519
32429
32402
32327
32256
32134
32115
32161
32143
32161
32151
32156
32094
32080
31981
31884
31782
31852
31848
31921
31995
31991
31895
31787
31736
31702
31732
31663
31626
31554
31434
31451
31486
31602
31740
31844
32016
31942
31718
31658
31702
31671
31636
31583
31525
31437
31430
31525
31470
31406
31463
31460
31480
31558
31641
31749
31781
31841
31930
31946
31882
31745
31476
31396
31396
31607
31687
31708
31800
31855
31828
31883
32013
32104
32103
32108
32127
32119
32110
32155
32080
32007
31957
31887
31744
31641
31526
31423
31268
31213
31196
31265
31326
31351
31370
31489
31455
31340
31321
31393
31486
31531
31558
31432
31305
31143
30996
30950
30855
30868
30791
30734
30652
30599
30644
30647
30639
30377
30445
30452
30233
30304
30204
30060
30190
30010
30048
30032
29981
29871
29869
30064
30169
30084
29997
30018
30056
30199
30161
30068
29836
29703
29698
29619
29584
29432
29416
29399
29561
29590
29652
29590
29477
29784
29916
29918
29852
29816
29886
29855
29774
29562
29386
29244
29316
29409
29372
29392
29279
29143
29113
29222
29256
29305
29341
29226
29047
29059
29140
29117
29015
28807
28836
28887
28856
28798
28733
28534
28314
28269
28159
27992
27638
27385
27372
27323
27190
27071
27068
27143
27403
27589
27816
28016
28551
29252
29860
30438
31215
32157
33204
34290
35476
36823
38104
39420
40767
41908
43070
44092
44818
45333
45718
46030
46132
46311
46253
45972
45388
44639
43873
42812
41351
39838
38181
36404
34719
33014
31300
29660
28252
26806
25634
24658
23721
23153
22841
22682
22655
22625
22558
22556
22386
22365
22298
22318
22358
22364
22426
22516
22516
22405
22567
22666
22798
22901
22921
22920
22798
22829
22984
23261
23392
23467
23559
23526
23452
23282
23291
23292
23374
23311
23285
23109
22959
22839
22828
22878
22911
22946
23031
22975
22870
22802
22975
23120
23246
23239
23064
22820
22710
22757
22759
22807
22766
22559
22383
22385
22337
22412
22501
22554
22396
22309
22167
22183
22228
22262
22332
22297
22223
22157
21932
21864
21645
21658
21786
21876
21983
22045
22028
22048
21986
22044
21982
22002
22158
22332
22522
22478
22318
22303
22310
22340
22263
21926
21919
21977
22060
22078
22040
21992
21946
21655
21551
21658
21688
21654
21596
21499
21412
21305
21220
21199
21148
21126
20778
20633
20681
20740
20868
20957
20918
21046
21079
21028
20968
20722
20425
20350
20462
20474
20564
20542
20409
20272
20134
20047
19955
20063
20077
20209
20282
20391
20566
20711
20686
20706
20917
20705
20476
20361
20269
20199
20242
20289
20261
20308
20350
20362
20364
20449
20445
20486
20615
20657
20743
20845
21024
20904
20742
20640
20634
20680
20795
20868
20965
20836
20747
20852
20924
21137
21326
21410
21324
21228
21124
21202
21326
21364
21361
21294
21103
20927
20684
20737
20814
20844
20782
20755
20687
20791
20903
21109
21127
21105
21133
21111
21314
21464
21638
21745
21714
21623
21351
21255
21337
21359
21333
21258
21065
20885
20797
20760
20943
21064
21067
21058
20904
20714
20739
20815
20805
20861
20868
20691
20526
20338
20270
20344
20331
20564
20661
20730
20807
20700
20742
20614
20610
20662
20649
20595
20416
20168
20006
19958
20026
20110
20142
20014
19871
19958
19991
20093
20180
20220
20117
19983
19720
19716
19638
19687
19711
19639
19488
19375
19262
19300
19444
19546
19674
19578
19453
19436
19411
19518
19592
19593
19478
19478
19407
19359
19377
19359
19457
19592
19690
19602
19466
19500
19540
19650
19751
19636
19636
19780
19883
19697
19610
19688
19912
19988
19892
19752
19722
19650
19663
19751
19872
19758
19646
19715
19879
20128
20257
20362
20457
20503
20463
20429
20362
20227
20309
20527
20715
20886
20842
20856
20884
20913
21167
21340
21448
21477
21529
21465
21615
21840
21836
21689
21640
21756
21833
21860
21691
21593
21501
21633
21720
21875
21868
21732
21647
21839
22038
22067
22210
22450
22164
22340
22442
22519
22319
22277
22404
22525
22594
22655
22629
22578
22654
22819
22970
23020
23070
23118
23142
23055
22978
22839
22817
22902
22911
22981
23078
23248
23219
23149
23096
23093
23325
23510
23655
23711
23671
23683
23642
23599
23777
23994
24141
24198
24244
24145
24064
23895
24061
24263
24077
24292
24442
24384
24318
24306
24434
24658
24729
24698
24676
24554
24603
24838
24889
24913
24824
24779
24976
25004
25112
25124
25166
25202
25414
25647
25812
25964
25949
25883
25913
26076
26085
26103
26060
26044
26009
26180
26426
26566
26657
26826
26839
26851
26837
26932
27204
27324
27383
27365
27357
27494
27746
27857
27908
27871
27886
28038
28021
28048
28053
28130
28215
28308
28543
28703
28811
28957
28999
28917
28889
29067
29110
29159
29151
29183
29196
29225
29305
29348
29552
29751
29921
30025
30000
30001
30014
30166
30245
30310
30253
30295
30265
30316
30438
30412
30457
30419
30450
30470
30479
30626
30839
30996
31069
31242
31422
31519
31631
31716
31765
31718
31628
31616
31653
31703
31684
31677
31770
31851
31969
32070
32244
32303
32333
32457
32484
32519
32599
32625
32597
32518
32548
32586
32623
32660
32693
32694
32802
32986
33144
33167
33106
33150
33212
33332
33420
33494
33583
33683
33799
33770
33711
33750
33683
33600
33639
33627
33658
33615
33556
33454
33399
33399
33407
33474
33553
33564
33607
33691
33738
33735
33647
33727
33827
33831
33865
33879
33889
33903
33934
33992
33991
34041
34070
34108
34309
34508
34513
34523
34454
34375
34325
34263
34326
34286
34214
34079
34088
34126
34223
34230
34215
34225
34289
34428
34535
34605
34663
34629
34588
34595
34562
34598
34686
34719
34677
34655
34668
34675
34711
34831
34980
35173
35350
35445
35540
35580
35620
35663
35715
35755
35815
35924
35962
35967
35956
35974
35972
35959
35975
35975
35988
36075
36148
36149
36286
36476
36543
36575
36735
36877
36953
36978
36966
36975
36983
36999
37028
37105
37221
37353
37500
37647
37843
38002
38148
38199
38285
38326
38347
38375
38407
38518
38636
38804
38868
38916
38877
38900
38970
39072
39186
39283
39303
39351
39461
39476
39588
39602
39565
39623
39670
39710
39785
39749
39687
39714
39756
39839
39969
40020
40007
39998
40068
40140
40272
40420
40580
40596
40615
40532
40431
40319
40279
40216
40126
40082
40079
40118
40262
40295
40438
40580
40742
40838
40922
41021
41060
41023
41019
40883
40741
40602
40599
40582
40608
40839
40947
41055
41160
41322
41454
41505
41520
41448
41447
41383
41469
41552
41830
41937
41969
41991
41930
41831
41710
41556
41722
41830
41989
42119
42215
42220
42166
42206
42207
42276
42355
42471
42439
42519
42526
42564
42622
42619
42599
42638
42557
42526
42647
42638
42668
42612
42503
42375
42156
41991
41916
41871
41879
42143
42247
42426
42678
43055
43548
44107
44656
45182
45889
46718
47684
48772
49896
51144
52412
53888
55266
56588
57863
59060
59949
60716
61335
61758
62049
62207
62385
62392
62188
61678
60935
60103
59028
57793
56308
54639
52860
51065
49435
47835
46247
44925
43748
42626
41607
40759
40136
39807
39666
39796
39924
40014
40093
40081
40066
40031
40023
39885
40143
40239
40327
40408
40453
40390
40647
40799
40967
41022
40901
41300
41666
41988
42204
42180
42178
42430
42628
42559
42367
42474
42607
42668
42462
42268
42447
42516
42602
42591
42503
42424
42234
42500
42666
42883
42967
42988
43015
43231
43366
43371
43095
42846
42964
43054
43141
43158
43247
44286
45439
46396
47871
49098
50232
51350
52429
53305
54093
54782
55231
56012
56520
56998
57388
57673
57919
58118
58496
58932
59460
59808
60047
60352
60728
61132
61549
61736
61959
62162
62250
62332
62324
62386
62468
62613
62647
62663
62670
62708
62822
62964
62983
62983
63068
63079
62938
63156
63248
63159
63034
62831
62599
62500
62429
62439
62327
62152
61959
61748
61652
61614
61556
61471
61423
61517
61549
61495
61356
61284
61090
61031
60967
60862
60535
60231
59956
59741
59540
59491
59316
59089
58975
58897
58918
58844
58772
58751
58615
58603
58607
58535
58441
58279
58084
58047
57990
57948
57950
57839
57772
57796
57836
57846
57858
57767
57732
57692
57604
57453
57263
56839
56807
56655
56508
56284
56028
55828
55678
55559
55469
55391
55438
55452
55394
55215
55198
55173
55108
54903
54654
54263
54039
53748
53492
53359
53285
53051
52719
52539
52383
52295
52212
52052
51798
51711
51638
51676
51632
51577
51551
51463
51317
51196
51100
50943
50599
50732
50670
50695
50792
50884
50873
50821
50813
50778
50628
50951
51068
51127
51086
50807
50516
50351
50183
49946
49583
49575
49519
49527
49445
49366
49109
48799
48410
48327
48252
48233
48239
48250
48219
48148
48132
48089
47973
47816
47708
47494
47184
47335
47310
47226
47111
47013
46914
46854
46713
46495
46290
46019
45957
45866
45795
45655
45434
45139
44858
44655
44521
44459
44363
44307
44270
44108
44039
44167
43902
43737
43655
43527
43345
43079
42746
42353
41822
41713
41542
41407
41318
41188
40987
40887
40849
40741
40690
40694
40683
40374
40564
40510
40321
40042
40135
40015
39844
39807
39724
39461
39228
39061
38884
38767
38670
38701
38721
38756
38811
39094
39071
38853
38679
38545
38245
38235
38055
37877
37807
37697
37740
37793
37970
38013
38174
38265
38205
38375
38437
38461
38608
38878
38937
38895
38828
38719
38471
38298
38531
38588
38642
38584
38712
38959
39095
39143
39116
39162
39196
39065
39036
39332
39356
39426
39357
39326
39306
39268
39128
38954
38764
38591
38688
38507
38508
38756
38778
38761
38759
38713
38627
38504
38311
38023
37919
37927
37892
37859
37860
37911
37814
37916
37994
37989
37964
37760
37623
37816
37757
37687
37550
37435
37351
37206
37084
36999
36898
36661
36527
36416
36334
36260
36213
36163
36188
36312
36463
36487
36543
36455
36426
36444
36325
36236
36156
36111
35996
35783
35692
35780
35679
35577
35612
35767
35685
35493
35443
35300
35493
35492
35470
35484
35477
35489
35407
35463
35246
35215
35207
35167
35283
35380
35428
35479
35332
35421
35538
35807
35954
36134
36312
36409
36461
36500
36492
36445
36430
36554
36640
36675
36693
36765
36719
36684
36710
36782
36839
36697
36902
37057
37126
37221
37341
37359
37335
37317
37276
37196
37097
36954
36711
36405
36280
36207
36096
36061
36135
36236
36354
36383
36407
36513
36503
36488
36446
36382
36141
36142
35910
35833
35809
35813
35812
35758
35702
35686
35611
35416
35397
35392
35323
35322
35349
35300
35204
35109
35125
34982
35144
35070
34935
34733
34780
34748
34698
34711
34813
34816
34656
34682
34641
34524
34572
34633
34480
34335
34139
34055
33947
33877
33942
33863
33860
33890
33869
34047
34260
34364
34440
34359
34541
34420
34249
34239
34196
34118
33982
33927
33797
33599
33694
33649
33642
33500
33419
33348
33548
33572
33626
33711
33727
33655
33409
33213
33223
33123
33095
32964
32983
32899
32982
32922
32775
32647
32571
32557
32519
32535
32580
32839
32823
32774
32634
32620
32541
32466
32364
32311
32190
32247
32146
32060
32038
31976
31867
31886
31902
31946
31854
31712
31900
31876
31819
31733
31623
31441
31377
31235
31044
30884
30965
30908
30839
30879
30886
30930
30938
31028
31044
31057
31237
31176
31122
31015
30983
30853
30778
30709
30727
30661
30740
30655
30551
30411
30371
30324
30461
30518
30469
30425
30663
30620
30538
30464
30316
30270
30072
29903
29720
29716
29585
29541
29584
29610
29668
29753
29932
30040
30058
30004
30194
30229
30180
30158
30168
30101
30171
30231
30292
30246
30258
30278
30204
30148
30402
30494
30528
30527
30613
30682
30596
30623
30642
30543
30471
30470
30379
30295
30062
30161
30092
30107
30027
29965
29848
29767
29675
29634
29648
29641
29717
29713
29830
29734
29572
29505
29365
29286
29268
29175
29119
29303
29248
29210
29187
29202
29253
29328
29486
29581
29612
29610
29596
29529
29478
29390
29247
29084
29051
29062
28986
28966
28991
28990
29018
28999
29140
29184
29148
29127
29105
29058
28950
29011
28918
28761
28663
28463
28367
28404
28292
28207
28093
28071
28069
27903
27742
27655
27511
27340
27092
26884
26643
26415
26212
25870
25828
25682
25548
25428
25303
25247
25177
25120
25036
24994
24947
25149
25146
25149
25143
25141
25063
25010
24780
24797
24623
24408
24277
24045
24096
24132
24201
24253
24445
24482
24868
25230
25621
26079
26718
27388
27967
28606
29502
30351
31381
32412
33679
34943
36190
37668
39044
39942
41314
42457
43452
44250
44805
45188
45495
45608
45582
45207
44669
44144
43232
41990
40548
38784
37164
35398
33718
31958
30267
28658
27310
26183
25086
24269
23690
23234
22988
22865
22804
22726
22643
22484
22337
22500
22545
22436
22356
22132
22351
22457
22651
22810
22887
22933
22881
22937
23187
23222
23311
23386
23453
23476
23556
23537
23628
23909
23967
24035
24120
24172
24286
24338
24420
24637
24678
24790
24815
24772
24777
24517
24623
24554
24489
24390
24343
24434
24411
24464
24557
24894
25063
25173
25327
25442
25357
25652
25740
25758
25743
25706
25699
25559
25726
25739
25728
25684
25695
25766
25776
25749
25810
25848
25862
26163
26247
26223
26192
26254
26223
26220
26414
26492
26514
26527
26510
26550
26584
26517
26581
26807
26935
27124
27271
27332
27330
27327
27331
27308
27252
27217
27282
27206
27093
27004
26920
26853
26849
27019
27183
27326
27317
27547
27628
27647
27622
27654
27723
27698
27629
27758
27678
27660
27562
27459
27271
27164
27317
27295
27343
27372
27514
27659
27866
28172
28245
28298
28390
28356
28267
28279
28294
28177
28342
28306
28294
28238
28241
28516
28664
28767
28831
28978
28995
29236
29306
29300
29316
29210
29151
29402
29416
29407
29427
29444
29653
29660
29617
29567
29646
29726
30055
30141
30181
30230
30238
30148
30204
30226
30119
30037
29969
29807
29850
29791
29772
29717
29762
29844
30034
30129
30254
30537
30604
30684
30774
30839
30831
30898
30773
30657
30708
30577
30520
30424
30482
30687
30758
30796
30796
30844
31052
31035
31006
31095
31040
31228
31363
31315
31294
31236
31218
31125
31047
31206
31207
31204
31207
31221
31218
31117
31171
31199
31185
31197
31118
31215
31332
31475
31377
31319
31364
31232
31106
30975
30948
30916
31015
31044
31127
31111
31199
31207
31234
31260
31290
31311
31316
31269
31263
31197
31095
31057
30974
31132
31015
30917
30930
30863
30890
30785
30743
30796
30738
30702
30674
30668
30492
30324
30439
30284
30210
30215
30187
30140
30041
29919
29812
29756
29757
29813
29832
29885
29903
29921
29927
29970
30119
30123
30040
29910
29953
29988
29842
29632
29775
29703
29638
29575
29520
29556
29626
29592
29752
29916
29959
29989
29917
29914
29837
29998
29972
29916
29925
29882
29729
29796
29860
29858
29922
29942
29913
29945
29936
29984
29881
29891
30007
29975
29977
30010
30031
30036
29989
29922
29938
29965
29949
30052
30170
30244
30284
30330
30389
30373
30451
30437
30460
30337
30463
30315
30204
30081
30079
30086
29974
30046
30067
30160
30243
30230
30202
30406
30394
30379
30349
30421
30434
30516
30482
30532
30487
30428
30516
30407
30582
30598
30643
30695
30675
30689
30703
30660
30708
30659
30908
30844
30843
30764
30681
30659
30629
30628
30613
30576
30493
30470
30536
30634
30677
30893
30918
30892
30876
30983
30983
31077
31095
31124
31020
30917
30772
30882
30895
30956
31007
31066
31079
31049
31069
31175
31284
31343
31383
31370
31391
31375
31447
31347
31289
31439
31447
31516
31516
31493
31431
31376
31315
31258
31271
31382
31406
31444
31388
31361
31375
31574
31622
31623
31625
31518
31502
31335
31485
31508
31526
31551
31495
31612
31690
31725
31780
32072
32171
32181
32250
32263
32263
32130
32228
32114
31934
31868
31876
31871
31835
31776
31852
31887
31911
31898
31889
31839
31924
31986
32016
32033
31871
31977
31903
31821
31727
31620
31557
31642
31648
31604
31564
31486
31463
31534
31549
31615
31837
31823
31738
31622
31585
31429
31351
31264
31366
31406
31349
31333
31239
31263
31268
31373
31721
31799
31780
31912
31941
32074
32060
31978
31837
31778
31723
31593
31530
31655
31649
31593
31582
31606
31534
31599
31511
31566
31844
31948
31820
31842
31845
31811
31844
31749
31841
31780
31751
31666
31567
31427
31446
31479
31578
31663
31775
31844
32178
32303
32320
32301
32231
32324
32361
32244
32298
32173
32066
31996
31935
31815
31726
31745
31714
31716
31767
31847
31965
32023
32091
32250
32249
32254
32258
32238
32135
31991
31907
31967
31948
31930
31844
31926
31980
32203
32296
32309
32193
32200
32164
32346
32320
32293
32296
32242
32352
32251
32185
32223
32138
32399
32433
32415
32472
32484
32617
32605
32565
32605
32674
32639
32751
32612
32430
32332
32181
32236
32127
32046
31974
32022
32007
32002
31948
32143
32158
32116
32034
32098
32004
32214
32244
32123
32158
32068
32073
32020
31878
31797
31894
31809
31750
31692
31617
31662
31715
31756
31903
32052
32113
32154
32124
32091
32102
32057
32012
32047
32053
32086
31989
31957
32086
31985
31934
31952
32042
32118
32367
32417
32412
32455
32506
32538
32534
32766
32740
32702
32671
32591
32715
32775
32876
32890
32997
33021
33140
33099
33135
33133
33377
33509
33489
33453
33534
33392
33227
33003
32884
32827
32854
32788
32804
32769
32799
32919
32968
33017
33102
33145
33157
33200
33187
33084
33239
33252
33205
33151
33268
33094
32994
32870
32793
32806
32682
32615
32559
32607
32496
32737
32698
32711
32616
32666
32647
32551
32628
32577
32494
32447
32347
32447
32498
32575
32595
32561
32583
32612
32812
32838
32904
32994
32924
32848
32775
32743
32751
32833
32756
32799
32847
32879
33023
33031
32922
32773
32811
32853
32807
33078
33154
33069
33009
32975
33105
33125
33227
33214
33008
33006
32981
32935
33056
32991
32905
32667
32533
32514
32499
32519
32632
32586
32459
32263
32148
32013
31882
31780
31902
31973
32071
32201
32414
32596
33152
33716
34335
34999
35807
36629
37644
38914
40123
41550
42740
43895
44923
46406
47460
48485
49391
50198
50766
51207
51684
52071
52303
52278
51963
51270
50541
49567
48348
46892
45289
43668
41631
39708
37654
36181
34642
33260
32044
30990
30091
29596
29172
28951
28870
29068
29258
29479
29541
29480
29263
29103
28930
28710
28711
28944
29033
29157
29302
29414
29518
29599
29863
29956
30038
30260
30383
30436
30521
30439
30280
30175
30191
30201
30270
30404
30383
30293
30242
30236
30256
30220
30228
30543
30681
30740
30815
30789
30916
30953
30940
30921
30844
30752
30745
30925
30873
30866
30842
30878
30937
30984
30999
31038
31140
31341
31470
31547
31596
31684
31508
31583
31470
31401
31266
31228
31236
31270
31191
31214
31229
31322
31420
31486
31663
31773
31807
31879
31927
31913
31810
31842
31647
31521
31373
31313
31348
31446
31454
31503
31469
31537
31711
31844
31834
31938
32011
32070
32002
32100
32198
32215
32156
32143
32190
32188
32184
32245
32329
32373
32410
32417
32412
32628
32671
32786
32821
32825
32821
32814
32924
32930
32880
32733
32727
32663
32510
32469
32620
32689
32794
32919
33035
33090
33101
33191
33229
33304
33423
33404
33305
33380
33430
33398
33551
33543
33467
33252
33044
33109
33145
33181
33154
33287
33557
33658
33727
33831
33934
33940
33982
34066
34033
34052
34012
34020
34138
34055
33860
33980
34012
34071
34117
34401
34396
34356
34462
34433
34365
34358
34268
34213
34341
34325
34239
34151
34087
34076
34311
34412
34475
34461
34620
34751
34858
34773
35040
34994
34951
34904
34743
34678
34530
34447
34310
34484
34557
34591
34487
34448
34439
34364
34633
34687
34798
34860
34846
34858
35021
35006
34967
34781
34623
34426
34551
34566
34599
34580
34517
34684
34734
34735
34620
34798
34798
34719
34708
34868
34877
34670
34804
34721
34580
34509
34664
34631
34481
34270
34311
34244
34260
34311
34260
34180
33932
33902
33932
33799
34023
33894
33720
33687
33535
33404
33476
33332
33127
32933
32855
32719
32867
32847
32744
32887
32865
33071
33010
32783
32805
32826
32655
32647
32725
32655
32590
32500
32388
32271
32241
32446
32561
32543
32603
32659
32613
32804
32754
32654
32670
32585
32397
32398
32285
32111
31927
31799
31775
31614
31567
31407
31626
31612
31537
31397
31470
31482
31473
31465
31538
31495
31468
31440
31427
31343
31306
31225
31143
31031
30948
31105
31114
31185
31266
31452
31487
31468
31607
31570
31500
31366
31341
31326
31185
31230
31423
31345
31263
31354
31357
31541
31588
31610
31731
31836
31908
32187
32310
32343
32338
32349
32363
32279
32263
32423
32339
32248
32154
32136
32071
32121
32324
32383
32447
32447
32504
32547
32628
32679
32732
32927
32910
32875
32796
32694
32591
32672
32721
32657
32840
32841
32812
32751
32717
32764
32772
32905
32885
32900
33037
33218
33126
33020
32846
32724
32645
32518
32735
32727
32708
32832
32923
32964
32975
32879
32920
32918
32964
33055
33099
33194
33053
32884
32710
32646
32597
32575
32581
32626
32614
32611
32599
32613
32692
32746
32804
32839
32820
32785
32890
32935
32915
32869
32791
32774
32572
32438
32348
32300
32245
32252
32253
32356
32415
32445
32532
32607
32693
32836
32852
32811
32870
32938
32885
32820
32775
32794
32804
32743
32719
32727
32733
32775
32804
32884
32905
32957
32892
32932
32900
32788
32950
32852
32775
32725
32705
32629
32567
32540
32500
32487
32452
32457
32487
32597
32756
32879
32947
33035
33045
32910
32844
32601
32477
32350
32208
32285
32447
32561
32626
32636
32775
32903
33004
33123
33029
33113
33134
33152
33208
33174
33100
32994
32850
32822
32775
32857
32748
32685
32668
32615
32604
32674
32794
32934
32990
33030
33094
33101
33113
33071
33009
32924
32772
32772
32742
32757
32743
32866
32961
33156
33284
33383
33458
33515
33468
33429
33531
33558
33524
33466
33325
33350
33205
33069
32907
32789
32652
32476
32468
32679
32764
32928
33039
33210
33229
33260
33278
33224
33201
33137
33031
32956
33022
33022
32935
32804
32661
32544
32644
32615
32615
32628
32628
32733
32869
32948
33035
33158
33190
33126
32996
33094
33127
33089
33171
32991
32759
32719
32663
32698
32967
33047
33013
32896
32998
33065
33092
33246
33265
33233
33046
33052
33015
32932
32860
32980
32871
32684
32618
32628
32620
32673
32879
32863
32698
32809
32694
32917
32828
32654
32730
32699
32677
32871
32943
32947
32920
32847
32810
32790
32741
32692
32757
33011
33063
32960
33021
33009
33002
33109
33197
33173
33108
33152
33240
33356
33361
33425
33628
33656
33609
33532
33479
33651
33662
33830
33745
33583
33615
33533
33463
33360
33284
33189
33140
33082
33261
33319
33360
33348
33196
33311
33351
33442
33429
33548
33691
33836
33719
33624
33515
33460
33398
33507
33370
33231
33009
33029
32999
32990
33113
33036
32918
32932
32942
33043
33054
33287
33259
33077
33057
32998
32920
32997
32903
32774
32673
32460
32551
32510
32549
32643
32733
32741
33052
33092
33056
33043
32962
33047
32995
32949
32948
32881
32806
32725
32908
32910
32852
32820
32704
32788
32859
32810
32916
32908
32894
32922
32942
32962
33028
33008
32940
32799
32935
32850
32758
32751
32775
32774
33006
33109
33183
33114
33221
33277
33153
33079
33248
33169
32959
32927
32811
32629
32542
32597
32397
32103
31937
31770
31733
31692
31655
31943
32135
32300
32567
33020
33551
34238
34599
35310
35763
36436
37300
38300
39567
40632
41462
43349
44480
45926
47029
48183
48996
49922
50534
51047
51260
51674
51870
51874
51582
50948
50128
48788
47772
46365
44927
43228
41341
39216
37857
36350
34937
33690
32525
31471
30534
29702
28977
28597
28513
28452
28503
28586
28618
28572
28508
28702
28743
28711
28840
29014
29212
29643
29831
29966
30014
30214
30261
30274
30204
30292
30377
30337
30543
30479
30436
30459
30525
30511
30714
30716
30673
30623
30867
30935
31014
31015
30980
30877
30869
30713
30580
30531
30404
30269
30382
30362
30302
30461
30589
30695
31061
31153
31103
31151
31261
31270
31228
31148
31101
31015
31093
30935
30808
31000
30924
30862
30926
30906
30940
31026
31082
31094
31247
31284
31312
31313
31513
31525
31509
31436
31206
31087
30989
30940
30782
30997
31067
31136
31204
31300
31372
31327
31409
31348
31282
31245
31185
31044
30887
30964
30892
30778
30701
30709
30866
30854
30932
31001
31060
31095
31197
31337
31431
31658
31772
31839
31809
31668
31460
31420
31367
31442
31478
31532
31500
31717
31687
31623
31725
31820
31846
31916
32050
32021
31945
31821
31851
31879
31992
32077
32087
32007
31925
32073
32050
32036
31980
32110
32170
32177
32262
32502
32536
32585
32566
32453
32471
32468
32340
32282
32286
32160
32239
32485
32549
32590
32591
32669
32713
32855
33155
33259
33300
33228
33330
33324
33373
33350
33257
33388
33335
33245
33224
33158
33196
33226
33238
33372
33492
33638
33736
33967
34047
34070
33994
33912
33924
33887
33896
33962
33992
33830
33783
33821
33798
33799
33825
33852
33935
34009
34064
34106
34158
34053
34248
34045
33812
33743
33676
33817
33839
33850
33785
33711
33734
33652
33554
33535
33443
33460
33431
33671
33674
33588
33574
33621
33629
33448
33544
33412
33271
33158
33127
33022
33142
32916
32982
33097
32932
33041
33271
33154
33271
33301
33255
33065
32900
32868
32678
32664
32508
32377
32230
32068
32068
32056
32112
32027
32125
32190
32454
32516
32454
32310
32158
32141
32062
32006
31937
31914
31951
31972
31868
31646
31559
31558
31511
31676
31881
32000
32016
32030
32044
32020
32003
31860
31827
31862
31819
31772
31727
31604
31608
31546
31488
31453
31679
31551
31463
31377
31479
31623
31708
31921
32032
31999
31828
31686
31455
31379
31556
31541
31526
31475
31482
31473
31432
31431
31447
31407
31591
31650
31668
31695
31735
31583
31785
31684
31483
31332
31256
31135
31237
31221
31231
31221
31222
31257
31276
31292
31626
31802
31884
31908
31855
31914
31772
31621
31561
31540
31714
31671
31574
31594
31575
31533
31521
31828
31890
31860
31725
31704
31737
31772
31936
31850
31772
31685
31610
31426
31532
31425
31322
31269
31253
31239
31294
31463
31504
31496
31415
31534
31492
31717
31690
31575
31542
31509
31496
31627
31453
31403
31338
31436
31476
31543
31502
31495
31638
31678
31735
31916
31884
31805
31636
31616
31470
31422
31503
31383
31247
31084
31173
31198
31097
31157
31212
31453
31443
31444
31545
31614
31932
31994
31871
31821
31807
31656
31472
31562
31407
31209
31268
31252
31254
31451
31415
31366
31314
31324
31425
31347
31527
31450
31300
31308
31206
31269
31119
31034
31008
30779
30841
30801
30787
30749
30900
30970
31191
31210
31260
31252
31185
31328
31290
31183
31106
31013
30916
30839
30649
30769
30789
30788
30767
30778
30750
30657
30825
30866
30974
30947
30966
30927
30950
30770
30679
30575
30503
30413
30588
30586
30516
30395
30269
30216
30165
30306
30294
30278
30285
30210
30454
30382
30209
30005
29873
29678
29642
29622
29421
29350
29348
29386
29316
29261
29242
29495
29518
29537
29598
29633
29564
29685
29693
29645
29495
29404
29362
29160
29030
29164
29017
28888
28788
28786
28842
28832
28915
29096
29197
29287
29319
29386
29371
29446
29310
29191
29031
28883
28748
28643
28806
28795
28775
28844
28917
28860
29110
29144
29126
29107
29108
29015
28934
28907
29033
29039
28994
28974
28912
28865
28800
28976
28949
28972
28924
28927
28956
28932
29212
29400
29424
29495
29574
29447
29585
29534
29511
29512
29463
29463
29439
29400
29487
29514
29517
29509
29591
29734
29751
29990
30100
30206
30182
30095
30007
30012
29977
29893
30004
30012
29999
29948
29895
29859
29854
29910
29924
