ECG
33534
33639
33760
33975
34101
34225
34342
34403
34439
34393
34415
34434
34364
34287
34221
34209
34162
34007
33958
33969
34004
34116
34260
34417
34493
34595
34679
34700
34760
34743
34660
34561
34548
34487
34421
34250
34151
34068
33981
33812
33788
33852
33868
33920
34015
34065
34055
34052
34055
33986
33903
33758
33543
33365
33198
33061
32951
32807
32705
32678
32637
32634
32639
32572
32681
32716
32758
32735
32693
32507
32484
32335
32173
32068
32009
31903
31800
31543
31460
31476
31490
31508
31631
31727
31879
31913
31894
31799
31872
31815
31768
31787
31685
31615
31396
31311
31263
31217
31148
31151
31190
31343
31426
31503
31573
31629
31601
31667
31716
31728
31685
31581
31531
31492
31378
31281
31199
31112
31084
31172
31223
31271
31302
31356
31462
31588
31663
31700
31676
31686
31660
31603
31558
31516
31441
31338
31247
31175
31185
31188
31155
31156
31148
31246
31411
31541
31696
31748
31697
31614
31583
31543
31502
31375
31322
31279
31260
31239
31260
31287
31314
31374
31452
31460
31614
31630
31636
31663
31663
31684
31738
31760
31757
31640
31527
31423
31409
31374
31367
31412
31459
31527
31615
31766
31903
32005
32083
32132
32201
32183
32154
32204
32188
32124
32002
31844
31791
31806
31892
31954
31996
32106
32222
32186
32350
32456
32519
32629
32679
32673
32661
32551
32518
32458
32367
32260
32254
32239
32231
32296
32349
32455
32559
32641
32698
32663
32771
32860
32897
32910
32876
32815
32751
32679
32604
32564
32532
32469
32460
32463
32564
32639
32746
32806
32863
32983
32971
32983
32959
32951
32962
32995
32949
32820
32677
32591
32591
32591
32567
32602
32606
32709
32811
32888
32986
33015
33053
33095
33077
33045
32972
32967
32972
32903
32898
32868
32837
32804
32765
32836
32914
32975
32991
33056
33108
33166
33269
33351
33414
33463
33408
33374
33363
33373
33365
33311
33254
33193
33189
33236
33306
33333
33392
33523
33550
33583
33575
33543
33519
33580
33551
33531
33415
33407
33371
33255
33207
33219
33210
33201
33204
33260
33319
33391
33469
33543
33590
33591
33540
33470
33424
33336
33263
33240
33185
33102
33127
33096
33129
33105
33138
33239
33299
33335
33391
33450
33487
33511
33477
33385
33348
33390
33382
33279
33217
33156
33117
33114
33092
33093
33099
33140
33231
33359
33383
33461
33519
33519
33478
33471
33439
33367
33335
33278
33214
33104
32964
32849
32822
32766
32675
32541
32418
32280
32123
31967
31777
31580
31390
31277
31183
31090
31116
31271
31495
31675
31837
31879
31882
32142
32548
32844
33205
33564
33993
34540
35199
35977
36852
37729
38554
39392
40276
41123
41847
42405
42732
42639
42284
41831
41279
40654
40052
39492
39023
38655
38339
37996
37591
37136
36646
36103
35615
35218
34911
34634
34362
34178
34069
33836
33697
33615
33605
33609
33593
33564
33502
33352
33147
32903
32687
32462
32283
32085
31927
31769
31639
31614
31595
31518
31511
31591
31682
31751
31804
31844
31895
31902
31898
31915
31906
31837
31718
31568
31513
31476
31445
31460
31457
31445
31466
31559
31655
31751
31844
31892
31892
31946
31985
31981
31951
31890
31802
31700
31629
31578
31569
31530
31503
31540
31618
31719
31764
31770
31945
32044
32056
32071
32037
31996
31940
31908
31864
31818
31795
31788
31732
31705
31681
31700
31724
31807
31866
31941
32046
32126
32174
32169
32188
32172
32119
32087
32055
31985
31842
31735
31715
31710
31781
31812
31796
31839
31919
32026
32122
32116
32140
32199
32199
32220
32196
32095
31984
31959
31932
31804
31718
31682
31699
31751
31796
31871
31962
32108
32242
32284
32236
32284
32316
32286
32231
32196
32149
32108
31991
31930
31871
31832
31869
31943
31997
32094
32187
32286
32343
32418
32494
32548
32599
32543
32507
32466
32391
32293
32225
32251
32238
32200
32230
32309
32422
32449
32532
32618
32726
32826
32895
32970
33012
33045
33047
33012
33000
32938
32892
32835
32822
32836
32823
32880
32949
33100
33252
33407
33532
33594
33695
33840
33920
33927
33883
33846
33757
33658
33621
33624
33633
33605
33653
33703
33796
33934
34078
34215
34351
34407
34445
34446
34449
34478
34470
34434
34407
34359
34183
34071
33979
33961
33951
34052
34140
34232
34311
34439
34539
34588
34623
34566
34513
34426
34261
34100
33972
33931
33847
33761
33671
33558
33500
33447
33445
33476
33415
33396
33415
33478
33453
33453
33402
33286
33036
32883
32799
32652
32452
32310
32239
32213
32110
32031
32039
32101
32151
32216
32279
32340
32343
32230
32194
32153
31996
31880
31777
31678
31572
31505
31415
31394
31357
31377
31486
31505
31551
31576
31659
31750
31789
31813
31895
31835
31774
31710
31623
31498
31447
31396
31327
31287
31262
31228
31261
31319
31436
31580
31677
31711
31766
31863
31839
31778
31677
31546
31468
31417
31401
31301
31231
31193
31209
31254
31332
31390
31454
31528
31615
31675
31717
31730
31719
31705
31637
31598
31535
31433
31344
31287
31266
31223
31212
31282
31380
31476
31552
31649
31724
31772
31845
31815
31844
31822
31785
31766
31699
31639
31606
31540
31462
31420
31412
31450
31518
31591
31706
31831
32002
32110
32183
32198
32191
32143
32046
31918
31842
31838
31799
31734
31782
31782
31743
31748
31831
31943
32047
32161
32257
32316
32357
32370
32420
32474
32463
32455
32415
32298
32119
32050
32015
32020
32076
32148
32215
32348
32517
32550
32568
32668
32746
32787
32807
32815
32817
32782
32636
32508
32401
32352
32359
32322
32363
32381
32420
32503
32634
32738
32857
32937
32966
32942
32905
32903
32871
32811
32839
32700
32564
32506
32448
32463
32505
32559
32644
32783
32888
33028
33094
33103
33090
33127
33126
33040
32932
32876
32826
32772
32716
32641
32583
32591
32596
32631
32677
32720
32800
32886
32943
32982
33030
33061
33095
33070
33042
32975
32883
32766
32623
32552
32503
32540
32656
32775
32791
32852
32935
33055
33148
33213
33248
33250
33223
33191
33060
32960
32949
32940
32931
32922
32917
32943
33020
33114
33173
33247
33370
33454
33527
33587
33591
33537
33503
33437
33343
33252
33149
33044
32935
32863
32838
32871
32885
32910
32973
33076
33175
33249
33287
33341
33391
33414
33407
33380
33364
33279
33094
32911
32780
32734
32714
32692
32700
32748
32837
32911
33026
33124
33173
33188
33237
33263
33268
33252
33222
33183
33095
33001
32850
32722
32644
32607
32631
32673
32785
32957
33079
33131
33175
33181
33222
33260
33257
33222
33151
33119
33052
32996
32876
32766
32671
32625
32610
32657
32720
32759
32796
32775
32679
32527
32343
32159
31950
31710
31392
31128
30909
30679
30471
30400
30444
30612
30892
31148
31415
31586
31797
32175
32601
32943
33190
33468
33895
34455
35028
35748
36553
37393
38196
39124
40164
41131
41959
42644
43108
43143
42903
42471
41898
41241
40610
40100
39599
39103
38645
38127
37503
36871
36288
35758
35284
34912
34612
34365
34196
34107
34036
33966
33929
33863
33789
33671
33509
33287
33021
32701
32436
32174
31951
31741
31583
31467
31388
31359
31389
31446
31543
31655
31720
31719
31775
31765
31708
31678
31639
31583
31505
31420
31327
31260
31205
31228
31253
31323
31402
31508
31652
31751
31813
31832
31840
31830
31828
31806
31747
31668
31556
31488
31423
31396
31399
31394
31409
31468
31548
31639
31741
31788
31874
31925
31993
32028
32002
31971
31932
31871
31775
31708
31623
31559
31530
31535
31572
31601
31679
31724
31836
31943
32035
32103
32097
32103
32095
32042
32005
31932
31879
31829
31762
31726
31694
31670
31718
31784
31847
31941
32038
32110
32188
32197
32207
32260
32309
32255
32133
32046
31966
31905
31861
31853
31814
31778
31791
31811
31878
31988
32101
32175
32247
32292
32328
32362
32356
32351
32309
32223
32169
32109
32062
31996
31915
31905
31927
31993
32071
32136
32277
32390
32446
32489
32559
32585
32581
32554
32470
32423
32359
32289
32231
32177
32154
32161
32221
32308
32412
32563
32724
32823
32911
33005
33063
33079
33062
33017
32967
32927
32879
32818
32732
32733
32724
32741
32789
32840
32957
33111
33309
33449
33583
33679
33749
33804
33836
33799
33776
33751
33717
33660
33623
33572
33542
33572
33636
33756
33873
34039
34228
34372
34471
34542
34557
34615
34631
34617
34529
34468
34375
34319
34266
34220
34183
34181
34181
34233
34343
34463
34564
34637
34692
34765
34838
34823
34797
34718
34613
34509
34375
34252
34111
33987
33900
33833
33820
33844
33887
33924
33975
33991
33976
33955
33906
33858
33758
33650
33508
33349
33197
33005
32822
32665
32543
32468
32431
32446
32487
32546
32607
32671
32683
32668
32658
32598
32550
32462
32394
32263
32127
31971
31879
31833
31775
31698
31714
31751
31828
31941
32049
32134
32198
32220
32221
32164
32127
32071
31994
31933
31836
31729
31639
31589
31536
31553
31581
31652
31743
31885
32020
32102
32177
32236
32244
32217
32197
32145
32046
31969
31886
31780
31675
31578
31495
31478
31532
31607
31699
31796
31914
32013
32103
32175
32216
32204
32166
32105
32020
31910
31794
31719
31619
31535
31501
31508
31551
31603
31685
31826
31983
32108
32187
32229
32255
32213
32159
32110
32027
31895
31793
31687
31591
31535
31506
31517
31577
31663
31768
31936
32055
32214
32311
32360
32422
32410
32391
32318
32188
32145
32044
31951
31868
31772
31780
31767
31840
31940
32055
32229
32364
32489
32588
32663
32710
32740
32755
32695
32628
32567
32447
32327
32249
32172
32172
32172
32244
32303
32447
32568
32747
32895
33019
33094
33146
33126
33106
33031
32933
32838
32756
32659
32597
32532
32493
32519
32527
32634
32759
32922
33047
33204
33285
33359
33434
33415
33444
33308
33231
33149
32995
32893
32804
32722
32692
32671
32707
32807
32932
33071
33222
33341
33437
33495
33495
33495
33498
33447
33367
33255
33151
33031
32927
32845
32788
32786
32835
32935
33068
33191
33357
33407
33511
33561
33580
33598
33516
33490
33399
33285
33183
33061
32943
32835
32789
32794
32843
32935
33063
33184
33308
33414
33463
33498
33510
33511
33484
33402
33287
33180
33009
32857
32774
32681
32654
32677
32703
32781
32916
33074
33199
33318
33407
33471
33484
33468
33443
33380
33285
33180
33071
32972
32901
32838
32795
32784
32820
32879
32999
33141
33282
33414
33524
33600
33641
33650
33641
33563
33502
33381
33283
33178
33089
33022
32966
32972
32999
33074
33180
33309
33425
33551
33619
33687
33683
33660
33620
33556
33466
33351
33247
33112
33010
32913
32871
32854
32868
32925
33044
33186
33368
33458
33525
33524
33524
33482
33426
33348
33262
33167
33015
32892
32807
32749
32736
32740
32769
32847
32940
33046
33172
33284
33365
33396
33406
33382
33346
33258
33188
33093
32961
32870
32775
32713
32685
32698
32726
32810
32919
33020
33142
33271
33351
33415
33427
33371
33324
33236
33099
32962
32823
32624
32446
32263
32131
32016
31838
31687
31597
31510
31421
31307
31197
31111
31095
31095
31172
31317
31524
31692
31837
31952
32040
32135
32252
32428
32673
33001
33349
33747
34334
35048
35828
36695
37598
38527
39590
40649
41575
42228
42621
42591
42146
41431
40620
39703
38916
38207
37700
37244
36923
36719
36569
36315
36062
35789
35500
35182
34892
34582
34234
33943
33711
33510
33343
33258
33221
33230
33251
33265
33325
33351
33314
33209
33061
32883
32670
32463
32263
32065
31871
31691
31527
31421
31351
31327
31335
31389
31494
31622
31729
31829
31871
31919
31918
31921
31879
31799
31727
31646
31550
31476
31399
31338
31290
31322
31361
31462
31607
31751
31871
31982
32066
32095
32072
32039
32007
31935
31826
31726
31631
31559
31459
31431
31424
31452
31503
31599
31743
31876
32002
32082
32115
32135
32134
32108
32088
32042
31950
31839
31697
31622
31540
31495
31476
31516
31594
31678
31802
31923
32058
32169
32263
32336
32354
32301
32275
32184
32114
32023
31934
31817
31727
31628
31600
31603
31680
31785
31903
32036
32196
32292
32316
32343
32358
32327
32290
32239
32171
32055
31924
31805
31725
31702
31708
31740
31810
31895
32004
32157
32263
32372
32459
32503
32523
32519
32495
32430
32349
32239
32148
32039
31964
31934
31927
31955
32012
32111
32277
32463
32597
32712
32787
32810
32812
32807
32775
32735
32671
32623
32511
32437
32391
32380
32383
32415
32498
32652
32830
33029
33191
33322
33444
33496
33543
33567
33532
33492
33465
33411
33335
33225
33142
33120
33140
33209
33303
33447
33587
33745
33914
34053
34186
34311
34334
34324
34306
34267
34213
34170
34149
34090
34055
34028
34071
34113
34196
34343
34477
34671
34815
34927
35004
35034
35023
34966
34916
34830
34742
34639
34524
34397
34289
34305
34263
34272
34383
34460
34506
34615
34748
34770
34764
34757
34711
34656
34607
34437
34199
33988
33826
33671
33514
33466
33380
33335
33287
33311
33353
33431
33501
33530
33519
33454
33370
33206
33031
32876
32706
32503
32343
32167
32029
31865
31746
31711
31751
31811
31893
31981
32058
32124
32151
32071
32021
31956
31850
31736
31628
31527
31425
31309
31206
31103
31052
31072
31108
31181
31294
31417
31551
31638
31652
31701
31675
31625
31562
31495
31375
31233
31111
31004
30956
30894
30863
30893
30950
31037
31180
31302
31437
31559
31646
31653
31615
31612
31479
31447
31314
31214
31078
30983
30924
30836
30847
30865
30967
31033
31188
31304
31436
31551
31615
31713
31650
31654
31625
31484
31419
31285
31148
31087
31007
30949
30981
30982
31046
31177
31325
31468
31620
31703
31749
31772
31791
31774
31695
31621
31529
31426
31327
31255
31186
31149
31172
31215
31318
31442
31561
31741
31940
32061
32094
32059
32123
32135
32084
31935
31912
31805
31652
31596
31581
31526
31575
31619
31698
31873
31962
32180
32247
32391
32391
32511
32540
32473
32527
32340
32276
32263
32075
31977
31974
31916
31892
31974
32084
32191
32340
32481
32599
32692
32747
32775
32788
32819
32798
32717
32561
32493
32439
32367
32287
32258
32164
32341
32391
32455
32644
32804
32828
32921
33114
33105
32983
33029
33012
32854
32741
32685
32531
32421
32365
32340
32351
32409
32510
32614
32764
32895
33021
33115
33164
33191
33204
33135
33031
32933
32791
32704
32622
32529
32487
32452
32454
32487
32564
32663
32775
32903
32978
33086
33107
33148
33150
33087
32994
32923
32815
32725
32604
32507
32424
32381
32392
32434
32510
32633
32740
32871
33024
33158
33210
33252
33215
33149
33084
33030
32906
32799
32679
32575
32507
32470
32438
32410
32433
32528
32671
32793
32900
32994
33055
33064
33047
33007
32913
32818
32715
32618
32526
32450
32353
32327
32323
32359
32458
32580
32764
32983
33106
33151
33175
33212
33167
33157
33116
33054
32962
32852
32711
32645
32591
32557
32593
32647
32791
33004
33134
33252
33353
33372
33374
33373
33332
33277
33185
33098
32958
32828
32754
32666
32562
32519
32509
32562
32640
32754
32871
32983
33103
33188
33274
33329
33343
33319
33231
33084
32936
32810
32680
32564
32508
32463
32431
32425
32500
32592
32751
32901
33036
33151
33220
33245
33220
33170
33084
33020
32899
32740
32596
32518
32422
32358
32356
32395
32506
32625
32751
32865
32942
32990
33007
33063
33104
33142
33111
33013
32844
32682
32503
32367
32270
32225
32103
32049
32143
32145
32239
32085
32109
31887
31822
31559
31388
31078
30905
30652
30485
30454
30447
30558
30716
30903
31153
31439
31667
31914
32211
32532
32905
33327
33631
34090
34590
35203
35859
36613
37357
38151
39057
40013
40909
41605
42057
42045
41727
41047
40455
39778
39235
38676
38118
37628
37236
36911
36585
36177
35693
35279
34898
34532
34191
33895
33604
33383
33287
33257
33279
33343
33391
33461
33508
33442
33333
33177
33004
32766
32484
32181
31867
31604
31375
31217
31135
31127
31180
31267
31382
31477
31551
31576
31593
31620
31636
31645
31563
31460
31322
31175
31035
30916
30820
30789
30809
30880
31004
31135
31271
31427
31564
31655
31732
31789
31782
31714
31637
31570
31470
31345
31215
31113
31070
31046
31061
31095
31206
31346
31460
31589
31708
31783
31861
31939
31980
31938
31836
31695
31543
31404
31302
31239
31205
31173
31205
31265
31343
31467
31654
31778
31879
31975
32044
32086
32074
32059
31991
31865
31764
31659
31556
31486
31372
31357
31347
31423
31527
31679
31845
32020
32135
32247
32316
32296
32263
32194
32094
31983
31877
31775
31671
31564
31490
31459
31488
31559
31676
31835
32014
32168
32279
32369
32431
32455
32439
32398
32294
32167
32026
31884
31768
31666
31589
31606
31660
31744
31860
31977
32140
32311
32425
32524
32551
32552
32532
32500
32420
32337
32209
32084
31974
31892
31836
31871
31927
32031
32204
32412
32621
32815
32990
33111
33220
33300
33287
33210
33076
32981
32860
32725
32601
32543
32594
32661
32708
32772
32900
33119
33310
33479
33639
33843
34006
34079
34069
34037
33964
33841
33742
33599
33495
33405
33372
33380
33447
33526
33719
33949
34183
34454
34603
34657
34718
34677
34669
34633
34647
34629
34534
34401
34247
34119
33999
33925
33964
33997
34097
34246
34455
34614
34727
34807
34850
34855
34768
34679
34529
34353
34193
34015
33799
33639
33495
33420
33412
33455
33563
33657
33791
33879
33916
33908
33869
33774
33652
33463
33265
33078
32854
32610
32340
32164
32058
31989
31973
32039
32116
32180
32279
32380
32391
32414
32423
32385
32335
32323
32160
31934
31740
31540
31401
31322
31209
31191
31166
31196
31275
31434
31586
31747
31850
31909
31983
32006
31972
31887
31751
31634
31523
31383
31233
31135
31053
31006
30993
31032
31172
31384
31575
31751
31876
31940
31951
31931
31865
31804
31730
31644
31501
31387
31238
31111
30983
30948
30965
31047
31178
31314
31519
31696
31831
31890
31943
31921
31849
31751
31671
31596
31484
31343
31178
31060
30964
30948
30983
31061
31181
31353
31572
31771
31911
31988
32042
32036
32024
31956
31817
31665
31510
31371
31239
31220
31174
31124
31137
31220
31353
31482
31676
31807
31938
32060
32082
32149
32166
32117
31961
31836
31700
31559
31428
31387
31388
31420
31493
31586
31788
31929
32116
32285
32399
32454
32526
32631
32679
32639
32514
32340
32167
32030
31911
31802
31789
31804
31830
31933
32074
32246
32490
32737
32892
32932
33020
33115
33103
33065
32949
32767
32561
32407
32350
32199
32069
32041
32098
32245
32460
32679
32832
32999
33116
33252
33340
33447
33391
33287
33127
32979
32799
32663
32547
32513
32423
32356
32338
32406
32548
32758
33007
33223
33404
33506
33544
33535
33511
33425
33294
33099
32942
32750
32589
32484
32391
32372
32399
32516
32671
32841
33044
33231
33415
33564
33583
33568
33509
33375
33228
33073
32901
32828
32722
32612
32540
32514
32551
32647
32772
32916
33061
33190
33287
33391
33466
33557
33517
33484
33390
33231
33031
32789
32610
32511
32480
32545
32551
32599
32668
32810
33010
33221
33467
33605
33630
33572
33445
33319
33212
33161
33104
32950
32734
32517
32390
32387
32495
32645
32800
32980
33125
33287
33406
33445
33455
33492
33543
33476
33359
33192
32998
32807
32630
32514
32436
32396
32438
32564
32743
32911
33124
33319
33487
33554
33590
33564
33539
33446
33337
33148
32951
32788
32664
32572
32548
32557
32581
32662
32796
32959
33186
33437
33562
33633
33617
33542
33486
33382
33206
33063
32855
32705
32660
32567
32460
32406
32423
32542
32711
32968
33149
33261
33287
33348
33392
33438
33420
33383
33247
33063
32869
32686
32540
32433
32386
32372
32452
32640
32810
33039
33220
33367
33494
33530
33539
33543
33406
33275
33169
33044
32967
32846
32802
32762
32711
32700
32734
32814
32956
33129
33298
33498
33632
33767
33836
33799
33685
33567
33474
33444
33333
33151
32958
32821
32743
32692
32775
32970
33134
33269
33397
33479
33617
33754
33785
33694
33538
33380
33311
33327
33099
32844
32735
32645
32530
32460
32472
32581
32810
32993
33106
33220
33375
33526
33527
33467
33375
33229
33204
33059
32812
32647
32577
32516
32395
32368
32421
32574
32759
32999
33199
33323
33374
33429
33468
33589
33479
33318
33158
32999
32870
32769
32653
32514
32444
32415
32407
32439
32480
32572
32717
32857
32868
32733
32519
32223
31919
31614
31283
30975
30661
30358
30153
30055
30122
30348
30629
30983
31290
31503
31707
32120
32680
33124
33388
33618
33975
34384
34839
35481
36244
36991
37723
38565
39553
40639
41583
42375
43049
43319
43174
42826
42358
41759
41026
40455
39884
39263
38663
38036
37407
36719
36052
35513
35116
34742
34433
34211
34071
34004
33974
33955
34007
34014
33967
33837
33588
33367
33050
32737
32424
32100
31785
31542
31352
31217
31175
31213
31287
31380
31510
31629
31708
31783
31829
31866
31806
31662
31532
31398
31236
31085
30975
30884
30855
30903
30963
31066
31207
31360
31491
31653
31825
31893
31885
31831
31765
31684
31615
31504
31386
31231
31118
31032
30965
30998
31103
31250
31371
31507
31676
31815
31933
32013
32058
32021
31935
31807
31671
31594
31509
31388
31209
31108
31063
31119
31202
31383
31519
31659
31839
31956
32015
32037
32064
32057
32071
32054
31935
31772
31615
31464
31358
31271
31180
31202
31295
31421
31592
31780
31966
32059
32084
32134
32167
32177
32172
32110
31977
31806
31622
31471
31411
31340
31311
31335
31400
31507
31644
31810
31979
32165
32289
32322
32292
32263
32263
32231
32100
31899
31740
31605
31514
31462
31441
31467
31555
31695
31823
31975
32143
32257
32321
32373
32407
32401
32391
32316
32286
32142
31972
31807
31673
31554
31561
31644
31743
31892
32087
32263
32404
32540
32661
32746
32771
32800
32753
32639
32549
32463
32380
32279
32172
32132
32189
32251
32289
32452
32644
32831
32999
33132
33276
33469
33511
33500
33460
33375
33301
33236
33176
33138
33083
32996
32995
33063
33185
33364
33551
33748
33947
34051
34150
34186
34222
34279
34246
34148
34052
34005
33927
33930
33852
33765
33700
33732
33788
33921
34092
34265
34424
34615
34702
34719
34730
34733
34723
34620
34474
34278
34084
33951
33854
33827
33855
33818
33774
33788
33884
33999
34115
34241
34277
34267
34199
34036
33887
33745
33613
33494
33333
33143
32924
32719
32581
32579
32636
32711
32745
32807
32890
32953
32999
33007
32951
32823
32703
32566
32423
32300
32193
32007
31826
31652
31639
31687
31763
31844
31953
32092
32194
32241
32289
32343
32351
32327
32302
32251
32126
31975
31813
31669
31567
31525
31484
31464
31518
31674
31831
32022
32194
32311
32380
32408
32412
32384
32309
32195
32047
31918
31815
31706
31607
31529
31521
31556
31652
31766
31886
31972
32126
32300
32383
32434
32386
32356
32263
32143
32023
31895
31775
31643
31549
31454
31461
31503
31574
31671
31808
31963
32099
32220
32248
32277
32263
32231
32170
32060
31958
31842
31738
31620
31540
31483
31487
31494
31543
31611
31751
31930
32082
32188
32246
32263
32299
32247
32185
32108
32023
31918
31823
31695
31584
31549
31540
31588
31671
31751
31905
32102
32279
32405
32503
32547
32532
32487
32429
32345
32294
32194
32037
31900
31806
31791
31822
31853
31958
32131
32319
32479
32623
32715
32740
32760
32755
32703
32647
32630
32606
32498
32364
32287
32234
32203
32180
32252
32436
32564
32658
32806
32925
33007
33127
33215
33268
33217
33109
33029
32902
32815
32730
32663
32615
32580
32551
32555
32647
32793
32975
33191
33311
33350
33352
33351
33380
33373
33343
33287
33188
33068
32917
32757
32665
32647
32698
32775
32903
33012
33124
33237
33309
33364
33427
33495
33558
33559
33441
33282
33159
33079
32982
32914
32831
32810
32804
32842
32895
32993
33078
33248
33463
33585
33684
33652
33538
33463
33411
33394
33333
33221
33118
32962
32846
32813
32772
32808
32951
33121
33292
33440
33519
33577
33607
33602
33608
33601
33519
33439
33322
33202
33107
32999
32900
32867
32884
32945
33060
33179
33287
33364
33460
33511
33539
33582
33609
33628
33551
33425
33278
33166
33054
32948
32864
32832
32818
32863
32900
32985
33143
33311
33431
33487
33510
33551
33522
33470
33423
33391
33299
33167
33010
32900
32802
32737
32752
32852
32935
33034
33159
33279
33392
33493
33569
33655
33618
33525
33391
33287
33222
33147
33029
32903
32746
32716
32711
32755
32871
33001
33178
33364
33440
33436
33479
33501
33486
33445
33397
33307
33255
33137
32988
32837
32740
32702
32714
32828
32977
33087
33159
33247
33369
33472
33543
33631
33613
33518
33390
33284
33220
33134
33010
32885
32780
32737
32726
32733
32855
32972
33118
33247
33376
33472
33537
33540
33484
33463
33380
33308
33212
33117
32998
32871
32762
32676
32647
32663
32795
32988
33159
33308
33427
33492
33527
33505
33436
33382
33287
33215
33135
33027
32894
32802
32693
32631
32587
32606
32724
32886
33025
33086
33183
33268
33370
33301
33332
33335
33300
33158
33013
32900
32829
32707
32558
32534
32589
32663
32701
32924
33082
33206
33317
33404
33484
33519
33510
33428
33345
33276
33180
33066
32959
32908
32887
32885
32886
32911
32987
33115
33239
33383
33534
33652
33707
33662
33617
33583
33525
33473
33431
33324
33215
33095
33010
32939
32896
32933
33061
33241
33359
33432
33527
33612
33692
33681
33632
33509
33420
33324
33257
33127
32910
32751
32642
32571
32615
32678
32754
32844
33000
33140
33301
33463
33510
33463
33415
33405
33370
33262
33132
33005
32872
32734
32621
32597
32631
32691
32797
32950
33106
33232
33350
33419
33463
33526
33543
33466
33338
33175
33039
32916
32819
32715
32595
32506
32430
32415
32498
32633
32680
32709
32660
32519
32381
32196
31935
31668
31391
31144
30860
30629
30504
30463
30516
30671
30895
31140
31358
31606
32007
32572
33125
33548
33860
34246
34676
35215
35908
36750
37616
38431
39227
40015
40900
41866
42828
43524
43910
43815
43550
43046
42535
42007
41380
40631
39924
39161
38502
37966
37308
36485
35775
35180
34741
34367
34102
33874
33757
33727
33721
33735
33748
33775
33791
33719
33543
33317
33029
32711
32399
32098
31774
31476
31212
31055
31014
30998
31052
31172
31359
31541
31681
31806
31871
31869
31822
31762
31650
31532
31407
31239
31083
30955
30841
30768
30785
30851
30991
31165
31348
31558
31685
31775
31829
31852
31828
31787
31695
31599
31465
31301
31140
31005
30930
30860
30867
30937
31101
31279
31445
31644
31817
31970
32062
32071
32039
31958
31832
31748
31604
31433
31254
31135
31058
31013
31012
31081
31239
31423
31623
31824
31981
32078
32106
32126
32091
32000
31916
31815
31676
31549
31406
31265
31157
31095
31121
31187
31335
31530
31749
31891
32039
32142
32186
32231
32196
32109
32027
31919
31807
31647
31450
31308
31201
31151
31193
31297
31446
31606
31815
32020
32194
32321
32373
32401
32351
32258
32122
31981
31847
31715
31578
31439
31338
31300
31316
31390
31541
31751
31960
32143
32321
32479
32540
32572
32556
32519
32407
32251
32074
31919
31770
31642
31537
31486
31550
31686
31883
32081
32286
32472
32693
32840
32868
32881
32867
32838
32815
32687
32536
32346
32164
32054
32007
32005
32093
32207
32395
32599
32848
33081
33247
33399
33510
33583
33655
33652
33602
33513
33399
33255
33068
32962
32892
32884
32983
33168
33404
33602
33838
33989
34127
34365
34522
34567
34511
34413
34290
34173
34070
33969
33917
33826
33733
33671
33666
33738
33948
34247
34476
34658
34789
34838
34870
34885
34996
34924
34761
34558
34347
34221
34114
33940
33735
33632
33628
33715
33917
34107
34255
34340
34386
34439
34430
34414
34340
34206
34009
33774
33520
33244
32992
32768
32618
32588
32578
32527
32596
32693
32804
32935
33053
33119
33143
33116
32996
32831
32639
32437
32252
32069
31884
31703
31572
31495
31469
31537
31687
31887
32068
32234
32361
32457
32510
32494
32439
32380
32223
32096
31941
31783
31623
31451
31342
31299
31319
31399
31551
31772
32020
32244
32410
32511
32567
32551
32513
32424
32276
32138
31980
31805
31623
31456
31351
31266
31275
31367
31527
31716
31910
32071
32188
32263
32309
32343
32313
32212
32083
31921
31772
31620
31447
31316
31239
31221
31223
31307
31443
31615
31832
32020
32149
32198
32201
32235
32202
32093
31961
31845
31721
31571
31431
31316
31231
31204
31251
31345
31525
31708
31871
32032
32156
32212
32230
32233
32212
32167
32081
31980
31894
31774
31647
31509
31451
31405
31470
31556
31683
31828
31991
32145
32278
32370
32437
32498
32510
32459
32375
32250
32123
31950
31829
31751
31727
31694
31750
31863
32029
32236
32461
32620
32746
32838
32878
32836
32775
32700
32642
32589
32458
32318
32207
32108
32069
32090
32178
32321
32466
32630
32841
32941
33039
33115
33159
33175
33223
33222
33110
32984
32903
32772
32657
32540
32433
32415
32428
32495
32647
32850
33065
33259
33399
33471
33500
33477
33422
33361
33271
33147
33007
32895
32760
32607
32517
32486
32545
32684
32886
33049
33159
33303
33397
33484
33463
33482
33476
33434
33349
33223
33076
32911
32759
32673
32611
32586
32614
32691
32805
32951
33093
33235
33319
33361
33403
33390
33388
33411
33318
33180
33077
32980
32857
32737
32665
32642
32687
32740
32871
33084
33285
33465
33538
33543
33533
33489
33428
33338
33223
33116
33012
32943
32837
32748
32719
32738
32782
32863
32927
33022
33157
33318
33463
33589
33647
33639
33585
33495
33391
33276
33111
32951
32758
32647
32622
32612
32641
32764
32879
33039
33173
33300
33415
33507
33572
33524
33548
33466
33371
33194
33053
32903
32791
32708
32682
32655
32709
32807
32937
33063
33276
33402
33470
33510
33516
33527
33445
33329
33215
33095
33015
32898
32828
32735
32663
32637
32666
32727
32850
32991
33189
33385
33543
33604
33588
33567
33464
33333
33204
33074
32964
32861
32799
32747
32692
32662
32655
32713
32837
33013
33199
33367
33446
33502
33509
33477
33391
33287
33140
33054
32962
32871
32783
32699
32604
32546
32577
32687
32876
33070
33262
33375
33441
33464
33455
33414
33327
33206
33132
33087
32991
32847
32710
32587
32537
32498
32519
32624
32748
32912
33122
33287
33383
33421
33382
33324
33268
33189
33095
32958
32855
32759
32632
32535
32483
32474
32527
32620
32775
32921
33063
33182
33287
33408
33484
33494
33443
33319
33161
33066
32974
32804
32717
32641
32647
32648
32707
32812
32875
32941
33082
33220
33413
33540
33578
33572
33528
33414
33342
33253
33132
33006
32910
32817
32758
32743
32770
32863
33084
33302
33426
33493
33530
33524
33547
33525
33524
33508
33467
33360
33275
33137
33038
32929
32839
32768
32767
32807
32924
33074
33268
33388
33460
33468
33411
33341
33241
33159
33092
32988
32935
32856
32748
32634
32561
32519
32570
32706
32844
32957
33093
33231
33302
33287
33280
33215
33148
33119
33036
32918
32873
32767
32668
32555
32533
32519
32486
32588
32711
32860
33008
33028
33188
33107
33261
33156
33100
33159
33044
32804
32651
32577
32451
32225
32168
32077
31927
31826
31733
31639
31546
31405
31258
31116
30990
30903
30855
30874
30981
31132
31298
31455
31604
31773
31938
32081
32215
32492
32884
33358
33781
34286
34895
35556
36259
37071
37942
38822
39850
40839
41655
42129
42183
41703
41012
40129
39423
38783
38279
37797
37372
36999
36679
36358
36096
35764
35444
35111
34807
34567
34308
34001
33666
33310
33092
32955
32887
32909
32965
33039
33119
33173
33151
33137
33031
32870
32660
32432
32190
31951
31719
31522
31334
31152
31031
30926
30988
31036
31127
31308
31400
31440
31507
31589
31532
31493
31491
31415
31278
31200
31111
30988
30886
30834
30846
30886
30918
31002
31122
31286
31402
31481
31545
31578
31591
31567
31552
31495
31398
31279
31196
31073
30980
30914
30860
30868
30943
31071
31191
31345
31532
31647
31695
31746
31716
31699
31647
31572
31479
31382
31282
31223
31121
31015
30983
31006
31031
31145
31303
31473
31640
31759
31828
31863
31890
31859
31775
31669
31588
31495
31378
31271
31143
31071
31062
31150
31187
31275
31367
31517
31662
31788
31874
31926
31912
31887
31841
31764
31686
31597
31516
31423
31337
31287
31257
31257
31327
31442
31575
31709
31868
31999
32063
32082
32119
32080
32022
31955
31866
31795
31706
31618
31546
31483
31449
31462
31533
31620
31742
31903
32078
32243
32351
32391
32365
32383
32353
32286
32231
32087
31980
31892
31781
31747
31807
31849
31932
32031
32188
32398
32574
32679
32713
32735
32782
32796
32810
32751
32662
32589
32528
32540
32436
32375
32380
32436
32543
32753
32926
33075
33205
33327
33499
33663
33719
33726
33703
33603
33491
33470
33519
33463
33365
33287
33302
33339
33521
33722
33830
33951
34055
34186
34340
34465
34495
34427
34344
34297
34231
34247
34241
34166
34055
33975
33933
33962
34078
34249
34281
34580
34527
34622
34729
34838
34726
34599
34599
34585
34453
34172
34068
34031
33827
33792
33651
33567
33574
33657
33701
33774
33880
33924
33860
33678
33580
33518
33474
33335
33188
32999
32801
32615
32451
32320
32297
32288
32253
32263
32275
32314
32430
32484
32484
32383
32316
32255
32169
32046
31943
31868
31765
31622
31486
31431
31397
31402
31413
31472
31614
31735
31804
31871
31850
31847
31816
31779
31745
31687
31622
31513
31383
31295
31239
31204
31250
31288
31327
31436
31511
31565
31636
31678
31768
31823
31804
31735
31672
31572
31465
31399
31337
31292
31238
31204
31186
31207
31266
31326
31410
31539
31647
31692
31661
31662
31647
31612
31650
31622
31565
31503
31407
31343
31279
31237
31236
31271
31302
31383
31473
31540
31639
31745
31780
31804
31787
31718
31676
31655
31663
31620
31582
31473
31428
31398
31401
31454
31519
31574
31661
31772
31895
31967
31975
31980
31959
31920
31939
31937
31911
31831
31760
31745
31730
31751
31759
31750
31775
31845
31949
32127
32239
32279
32300
32302
32340
32290
32256
32241
32228
32231
32195
32188
32124
32124
32143
32166
32224
32293
32415
32567
32676
32694
32705
32751
32815
32758
32698
32637
32583
32557
32549
32516
32516
32502
32527
32564
32642
32692
32759
32807
32893
33003
33071
33095
33055
32999
32919
32860
32820
32815
32804
32740
32660
32602
32646
32714
32791
32892
32952
33055
33127
33171
33207
33208
33156
33146
33087
33030
32998
32932
32914
32880
32868
32852
32871
32905
32895
32973
33015
33048
33102
33126
33154
33183
33178
33145
33111
33094
33099
33087
33010
32951
32925
32861
32828
32826
32858
32933
33028
33127
33204
33220
33196
33212
33199
33159
33103
33079
33049
33047
33047
32972
32908
32871
32828
32837
32875
32913
33012
33085
33130
33172
33196
33190
33146
33103
33084
33052
33044
33053
33023
32901
32807
32820
32816
32826
32903
32948
32974
33049
33151
33195
33244
33275
33264
33274
33246
33172
33099
33005
32949
32895
32830
32831
32844
32956
33015
33078
33124
33179
33188
33214
33216
33205
33225
33199
33167
33110
32996
32913
32845
32822
32822
32815
32841
32908
32941
33007
33103
33189
33255
33309
33311
33276
33230
33192
33138
33047
32975
32889
32853
32798
32757
32717
32775
32815
32908
32984
33095
33165
33236
33241
33230
33235
33201
33199
33176
33095
32996
32949
32884
32831
32775
32758
32724
32743
32780
32869
32951
33027
33079
33143
33189
33223
33255
33203
33147
33085
33055
32990
32935
32871
32831
32813
32813
32820
32848
32911
32943
32987
33037
33095
33153
33184
33176
33164
33134
33087
33030
32986
32893
32804
32784
32757
32767
32799
32831
32875
32959
33026
33083
33157
33191
33207
33191
33088
32989
32911
32870
32831
32807
32727
32671
32647
32665
32654
32708
32752
32849
32903
32929
32928
32948
32973
32973
32956
32930
32940
32914
32871
32772
32749
32743
32735
32756
32775
32825
32841
32894
32986
33031
33094
33149
33165
33141
33114
33204
33252
33263
33223
33207
33113
33060
33044
32991
32999
33063
33148
33255
33312
33407
33436
33469
33477
33447
33422
33340
33245
33166
33103
33066
33053
32957
32909
32842
32842
32957
33066
33177
33279
33332
33351
33364
33369
33305
33190
33139
33068
32986
32910
32859
32775
32718
32719
32744
32755
32828
32898
32966
33012
33127
33228
33240
33227
33211
33215
33152
33096
32965
32884
32862
32807
32764
32753
32772
32828
32934
32993
33047
33097
33158
33159
33140
33089
33028
33024
33077
32979
32816
32695
32567
32375
32287
32196
32015
31791
31650
31572
31429
31223
31069
30913
30828
30834
30914
31022
31108
31272
31445
31537
31564
31703
32017
32396
32711
33007
33337
33766
34359
35052
35885
36756
37593
38416
39292
40146
41055
41910
42528
42951
42991
42613
42116
41479
40757
40164
39551
39012
38535
38139
37696
37247
36660
36130
35626
35258
34956
34639
34346
34063
33835
33624
33429
33279
33181
33158
33114
33064
33012
32954
32839
32647
32455
32281
32123
31995
31839
31628
31461
31319
31189
31132
31100
31111
31095
31081
31071
31180
31356
31399
31390
31426
31487
31524
31482
31428
31395
31349
31304
31255
31228
31221
31191
31188
31220
31251
31302
31385
31451
31487
31495
31607
31647
31663
31653
31636
31626
31602
31548
31522
31495
31439
31372
31362
31393
31471
31484
31495
31548
31623
31682
31678
31690
31553
31658
31802
31748
31614
31508
31468
31434
31373
31332
31363
31430
31498
31590
31663
31719
31781
31837
31878
31910
31883
31854
31822
31751
31668
31620
31647
31666
31633
31624
31590
31588
31583
31626
31734
31822
31849
31843
31869
31876
31862
31830
31823
31853
31854
31775
31749
31768
31695
31623
31601
31621
31644
31813
31855
31853
31909
31979
32024
32075
32074
32015
32013
32040
32039
32036
31951
31909
31886
31839
31783
31823
31850
31831
31838
31887
32001
32187
32242
32332
32319
32258
32196
32192
32157
32140
32156
32119
32078
32028
32018
32050
32068
32116
32204
32367
32561
32626
32518
32455
32469
32409
32437
32407
32374
32406
32375
32326
32352
32386
32409
32509
32623
32709
32831
32989
33066
33229
33351
33364
33342
33328
33334
33351
33329
33342
33287
33259
33301
33331
33396
33415
33462
33575
33676
33798
33903
33999
34055
34086
34132
34148
34183
34222
34191
34061
33955
33955
33967
34004
34002
34016
34047
34159
34318
34345
34359
34431
34466
34462
34388
34287
34213
34198
34178
34161
34007
33926
33953
33924
33844
33844
33878
33882
33874
33862
33849
33799
33705
33639
33550
33453
33410
33300
33245
33231
33144
32983
32878
32842
32810
32702
32655
32610
32614
32673
32631
32556
32539
32477
32498
32444
32295
32277
32302
32263
32213
32183
32094
32026
31972
31902
31895
31931
31975
31996
32038
32026
32023
32026
32029
32074
32095
32090
32036
31980
31942
31919
31832
31831
31836
31892
31903
31955
32026
32106
32155
32141
32180
32129
32008
32036
32178
32195
32086
32094
32052
31959
31880
31781
31726
31647
31649
31677
31781
31829
31890
31994
32024
31978
31948
31969
31974
31910
31879
31831
31780
31841
31893
31893
31893
31886
31912
31904
31893
31958
31934
31870
31958
32032
31988
31961
31958
31928
31876
31852
31852
31780
31687
31687
31741
31781
31817
31910
31994
31970
32038
32078
32087
32199
32279
32251
32150
32076
32026
31994
31948
31853
31830
31874
31846
31893
31979
32015
31983
32067
32231
32381
32418
32483
32495
32471
32494
32487
32448
32363
32263
32227
32239
32253
32296
32303
32318
32369
32388
32531
32700
32701
32754
32841
32838
32870
32871
32839
32815
32759
32703
32647
32620
32615
32652
32709
32791
32799
32824
32821
32892
33006
33102
33095
33015
32896
32837
32917
32948
32900
32836
32775
32735
32849
32966
32964
32999
33126
33153
33180
33127
33119
33167
33215
33268
33124
33063
33070
33085
33094
33030
33031
33015
32943
32941
32927
33004
32972
33108
33231
33302
33345
33364
33214
33161
33178
33167
33015
33007
33095
33082
33031
33082
33127
33122
33140
33132
33187
33252
33274
33365
33435
33432
33518
33519
33453
33399
33361
33311
33239
33200
33161
33084
33044
33053
33052
33047
33149
33287
33398
33463
33457
33402
33366
33415
33348
33268
33244
33159
33060
33045
32950
32865
32823
32877
33068
33161
33147
33241
33367
33415
33482
33432
33361
33320
33347
33369
33357
33253
33238
33156
33043
33013
33039
33100
33210
33245
33274
33313
33247
33231
33357
33415
33465
33539
33516
33494
33351
33164
33070
33012
32988
32959
33021
33060
33155
33287
33285
33317
33332
33375
33311
33277
33280
33309
33383
33382
33340
33235
33166
33067
32983
32961
33054
33102
33169
33261
33263
33274
33245
33271
33287
33321
33316
33342
33292
33153
33126
33122
33058
33006
32972
33003
33100
33263
33256
33172
33087
33071
33159
33144
33260
33383
33431
33415
33412
33380
33319
33225
33189
33129
33073
33093
33159
33239
33198
33196
33183
33174
33118
33089
33149
33157
33195
33180
33152
33090
33158
33135
33014
33023
32998
32945
32903
32927
32986
32844
32906
32973
33068
33097
33210
33193
33215
33197
33115
33094
33070
32988
32926
32906
32830
32710
32745
32807
32807
32855
32830
32847
32947
33068
33190
33225
33316
33373
33303
33216
33050
32980
32946
32953
32954
32964
32949
32935
33011
33126
33150
33247
33349
33303
33278
33284
33307
33238
33223
33265
33249
33253
33287
33259
33142
33058
33018
32955
32866
33013
33196
33343
33345
33319
33204
33097
33031
33005
33003
33063
33151
33135
33068
32975
32921
32927
32898
32860
32804
32950
32999
33063
33100
33081
33086
33099
33158
33263
33188
33030
33004
32926
32879
32863
32831
32854
32859
32822
32805
32774
32764
32804
32929
33042
33055
33153
33190
33171
33124
33084
33028
32951
32913
32869
32716
32656
32822
32842
32842
32775
32717
32686
32724
32737
32633
32535
32253
31992
31811
31540
31295
31070
30829
30611
30472
30460
30508
30676
30895
31095
31326
31535
31654
31725
31940
32263
32633
32942
33247
33522
33887
34441
34929
35511
36190
36952
37762
38475
39282
40116
40679
41007
40990
40743
40375
40009
39600
39226
38819
38478
38243
37967
37569
37090
36500
35918
35424
35018
34756
34543
34420
34295
34047
33821
33799
33736
33696
33716
33634
33474
33343
33140
32879
32612
32436
32284
32167
32089
31989
31922
31895
31809
31749
31658
31632
31578
31603
31631
31610
31568
31647
31627
31553
31559
31541
31544
31576
31586
31533
31540
31642
31695
31695
31724
31814
31879
31909
31855
31807
31744
31711
31668
31668
31630
31605
31591
31620
31655
31662
31623
31751
31807
31837
31836
31813
31806
31808
31674
31687
31660
31626
31626
31627
31542
31535
31477
31458
31455
31588
31717
31831
31844
31956
32031
32054
31962
31871
31892
31915
31802
31703
31743
31607
31717
31530
31719
31724
31836
31688
31879
31847
31825
32068
31993
32156
32134
32068
32231
32039
31916
31991
31809
31774
31946
31895
31813
31931
31903
31766
31927
31915
31908
32132
32100
32071
32143
32207
32132
32105
32002
32041
32038
32007
31924
31860
31918
31916
31911
31847
31926
32058
32092
32182
32127
32197
32303
32316
32319
32381
32246
32086
32172
32197
32078
32095
32102
32004
32092
32172
32180
32282
32314
32166
32364
32302
32244
32487
32393
32551
32502
32391
32336
32247
32175
32216
32314
32442
32426
32511
32668
32752
32821
32852
32908
33020
33084
33132
33066
33058
33086
33108
33020
33021
33050
33066
33099
33029
33071
33159
33271
33414
33540
33716
33780
33783
33786
33847
33889
33857
33697
33685
33657
33588
33510
33517
33572
33684
33770
33905
34036
34135
34185
34258
34291
34271
34323
34349
34333
34242
34173
34134
34055
34061
34010
33963
34025
34055
34116
34149
34020
34006
34020
34167
34082
34122
34157
34046
33959
33837
33775
33732
33692
33556
33482
33450
33435
33302
33279
33243
33237
33256
33265
33252
33325
33311
33232
33103
32971
32903
32771
32684
32606
32447
32341
32261
32236
32155
32173
32138
32169
32263
32282
32354
32415
32430
32436
32391
32215
32151
32150
32090
31911
31799
31706
31716
31823
31796
31841
31914
31883
31878
31916
31974
32053
32212
32169
32150
32138
31910
31799
31878
31936
31829
31751
31681
31589
31605
31741
31924
32081
32103
32072
32021
32007
32014
32042
32007
32149
32039
31922
31900
31878
31751
31639
31610
31607
31571
31572
31591
31675
31775
31812
31852
31871
31923
31942
31902
31844
31855
31911
31829
31751
31608
31527
31436
31438
31434
31541
31536
31622
31608
31721
31789
31815
31843
31858
31956
31916
31895
31815
31700
31607
31692
31870
31802
31767
31707
31728
31826
31864
31879
32045
32148
32225
32266
32326
32228
32157
32263
32171
32169
32109
32017
31991
31935
31799
31861
32038
32090
32148
32295
32340
32306
32551
32609
32561
32548
32529
32473
32500
32484
32442
32362
32223
32223
32257
32226
32314
32436
32431
32504
32635
32672
32727
32746
32756
32775
32763
32757
32710
32641
32647
32591
32491
32482
32537
32501
32494
32646
32806
32677
32775
33055
33056
33100
33131
33156
33071
33005
32924
32838
32806
32775
32702
32726
32679
32719
32655
32729
32769
32770
32797
32843
32951
32966
32940
32935
32940
32954
32871
32873
32825
32746
32742
32634
32580
32577
32664
32811
32920
32967
33113
33002
33167
33017
32959
33078
33005
32837
32846
32877
32775
32834
32868
32704
32609
32687
32601
32648
32755
32864
32966
33038
33077
33116
33047
33048
33071
33031
32957
32903
32864
32775
32748
32701
32687
32695
32712
32775
32807
32871
32917
32977
33095
33036
33041
33037
32996
33015
32965
32958
32917
32823
32780
32758
32816
32682
32708
32775
32800
32911
32939
32988
33014
32983
33002
33076
33099
33006
32785
32796
32702
32617
32556
32532
32612
32626
32800
32877
32720
32837
32951
32957
32988
32999
32925
32968
32941
32935
32862
32681
32640
32592
32542
32392
32394
32441
32470
32543
32663
32821
32887
32840
32878
32908
32880
32868
32836
32799
32764
32751
32810
32748
32711
32700
32511
32542
32611
32693
32733
32846
32948
33006
32863
32921
32897
32903
32931
32893
32868
32855
32765
32748
32789
32775
32775
32748
32783
32866
32886
32842
32801
32832
32846
32922
32840
32828
32814
32741
32671
32615
32505
32468
32415
32483
32480
32415
32444
32474
32532
32630
32774
32833
32923
33034
33044
33021
32943
32919
32661
32708
32686
32614
32586
32590
32564
32494
32519
32530
32580
32678
32876
33014
33076
33135
33121
33074
33053
33036
33019
32949
32980
32890
32765
32738
32645
32862
32883
32892
32953
32993
33057
33103
33118
33102
33255
33195
33158
33203
33032
33074
32950
32847
32882
32721
32687
32775
32623
32605
32799
32775
32911
32983
33124
33191
33175
33097
32988
32895
32814
32727
32645
32628
32564
32514
32501
32281
32391
32462
32615
32716
32789
32751
32860
32927
32892
32928
32860
32775
32678
32684
32650
32602
32545
32548
32588
32597
32575
32585
32567
32628
32583
32631
32791
32838
32860
32815
32721
32696
32658
32569
32420
32219
32007
31787
31588
31322
31095
30885
30713
30672
30670
30637
30638
30686
30778
30991
31205
31323
31366
31437
31526
31555
31772
31993
32375
32745
32985
33458
34048
34861
35646
36463
37168
38022
39121
40047
40831
41428
41718
41638
41271
40709
40052
39287
38645
38112
37426
36994
36773
36644
36309
36009
35623
35185
35094
34860
34599
34311
33808
33533
33428
33273
32983
32791
32906
32951
32828
32759
32720
32684
32582
32468
32569
32390
32227
32043
31684
31679
31628
31564
31431
31296
31133
31001
31012
30964
30944
31022
31172
31281
31418
31364
31439
31527
31532
31448
31472
31520
31494
31439
31367
31259
31202
31223
31193
31171
31182
31084
31290
31421
31505
31533
31519
31599
31623
31644
31543
31487
31425
31223
31266
31264
31197
31204
31138
31163
31295
31429
31550
31624
31677
31730
31630
31599
31673
31656
31664
31636
31540
31649
31587
31435
31425
31466
31463
31471
31502
31393
31500
31560
31686
31734
31772
31801
31861
31784
31719
31692
31649
31595
31519
31458
31458
31415
31423
31493
31463
31530
31608
31686
31780
31793
31847
31837
31947
32000
31972
31909
31798
31719
31625
31583
31567
31516
31441
31441
31351
31488
31580
31660
31705
31759
31847
31854
31876
31889
31901
31917
31820
31734
31636
31530
31460
31521
31510
31501
31578
31679
31819
31950
31964
32043
32132
32271
32270
32068
32076
31983
32181
32159
32071
32038
31979
31946
31978
32053
32122
32178
32263
32316
32433
32588
32636
32678
32648
32584
32600
32500
32447
32406
32300
32348
32348
32394
32478
32559
32708
32903
32853
32934
33031
33151
33254
33305
33318
33435
33276
33468
33333
33469
33310
33205
33207
33168
33216
33268
33373
33464
33575
33708
34003
34030
34132
34169
34151
34114
34071
34052
33958
33905
33812
33935
33855
33799
33799
33815
33812
33780
33870
34194
34284
34272
34144
34167
34233
34239
34266
34156
34076
33958
33799
33840
33762
33654
33575
33486
33452
33548
33583
33560
33591
33460
33425
33227
33148
33052
32953
32863
32775
32647
32484
32450
32139
32156
32037
32030
32081
32108
32149
32194
32172
32127
32036
32059
32031
31948
31832
31751
31685
31639
31548
31452
31457
31495
31543
31506
31470
31535
31590
31601
31585
31662
31758
31735
31660
31664
31681
31604
31462
31527
31471
31194
31231
31239
31314
31345
31394
31483
31503
31628
31715
31702
31622
31623
31670
31625
31575
31517
31476
31386
31286
31106
31276
31257
31263
31271
31361
31466
31559
31610
31673
31733
31751
31734
31734
31750
31770
31743
31638
31474
31461
31429
31351
31364
31420
31455
31311
31388
31457
31724
31652
31793
31793
31756
31743
31718
31692
31607
31607
31567
31519
31436
31415
31391
31407
31436
31540
31642
31717
31804
31840
31913
31979
31984
31932
31931
31879
31860
31770
31764
31730
31672
31681
31667
31863
31932
31983
32039
32058
32091
32079
32148
32221
32263
32282
32288
32329
32276
32210
32196
32223
32229
32143
32113
32084
32103
32064
32140
32259
32390
32560
32548
32629
32726
32782
32803
32704
32583
32494
32444
32446
32492
32554
32572
32599
32609
32602
32671
32602
32702
32740
32790
32849
32782
32767
32731
32775
32728
32836
32807
32721
32607
32548
32540
32559
32514
32558
32669
32725
32877
32909
33052
33093
33095
33110
33095
32984
32847
32807
32772
32731
32654
32674
32695
32680
32703
32826
32775
32718
32852
32968
33052
33040
32997
32989
32940
32799
32797
32748
32743
32743
32711
32735
32683
32656
32705
32838
32971
32852
32964
33068
33077
33019
32966
32938
32890
32943
32956
32943
32884
32822
32828
32623
32633
32703
32680
32722
32780
32892
32884
32894
32886
32903
32967
33059
33037
32967
32887
32836
32818
32775
32759
32695
32672
32614
32603
32705
32815
32903
32924
32942
32994
33030
32964
33061
33015
32982
32952
32898
32742
32722
32644
32767
32834
32820
32743
32636
32758
32885
32838
32975
32988
32949
33060
33051
33055
33052
33015
32935
32869
32775
32750
32730
32709
32733
32719
32740
32852
32983
33072
33116
33118
33140
33159
33098
33084
33103
32963
32803
32866
32734
32740
32618
32768
32638
32591
32692
32678
32910
32796
32934
32847
32807
32978
32902
33044
32938
32906
32775
32868
32660
32661
32645
32607
32676
32550
32767
32644
32754
32838
32964
33010
32998
32934
32890
32844
32789
32772
32623
32501
32452
32452
32452
32490
32417
32462
32504
32487
32508
32583
32836
32903
32975
32934
32929
32768
32775
32774
32673
32818
32758
32740
32785
32798
32788
32838
32855
32853
33016
33087
33111
33170
33127
33071
33093
33062
33022
33079
33062
33030
32965
32841
32955
32898
32869
32840
32875
32910
33015
33028
33018
33049
33007
33017
32967
32954
32937
32831
32772
32887
32827
32775
32754
32805
32793
32847
32819
32734
32696
32775
32770
32756
32848
32743
32660
32669
32716
32697
32605
32465
32413
32566
32591
32605
32599
32659
32740
32831
32871
32884
32831
32827
32998
32927
32798
32646
32564
32591
32605
32622
32585
32562
32563
32519
32474
32454
32462
32519
32518
32557
32734
32679
32577
32388
32071
31958
31797
31572
31357
31127
30885
30656
30465
30284
30119
30052
30294
30606
30902
31174
31412
31575
31676
31776
31995
32198
32446
32719
32999
33383
33988
34508
35273
36084
36857
37668
38549
39649
40615
41380
41951
42030
41779
41332
40807
40198
39543
38919
38132
37863
37371
37039
36584
36420
35919
35496
35095
34774
34631
34380
34173
33980
33732
33588
33454
33430
33256
33093
32960
32818
32647
32431
32230
32116
31967
31788
31950
31761
31865
31859
31881
31748
31700
31604
31537
31478
31417
31346
31239
31178
31087
31092
31052
31124
31167
31170
31175
31231
31300
31359
31403
31356
31333
31330
31332
31260
31298
31446
31371
31364
31378
31319
31270
31148
31282
31350
31332
31444
31553
31588
31604
31596
31620
31608
31557
31493
31495
31495
31458
31445
31394
31329
31286
31257
31335
31423
31519
31580
31589
31801
31802
31780
31741
31512
31561
31550
31501
31524
31476
31495
31416
31348
31343
31425
31494
31555
31598
31471
31567
31618
31667
31655
31680
31712
31740
31767
31806
31780
31743
31678
31609
31629
31597
31591
31623
31674
31681
31718
31762
31822
31879
32028
32090
32036
32015
32010
31958
31821
31751
31686
31683
31681
31650
31634
31695
31686
31804
31890
32047
32148
32134
32129
32133
32092
32103
32049
31977
32023
32001
31980
31885
31827
31812
31599
31710
31863
31935
32004
32066
32127
32141
32105
32108
32173
32263
32291
32215
32238
32206
32204
32184
32109
32029
32014
32244
32252
32314
32422
32486
32517
32578
32676
32764
32767
32767
32733
32771
32662
32703
32645
32647
32682
32737
32762
32756
32873
32909
33184
33361
33244
33319
33415
33484
33560
33575
33456
33510
33439
33455
33352
33510
33370
33520
33421
33596
33516
33772
33654
33863
34065
34146
33951
34001
34087
34149
33944
33934
33924
33893
33876
33738
33756
33774
33799
33842
33823
33726
33843
33889
34036
34065
34100
34092
34036
33966
33879
33743
33671
33469
33375
33268
33212
33133
33116
33090
33047
33066
33053
33075
33075
33049
33074
33038
32991
32922
32900
32836
32736
32631
32508
32371
32224
32203
32142
32112
32044
32047
32105
32180
32126
32083
32126
32212
32089
31994
31912
31942
31879
31856
31831
31800
31820
31844
31820
31792
31862
31927
31793
31836
31852
32039
32067
32164
32125
32088
32076
32032
31900
31780
31556
31542
31557
31660
31632
31627
31697
31740
31741
31739
31742
31742
31832
31908
31879
31732
31865
31712
31596
31604
31612
31589
31692
31745
31732
31687
31727
31532
31583
31676
31747
31735
31751
31786
31764
31717
31689
31839
31835
31816
31742
31687
31656
31633
31410
31416
31529
31562
31807
31925
31995
32007
31998
31995
31999
32053
32040
31940
31860
31839
31775
31748
31711
31668
31695
31751
31895
31943
31983
31959
32007
32048
32046
32116
32142
32132
32141
32108
32127
32121
32145
31990
32002
31972
32188
32215
32324
32185
32305
32363
32405
32456
32518
32551
32531
32532
32540
32500
32581
32546
32510
32444
32423
32420
32263
32294
32459
32540
32710
32738
32822
32886
32885
32932
32956
32979
32959
32903
32831
32751
32640
32582
32607
32604
32583
32564
32607
32692
32685
32742
32871
32833
32775
32735
32785
32903
33012
33079
33075
33012
33015
32999
32752
32805
32861
32839
32774
32828
32964
33060
33072
33004
32959
32964
32916
32955
32985
32964
32935
32895
32860
32868
32858
32871
32898
32910
32894
32850
32916
32956
32975
33108
33079
33031
33007
33068
33048
32962
32911
32828
32831
32819
32774
32725
32805
32936
33022
33076
33018
32991
33084
33102
33121
33165
33135
33126
32988
32952
32929
32839
32780
32684
32721
32708
32682
32706
32775
32878
32775
32851
32892
32815
32864
32895
32990
33023
32977
32935
32915
32853
32772
32831
32857
32820
32863
32705
32796
32907
32902
32878
32972
33048
33102
32972
32971
32933
32849
32807
32815
32732
32697
32648
32582
32655
32622
32593
32682
32774
32845
32967
33052
32909
32927
32968
32990
32918
32849
32788
32708
32631
32568
32551
32580
32613
32592
32540
32708
32757
32637
32716
32748
32775
32828
32895
32851
32868
32909
32856
32763
32722
32668
32483
32541
32629
32699
32824
32887
32808
32615
32738
32839
32826
32837
32874
32863
32838
32778
32652
32599
32472
32455
32526
32529
32500
32526
32511
32564
32598
32644
32828
32909
32943
32842
32871
32857
32828
32775
32755
32722
32623
32518
32447
32425
32404
32448
32503
32655
32690
32799
32886
33039
33054
32988
33063
33058
33021
32935
32868
32839
32785
32767
32756
32798
32815
32840
32919
32972
33004
33082
33108
33206
33223
33263
33275
33263
33046
33003
33060
32994
32918
32887
32829
32817
32704
32711
32764
32834
32767
32849
32943
33031
33063
32846
32854
32838
32707
32586
32600
32602
32586
32537
32748
32719
32590
32556
32668
32734
32772
32823
32844
32789
32798
32828
32823
32820
32942
32941
32828
32814
32709
32636
32636
32681
32761
32802
32807
32802
32833
32807
32755
32763
32879
32891
32788
32717
32586
32492
32340
32183
32079
31794
31596
31426
31179
30999
30888
30666
30498
30454
30455
30623
30804
31063
31271
31446
31527
31468
31316
31575
31868
32310
32620
32974
33407
33910
34432
35176
36023
36912
37855
38778
39622
40327
41157
41780
42039
41863
41492
41020
40436
39830
39329
38764
38542
38252
37703
37458
36986
36535
36088
35473
35222
34975
34775
34311
34055
33818
33626
33540
33388
33232
33092
33031
32982
32909
32766
32741
32619
32461
32196
32181
32145
31938
31855
31785
31639
31613
31404
31378
31364
31294
31219
31199
31221
31241
31239
31322
31264
31412
31495
31580
31656
31582
31500
31388
31373
31328
31343
31325
31252
31270
31319
31304
31300
31253
31255
31294
31431
31519
31580
31623
31676
31719
31801
31548
31550
31604
31520
31502
31439
31487
31494
31487
31278
31254
31374
31378
31411
31551
31644
31727
31591
31724
31786
31695
31687
31714
31735
31681
31610
31429
31406
31338
31357
31361
31451
31471
31509
31677
31796
31823
31806
31822
31567
31563
31595
31618
31661
31708
31646
31562
31604
31591
31615
31616
31751
31781
31568
31610
31768
31889
31929
31770
31816
31837
31742
31775
31843
31847
31788
31759
31695
31591
31594
31623
31673
31698
31756
31813
31854
31916
31879
31956
31912
31910
31911
31881
31941
31962
31723
31716
31783
31725
31743
31751
31777
31821
31925
31923
31981
32068
32135
32194
32183
32175
32207
32187
32185
32170
32118
32077
32190
32206
32161
32144
32004
32127
32247
32372
32448
32433
32503
32557
32586
32632
32631
32441
32436
32505
32428
32380
32367
32428
32499
32567
32566
32697
32912
32998
33089
33159
33258
33308
33159
33178
33239
33300
33316
33330
33356
33416
33329
33280
33397
33540
33548
33520
33575
33662
33697
33828
33875
33980
34035
33918
33944
33954
33886
33862
33807
33783
33767
33760
33748
33759
33732
33880
33986
34036
33917
33940
34004
33971
33932
33964
33895
33940
33871
33799
33796
33692
33519
33527
33530
33509
33496
33390
33386
33351
33309
33263
33268
33236
33335
33279
33118
32878
32689
32676
32604
32470
32430
32426
32392
32380
32375
32411
32481
32356
32377
32401
32381
32319
32253
32230
32167
32127
32108
32111
32027
32032
32007
31930
31665
31729
31751
31772
31751
31911
32054
32151
32145
32095
31982
31961
31975
31895
31892
31898
31765
31751
31708
31692
31802
31905
31978
31836
31936
32079
32135
32093
32015
31983
31970
31999
31975
31983
31895
31860
31596
31551
31623
31628
31681
31725
31748
31738
31775
31858
31873
31980
31957
31966
31895
32007
31941
31823
31845
31847
31765
31701
31672
31663
31666
31702
31769
31865
31940
31967
32028
32042
31958
32015
31992
31996
31902
31877
31818
31732
31644
31607
31622
31619
31594
31585
31726
31913
31996
32031
31906
31992
32138
32171
32149
32149
32052
32058
32037
32007
32030
31818
31863
31924
31966
31981
31950
32000
32135
32186
32151
32337
32471
32518
32567
32511
32382
32221
32217
32262
32447
32425
32329
32348
32452
32299
32340
32376
32417
32554
32580
32574
32615
32622
32664
32644
32573
32591
32541
32543
32548
32551
32566
32597
32589
32613
32676
32676
32657
32714
32783
32866
32898
32919
32920
32872
32944
32950
32903
32855
32786
32681
32675
32684
32784
32877
32975
33029
33036
33066
33049
33090
33093
33124
33200
33279
33249
33167
33044
32964
32903
32879
32893
32931
32959
32975
32975
33003
33040
33007
33031
33226
33235
33220
33245
33245
33237
33156
33049
33036
33005
32965
32886
32884
32897
32746
32790
32903
32934
33068
33061
33000
33056
33129
33146
33084
33073
33079
33055
32991
32751
32734
32727
32772
32820
32908
32925
32940
33046
33122
33190
33156
33140
33045
33131
33079
33058
33152
33122
33017
32762
32709
32687
32637
32612
32756
32914
33115
33148
33151
33209
33218
33111
33098
33117
33069
32998
33018
32967
32882
32860
32876
32681
32671
32804
32884
32840
32844
32885
33095
33142
33154
33144
33156
33098
33124
33046
32997
32996
32966
32875
32839
32903
32975
33012
32975
32984
32982
32996
33094
32976
32951
32953
32980
33014
33088
33045
32924
33004
33028
33010
32808
32840
32769
32743
32765
32737
32761
32743
32853
32869
32927
32918
32895
32844
32855
32628
32654
32665
32618
32663
32724
32738
32740
32742
32622
32724
32705
32691
32813
32952
33045
33077
33079
33067
33015
32978
32929
32852
32680
32583
32565
32547
32548
32572
32647
32661
32768
32893
32970
33118
33181
33186
33026
33094
33062
32999
32962
32895
32920
32938
32870
32820
32753
32839
32956
33012
33108
33149
33228
33279
33285
33268
33239
33148
33116
33094
33058
32817
32801
32764
32767
32710
32686
32738
32892
33004
33083
33105
33077
33057
33081
32862
32794
32707
32732
32823
32788
32730
32770
32600
32582
32582
32695
32830
32942
32994
32832
32830
32883
32904
32897
33025
33012
32843
32855
32724
32743
32646
32673
32707
32740
32559
32524
32569
32615
32638
32694
32748
32802
32833
32647
32547
32459
32485
32423
32350
32119
31911
31646
31166
30929
30703
30549
30487
30358
30222
30396
30531
30780
30932
31164
31407
31540
31576
31695
31972
32231
32628
32724
33002
33327
33806
34609
35446
36154
36923
37814
38612
39977
40967
41727
42164
42148
41866
41141
40967
40525
39871
39263
38561
38112
37815
37423
37087
36694
36295
35836
35313
35168
34964
34696
34427
34190
33751
33638
33501
33356
33194
33054
32927
32820
32740
32552
32463
32402
32324
32230
32084
31903
31790
31700
31651
31576
31532
31446
31383
31324
31346
31323
31103
31125
31033
31012
31066
31187
31261
31296
31332
31212
31259
31359
31310
31305
31276
31168
31204
31226
31277
31289
31335
31097
31156
31119
31154
31220
31356
31431
31537
31592
31605
31559
31626
31702
31751
31705
31615
31546
31492
31460
31430
31300
31266
31281
31308
31374
31493
31510
31554
31379
31385
31503
31556
31596
31584
31612
31566
31537
31526
31489
31419
31290
31239
31298
31373
31485
31566
31626
31588
31576
31695
31502
31642
31623
31588
31543
31500
31479
31479
31543
31605
31618
31441
31380
31370
31457
31452
31556
31710
31860
31964
31834
31865
31838
31751
31751
31691
31689
31711
31545
31605
31662
31695
31732
31559
31700
31780
31859
31920
32037
32070
32041
31868
31804
31767
31702
31708
31692
31630
31558
31503
31542
31586
31692
31788
31828
31868
31925
31813
32055
31913
31998
32029
32002
31927
31948
31989
32016
31941
31935
31942
31902
31881
31836
31904
32033
32184
32348
32447
32464
32426
32503
32607
32692
32631
32438
32528
32562
32547
32502
32503
32574
32578
32583
32647
32804
32864
32939
33012
33089
33170
33220
33335
33143
33124
33237
33310
33300
33263
33247
33284
33304
33470
33548
33614
33642
33660
33739
33839
33890
33903
33927
33967
34008
33988
34008
33982
33911
33854
33813
33797
33748
33700
33533
33641
33676
33729
33910
33913
33945
33847
33953
33993
33914
33975
33951
33896
33773
33479
33370
33249
33184
33156
33224
33263
33391
33388
33381
33422
33482
33465
33348
33189
32943
32868
32788
32734
32679
32583
32476
32332
32254
32199
32142
32076
32175
32290
32263
32216
32175
32231
32271
32119
32131
32057
32111
32051
32092
31968
31810
31887
31900
31887
31732
31732
31739
31761
31851
31992
32076
31877
31956
31996
31958
31972
31956
31855
31764
31586
31591
31684
31623
31506
31590
31721
31812
31914
32056
31963
32093
32118
32074
32071
31927
31989
31954
31924
31890
31698
31655
31634
31594
31610
31645
31695
31775
31847
31717
31778
31908
31847
31785
31826
31761
31746
31751
31647
31642
31457
31405
31522
31483
31479
31647
31742
31683
31654
31742
31821
31814
31975
32036
31902
31879
31871
31846
31842
31821
31733
31703
31680
31744
31802
31700
31744
31697
31699
31840
31927
32023
32062
31935
32042
32044
31960
31978
31948
32022
32023
32004
32012
31964
31800
31848
31917
31987
32100
32150
32300
32407
32508
32527
32374
32326
32263
32198
32207
32244
32338
32330
32073
32119
32172
32238
32247
32326
32474
32527
32683
32706
32686
32769
32873
32880
32711
32703
32705
32664
32658
32605
32599
32590
32606
32644
32693
32597
32625
32693
32797
32804
32814
32832
32930
33031
33128
33049
32982
32899
32813
32789
32839
32834
32881
32805
32855
32794
32739
32724
32838
32940
32999
33071
33167
33230
33143
33011
32815
32790
32804
32737
32669
32593
32613
32753
32900
32997
33047
33109
33133
33039
33103
33161
33190
33223
33150
33192
33182
33135
33081
32980
32943
32903
32893
32929
32935
32979
33057
33180
33031
32969
32997
32956
32924
33017
33045
33038
33044
33048
32917
32903
32852
32822
32788
32793
32857
32903
32999
33143
33196
33159
33175
33249
33297
33287
33342
33329
33301
33229
33067
32962
32887
32876
32903
32920
32940
32958
32912
32978
33036
33015
32950
32999
33008
32994
32967
32860
32990
32905
32823
32741
32753
32605
32620
32708
32796
32866
32910
32910
32879
33013
33060
33095
33180
33264
33319
33255
33029
32764
32823
32841
32796
32718
32711
32747
32724
32736
33031
33129
33172
33151
33002
33082
33135
33072
32975
32934
32998
33031
32764
32775
32759
32748
32831
32894
32891
32737
32838
32940
32933
33007
33041
32977
32871
32975
33021
33061
33013
32970
32719
32653
32606
32628
32628
32614
32578
32576
32727
32916
33031
32934
32894
32861
33031
33048
32888
32770
32756
32708
32660
32747
32724
32717
32559
32602
32605
32903
32935
33013
33031
32884
32968
32996
32954
32903
32827
32948
32998
33007
32964
32944
32951
32823
32884
32941
32944
32917
33045
33119
33169
33230
33300
33260
33327
33244
33256
33303
33333
33302
33284
33053
32967
33030
33052
33005
32935
32882
33031
33086
32941
33031
33132
33100
33028
33079
33103
33092
32931
32917
32860
32775
32709
32772
32831
32820
32610
32740
32807
32820
32818
32812
32854
32896
32968
33045
33103
33031
32983
32732
32601
32629
32551
32590
32650
32731
32771
32860
32902
32735
32763
32743
32813
32940
32970
32970
32956
32795
32679
32677
32667
32606
32524
32519
32468
32425
32229
32101
31989
31932
31881
31708
31509
31198
30791
30629
30500
30343
30348
30489
30576
30758
30927
31191
31285
31327
31505
31886
32191
32610
32943
33285
33606
34154
34919
35844
36661
37381
37895
38759
39524
40255
40594
41375
41445
41260
40967
40585
39974
39523
39159
38618
38261
38050
37783
37380
36966
36479
35780
35404
34986
34557
34182
33811
33708
33552
33391
33196
33000
32996
32916
32775
32790
32825
32799
32758
32664
32495
32241
31991
31789
31634
31495
31423
31384
31148
31178
31223
31239
31257
31206
31184
31285
31356
31359
31388
31391
31402
31377
31377
31303
31220
31204
30989
31056
31148
31169
31269
31380
31357
31388
31495
31426
31415
31406
31398
31428
31477
31463
31492
31507
31553
31544
31319
31272
31277
31191
31262
31391
31518
31604
31610
31605
31464
31509
31443
31463
31554
31498
31394
31350
31315
31253
31186
31168
31268
31414
31534
31613
31719
31751
31607
31728
31719
31710
31793
31805
31782
31700
31658
31502
31232
31229
31258
31140
31205
31342
31495
31732
31837
31842
31855
31748
31833
31837
31855
31809
31733
31646
31553
31705
31735
31716
31516
31527
31524
31553
31638
31738
31849
31802
31742
31811
31840
31780
31840
31925
31895
31916
31732
31652
31650
31636
31607
31588
31606
31702
31788
31677
31703
31897
31895
31888
31911
31934
31988
32067
32096
32100
32091
31993
31783
31727
31742
31713
31747
31904
32054
32232
32288
32183
32349
32341
32343
32239
32296
32356
32390
32279
32239
32170
32204
32215
32262
32260
32309
32428
32453
32471
32695
32895
32991
32775
32878
32978
32935
32906
33015
32998
32991
32823
32857
32853
32852
32873
32983
33173
33319
33363
33460
33468
33783
33902
33925
33932
33719
33711
33759
33719
33708
33854
33810
33788
33812
33895
33927
33797
33792
33834
33863
33893
33985
33946
33985
34049
34172
34192
34195
33959
33867
33732
33765
33743
33706
33695
33604
33631
33671
33719
33828
33866
33886
33903
33862
33593
33565
33441
33319
33249
33098
33127
33100
33052
32807
32782
32740
32694
32693
32756
32720
32811
32881
32820
32751
32492
32432
32391
32309
32244
32302
32279
32180
31975
31871
31890
31967
32093
32167
32228
32087
32161
32119
32099
32036
32043
32126
32103
32101
31886
31906
31964
31857
31879
31892
31774
31869
31831
31879
31996
32024
31918
32044
32085
32052
32103
32209
32143
31898
31869
31826
31742
31796
31751
31734
31782
31807
31846
31954
31863
31935
31980
31921
31908
32076
32043
32074
32164
32145
31946
31780
31818
31760
31726
31687
31788
31815
31861
31883
31798
31910
31964
31971
32047
32029
32087
32108
32187
32165
31957
31898
31852
31783
31717
31710
31817
31942
31969
31989
32004
31958
31918
31969
32028
31944
31946
32039
32142
32081
31810
31780
31796
31810
31836
31847
31884
31932
32015
32122
32206
32279
32282
32216
32162
32212
32292
32337
32300
32365
32330
32364
32391
32229
32239
32300
32411
32480
32341
32391
32469
32531
32513
32572
32693
32828
32718
32631
32577
32545
32500
32417
32327
32426
32598
32525
32429
32495
32554
32604
32750
32798
32809
32819
32809
32884
32886
32832
32964
33068
33053
33044
33013
32796
32751
32660
32743
32761
32798
32901
32996
33070
32994
33075
33143
33184
33220
33215
33178
33154
33126
32873
32766
32775
32830
32820
32784
32884
32956
33038
33147
33166
33143
33164
33079
33096
33124
33061
33028
33035
33095
33026
32967
32913
32708
32805
32891
32803
32958
32839
32984
33087
33167
33164
33150
33304
33353
33333
33184
32945
32884
32837
32785
32831
32970
32956
33018
33053
32908
32977
32963
32937
33082
33185
33208
33046
33063
33109
33055
33049
32970
32990
32992
32972
32742
32728
32765
32759
32791
32786
32831
33034
33107
33020
33134
33214
33158
33063
33011
33063
33103
33128
33060
32853
32783
32734
32714
32646
32871
33063
33078
33068
33051
33031
32839
32797
32814
32845
32854
32930
32886
32903
32820
32838
32709
32748
32815
32832
32853
32967
33036
32895
32942
32956
32956
33006
32996
32969
32900
32890
32805
32694
32565
32647
32627
32649
32458
32508
32594
32725
32825
32860
32906
32830
32806
32806
32801
32919
32959
32924
32868
32709
32673
32610
32574
32596
32556
32596
32620
32718
32743
32764
32751
32773
32814
32894
32927
32941
32900
32806
32762
32675
32645
32633
32645
32738
32751
32737
32880
33028
33145
33204
33255
33309
33239
33031
33102
33004
33008
33026
32999
33077
33052
32935
32758
32743
32740
32789
32892
32952
32990
33145
33287
33359
33338
33055
33040
33063
32982
32972
32942
32948
32953
32685
32630
32625
32598
32583
32635
32661
32755
32912
32975
32886
32911
32944
32851
32762
32734
32597
32640
32642
32556
32391
32321
32340
32366
32449
32500
32627
32764
32845
32714
32714
32726
32751
32849
32840
32815
32801
32861
32631
32556
32549
32529
32532
32639
32642
32509
32580
32527
32514
32405
32389
32316
32164
31966
31699
31302
31060
30823
30605
30476
30345
30270
30300
30441
30714
30934
30958
31190
31408
31518
31711
32053
32391
32671
32935
33090
33545
34199
34916
35645
36468
37145
38200
39148
40034
40724
41436
41722
41735
41570
41149
40645
39833
39646
39132
38575
38082
37597
37094
36743
36228
35648
35130
34726
34420
34106
33998
33962
33915
33595
33487
33356
33213
33242
33237
33189
33130
33012
32805
32428
32229
32046
31860
31694
31581
31466
31461
31412
31348
31364
31342
31230
31378
31397
31332
31338
31364
31412
31374
31375
31406
31379
31404
31402
31282
31161
31212
31258
31364
31527
31361
31469
31508
31458
31386
31368
31391
31388
31375
31239
31264
31278
31254
31298
31378
31494
31604
31653
31647
31435
31490
31559
31528
31564
31532
31440
31469
31571
31602
31325
31337
31359
31360
31366
31349
31456
31567
31635
31500
31597
31727
31770
31801
31786
31839
31806
31764
31735
31573
31543
31464
31565
31565
31541
31371
31478
31591
31692
31789
31846
31876
31879
31901
31958
31927
31735
31732
31718
31676
31623
31527
31593
31590
31653
31715
31586
31704
31785
31767
31807
31928
31977
31823
31804
31845
31862
31860
31911
31887
31837
31622
31640
31652
31655
31702
31710
31874
32028
32143
32007
32039
32014
32012
32028
32004
32079
32068
31988
31846
31809
31829
31716
31738
31841
31857
31879
32096
32167
32200
32366
32436
32478
32468
32343
32271
32287
32255
32227
32282
32290
32332
32180
32237
32276
32253
32388
32491
32601
32647
32543
32647
32746
32792
32788
32876
32905
32775
32875
32974
32941
32903
32924
33024
33057
33096
33221
33271
33263
33286
33447
33522
33628
33628
33799
33881
33778
33620
33594
33667
33685
33611
33437
33484
33629
33663
33654
33793
33957
34082
34150
34182
34243
34214
34091
33927
33950
33953
33932
33806
33751
33733
33708
33767
33855
33959
34014
34062
34086
34126
34100
34009
33910
33735
33719
33600
33420
33529
33550
33496
33374
33121
32961
32837
32846
32741
32544
32628
32799
32883
32854
32762
32792
32698
32564
32486
32392
32433
32482
32507
32454
32176
32071
31947
32061
31847
31924
31920
32029
32064
31904
31964
32023
31999
32045
32140
31847
31834
31774
31705
31702
31542
31604
31591
31615
31730
31831
31868
31713
31740
31765
31908
31928
31948
31757
31724
31725
31758
31560
31602
31519
31532
31580
31647
31509
31569
31673
31657
31558
31552
31554
31599
31764
31817
31842
31677
31671
31719
31738
31727
31692
31696
31636
31616
31640
31446
31486
31644
31668
31751
31802
31844
31857
31780
31799
31716
31641
31676
31652
31407
31401
31403
31351
31338
31452
31495
31540
31503
31599
31651
31711
31727
31798
31803
31891
31686
31700
31622
31687
31632
31625
31527
31628
31686
31745
31844
31804
31844
31872
31905
32065
32175
32217
32065
32061
31986
31956
32014
32036
31950
31806
31823
31781
31774
31830
31972
32124
32262
32294
32287
32325
32449
32519
32516
32244
32244
32348
32308
32271
32182
32212
32277
32334
32388
32327
32254
32454
32580
32550
32585
32548
32548
32623
32683
32792
32862
32672
32658
32673
32656
32728
32764
32615
32668
32727
32730
32775
32956
33057
32879
33020
33063
33068
32967
33093
33060
33010
32711
32702
32807
32744
32714
32714
32766
32602
32687
32679
32730
32877
33055
33036
33012
32948
33063
33103
33143
33104
32884
32828
32771
32767
32743
32646
32740
32902
32834
32866
32943
32980
33060
33111
33206
33070
33070
33126
33188
33095
33175
33150
33133
32885
32856
32752
32814
32892
32884
32740
32862
32988
33067
33084
33155
33233
33060
33026
32999
33062
32978
32897
32871
32842
32647
32669
32774
32805
32750
32763
32811
33031
33086
32886
32972
33159
33095
33055
32895
32829
32887
32913
32956
32956
32742
32764
32871
32839
32859
32866
32971
33067
33130
33171
33004
33042
32954
32959
32998
32995
32991
33009
33023
32981
32951
32992
33015
32934
32949
32996
32871
32993
33057
32988
32968
32994
32964
32852
32815
32743
32791
32816
32775
32714
32652
32639
32730
32797
32660
32722
32767
32832
32720
32753
32909
32890
32814
32749
32757
32799
32830
32923
32820
32580
32556
32596
32617
32711
32735
32740
32795
32827
32844
32887
32925
32891
32743
32839
32868
32847
32879
32927
32932
32869
32815
32793
32786
32900
33098
32957
33007
33038
33142
33162
33186
33158
32990
33052
33117
33100
33114
32929
32863
32807
32760
32788
32820
32927
33115
33284
33301
33280
33103
33135
33093
33028
32960
32980
32991
32969
32948
32999
32974
32788
32540
32437
32487
32506
32510
32514
32610
32646
32766
32973
33071
33087
33098
33093
32975
32761
32655
32627
32580
32591
32518
32444
32404
32484
32604
32545
32398
32464
32630
32764
32837
32918
32916
32997
33012
32907
32847
32599
32599
32551
32513
32545
32434
32527
32599
32637
32572
32465
32147
32000
31864
31656
31399
31194
30938
30750
30562
30355
30326
30314
30406
30560
30747
31088
31170
31349
31561
31815
32111
32388
32631
32882
33425
34092
34700
35479
36272
36887
37718
38490
39406
40116
40721
41510
41775
41652
41383
41026
40556
40004
39588
39111
38689
38047
37628
37215
36695
36138
35602
35159
34839
34468
34179
34010
33820
33564
33559
33525
33502
33500
33394
33309
33196
33048
32781
32629
32408
32244
32028
31824
31675
31613
31637
31551
31279
31341
31374
31400
31358
31332
31398
31468
31357
31413
31411
31338
31340
31276
31206
31207
30974
31020
31066
31218
31512
31598
31623
31663
31575
31510
31556
31574
31477
31458
31394
31310
31295
31343
31317
31276
31277
31253
31316
31271
31469
31500
31444
31577
31668
31700
31721
31710
31584
31623
31482
31495
31589
31556
31438
31407
31418
31449
31488
31510
31556
31660
31741
31639
31671
31747
31825
31819
31729
31632
31623
31631
31634
31559
31404
31476
31485
31463
31407
31410
31548
31653
31743
31786
31871
31886
31770
31741
31819
31850
31797
31653
31589
31676
31613
31556
31488
31335
31381
31503
31527
31582
31692
31780
31809
31901
31925
32028
32087
32094
32002
31933
31947
31711
31736
31697
31617
31534
31583
31624
31751
31758
31830
31788
31886
31968
32007
31998
31991
31978
31999
31999
32070
32047
32084
32053
31981
31956
31943
32000
32030
32098
32228
32309
32324
32401
32556
32358
32379
32301
32298
32307
32321
32334
32356
32318
32148
32214
32303
32359
32414
32559
32663
32678
32772
32935
33095
33127
33086
33095
32971
33000
33049
33090
33081
33020
33007
32967
33044
33013
33223
33402
33559
33656
33741
33714
33755
33758
33751
33767
33741
33760
33734
33839
33884
33895
33799
33695
33796
33774
33823
33903
33904
34004
34079
34020
34092
34111
34183
34173
33948
33940
33919
33838
33791
33760
33733
33674
33665
33746
33821
33662
33847
33892
33935
33912
33828
33796
33679
33722
33654
33548
33449
33362
33229
32935
32962
32692
32756
32793
32724
32714
32780
32772
32814
32866
32797
32671
32410
32487
32561
32405
32272
32253
32158
32055
32042
31862
31854
31823
31841
32014
32112
31948
31980
32078
32175
32135
32018
32092
32103
32103
31975
31826
31819
31798
31734
31751
31751
31717
31796
31893
31921
31751
31862
31967
31994
31914
31938
32039
32053
31985
31900
31799
31615
31549
31593
31622
31578
31555
31640
31666
31811
32022
32106
31943
31975
31988
31932
31936
31837
31774
31652
31559
31460
31506
31514
31535
31556
31620
31701
31812
31870
31899
31926
31834
31735
31777
31801
31829
31751
31716
31730
31679
31652
31585
31567
31599
31661
31536
31602
31811
31780
31804
31788
31934
31826
31863
31860
31944
31940
31944
31962
31928
31908
31808
31774
31781
31791
31649
31730
31914
31968
32010
32085
32190
32194
32279
32249
32295
32354
32238
32230
32254
32236
32233
32231
32204
32218
32238
32153
32216
32383
32480
32514
32475
32447
32501
32519
32527
32556
32574
32516
32387
32308
32351
32444
32449
32546
32495
32588
32538
32588
32684
32798
32806
32792
32813
32836
32869
32885
32718
32749
32734
32724
32724
32497
32528
32718
32759
32715
32748
32796
32876
32845
32844
32935
33084
33138
33166
33012
32951
32935
32818
32796
32860
32807
32839
32900
32876
32948
32967
33057
33143
33188
33215
33242
33239
32991
32898
32940
32998
32948
32871
32828
32754
32725
32729
32817
32861
32956
33027
33092
33159
33226
33218
33170
33127
32929
32905
32891
32903
32853
32813
32741
32724
32708
32679
32735
32785
32895
33041
33111
33111
33062
33051
32957
32904
32887
32894
32930
32937
32962
32753
32714
32767
32718
32676
32695
32852
32852
32850
32914
33003
33044
32928
32943
32958
32960
32975
32887
32741
32775
32804
32730
32628
32648
32664
32468
32591
32712
32775
32855
32877
32974
33038
33094
33095
33047
32999
33012
32928
32807
32860
32852
32838
32830
32836
32812
32822
32806
32764
32769
32866
32972
33023
32960
32869
32839
32847
32823
32709
32665
32686
32736
32716
32659
32632
32610
32623
32616
32607
32647
32782
32884
32932
32894
32927
32832
32881
32829
32792
32784
32780
32742
32503
32458
32419
32509
32532
32535
32695
32830
32948
32983
32967
32935
32894
32895
32884
32873
32806
32729
32699
32686
32690
32808
32865
32903
32935
32974
33092
33168
33244
33275
33124
33172
33307
33286
33196
33106
32980
32997
33071
33044
32888
32771
32820
32786
32823
32840
32927
32953
32986
32954
32986
32973
32983
32988
33053
33046
32975
33039
33001
32892
32753
32636
32703
32722
32710
32794
32848
32893
32917
33056
33086
32975
32852
32774
32662
32607
32615
32695
32724
32740
32731
32646
32676
32686
32615
32682
32631
32710
32756
32799
32839
32855
32821
32799
32733
32676
32615
32630
32533
32415
32404
32430
32383
32381
32381
32367
32286
32190
32012
31855
31598
31348
31140
30952
30582
30430
30337
30310
30343
30430
30712
30877
31070
31264
31229
31390
31721
32144
32443
32679
32996
33457
34068
34694
35372
36028
36716
37524
38302
39143
39988
40646
40937
41316
41221
40695
40468
40397
39940
39489
39047
38618
38270
37865
37271
36759
36292
35774
35263
34887
34567
34204
33871
33749
33645
33589
33530
33476
33395
33396
33326
33177
33036
32924
32786
32568
32165
31953
31838
31678
31540
31434
31407
31344
31287
31348
31399
31484
31282
31307
31349
31389
31397
31348
31311
31312
31341
31343
31263
31126
31037
31068
31125
31018
31086
31198
31180
31220
31346
31418
31488
31466
31394
31385
31364
31385
31430
31396
31495
31467
31483
31279
31478
31470
31485
31559
31414
31470
31516
31492
31541
31558
31508
31444
31430
31505
31471
31389
31367
31386
31388
31318
31289
31421
31454
31495
31608
31644
31665
31679
31690
31716
31701
31745
31856
31874
31671
31615
31559
31540
31519
31521
31545
31667
31653
31765
31865
31940
31983
31982
32007
31797
31852
31862
32004
31915
31644
31623
31638
31709
31670
31637
31636
31715
31828
31795
31910
32002
32086
32124
32199
32220
31956
31924
31911
31839
31737
31667
31697
31751
31817
31809
31829
31903
31954
31916
31991
31998
32007
32096
32116
32123
32095
32071
32135
31948
31982
32060
31996
31937
31887
31906
31945
32049
32180
32177
32179
32309
32312
32250
32255
32294
32373
32343
32399
32468
32500
32551
32547
32497
32238
32218
32277
32437
32651
32654
32797
32935
32970
33015
33087
33164
33201
33066
33056
33076
33031
32927
32952
33079
33158
33047
33143
33238
33347
33349
33559
33756
33846
33879
33914
33876
33820
33792
33758
33783
33706
33599
33576
33695
33730
33770
33695
33812
33927
34077
34154
34219
34251
34236
34257
34359
34385
34330
34182
34205
34115
34019
33974
33884
33695
33799
33895
33837
33900
34006
34000
33715
33737
33630
33638
33661
33593
33586
33528
33399
33226
33236
33156
33095
32919
32831
32729
32708
32743
32763
32736
32811
32716
32724
32618
32567
32517
32535
32316
32293
32128
32071
32076
32044
31989
31930
31842
31806
31972
32027
31981
31938
31968
31972
31924
31929
31892
31864
31842
31893
31967
31946
31714
31711
31601
31652
31738
31747
31816
31820
31820
31843
31895
31902
31866
31903
31956
31959
31915
31873
31799
31741
31748
31726
31502
31520
31514
31521
31556
31625
31725
31826
31877
31893
31989
32028
31919
31671
31798
31900
31870
31820
31706
31626
31356
31494
31472
31289
31370
31431
31711
31812
31848
31860
31828
31863
31855
31842
31842
31872
31830
31764
31727
31691
31592
31547
31615
31639
31670
31700
31733
31800
31742
31828
31942
32014
32187
32125
31941
31823
31799
31822
31697
31821
31740
31840
31710
31780
31923
31868
31927
32133
32038
32060
32039
32226
32242
32286
32241
32157
31940
31946
31981
32007
31998
32047
32067
32117
32203
32263
32364
32453
32604
32544
32713
32686
32678
32630
32546
32543
32466
32377
32404
32465
32406
32503
32450
32492
32487
32557
32709
32775
32852
32823
32825
32788
32812
32734
32669
32708
32625
32685
32710
32692
32700
32714
32733
32687
32695
32646
32828
32919
33031
32951
33029
33100
33070
33053
33074
33031
32975
32942
32884
32873
32839
32855
32827
32847
32937
32972
32913
32943
32987
32998
32988
32999
33093
33004
32967
32887
33049
32989
32881
32871
32845
32716
32647
32596
32712
32895
33012
33046
33071
33121
33173
33105
33065
33146
33079
33058
32982
32842
32745
32791
32847
32615
32616
32730
32938
33049
33074
33119
32929
32920
32965
33060
33090
33023
32906
32898
32862
32769
32740
32772
32769
32788
32847
32833
32837
32839
32814
32916
33015
33099
33186
33175
33184
33158
33126
33088
33027
32983
32902
32835
32764
32590
32678
32749
32851
32944
32957
32927
32990
32999
32954
32956
32996
33020
33031
32957
32753
32655
32655
32613
32637
32753
32786
32801
32924
33052
33140
33127
32913
32948
33024
32998
33015
33041
32960
32900
32791
32742
32734
32668
32645
32663
32654
32686
32689
32703
32769
32823
32878
32876
32876
32903
32944
32953
32882
32876
32812
32746
32766
32795
32753
32650
32712
32759
32724
32694
32585
32666
32746
32754
32836
32897
32876
32804
32880
32972
32973
33001
32934
32982
33028
32999
32972
32947
32940
32959
33012
33043
32990
33007
33060
33174
33252
33287
33220
33166
33201
33071
32948
32890
32817
32757
32764
32841
32839
32814
32918
32891
33023
33052
33084
33077
33067
33066
33096
33124
33012
32789
32771
32726
32612
32516
32578
32623
32701
32788
32980
33042
33031
32975
32997
33029
32981
32857
32834
32806
32717
32586
32604
32738
32730
32601
32570
32565
32673
32775
32749
32804
32866
32924
32922
32956
33031
33001
32703
32660
32612
32492
32388
32326
32132
31986
31780
31594
31455
31303
31168
30912
30704
30605
30524
30495
30543
30654
30847
30951
31007
31085
31172
31309
31630
31934
32204
32460
32704
33030
33572
34189
34846
35490
36304
37090
37929
38782
39575
40308
40886
41294
41383
41261
40923
40487
40029
39449
39198
38723
38388
37924
37444
37150
36639
36195
35690
35194
34855
34484
34164
33911
33703
33519
33383
33210
33046
32982
32961
32922
32943
32918
32742
32627
32550
32463
32204
32132
31902
31886
31608
31361
31202
31079
31022
31033
31041
31069
31078
31236
31389
31396
31402
31376
31329
31299
31263
31220
31210
31423
31420
31372
31311
31270
31273
31228
31252
31282
31287
31310
31344
31451
31412
31532
31551
31528
31443
31442
31343
31277
31301
31323
31287
31246
31261
31327
31310
31267
31359
31372
31375
31307
31408
31495
31496
31703
31588
31521
31421
31393
31588
31476
31433
31396
31367
31372
31412
31463
31495
31520
31548
31595
31588
31604
31615
31622
31687
31620
31610
31436
31495
31535
31470
31367
31325
31341
31405
31353
31415
31367
31559
31702
31729
31789
31840
31860
31894
31801
31712
31620
31516
31511
31495
31495
31588
31615
31643
31691
31692
31701
31738
31789
31844
31906
31934
31913
31946
31893
31827
31841
31837
31706
31700
31743
31880
31769
31719
31880
31899
31928
32029
32087
32095
32090
32107
32162
32199
32168
32125
32115
32087
32039
32031
32050
31996
32007
32011
31991
32080
32214
32259
32381
32439
32401
32335
32297
32328
32325
32359
32401
32496
32554
32543
32506
32494
32529
32603
32650
32844
32852
32939
32980
33020
33181
33091
33197
33212
33374
33373
33388
33370
33341
33332
33319
33365
33388
33424
33448
33575
33622
33738
33875
33916
33758
33943
33969
34035
33825
33817
33815
33829
33774
33767
33674
33715
33780
33790
33932
33956
33984
34012
34110
34090
34053
34015
33988
33929
33882
33844
33830
33855
33823
33743
33709
33607
33575
33515
33532
33620
33736
33695
33532
33396
33343
33265
33340
33353
33151
32892
32833
32804
32735
32684
32615
32519
32413
32386
32425
32470
32456
32442
32303
32148
32237
32223
32073
31977
32015
32063
32030
31940
31836
31776
31716
31669
31650
31715
31810
31842
31831
31894
31940
31975
31882
31855
31932
31871
31841
31861
31861
31857
31821
31719
31662
31479
31519
31546
31575
31638
31815
31934
31938
31898
31908
31932
31931
31899
31750
31698
31647
31637
31559
31487
31535
31569
31580
31654
31604
31529
31487
31628
31768
31855
31820
31818
31725
31751
31830
31848
31778
31716
31687
31668
31711
31684
31675
31700
31746
31620
31663
31718
31816
31964
32053
31998
32006
31940
31870
31865
31807
31806
31727
31618
31532
31511
31580
31639
31759
31863
31780
31884
31930
31963
31988
31870
31844
31934
31948
31871
31834
31791
31783
31836
31828
31861
31815
31805
31950
32036
32190
32295
32385
32450
32516
32543
32550
32436
32391
32414
32391
32352
32323
32252
32263
32319
32392
32482
32524
32418
32503
32553
32623
32636
32630
32703
32710
32716
32690
32610
32487
32500
32539
32550
32550
32518
32519
32492
32549
32500
32561
32645
32745
32854
32903
32953
33015
33066
33124
33153
33057
32852
32788
32676
32576
32556
32559
32703
32775
32788
32887
32965
33049
33085
33124
33199
33135
33119
32986
32983
32974
32908
32801
32775
32724
32729
32766
32700
32816
32999
33044
33004
33095
33103
33111
33134
33128
33084
33069
33017
32970
32961
33086
33032
32903
32860
32855
32921
32956
32900
32860
32908
33026
33095
33134
33135
33156
33107
33031
32982
32890
32884
32911
32868
32796
32848
32839
32887
33045
33097
33151
33196
33261
33348
33402
33406
33325
33261
33030
33031
33172
33013
32807
32799
32751
32786
32872
32951
32937
33000
33060
33012
33030
32978
33020
33110
33131
33182
33192
32923
32842
32876
32887
32847
32700
32630
32613
32687
32794
32909
32980
33070
33166
33248
33282
33279
33151
33002
32875
32869
32846
32813
32775
32716
32716
32764
32794
32775
32773
32914
32979
32991
33000
33018
33020
32973
32964
32948
32900
32829
32815
32695
32614
32584
32508
32495
32552
32615
32679
32704
32657
32677
32793
32900
32994
32970
32986
33031
32962
32955
32913
32865
32769
32607
32499
32516
32516
32564
32664
32758
32881
32942
32995
32940
33018
33070
33120
33127
33242
33215
33079
32974
32911
32861
32767
32759
32799
32895
32956
33040
33060
33154
33180
33170
33204
33117
33095
33103
33111
33104
33039
32957
32713
32943
32972
32921
32826
32775
32756
32993
32967
32963
32983
33062
32948
32914
32980
32794
32936
32767
32686
32728
32594
32699
32471
32497
32457
32630
32706
32772
32860
32868
32836
32807
32925
32926
32919
32824
32691
32685
32733
32720
32718
32685
32574
32551
32519
32512
32701
32853
32915
32994
33020
32924
32871
32850
32794
32718
32332
32166
32108
31910
31678
31474
31232
31000
30613
30434
30311
30340
30372
30468
30634
30898
31193
31442
31495
31479
31589
31823
32050
32275
32439
32714
33114
33715
34416
35158
35866
36730
37573
38594
39581
40392
41076
41638
41975
41839
41432
40901
40332
39750
39136
38568
38135
37727
37239
37066
36640
36231
35800
35315
34959
34762
34535
34215
33966
33745
33551
33397
33268
33265
33183
33092
32924
32729
32543
32380
32178
32090
32007
31976
31788
31655
31629
31605
31599
31494
31305
31225
31199
31194
31148
31132
31146
31118
31056
31254
31332
31385
31438
31495
31538
31620
31636
31685
31708
31663
31596
31526
31418
31383
31109
30963
30983
31095
31263
31102
31300
31342
31412
31460
31509
31734
31658
31583
31622
31612
31550
31513
31471
31455
31415
31438
31429
31451
31430
31398
31427
31500
31573
31633
31484
31595
31629
31660
31646
31662
31550
31428
31367
31338
31343
31367
31423
31430
31465
31548
31573
31572
31552
31615
31623
31530
31528
31668
31939
31988
31959
31688
31650
31542
31431
31383
31387
31404
31438
31526
31655
31716
31686
31735
31903
31955
31972
31999
32043
32024
31954
31733
31783
31791
31716
31663
31658
31641
31623
31562
31623
31743
31885
31951
31929
31949
31949
32024
32070
32007
32064
31981
31929
31953
31952
31814
31747
31817
31847
31950
32004
32080
32119
32215
32292
32224
32218
32276
32359
32422
32332
32246
32231
32250
32203
32095
32076
32279
32110
32143
32162
32177
32197
32305
32441
32504
32527
32566
32578
32546
32605
32735
32724
32775
32823
32794
32804
32846
32871
32870
32937
33022
33109
33257
33374
33476
33566
33575
33541
33543
33499
33463
33476
33503
33487
33462
33444
33639
33580
33690
33736
33753
33941
34106
34262
34359
34412
34213
34145
34109
34031
34023
34055
34092
34044
33892
33812
33871
33940
33889
33935
33948
34068
34185
34283
34209
34117
34108
33991
34001
33882
33756
33597
33469
33556
33546
33465
33404
33143
33327
33375
33336
33229
33221
33220
33108
33072
33125
33023
32932
32783
32576
32652
32622
32468
32341
32263
32093
32034
32024
32001
31910
31877
31846
31895
31978
32076
32087
31944
31846
31938
31980
31918
31898
31854
31826
31814
31783
31751
31649
31792
31915
31849
31802
31718
31784
31682
31734
31734
31756
31738
31740
31800
31801
31725
31665
31540
31548
31573
31688
31704
31703
31751
31777
31828
31860
31913
31854
31855
31774
31692
31655
31570
31398
31315
31460
31418
31375
31410
31484
31478
31505
31644
31701
31938
31941
31893
31879
31820
31812
31764
31671
31564
31466
31391
31388
31370
31439
31488
31486
31396
31420
31614
31721
31652
31668
31627
31627
31794
31751
31724
31719
31735
31757
31734
31636
31604
31582
31674
31720
31778
31695
31793
31823
32084
32135
32064
32055
32013
31959
32034
32085
32089
32004
31980
31922
31900
31886
31885
31889
31999
32067
32318
32343
32234
32447
32488
32458
32493
32487
32488
32465
32373
32391
32374
32420
32442
32475
32572
32572
32637
32687
32735
32788
32831
32839
32795
32775
32687
32588
32621
32671
32711
32696
32724
32815
32828
32730
32653
32755
32764
32804
32951
32971
33048
33023
32999
32940
33026
32811
32885
32900
32895
32775
32791
32681
32712
32745
32820
32839
32898
32979
33085
33149
33214
33152
33118
33118
33110
33086
32964
32855
32801
32825
32862
32867
32879
32911
32918
32899
32941
33063
33170
33218
33222
33074
33082
33079
33071
33031
32988
33058
33030
32978
32934
32967
32954
32934
32930
32895
32935
32932
32967
32848
32939
32973
32874
32841
32897
32959
33022
32964
32956
32936
32989
32980
32943
32853
32837
32926
32991
33076
33098
33054
33047
33115
33109
33060
33074
33127
33102
33013
32738
32678
32671
32632
32647
32687
32690
32706
32843
32924
32995
33061
33162
33142
33056
33070
33126
33105
33083
33042
33001
32676
32628
32544
32532
32652
32765
32847
32887
32999
33107
33133
33126
33122
33084
33087
32935
32846
32812
32837
32711
32649
32647
32683
32747
32605
32708
32759
32822
32956
32974
32840
32901
32949
32976
32966
33028
33004
32808
32746
32775
32796
32566
32516
32545
32569
32574
32630
32764
32795
32871
33051
33146
33135
33160
33168
33129
32903
32916
32911
33013
33039
32988
32935
32868
32758
32724
32823
32943
33023
33092
33156
33188
33187
33169
33126
33066
33140
33144
33126
33119
32881
32884
32869
32754
32716
32811
32895
32910
32983
32975
33215
33196
33118
33039
32952
32860
32870
32848
32622
32639
32687
32915
32919
32890
32868
32813
32832
32775
32644
32823
32928
32918
32911
32855
32876
32892
32808
32735
32679
32584
32507
32636
32708
32734
32705
32695
32679
32572
32660
32620
32747
32915
32950
32981
32912
32804
32639
32589
32568
32476
32356
32252
32017
31823
31574
31354
31216
30991
30869
30635
30566
30502
30508
30604
30727
30969
31126
31228
31336
31338
31397
31689
32067
32472
32748
33017
33457
34017
34732
35506
36335
37180
37840
38724
39633
40489
41027
41452
41567
41367
40996
40592
40140
39626
39197
38711
38327
37984
37645
37286
36871
36417
35847
35581
35227
34782
34444
34204
33962
33628
33507
33396
33356
33228
33208
33309
33262
33195
32876
32757
32647
32506
32287
32070
31967
31760
31542
31468
31404
31374
31192
31127
31140
31192
31260
31207
31271
31367
31367
31205
31266
31335
31406
31429
31420
31471
31463
31441
31463
31366
31377
31202
31238
31206
31276
31300
31327
31454
31533
31586
31460
31596
31670
31751
31724
31661
31716
31553
31549
31352
31453
31367
31314
31479
31379
31333
31385
31564
31599
31653
31695
31861
31714
31682
31620
31557
31558
31583
31607
31524
31519
31589
31625
31649
31704
31478
31576
31674
31751
31821
31860
31751
31772
31671
31750
31797
31779
31799
31720
31533
31473
31454
31467
31500
31486
31480
31543
31613
31812
31963
32038
32061
32039
32028
32024
31845
31815
31977
31748
31668
31666
31751
31642
31631
31665
31623
31729
31812
31924
32044
32079
32084
32046
32040
32018
31980
31932
31956
31938
31935
31946
31940
31865
31868
31860
31802
31830
31869
31956
32044
32036
32183
32247
32242
32080
32116
32113
32037
31976
31958
31930
31956
32057
32051
32083
32110
32219
32335
32453
32508
32554
32540
32543
32542
32531
32484
32470
32708
32712
32751
32722
32654
32558
32575
32700
32759
32849
32946
32981
33045
33186
33314
33279
33316
33350
33478
33519
33527
33536
33578
33509
33483
33463
33564
33559
33572
33506
33649
33772
33878
33921
33927
33908
33974
33988
34213
34129
34034
33991
33972
33818
33799
33807
33838
33953
33940
33967
34010
34108
34174
34164
34100
34073
34148
34060
33945
33829
33678
33647
33604
33538
33505
33441
33372
33412
33345
33349
33390
33478
33549
33468
33296
33252
33228
33224
33148
33015
32879
32733
32592
32469
32360
32260
32249
32254
32171
32210
32247
32259
32294
32241
32290
32286
32274
32230
31980
32031
32015
31892
31792
31751
31702
31585
31513
31567
31606
31655
31742
31852
31924
32015
31903
31943
31903
31890
31832
31791
31717
31586
31530
31558
31604
31547
31590
31638
31572
31569
31549
31471
31740
31812
31668
31785
31863
31820
31684
31687
31660
31574
31540
31465
31380
31313
31356
31474
31506
31611
31743
31829
31835
31804
31747
31552
31577
31502
31590
31669
31649
31652
31590
31458
31415
31420
31442
31564
31646
31686
31766
31813
31848
31909
31713
31679
31701
31644
31616
31596
31534
31580
31540
31468
31404
31438
31468
31602
31652
31716
31836
31943
32020
32078
32026
32022
32103
32036
31940
31908
31864
31761
31751
31740
31710
31774
31751
31781
31699
31770
31863
32079
32284
32236
32199
32241
32335
32319
32046
32042
32061
32076
32063
32054
32100
32061
32191
32260
32342
32356
32314
32391
32525
32552
32583
32690
32750
32708
32615
32638
32659
32591
32555
32519
32463
32441
32545
32623
32605
32652
32724
32815
32879
32908
32927
32958
32754
32708
32724
32753
32767
32684
32620
32753
32713
32727
32754
32822
32839
32793
32881
32818
32866
32984
33063
33125
33116
33111
33019
32910
32836
32710
32559
32606
32700
32774
32746
32772
32671
32775
32891
32987
33024
33071
33079
33222
32994
33055
33079
32979
32910
32955
32840
32720
32613
32531
32500
32694
32740
32903
32895
32949
33071
33067
32900
32998
33041
33021
33122
33196
33159
32913
32816
32784
32742
32742
32895
32927
33026
33076
33103
33125
33182
33171
33046
33076
33085
33081
33055
33052
33052
32974
32829
32767
32798
32813
32754
32813
32935
33012
33076
33066
33098
33070
32876
32961
32914
32900
32921
33095
33012
32929
32772
32593
32466
32588
32583
32700
32901
32907
32919
32910
33087
33058
33014
32994
33070
32967
32815
32879
32854
32817
32580
32602
32561
32487
32501
32580
32684
32756
32900
32809
32911
33013
33000
33054
33048
32996
32913
32871
32903
32874
32754
32765
32726
32681
32708
32742
32789
32867
33028
33074
33148
33167
33174
33039
33040
33116
33210
33204
33122
33020
33030
33030
33012
32964
32957
32980
32952
32922
32989
33031
33130
33246
33271
33242
33287
33367
33316
33324
33276
33022
32974
32830
32820
32828
32860
32834
32826
32853
32890
32845
32910
32897
32862
32933
32986
32925
33039
33063
33053
32891
32821
32763
32710
32698
32753
32791
32772
32731
32769
32815
32775
32833
32918
32903
32964
33042
33062
32936
32827
32809
32903
32898
32812
32806
32655
32692
32783
32807
32871
32862
32837
32834
32769
32791
32775
32646
32489
32260
31983
31748
31580
31367
31015
30864
30735
30579
30442
30423
30300
30485
30700
30898
31173
31388
31513
31692
31861
32055
32298
32567
32809
33159
33606
34129
34736
35491
36332
37075
37836
38780
39912
40764
41125
41588
41694
41479
41183
40614
40170
39569
39036
38516
38055
37716
37326
36975
36380
36045
35622
35250
34965
34675
34619
34324
34047
33855
33699
33500
33348
33233
33159
33057
33030
32977
32850
32680
32512
32430
32339
32174
32004
31960
31968
31878
31724
31721
31652
31540
31468
31415
31327
31291
31271
31263
31279
31294
31294
31252
31260
31349
31404
31416
31492
31623
31742
31751
31644
31591
31567
31508
31397
31341
31386
31383
31313
31287
31311
31387
31300
31434
31525
31567
31615
31628
31640
31637
31581
31504
31385
31396
31479
31495
31402
31335
31362
31374
31359
31439
31506
31561
31655
31675
31648
31663
31684
31742
31719
31692
31699
31514
31431
31367
31401
31415
31484
31511
31559
31608
31750
31844
31911
31937
31823
31817
31746
31775
31751
31721
31606
31549
31488
31508
31556
31594
31610
31622
31700
31817
31945
32017
31969
32014
31972
31950
31956
31875
31783
31833
31797
31724
31700
31652
31668
31711
31785
31804
31796
31782
31832
31864
31879
31976
32037
32066
32044
31979
31941
31924
31858
31866
31857
31840
31792
31728
31782
31831
31900
31936
31879
31953
32148
32299
32404
32314
32068
32066
32084
32133
32217
32156
32186
32277
32263
32093
32116
32201
32358
32455
32532
32574
32608
32662
32703
32740
32742
32769
32751
32838
32862
32861
32814
32728
32810
32894
32927
32939
33026
33162
33250
33383
33489
33543
33519
33530
33484
33552
33605
33662
33712
33764
33767
33735
33718
33757
33791
33768
33870
33990
33936
34106
34086
34109
34096
34073
34126
34210
34181
34207
34163
34110
34031
33998
33940
33980
33982
33942
33963
33989
33975
34046
34020
33980
33944
33975
34036
34079
34021
33928
33805
33671
33551
33441
33335
33190
33005
33027
33044
33045
32971
32916
32948
32902
32905
32923
32887
32820
32709
32563
32473
32341
32258
32159
32014
31960
31935
31898
32031
32040
32046
32020
32071
32132
32040
31941
31919
31940
31871
31693
31636
31560
31541
31537
31547
31478
31493
31581
31701
31818
31864
31744
31725
31801
31772
31809
31808
31808
31846
31836
31829
31772
31742
31650
31446
31431
31447
31460
31580
31586
31615
31647
31645
31701
31792
31793
31746
31700
31644
31494
31502
31579
31562
31527
31455
31471
31511
31510
31447
31446
31452
31492
31588
31662
31727
31740
31877
31772
31654
31689
31662
31704
31685
31615
31443
31508
31480
31504
31630
31668
31725
31810
31823
31839
31823
31730
31729
31672
31580
31805
31726
31658
31685
31640
31470
31500
31524
31573
31655
31804
31844
31871
31912
31954
32044
32033
31988
31967
31940
31863
31843
31758
31612
31679
31807
31850
31853
31915
32037
32241
32423
32506
32571
32632
32680
32727
32528
32465
32380
32369
32390
32346
32244
32196
32278
32329
32348
32388
32496
32527
32614
32684
32647
32612
32679
32708
32743
32744
32735
32726
32765
32726
32639
32666
32650
32621
32638
32588
32583
32463
32527
32501
32556
32700
32734
32799
32969
32983
33005
32996
32927
32932
32898
32754
32724
32681
32643
32724
32906
33062
33162
33078
33048
33052
33015
32948
32943
32807
32869
32879
32901
32953
32963
32748
32743
32695
32700
32683
32755
32849
32820
32903
33095
33180
33182
32988
33027
32914
32796
32700
32663
32728
32674
32596
32745
32807
32846
32788
32743
32823
32994
32974
32988
33066
33041
33100
33159
33247
33028
33020
32910
32761
32774
32758
32757
32785
32852
32930
32995
32965
32898
32993
33079
33073
33079
33097
33174
33148
33140
32868
32764
32742
32589
32518
32375
32446
32570
32743
32860
32933
32945
32950
32975
33020
32871
32941
32965
32932
32897
32866
32755
32711
32656
32713
32694
32751
32792
32815
32917
32839
32871
32831
32854
32839
32959
33006
32950
32845
32804
32736
32637
32668
32697
32753
32678
32706
32766
32839
32864
33023
33235
33385
33455
33364
33309
33251
33106
33063
33148
33162
33086
33041
33041
33068
33031
32871
32913
32983
33062
33092
33191
33196
33277
33206
33220
33305
33280
33169
33110
33110
33060
32799
32794
32708
32620
32616
32596
32678
32708
32678
32808
33004
33189
33319
33343
33252
33211
33163
33137
33111
32876
32815
32800
32774
32747
32647
32666
32710
32765
32810
32840
32889
32935
33028
33031
32966
32959
32932
32841
32765
32676
32597
32613
32660
32550
32573
32495
32518
32416
32482
32582
32564
32432
32289
31996
31751
31599
31343
31091
30874
30607
30376
30341
30231
30379
30562
30793
30999
31222
31362
31646
31937
32079
32452
32784
33132
33531
33977
34500
35201
35904
36631
37512
38199
39111
39943
40655
41303
41376
41479
41535
41151
40724
40207
39716
39268
38761
38174
37751
37383
36898
36354
35699
35248
34782
34492
34204
33999
33799
33637
33550
33542
33593
33478
33444
33501
33480
33211
33060
32854
32580
32396
32151
31973
31823
31671
31482
31397
31372
31418
31371
31420
31401
31438
31431
31350
31398
31420
31365
31351
31340
31300
31227
31206
31222
31047
31028
30980
31060
31156
31312
31399
31524
31575
31646
31631
31562
31524
31503
31279
31445
31428
31394
31276
31135
31172
31302
31298
31309
31396
31559
31676
31776
31865
31699
31663
31609
31581
31469
31350
31295
31234
31215
31308
31378
31370
31390
31430
31511
31575
31527
31595
31644
31686
31766
31748
31740
31694
31719
31612
31491
31596
31519
31428
31540
31654
31604
31577
31610
31576
31548
31535
31751
31695
31814
31778
31808
31897
31983
32037
32001
31898
31749
31609
31612
31601
31639
31644
31707
31783
31814
31892
31983
32018
32042
32087
32061
32049
31983
31903
31804
31735
31708
31748
31768
31684
31689
31777
31895
31980
32045
32117
32151
32195
32141
32032
32015
32031
32052
32036
32051
31991
31814
31712
31771
31862
32004
32055
32135
32199
32316
32351
32359
32350
32431
32412
32292
32262
32308
32355
32501
32471
32483
32598
32584
32647
32817
32781
32949
33031
33047
33031
33095
33155
33092
33327
33324
33184
33204
33145
33060
33023
33054
33071
33217
33084
33277
33495
33402
33506
33693
33566
33918
34036
34076
34077
34086
33885
33845
33793
33826
33859
33836
33838
33697
33767
33844
33943
34031
34125
34224
34341
34516
34609
34456
34496
34482
34351
34269
34184
34079
34037
33945
33894
33884
34000
33950
34038
34067
33902
33877
33855
33824
33844
33732
33703
33660
33419
33252
33178
33174
33127
32882
32877
32885
32874
32752
32791
32799
32738
32775
32748
32720
32620
32574
32598
32540
32458
32437
32396
32263
32072
31975
31879
31810
31704
31660
31740
31848
31919
31887
31927
31862
31868
31965
31910
31914
31826
31741
31703
31680
31596
31552
31501
31575
31495
31524
31639
31715
31751
31794
31863
31898
31877
31868
31844
31765
31699
31635
31618
31479
31503
31554
31596
31636
31720
31827
31804
31798
31623
31774
31668
31751
31751
31751
31714
31629
31662
31587
31510
31415
31356
31334
31335
31327
31373
31482
31578
31623
31630
31674
31764
31721
31829
31891
31863
31845
31791
31698
31652
31608
31551
31494
31512
31535
31348
31372
31336
31444
31566
31725
31828
31741
31784
31980
31988
31970
31717
31717
31720
31685
31643
31593
31656
31714
31707
31682
31675
31660
31652
31716
31872
31961
32009
32030
32117
32140
32093
32165
32183
32156
32094
32023
32024
32007
32068
32089
32030
32126
32256
32407
32492
32556
32610
32636
32602
32612
32606
32536
32473
32470
32458
32428
32418
32372
32338
32388
32436
32489
32567
32658
32718
32775
32761
32801
32797
32875
32901
32835
32709
32591
32488
32422
32407
32401
32463
32484
32576
32567
32837
32975
33023
33055
33102
33176
33010
32983
32902
33001
33031
32913
32806
32739
32671
32716
32673
32719
32775
32917
32948
33030
33158
33013
33052
33132
33124
33047
33031
32941
32887
32895
32838
32767
32636
32564
32533
32572
32647
32727
32710
32863
32986
33182
33116
33011
32974
32983
33007
32989
32914
32822
32726
32749
32721
32701
32727
32685
32753
32935
32951
32924
33030
33059
33026
33031
32988
32897
32933
32854
32772
32748
32745
32686
32630
32667
32642
32581
32663
32612
32698
32838
32900
32910
32911
32867
32871
32847
32906
32893
32866
32940
32907
32871
32868
32870
32910
32893
32907
32943
33044
32941
33108
33214
33123
33136
33071
33052
32982
32973
32966
32879
32763
32775
32796
32916
32998
33031
33130
33298
33367
33287
33326
33323
33271
33249
33252
33312
33215
33055
32964
32820
32834
32857
32801
32863
32901
32825
32910
32960
33135
33301
33375
33405
33460
33317
33207
33142
33093
33005
32970
32953
32953
32873
32751
32687
32631
32504
32532
32638
32753
32918
32988
33008
33023
33042
33155
33255
33214
33112
33043
32796
32647
32678
32726
32682
32623
32659
32663
32679
32670
32721
32877
32918
32911
32907
32934
32887
32869
32911
32892
32882
32851
32711
32615
32599
32542
32507
32445
32341
32303
32415
32403
32249
32007
31647
31275
31120
30983
30760
30503
30329
30273
30333
30436
30634
30853
31021
31239
31481
31645
31972
32292
32539
32758
33061
33423
33932
34473
35190
35919
36375
37159
38025
39006
39834
40597
41190
41625
41724
41564
41021
40608
40151
39564
39118
38607
38322
37669
37383
36967
36462
35924
35551
35109
34762
34534
34261
34044
33785
33583
33514
33490
33512
33367
33391
33393
33316
33081
32922
32615
32348
32220
32023
31823
31677
31590
31440
31420
31466
31409
31345
31423
31541
31623
31633
31641
31658
31602
31498
31439
31383
31332
31334
31331
31335
31239
31229
31254
31431
31519
31633
31698
31751
31749
31703
31612
31624
31591
31529
31512
31469
31348
31294
31258
31283
31354
31467
31598
31569
31540
31597
31624
31624
31652
31744
31839
31777
31746
31683
31636
31695
31692
31631
31548
31502
31433
31567
31631
31786
31772
31799
31873
31788
31865
31841
31762
31718
31817
31821
31735
31693
31699
31582
31568
31490
31479
31403
31582
31742
31883
31937
31999
32052
32043
31966
31860
31823
31838
31847
31779
31714
31686
31701
31420
31371
31449
31515
31570
31693
31706
31679
31697
31802
31881
31909
31962
31967
31932
31967
31892
31815
31825
31695
31660
31711
31658
31635
31770
31951
32023
32098
32185
32236
32202
32287
32319
32230
32111
32037
31963
31847
31872
31860
31883
31906
31975
32082
32153
32214
32236
32292
32380
32408
32409
32413
32415
32280
32374
32405
32462
32420
32352
32317
32273
32330
32529
32567
32599
32723
32828
32799
32942
33070
33182
33252
33300
33284
33346
33280
33170
33156
33117
33020
32959
33106
33199
33335
33487
33492
33740
33733
33871
33974
34015
33998
34052
34010
33868
33796
33774
33914
34005
33903
33863
33902
33940
33839
33943
34026
34126
34175
34150
34135
34245
34215
34241
34424
34384
34332
34260
34127
34000
33895
33871
33809
33766
33793
33836
33724
33741
33836
33799
33764
33679
33625
33556
33446
33324
33282
33297
33159
33102
32981
32817
32761
32678
32495
32367
32295
32391
32493
32459
32391
32327
32403
32198
32140
32134
31958
31848
31943
31961
31887
31879
31799
31712
31615
31687
31702
31759
31782
31935
31937
31934
31936
31868
31813
31644
31526
31582
31555
31541
31463
31460
31491
31527
31596
31646
31689
31765
31849
31838
31799
31812
31732
31654
31716
31868
31831
31802
31695
31604
31692
31676
31619
31620
31612
31681
31676
31648
31685
31704
31624
31663
31654
31639
31579
31605
31528
31543
31584
31533
31492
31353
31301
31290
31394
31466
31405
31412
31415
31463
31630
31684
31812
31855
31839
31722
31620
31605
31599
31548
31314
31313
31228
31268
31327
31472
31622
31703
31796
31799
31885
31945
31898
31827
31780
31711
31762
31652
31601
31577
31655
31645
31597
31588
31712
31837
31863
31966
32057
32051
32036
31943
31949
31916
31895
31877
31900
32007
32019
31969
31949
31896
31948
31974
31981
31996
32055
32098
32124
32199
32319
32336
32364
32308
32348
32431
32423
32383
32228
32263
32252
32295
32327
32261
32212
32436
32543
32651
32742
32844
32917
32915
32932
32903
32918
32883
32754
32591
32569
32565
32608
32628
32516
32460
32516
32583
32866
32841
33055
32890
32962
32884
32810
33001
32936
32802
32891
32756
32724
32812
32734
32657
32741
32715
32798
32878
32950
33046
33010
32913
32940
32951
32939
32930
32918
32882
32906
32903
32932
32919
32889
32880
32894
32908
33012
33112
33157
33145
33022
32996
32884
32894
33006
33155
33111
33126
33004
32887
32844
32743
32709
32615
32590
32621
32658
32743
32796
32860
32949
33031
33029
33012
33075
33078
32903
32795
32839
32847
32740
32612
32495
32503
32483
32525
32549
32657
32643
32853
33010
32932
32971
33041
33087
33083
33020
32948
32927
32891
32861
32743
32748
32823
32844
32911
32972
32965
33100
33143
33238
33319
33366
33439
33471
33427
33353
33327
33126
33119
33039
32967
32942
32878
32846
32879
32983
33047
33109
33115
33135
33168
33184
33249
33310
33191
33044
32941
32815
32943
32935
32765
32654
32655
32659
32606
32733
32792
32951
32977
33048
33045
33243
33274
33193
33126
33012
32991
33036
33024
32884
32775
32740
32719
32749
32759
32705
32821
32911
32999
33024
33066
33172
33143
33107
33023
33045
33071
33015
32913
32879
32793
32744
32766
32637
32638
32775
32764
32722
32685
32691
32655
32551
32615
32540
32423
32177
32023
31763
31470
31103
30884
30689
30448
30236
30215
30374
30564
30880
31289
31526
31653
31652
31726
31878
32157
32423
32663
32812
33172
33704
34289
35095
36006
36791
37485
38295
39217
40100
41077
41652
42079
42108
41888
41507
40986
40345
39794
39229
38675
38208
37776
37311
36818
36329
35779
35281
34980
34659
34453
34306
34237
34153
34071
33930
33681
33678
33516
33209
33063
32991
32984
32841
32629
32423
32276
32194
32119
32018
31895
31822
31691
31655
31655
31595
31503
31419
31357
31321
31404
31364
31411
31384
31324
31377
31442
31553
31530
31454
31550
31523
31627
31644
31572
31526
31468
31447
31454
31386
31361
31323
31239
31264
31345
31250
31216
31263
31397
31514
31575
31678
31823
31900
31924
31903
31894
31814
31773
31751
31735
31676
31609
31592
31636
31685
31643
31630
31772
31849
31912
31959
31926
31810
31611
31771
31844
31831
31796
31654
31679
31695
31619
31709
31593
31551
31609
31516
31605
31607
31654
31855
31799
32048
32098
32044
31935
31892
31936
31927
31848
31741
31743
31749
31780
31783
31853
31767
31898
31998
31980
32007
32014
32166
32227
32191
32206
32219
32166
32084
32039
31957
31751
31679
31717
31829
31844
31794
31860
31826
31941
32112
32280
32357
32391
32305
32329
32151
32156
32036
31956
31995
32038
32050
32036
32038
32063
32100
32212
32273
32302
32353
32412
32410
32423
32493
32492
32455
32332
32284
32415
32489
32413
32368
32481
32597
32610
32671
32797
32847
32942
33048
33142
33217
33247
33134
33113
33151
33083
33065
33116
33163
33124
33171
33224
33285
33343
33478
33607
33668
33724
33788
33903
33964
34106
34266
34248
34178
34087
33956
33990
33924
33838
33862
33846
33886
34026
34218
34119
34261
34324
34407
34439
34566
34541
34519
34497
34333
34330
34364
34358
34201
34156
34073
34133
34175
34286
34330
34258
34197
34185
34207
34207
34165
34096
33917
33758
33703
33670
33563
33484
33358
33201
33039
32971
32927
32782
32826
32966
33055
32935
32850
32823
32764
32603
32526
32464
32365
32251
32255
32198
32075
31952
32038
31910
31901
31927
31961
31948
31982
32011
32007
31942
31879
31871
31812
31780
31718
31732
31787
31780
31821
31773
31663
31707
31695
31718
31740
31692
31682
31711
31692
31640
31657
31641
31591
31684
31786
31801
31718
31607
31551
31582
31488
31455
31485
31527
31601
31646
31751
31847
31885
31926
31914
31827
31745
31734
31694
31660
31546
31455
31426
31370
31324
31322
31359
31400
31460
31588
31690
31774
31799
31766
31655
31637
31693
31652
31615
31640
31486
31412
31372
31335
31371
31379
31407
31480
31461
31439
31343
31409
31526
31605
31629
31639
31732
31736
31663
31581
31515
31494
31534
31535
31554
31580
31646
31680
31740
31655
31742
31732
31700
31788
31879
31954
31998
31978
31988
31913
31943
31951
31789
31765
31847
31887
32007
32014
32067
32199
32342
32393
32489
32540
32450
32406
32351
32343
32252
32188
32187
32135
32191
32194
32215
32285
32335
32404
32435
32463
32455
32570
32702
32711
32711
32747
32725
32687
32750
32732
32720
32712
32637
32553
32465
32562
32668
32679
32727
32754
32743
32790
32884
32934
32922
32948
32900
32860
32669
32612
32627
32583
32641
32656
32670
32690
32737
32633
32682
32789
32886
32903
32922
32879
33100
33127
33079
32966
32892
32823
32678
32692
32676
32706
32663
32695
32716
32711
32740
32801
32824
32911
32953
33021
32959
33022
33217
33221
33134
33079
33040
32990
33002
33022
33070
33070
33031
32967
32978
33049
33041
32869
33022
33119
33129
33098
33051
33086
33041
33066
33095
32925
32885
32801
32661
32577
32594
32700
32803
32855
32951
33076
33146
33147
33180
33196
33158
33124
33060
33056
33023
32833
32748
32702
32764
32806
32815
32846
32850
32967
33034
33055
33140
33128
33165
33270
33287
33346
33303
33248
33127
33206
33234
33223
33188
33081
32990
33109
33091
33070
33132
33123
33122
33255
33314
33284
33212
33126
33043
33146
33215
33215
33190
33186
33017
33127
33057
33060
33031
32956
33029
33125
33190
33199
33247
33228
33166
33063
33140
33082
33142
33098
32855
32812
32735
32710
32616
32718
32900
33020
33068
33087
33097
33101
33101
33065
32999
32924
32854
32796
32794
32762
32747
32678
32691
32767
32787
32767
32783
32800
32844
32886
32926
32983
33094
33147
33122
32980
32900
32887
32893
32745
32647
32548
32482
32327
32127
31983
31883
31751
31612
31448
31335
31066
30845
30641
30512
30495
30626
30903
31180
31239
31309
31294
31265
31495
31902
32269
32511
32863
33199
33772
34471
35169
35960
36719
37460
38167
38999
39802
40596
41255
41641
41761
41551
41191
40716
40243
39735
39333
38753
38337
37991
37588
37277
36812
36271
35847
35471
35134
34780
34508
34207
33813
33644
33495
33442
33439
33381
33287
33258
33099
33044
33034
32919
32702
32433
32209
32040
31770
31615
31578
31546
31409
31311
31383
31395
31366
31360
31351
31397
31378
31412
31463
31471
31439
31439
31428
31375
31437
31503
31423
31325
31212
31228
31309
31336
31317
31340
31444
31560
31719
31835
31849
31916
31932
31796
31751
31711
31671
31613
31541
31516
31438
31418
31352
31343
31367
31452
31585
31626
31655
31719
31748
31744
31708
31723
31670
31616
31651
31589
31508
31418
31387
31390
31373
31465
31461
31456
31615
31692
31829
31939
31945
31792
31935
31989
31932
31846
31783
31705
31652
31718
31775
31809
31812
31757
31650
31637
31674
31714
31767
31815
31804
31694
31804
31942
31932
31869
31924
31866
31871
31764
31807
31799
31786
31800
31874
31905
32029
32100
32094
32074
32067
32074
32023
31946
31996
31945
31852
31860
31806
31783
31855
31918
31949
31927
31975
32110
32135
32164
32159
32181
32215
32287
32399
32476
32421
32261
32168
32151
31986
32072
32055
32030
32011
32095
32103
32172
32253
32263
32307
32419
32538
32646
32631
32631
32647
32580
32543
32590
32574
32518
32464
32538
32674
32879
32980
33103
33231
33269
33208
33192
33287
33356
33239
33235
33301
33415
33422
33420
33502
33503
33536
33590
33617
33652
33828
33988
34126
34055
34123
34237
34239
34243
34231
34229
34223
34268
34258
34199
34079
34053
34095
33967
33979
33991
34114
34183
34221
34265
34271
34303
34336
34210
34055
34070
34119
34081
34053
33906
33814
33747
33679
33583
33509
33437
33383
33365
33396
33458
33460
33423
33278
33174
33082
32988
32892
32788
32724
32679
32563
32430
32314
32303
32314
32279
32351
32411
32454
32377
32200
32219
32240
32231
32278
32116
32042
32153
31983
31851
31846
31713
31676
31786
31631
31644
31669
31698
31815
31828
31945
32006
32000
31898
31846
31878
31861
31796
31745
31694
31660
31632
31543
31588
31655
31734
31841
31883
31919
31971
32040
31975
31956
31991
31945
31918
31876
31844
31803
31819
31725
31679
31703
31690
31595
31535
31589
31643
31731
31921
31956
31846
31826
31844
31724
31695
31700
31637
31603
31631
31553
31524
31524
31482
31457
31367
31427
31519
31516
31513
31559
31606
31720
31746
31788
31691
31703
31623
31524
31558
31550
31559
31479
31405
31405
31431
31467
31553
31636
31711
31812
31887
31895
31951
31951
31871
31934
31873
31828
31892
31853
31852
31725
31668
31662
31729
31780
31783
31838
31933
32108
32253
32308
32366
32280
32183
32166
32148
32119
32119
32156
32181
32188
32249
32220
32143
32204
32288
32389
32487
32590
32656
32711
32772
32782
32767
32686
32656
32626
32636
32650
32612
32589
32657
32703
32724
32751
32816
32916
32964
32975
33012
33065
33062
32948
32926
32868
32825
32741
32706
32751
32813
32767
32775
32769
32790
32742
32725
32842
32906
32984
33022
33047
33122
33175
33135
33028
32917
32863
32860
32855
32887
32888
32831
32727
32790
32876
32920
32985
33081
33199
33182
33181
33204
33234
33179
33140
33143
33046
32911
32890
32871
32947
32943
32946
33023
33117
33159
33219
33271
33277
33334
33362
33394
33351
33255
33205
33138
33069
32990
32935
32931
32929
32922
32906
32912
32889
32935
32948
33091
33223
33264
33278
33268
33315
33332
33307
33189
33122
33060
32943
32775
32706
32569
32533
32644
32767
32817
32928
33022
33092
33151
33181
33213
33237
33149
33143
33143
33167
33182
33031
32977
32895
32853
32870
32938
32943
32924
32871
32980
33075
33138
33225
33153
33167
33148
33157
33174
33212
33248
33204
33287
33271
33223
33230
33226
33231
33247
33325
33344
33415
33476
33471
33445
33439
33399
33364
33281
33154
33159
33162
33031
33007
33103
33081
32993
32943
33025
33102
33082
33124
33269
33276
33223
33236
33260
33107
33029
32983
32935
32884
32809
32861
32823
32786
32720
32828
32934
32944
32891
32990
33139
33143
33148
33151
33101
33023
33060
33095
33024
32967
32959
32955
32889
32806
32823
32975
33069
33143
33182
33151
33150
33102
33135
33161
33159
33087
33030
32940
32803
32668
32550
32508
32404
32186
31987
31732
31652
31548
31407
31245
31119
31031
30843
30681
30565
30576
30757
30905
31062
31284
31408
31428
31490
31827
32201
32631
33031
33428
33935
34557
35207
36032
36847
37600
38342
39134
39943
40647
41232
41703
41928
41804
41410
40897
40374
39948
39518
39039
38615
38225
37793
37404
36917
36377
35775
35434
35012
34508
34231
34084
33881
33652
33578
33489
33543
33508
33503
33428
33396
33287
33175
33055
32862
32618
32453
32255
32006
31751
31462
31266
31145
31024
31034
31079
31059
31172
31333
31367
31476
31612
31693
31729
31740
31663
31639
31523
31348
31236
31223
31276
31257
31288
31429
31395
31318
31356
31367
31394
31505
31582
31676
31678
31692
31692
31678
31584
31526
31560
31606
31530
31448
31415
31485
31516
31484
31468
31559
31620
31669
31746
31765
31818
31815
31802
31791
31751
31763
31644
31519
31439
31470
31495
31529
31530
31555
31633
31712
31738
31839
31979
32034
32025
31953
31934
31887
31740
31702
31724
31767
31838
31716
31627
31626
31599
31543
31527
31588
31694
31735
31896
32027
32051
31991
31922
31877
31782
31687
31645
31692
31751
31732
31798
31803
31820
31827
31940
31973
32031
32047
32048
32031
32050
32039
32001
32007
31959
31974
31892
31799
31749
31719
31726
31724
31738
31806
31796
31847
31861
31943
32091
32199
32203
32137
32104
32198
32270
32247
32239
32119
32102
31961
31886
31788
31889
32039
32148
32350
32410
32418
32532
32647
32695
32618
32560
32597
32621
32623
32750
32729
32693
32646
32662
32731
32764
32842
32879
32983
33093
33284
33391
33480
33543
33597
33644
33652
33586
33549
33606
33556
33489
33385
33351
33494
33607
33692
33821
33959
34071
34220
34351
34450
34436
34388
34428
34415
34265
34116
34096
34135
34232
34263
34123
34085
34013
34166
34256
34367
34506
34583
34635
34636
34585
34534
34502
34427
34354
34324
34199
34103
33972
33876
33767
33711
33678
33594
33566
33568
33437
33412
33343
33309
33308
33263
33213
33244
33162
33007
32775
32591
32468
32454
32420
32375
32358
32319
32326
32348
32353
32350
32261
32209
32139
32102
32151
32103
32091
32023
31908
31871
31839
31735
31670
31684
31815
31954
31935
32003
31948
31919
31985
31934
31902
31918
31922
31903
31748
31816
31887
31861
31871
31834
31772
31713
31652
31692
31683
31760
31780
31844
31886
31943
31956
31972
31903
31835
31823
31875
31916
31791
31698
31657
31655
31636
31660
31684
31751
31820
31867
31948
32004
32023
32033
31994
31899
31885
31895
31877
31860
31760
31691
31674
31667
31619
31586
31567
31444
31452
31525
31679
31724
31743
31818
31915
31852
31791
31658
31599
31638
31665
31663
31657
31576
31583
31543
31550
31643
31722
31807
31823
31836
31947
32078
32135
32053
31861
31885
31820
31831
31867
31829
31829
31828
31809
31769
31735
31639
31757
31918
31991
32039
32115
32137
32126
32209
32278
32114
32068
32129
32103
32028
32005
32107
32186
32254
32343
32466
32516
32575
32564
32516
32551
32631
32681
32678
32692
32630
32620
32577
32551
32564
32513
32456
32414
32441
32566
32634
32631
32673
32750
32796
32879
32837
32852
32846
32903
32840
32730
32711
32695
32660
32557
32606
32608
32613
32623
32685
32774
32912
32998
33130
33191
33239
33167
33123
33063
33118
33106
33031
33020
32951
32807
32806
32820
32815
32868
32968
33038
33085
33165
33189
33111
32990
32993
33015
32985
32994
32946
32878
32844
32820
32829
32831
32806
32928
32961
32956
32955
32953
33013
32991
32848
32916
33135
33077
32970
33006
33007
33028
32959
32907
32721
32684
32719
32742
32811
32893
32958
32989
32974
32990
33031
33082
33037
33014
33095
33108
33152
33094
32979
32869
32851
32892
32859
32903
32991
33079
33111
33271
33295
33228
33139
33026
33010
32903
32846
32791
32770
32791
32756
32737
32663
32719
32806
32814
32878
32996
33022
33004
32994
32993
33095
33227
33324
33326
33256
33109
32967
32912
32890
32902
32801
32724
32775
32723
32697
32713
32743
32764
32810
32951
33048
33182
33140
33087
33175
33220
33193
33153
33094
33037
33026
32900
32880
32875
32969
33111
33193
33211
33212
33259
33311
33255
33317
33263
33370
33423
33359
33303
33279
33120
33048
32982
32901
32799
32818
32926
32996
33012
33020
33101
33141
33237
33332
33350
33277
33054
32916
32857
32799
32748
32788
32796
32760
32715
32820
32954
33063
33086
33150
33227
33239
33162
33114
32997
32913
32809
32710
32635
32719
32747
32719
32706
32737
32828
32964
32999
33042
33069
33093
33071
33007
33038
33179
33199
33147
33102
32964
32855
32682
32679
32538
32487
32438
32317
32211
32100
31860
31676
31463
31191
30968
30807
30668
30581
30520
30566
30685
30980
31260
31362
31390
31434
31639
31973
32359
32782
33109
33473
33991
34577
35124
35775
36335
37048
37776
38510
39334
40070
40788
41223
41334
41284
41158
40831
40479
40012
39615
39144
38870
38561
38161
37683
37212
36669
36093
35582
35191
34793
34471
34167
33948
33796
33721
33623
33626
33485
33330
33323
33305
33252
33148
33047
32894
32680
32474
32383
32201
31988
31862
31666
31588
31564
31513
31547
31548
31521
31495
31556
31687
31663
31636
31572
31542
31559
31488
31411
31383
31367
31391
31337
31342
31417
31426
31482
31663
